Wavelength	rt0711c00006.asd
350	 4.53481164861386E-02 
351	 4.54004053366553E-02 
352	 4.61945513994676E-02 
353	 4.64958392298688E-02 
354	 4.59036043728321E-02 
355	 4.61011610658679E-02 
356	 4.59526476979898E-02 
357	 4.56914963580067E-02 
358	 4.58366281884716E-02 
359	 4.63335351192711E-02 
360	 4.64986307839434E-02 
361	 4.64593417683019E-02 
362	 4.68101959403988E-02 
363	 0.046840283837021 
364	 4.65033914498066E-02 
365	 4.62167568336283E-02 
366	 4.69601667754722E-02 
367	 4.73199967991786E-02 
368	 4.72064586038789E-02 
369	 4.69623339203237E-02 
370	 0.047046594765424 
371	 4.71865655176327E-02 
372	 4.72453735974298E-02 
373	 4.71948696014369E-02 
374	 4.70893045787566E-02 
375	 4.74720850201134E-02 
376	 4.81924547390683E-02 
377	 4.81455183483104E-02 
378	 4.78273534055258E-02 
379	 4.77514478081508E-02 
380	 4.81492926501701E-02 
381	 4.84226222239065E-02 
382	 0.048432979057895 
383	 4.84878470325796E-02 
384	 4.89524491401424E-02 
385	 4.88607112346624E-02 
386	 4.92189838607035E-02 
387	 4.97860383135267E-02 
388	 4.89152832865649E-02 
389	 4.91716895180502E-02 
390	 4.97346220136498E-02 
391	 4.97096133455166E-02 
392	 0.049658849159045 
393	 5.00018920470976E-02 
394	 5.02778313569714E-02 
395	 4.99954448852916E-02 
396	 5.03668824774648E-02 
397	 5.05728018757546E-02 
398	 0.05045798938387 
399	 5.05145509607394E-02 
400	 5.06785798146743E-02 
401	 5.07552658457852E-02 
402	 5.07224762214774E-02 
403	 5.10198670423104E-02 
404	 0.051019142768869 
405	 5.09135319063224E-02 
406	 0.051090662812695 
407	 5.11495221196283E-02 
408	 5.12000491787256E-02 
409	 5.12515710808391E-02 
410	 5.11967738178128E-02 
411	 5.12289992156574E-02 
412	 5.13581975254712E-02 
413	 5.15317479332756E-02 
414	 5.16454041222064E-02 
415	 5.17250238443464E-02 
416	 5.17962815694112E-02 
417	 5.18902629896068E-02 
418	 5.20464535003748E-02 
419	 5.22481810277105E-02 
420	 5.24181877658182E-02 
421	 5.24298442474093E-02 
422	 0.052454385387274 
423	 5.26431119690396E-02 
424	 5.29701539719227E-02 
425	 5.29162042985759E-02 
426	 5.31646065666327E-02 
427	 5.35178851733783E-02 
428	 5.34786409019501E-02 
429	 5.37298875185111E-02 
430	 5.40277745572556E-02 
431	 5.42553000907845E-02 
432	 5.45456634516752E-02 
433	 0.054616160736765 
434	 5.46759803724694E-02 
435	 5.49319485743212E-02 
436	 5.52774295796986E-02 
437	 5.55216796264378E-02 
438	 5.57429306953636E-02 
439	 0.056120111963781 
440	 5.63188334775702E-02 
441	 5.64010961602597E-02 
442	 5.65053001231913E-02 
443	 5.68157989594287E-02 
444	 5.70683387231731E-02 
445	 5.72784121227037E-02 
446	 5.75050618383431E-02 
447	 0.05765351347476 
448	 0.057803037852868 
449	 0.057945348924439 
450	 5.80207038511312E-02 
451	 5.82068918249926E-02 
452	 5.83446179435137E-02 
453	 5.83786466926561E-02 
454	 5.85738610688855E-02 
455	 5.86641785843082E-02 
456	 5.86400880205617E-02 
457	 5.86047310749761E-02 
458	 5.87176445101439E-02 
459	 0.058739113280723 
460	 5.87219364606796E-02 
461	 5.90047854055116E-02 
462	 5.91296333198519E-02 
463	 5.90601587736827E-02 
464	 5.89495315952233E-02 
465	 5.92504632202379E-02 
466	 5.92798225096768E-02 
467	 5.91558168052349E-02 
468	 5.93292619892252E-02 
469	 5.94863204648486E-02 
470	 5.95345643596132E-02 
471	 5.95203671173938E-02 
472	 5.96431340087675E-02 
473	 5.98291969877711E-02 
474	 5.99717049407381E-02 
475	 6.00340060191308E-02 
476	 6.02739014606565E-02 
477	 6.04342828355815E-02 
478	 6.05022229817585E-02 
479	 6.06264260800035E-02 
480	 6.06904775386708E-02 
481	 6.08438028147458E-02 
482	 6.11179492060491E-02 
483	 6.12329669245309E-02 
484	 0.061423933590789 
485	 6.17114360083427E-02 
486	 0.062007705106932 
487	 6.20965120216076E-02 
488	 6.23192306147957E-02 
489	 6.26789542232176E-02 
490	 6.28453593540166E-02 
491	 6.30988987301776E-02 
492	 6.34282584178714E-02 
493	 6.37460930177168E-02 
494	 6.38992918452807E-02 
495	 6.41922662420979E-02 
496	 6.45986960068593E-02 
497	 0.064932080847813 
498	 6.52277776354143E-02 
499	 0.065570920221145 
500	 6.59876977479937E-02 
501	 6.64072735719782E-02 
502	 6.67904886735073E-02 
503	 6.71590636005378E-02 
504	 6.75326129518682E-02 
505	 6.78078928887838E-02 
506	 6.82151812017341E-02 
507	 6.86922114991645E-02 
508	 6.89681399084181E-02 
509	 0.069396275274326 
510	 0.069875980805944 
511	 0.070283229274008 
512	 7.05923380323369E-02 
513	 7.10673072563258E-02 
514	 7.16411347375218E-02 
515	 7.21095308104476E-02 
516	 7.25074935553465E-02 
517	 7.30413231779189E-02 
518	 7.36877978791542E-02 
519	 7.41342633891224E-02 
520	 7.46585630831611E-02 
521	 7.51852973857144E-02 
522	 7.56549680417359E-02 
523	 7.63439965528386E-02 
524	 7.70144136995724E-02 
525	 7.76480759186084E-02 
526	 7.83737627722775E-02 
527	 0.079025107373501 
528	 7.97188480925385E-02 
529	 8.04805556930124E-02 
530	 0.081066834517853 
531	 8.17799977789818E-02 
532	 8.25776359145877E-02 
533	 8.33117253381415E-02 
534	 8.40577998290592E-02 
535	 8.48019630209853E-02 
536	 8.55622515376253E-02 
537	 8.63910632893868E-02 
538	 8.72341207414029E-02 
539	 8.81068382251853E-02 
540	 8.90017308337691E-02 
541	 8.97909775951409E-02 
542	 9.05204366371263E-02 
543	 0.091287342012294 
544	 9.21920249301355E-02 
545	 9.29926918870269E-02 
546	 9.37460382246028E-02 
547	 9.44961123866804E-02 
548	 9.51786937193262E-02 
549	 9.58973254327528E-02 
550	 0.096658862327953 
551	 9.74311924494397E-02 
552	 9.81892676088809E-02 
553	 9.88844020456165E-02 
554	 9.95402057646886E-02 
555	 0.100256052963899 
556	 0.101014330857462 
557	 0.101710900698807 
558	 0.102294924791992 
559	 0.102981533904195 
560	 0.103676375847924 
561	 0.104357365935277 
562	 0.105047070033129 
563	 0.105697875404067 
564	 0.106319224699757 
565	 0.106902129292337 
566	 0.107387158478288 
567	 0.107856386139977 
568	 0.108308265872655 
569	 0.108720149915909 
570	 0.109149820512389 
571	 0.109510650439632 
572	 0.1097712765017 
573	 0.109972396101178 
574	 0.110352302178986 
575	 0.110754706421358 
576	 0.111000249573354 
577	 0.111167991731697 
578	 0.11129341669778 
579	 0.111400466033978 
580	 0.111503679215164 
581	 0.111638028207955 
582	 0.111671534585527 
583	 0.111584171755802 
584	 0.111592132287951 
585	 0.111624420594209 
586	 0.111596243120136 
587	 0.111451285702193 
588	 0.111394659286274 
589	 0.11119104843524 
590	 0.110874091285709 
591	 0.110750256698948 
592	 0.110457083430076 
593	 0.110077800618379 
594	 0.1097049500655 
595	 0.10914608760968 
596	 0.108548547201179 
597	 0.107875763572893 
598	 0.10703644478137 
599	 0.106433914381421 
600	 0.105899830041355 
601	 0.105361706538937 
602	 0.105041348558179 
603	 0.104756295942474 
604	 0.104585400461323 
605	 0.104619166763105 
606	 0.104568886361885 
607	 0.10449714919397 
608	 0.104484165134804 
609	 0.104597931883941 
610	 0.104536127872037 
611	 0.104436755857093 
612	 0.104437583004101 
613	 0.10438312611707 
614	 0.104318035380703 
615	 0.104279176817894 
616	 0.104284486221874 
617	 0.104202569051426 
618	 0.104137073191201 
619	 0.104111837883355 
620	 0.103979721397043 
621	 0.103863628454979 
622	 0.103850523639764 
623	 0.103951354227934 
624	 0.103887329109989 
625	 0.103827390172971 
626	 0.103806558494166 
627	 0.103723074243839 
628	 0.103707232981147 
629	 0.103639495387708 
630	 0.103468148976376 
631	 0.103442924194034 
632	 0.103414962605676 
633	 0.103404872485323 
634	 0.103475778392255 
635	 0.103389630313533 
636	 0.103274157115618 
637	 0.103208684781982 
638	 0.103151440486147 
639	 0.103075047350045 
640	 0.102984723606666 
641	 0.102906131887031 
642	 0.102906752262691 
643	 0.102797782669521 
644	 0.102621062312753 
645	 0.102594317894251 
646	 0.102489422638001 
647	 0.102377043371048 
648	 0.102303336407919 
649	 0.102122942574849 
650	 0.102009712679483 
651	 0.101848773828486 
652	 0.101471966389214 
653	 0.101104740916921 
654	 0.100729276253852 
655	 0.10025340560154 
656	 9.95844972902308E-02 
657	 9.90039066171509E-02 
658	 9.84704704297374E-02 
659	 9.79203930047826E-02 
660	 9.75093558051368E-02 
661	 9.72428094487704E-02 
662	 9.69749858518274E-02 
663	 9.65149718282157E-02 
664	 9.62219764696711E-02 
665	 9.59899034525028E-02 
666	 9.57368390081041E-02 
667	 9.55456767754103E-02 
668	 9.52993469222315E-02 
669	 9.51007240678592E-02 
670	 9.50567919389608E-02 
671	 0.09491011795529 
672	 9.47775167857196E-02 
673	 9.46949884499699E-02 
674	 0.094614111143313 
675	 9.46632495895518E-02 
676	 9.47744320798563E-02 
677	 9.48585880298029E-02 
678	 9.48523805031306E-02 
679	 9.49841587211505E-02 
680	 9.52202826229372E-02 
681	 9.54091450132706E-02 
682	 0.095528160432145 
683	 9.57078472169508E-02 
684	 9.60109606272345E-02 
685	 0.096428843448799 
686	 9.66467390093366E-02 
687	 9.67208794557923E-02 
688	 9.68206656770272E-02 
689	 9.69354430025191E-02 
690	 9.68482732212045E-02 
691	 9.66735208688838E-02 
692	 9.66711097775866E-02 
693	 9.64093674779466E-02 
694	 9.60158769815729E-02 
695	 9.56164670151841E-02 
696	 9.51450281819389E-02 
697	 9.46717564457083E-02 
698	 9.41268789125361E-02 
699	 9.34652785207705E-02 
700	 9.28222686747896E-02 
701	 9.21721719408441E-02 
702	 9.14356871576573E-02 
703	 9.05069242293591E-02 
704	 8.97044089525897E-02 
705	 8.88118985349441E-02 
706	 8.77201532389779E-02 
707	 8.66723837516804E-02 
708	 8.56060791845302E-02 
709	 8.44112542058391E-02 
710	 8.30018252025531E-02 
711	 8.15874554265249E-02 
712	 0.080120635759789 
713	 7.86086717734761E-02 
714	 7.70954999610578E-02 
715	 7.56176557891216E-02 
716	 0.074086339643333 
717	 7.24593529481113E-02 
718	 7.05734258047666E-02 
719	 6.84254313700555E-02 
720	 6.64941731609303E-02 
721	 6.48780348553033E-02 
722	 6.34434882591763E-02 
723	 6.18718424924177E-02 
724	 6.01470031536054E-02 
725	 5.82390560894434E-02 
726	 0.056219740332463 
727	 5.41591078386321E-02 
728	 5.20861502120798E-02 
729	 4.97974342353078E-02 
730	 4.75594796826396E-02 
731	 4.55189994259341E-02 
732	 4.36445649263285E-02 
733	 4.19647254348356E-02 
734	 4.06673851592943E-02 
735	 3.96910248584008E-02 
736	 3.86080823099224E-02 
737	 3.79547187976509E-02 
738	 3.74878129515142E-02 
739	 3.69682650564892E-02 
740	 3.67371400988122E-02 
741	 3.65351990132572E-02 
742	 3.63362581759531E-02 
743	 3.62265263206068E-02 
744	 3.61237958520116E-02 
745	 3.60992844833951E-02 
746	 3.61236741986103E-02 
747	 3.60167085295659E-02 
748	 3.58940070479668E-02 
749	 3.58529718670796E-02 
750	 3.59114397635793E-02 
751	 0.035839640946309 
752	 3.58505815202095E-02 
753	 3.59211697233937E-02 
754	 3.59101578625492E-02 
755	 3.58851853005653E-02 
756	 3.58016828197383E-02 
757	 0.035744539628952 
758	 3.60926262680803E-02 
759	 3.67269386939429E-02 
760	 0.037288327155949 
761	 0.037159956156108 
762	 3.70261203346451E-02 
763	 3.71351174963445E-02 
764	 3.70469150130674E-02 
765	 3.64561608789192E-02 
766	 3.63277296802171E-02 
767	 3.63684836687156E-02 
768	 3.64411464421465E-02 
769	 3.65706922933668E-02 
770	 3.66580903820523E-02 
771	 3.68045040580862E-02 
772	 3.70368092759118E-02 
773	 3.70597392142933E-02 
774	 0.037149401079957 
775	 3.73816454035483E-02 
776	 3.77044828241405E-02 
777	 0.037894757758862 
778	 3.80662047415115E-02 
779	 3.83115533574519E-02 
780	 3.86608531210585E-02 
781	 0.038862682752875 
782	 3.90642578652126E-02 
783	 3.93583913891669E-02 
784	 3.95343381311031E-02 
785	 3.98200787366924E-02 
786	 4.02234035586099E-02 
787	 4.06306964228661E-02 
788	 4.07613518368848E-02 
789	 4.10889010963047E-02 
790	 4.16307804356442E-02 
791	 4.20263083812502E-02 
792	 4.24037798704361E-02 
793	 4.26928690078423E-02 
794	 4.29177914121033E-02 
795	 4.32815503987371E-02 
796	 4.36343348140154E-02 
797	 4.39586698122175E-02 
798	 4.42643496659209E-02 
799	 4.44714079545749E-02 
800	 4.48025264538944E-02 
801	 4.51349516602514E-02 
802	 0.045211111409173 
803	 0.045316156693219 
804	 4.54606167044507E-02 
805	 4.55633238991167E-02 
806	 4.54868975649988E-02 
807	 0.045499845028365 
808	 4.55296969176349E-02 
809	 4.54913976602593E-02 
810	 4.54589858806567E-02 
811	 4.52949068996374E-02 
812	 4.50880473114793E-02 
813	 4.49615828627284E-02 
814	 4.45922136700851E-02 
815	 0.044335299030814 
816	 4.41011842499746E-02 
817	 4.34673781268888E-02 
818	 4.26740284652303E-02 
819	 4.19655513996658E-02 
820	 4.13778233045685E-02 
821	 4.07612508628547E-02 
822	 3.98644961548379E-02 
823	 3.87037101847043E-02 
824	 3.74510368085254E-02 
825	 3.62417414757172E-02 
826	 3.50294848027898E-02 
827	 3.37850781234295E-02 
828	 3.25706895019799E-02 
829	 3.15028648179929E-02 
830	 3.02603652944207E-02 
831	 2.90966028566999E-02 
832	 2.85966568360197E-02 
833	 2.78140647455568E-02 
834	 2.73532458779181E-02 
835	 2.72479350124542E-02 
836	 2.65955805866998E-02 
837	 2.61701354501663E-02 
838	 2.59365832020706E-02 
839	 2.57401608975649E-02 
840	 0.025601654000169 
841	 2.54486404789227E-02 
842	 2.52141092395722E-02 
843	 2.49213418397937E-02 
844	 2.49709390248996E-02 
845	 2.48706930512626E-02 
846	 2.45809940885914E-02 
847	 0.024382306448467 
848	 2.41679754317176E-02 
849	 2.40416879279605E-02 
850	 2.39343395560343E-02 
851	 2.35686992862675E-02 
852	 2.35961131392553E-02 
853	 2.36664808561804E-02 
854	 0.023450695532814 
855	 2.31221165559144E-02 
856	 2.31934553823907E-02 
857	 2.32231527833842E-02 
858	 2.28322770922547E-02 
859	 2.28802474408755E-02 
860	 2.28369358764011E-02 
861	 2.26847748045322E-02 
862	 2.26214155738811E-02 
863	 2.24004811862815E-02 
864	 2.22103548808271E-02 
865	 2.21223289324115E-02 
866	 2.20515422604736E-02 
867	 2.17522765148774E-02 
868	 2.17799275188695E-02 
869	 2.20133301435087E-02 
870	 2.13947961637066E-02 
871	 2.12078509567809E-02 
872	 2.12182680169242E-02 
873	 2.10992118235678E-02 
874	 2.10783669339198E-02 
875	 2.10804892313237E-02 
876	 2.09781591481864E-02 
877	 2.07170191097403E-02 
878	 2.05308334241963E-02 
879	 2.05031568010958E-02 
880	 2.05378542722357E-02 
881	 0.020432228152091 
882	 1.99378291890271E-02 
883	 1.97852518498483E-02 
884	 1.99620427381462E-02 
885	 1.98706464431166E-02 
886	 1.94001262807425E-02 
887	 1.91510231323134E-02 
888	 1.93082027240479E-02 
889	 1.94864715059191E-02 
890	 0.019584776179434 
891	 1.95551840350763E-02 
892	 1.94082663350434E-02 
893	 1.92249882532071E-02 
894	 1.90541480100977E-02 
895	 1.92071573843391E-02 
896	 1.97188516151798E-02 
897	 1.96235366744058E-02 
898	 1.93367086618033E-02 
899	 1.94638216007506E-02 
900	 2.00612054609084E-02 
901	 1.93160200786127E-02 
902	 1.88750009742744E-02 
903	 0.01887008090034 
904	 1.88150362279436E-02 
905	 1.84505424836765E-02 
906	 1.83315548800943E-02 
907	 1.88828808020321E-02 
908	 1.99947451860295E-02 
909	 1.90343315458697E-02 
910	 1.84905395810844E-02 
911	 1.89150512332728E-02 
912	 1.87354699584613E-02 
913	 1.82310778347248E-02 
914	 1.83435420038941E-02 
915	 0.018739731063403 
916	 1.78454454551414E-02 
917	 1.78338258914366E-02 
918	 1.80507222208249E-02 
919	 1.79565924713976E-02 
920	 1.77540400879287E-02 
921	 1.74017129048516E-02 
922	 1.74472918313947E-02 
923	 1.78423320763392E-02 
924	 1.70980083702126E-02 
925	 1.70937928682058E-02 
926	 1.73347613944123E-02 
927	 1.70365580150341E-02 
928	 1.71509542405011E-02 
929	 1.75739548405214E-02 
930	 1.79109859856964E-02 
931	 1.79610994362779E-02 
932	 2.03382893635772E-02 
933	 2.00282540860689E-02 
934	 1.75420923668856E-02 
935	 1.67580444744177E-02 
936	 1.79846751258842E-02 
937	 1.88485282839485E-02 
938	 1.85521352114888E-02 
939	 1.73887552350268E-02 
940	 1.68768471136324E-02 
941	 1.69328187436857E-02 
942	 1.88392488544942E-02 
943	 2.28707909187761E-02 
944	 1.99511172442358E-02 
945	 1.72625978642772E-02 
946	 1.63161066236524E-02 
947	 1.49595697464474E-02 
948	 1.72676149595643E-02 
949	 1.76770840504658E-02 
950	 1.66897756652288E-02 
951	 1.82619607970435E-02 
952	 2.03401431808732E-02 
953	 1.96730738443323E-02 
954	 0.018396735629584 
955	 2.06474533937832E-02 
956	 1.78673406758947E-02 
957	 1.49355764114927E-02 
958	 1.52641848070866E-02 
959	 1.88876528574929E-02 
960	 1.92738952888066E-02 
961	 1.78945337269941E-02 
962	 1.67843091103302E-02 
963	 1.72321929473866E-02 
964	 1.77828556196781E-02 
965	 1.92212598168163E-02 
966	 1.95741217923638E-02 
967	 1.60449091077861E-02 
968	 0.015618927706042 
969	 1.72679875041486E-02 
970	 1.79733715750481E-02 
971	 1.50479365239783E-02 
972	 1.71313065263788E-02 
973	 1.79563500995459E-02 
974	 0.016077705049308 
975	 1.60885117323548E-02 
976	 1.71410086567663E-02 
977	 0.017988306027766 
978	 1.74748144986903E-02 
979	 1.53265330985679E-02 
980	 1.54111576263087E-02 
981	 1.62646412037223E-02 
982	 1.62869856790929E-02 
983	 1.49986069469049E-02 
984	 1.68567470591645E-02 
985	 1.76311631671158E-02 
986	 1.61876056679799E-02 
987	 1.48683876602531E-02 
988	 1.66784559582524E-02 
989	 1.59443927376387E-02 
990	 1.35603682427448E-02 
991	 1.49898003444117E-02 
992	 1.63931218918026E-02 
993	 1.74537367755865E-02 
994	 1.67843510058296E-02 
995	 1.35317325997802E-02 
996	 1.46656735409748E-02 
997	 1.47790545373668E-02 
998	 1.46031538621243E-02 
999	 1.75129561289939E-02 
1000	 1.61823638433093E-02 
1001	 1.14600016283877E-02 
1002	 1.09075987290022E-02 
1003	 1.08060136823418E-02 
1004	 1.09148106537614E-02 
1005	 1.09680100895155E-02 
1006	 1.11043694231287E-02 
1007	 0.01142684836145 
1008	 1.14514322458425E-02 
1009	 1.12761564009951E-02 
1010	 1.09614658409803E-02 
1011	 0.010655346695122 
1012	 1.07177362380748E-02 
1013	 1.07993553661334E-02 
1014	 1.07967975033015E-02 
1015	 0.010969931567042 
1016	 0.010907502351258 
1017	 1.04237126285634E-02 
1018	 1.04138935852351E-02 
1019	 1.05595695938401E-02 
1020	 1.07339530713543E-02 
1021	 1.11970542708347E-02 
1022	 1.16378401918792E-02 
1023	 1.17060384474652E-02 
1024	 1.15684515998873E-02 
1025	 1.11711201631244E-02 
1026	 1.07865920794167E-02 
1027	 1.06262940932768E-02 
1028	 1.04594180032347E-02 
1029	 1.05733977898274E-02 
1030	 1.10403241899308E-02 
1031	 1.12032558245014E-02 
1032	 1.14281406449469E-02 
1033	 1.15668928268966E-02 
1034	 1.15063951028851E-02 
1035	 1.15839812066496E-02 
1036	 1.16986726750087E-02 
1037	 1.18674342479413E-02 
1038	 0.012242974099013 
1039	 1.23004475103626E-02 
1040	 1.25266986807404E-02 
1041	 1.24706466441581E-02 
1042	 1.22914671904744E-02 
1043	 1.17490594099649E-02 
1044	 1.17071338618952E-02 
1045	 1.17719436646676E-02 
1046	 1.17358399753111E-02 
1047	 0.011814755604038 
1048	 1.19655303480337E-02 
1049	 0.012170817864171 
1050	 1.21919641214594E-02 
1051	 1.24333004137353E-02 
1052	 1.23795754675392E-02 
1053	 1.17599502509814E-02 
1054	 1.14713501762467E-02 
1055	 1.12467579243066E-02 
1056	 1.10866347508825E-02 
1057	 0.011011126497534 
1058	 0.011069274298192 
1059	 1.11245540493451E-02 
1060	 1.12016545230031E-02 
1061	 1.13773175347018E-02 
1062	 1.16475768942071E-02 
1063	 1.19186474957325E-02 
1064	 1.24343568394812E-02 
1065	 1.25821898541222E-02 
1066	 1.27027040881533E-02 
1067	 1.25688323751267E-02 
1068	 1.17797119799458E-02 
1069	 1.15427740113142E-02 
1070	 0.011452668840915 
1071	 1.13721483201752E-02 
1072	 0.011632960594574 
1073	 1.19088904865711E-02 
1074	 1.18336623420127E-02 
1075	 1.14360698142342E-02 
1076	 1.14211582071197E-02 
1077	 0.011245049513872 
1078	 1.14685101184365E-02 
1079	 1.22927795245299E-02 
1080	 0.01251762968955 
1081	 0.012773963052697 
1082	 1.27157822391196E-02 
1083	 1.18343757348141E-02 
1084	 1.17580465736539E-02 
1085	 1.20259461436988E-02 
1086	 1.21979263023737E-02 
1087	 1.31503037658578E-02 
1088	 1.33763779005779E-02 
1089	 1.31612247838232E-02 
1090	 1.25472366079066E-02 
1091	 1.22575924558925E-02 
1092	 1.16803265758854E-02 
1093	 1.15274087820996E-02 
1094	 1.16891347802735E-02 
1095	 0.011895499238469 
1096	 1.23511998766727E-02 
1097	 1.25041983290765E-02 
1098	 1.26672901092893E-02 
1099	 1.28067661157125E-02 
1100	 1.27012237389009E-02 
1101	 1.27116921129272E-02 
1102	 0.0131834352879 
1103	 1.31832586717034E-02 
1104	 1.27048555539171E-02 
1105	 1.21603880881093E-02 
1106	 1.28505112052185E-02 
1107	 1.27288431408727E-02 
1108	 1.27562132420943E-02 
1109	 1.38026009310139E-02 
1110	 1.39996637995234E-02 
1111	 0.012768542897668 
1112	 1.30810930762471E-02 
1113	 1.48680355743996E-02 
1114	 0.01529308340938 
1115	 1.59699715114941E-02 
1116	 1.62959880838632E-02 
1117	 1.42077044125944E-02 
1118	 1.34574586958267E-02 
1119	 1.39424073361778E-02 
1120	 1.41513426603451E-02 
1121	 1.44246474073982E-02 
1122	 1.62350749572055E-02 
1123	 1.67349366849025E-02 
1124	 1.58593282856338E-02 
1125	 1.77125508033139E-02 
1126	 1.82732551299743E-02 
1127	 1.77356757639095E-02 
1128	 1.76691616133109E-02 
1129	 0.017294954037018 
1130	 1.52239081876117E-02 
1131	 1.50567815060163E-02 
1132	 1.63973317198091E-02 
1133	 1.67902482066037E-02 
1134	 1.68053780720549E-02 
1135	 1.60819074843809E-02 
1136	 1.48773224656553E-02 
1137	 1.48624319382032E-02 
1138	 1.50414215005957E-02 
1139	 0.014919433879957 
1140	 1.58056787436381E-02 
1141	 1.58177847442582E-02 
1142	 1.33486035020277E-02 
1143	 1.25978307527516E-02 
1144	 1.46975547400217E-02 
1145	 1.56308160888061E-02 
1146	 1.66817711100412E-02 
1147	 1.73780738870181E-02 
1148	 0.015298533000413 
1149	 1.42690881887472E-02 
1150	 1.39698310906687E-02 
1151	 1.48437761075593E-02 
1152	 1.48326953441128E-02 
1153	 1.39204075817432E-02 
1154	 1.41338900765852E-02 
1155	 1.47530991361493E-02 
1156	 1.54869490172794E-02 
1157	 1.48758410978848E-02 
1158	 1.47132550431689E-02 
1159	 1.40860871187088E-02 
1160	 1.33610046725361E-02 
1161	 1.36481478860862E-02 
1162	 1.40377953615294E-02 
1163	 1.40016693116807E-02 
1164	 0.013620326661766 
1165	 1.31837374677943E-02 
1166	 1.32361713362091E-02 
1167	 1.34609327393668E-02 
1168	 0.013497135682416 
1169	 1.37433194940524E-02 
1170	 1.40175877861765E-02 
1171	 1.39077790054044E-02 
1172	 1.32386398067899E-02 
1173	 1.31808018328442E-02 
1174	 1.32471057610494E-02 
1175	 1.31978617077871E-02 
1176	 1.32029044040202E-02 
1177	 1.34624496604587E-02 
1178	 1.34128995809215E-02 
1179	 1.33557615376638E-02 
1180	 1.36596079778006E-02 
1181	 1.37834362780638E-02 
1182	 1.38540505939808E-02 
1183	 0.013671626868954 
1184	 1.32416268449501E-02 
1185	 1.33074231703783E-02 
1186	 1.34416774364093E-02 
1187	 0.013615391270573 
1188	 1.40508265674315E-02 
1189	 1.39527910497203E-02 
1190	 1.34490717482545E-02 
1191	 1.33998592686353E-02 
1192	 1.34160273500577E-02 
1193	 1.35122914442179E-02 
1194	 1.35574015105357E-02 
1195	 1.37560291206956E-02 
1196	 1.36948424607971E-02 
1197	 1.33552901494742E-02 
1198	 1.34449464187311E-02 
1199	 1.37863213082566E-02 
1200	 1.38357727945269E-02 
1201	 1.38922164524064E-02 
1202	 1.39193021811891E-02 
1203	 1.38075961710039E-02 
1204	 1.38207395188222E-02 
1205	 1.37242718204654E-02 
1206	 1.34914702467425E-02 
1207	 1.35210146748424E-02 
1208	 1.35816435375184E-02 
1209	 1.36256756578663E-02 
1210	 1.40214929765891E-02 
1211	 1.41699306017419E-02 
1212	 1.39140056960122E-02 
1213	 1.37534932335799E-02 
1214	 1.37483750316947E-02 
1215	 0.013706458186456 
1216	 1.38462045496495E-02 
1217	 0.013944542138438 
1218	 1.38895800764212E-02 
1219	 1.36944162756509E-02 
1220	 1.35529696088956E-02 
1221	 1.39362431416793E-02 
1222	 1.40612850978443E-02 
1223	 1.37218484129795E-02 
1224	 1.35741480780847E-02 
1225	 1.34596207048074E-02 
1226	 1.35047751858293E-02 
1227	 1.38383513412577E-02 
1228	 0.013826574677426 
1229	 1.36054296847391E-02 
1230	 1.37152056500192E-02 
1231	 1.37310345582424E-02 
1232	 1.37421204331591E-02 
1233	 1.39275648745407E-02 
1234	 1.35948853431815E-02 
1235	 1.34941667891745E-02 
1236	 1.37773873287426E-02 
1237	 1.38395601141358E-02 
1238	 1.37238685117959E-02 
1239	 0.013684382244065 
1240	 1.37562230629953E-02 
1241	 1.34363368047537E-02 
1242	 1.34264958683599E-02 
1243	 1.37505214819026E-02 
1244	 1.35549586134475E-02 
1245	 0.013012463044651 
1246	 1.30714420945587E-02 
1247	 1.33446825881799E-02 
1248	 1.34210766634372E-02 
1249	 1.38876290311071E-02 
1250	 1.40138817838504E-02 
1251	 1.35312153410561E-02 
1252	 1.35278538891952E-02 
1253	 1.37707442724079E-02 
1254	 1.38003101472898E-02 
1255	 1.37775662598845E-02 
1256	 1.38154488992922E-02 
1257	 1.38820830964951E-02 
1258	 1.39261408235755E-02 
1259	 1.39699499209731E-02 
1260	 1.41119251078595E-02 
1261	 1.43118665158024E-02 
1262	 1.42858593521953E-02 
1263	 0.01418494637035 
1264	 0.014284609478999 
1265	 1.41766571529213E-02 
1266	 1.40594840349342E-02 
1267	 1.41463967271969E-02 
1268	 1.40648872702627E-02 
1269	 1.40502580834529E-02 
1270	 1.42034086449227E-02 
1271	 1.41274088308581E-02 
1272	 1.41273571632018E-02 
1273	 0.014196066030296 
1274	 1.40873332495987E-02 
1275	 1.42254344468449E-02 
1276	 1.45313779102109E-02 
1277	 1.44632964383588E-02 
1278	 1.41420861153215E-02 
1279	 1.39542605736804E-02 
1280	 1.39914575858414E-02 
1281	 1.41146898024621E-02 
1282	 1.45610412881591E-02 
1283	 1.45611648319809E-02 
1284	 1.43444602045964E-02 
1285	 1.43596814245056E-02 
1286	 1.42475606349953E-02 
1287	 1.41450723750946E-02 
1288	 1.42487510793729E-02 
1289	 0.014355191513346 
1290	 1.43063178775036E-02 
1291	 1.43587660454392E-02 
1292	 1.44510592133787E-02 
1293	 1.42988587997333E-02 
1294	 1.39983159465985E-02 
1295	 1.37884764434891E-02 
1296	 0.013843039607166 
1297	 1.42157525551181E-02 
1298	 1.41715746839759E-02 
1299	 1.38369927493996E-02 
1300	 1.40453617058649E-02 
1301	 1.40850567343189E-02 
1302	 1.38069820974348E-02 
1303	 1.38990537802996E-02 
1304	 1.40218936568797E-02 
1305	 1.39921089285962E-02 
1306	 1.40493514492027E-02 
1307	 1.45982388336584E-02 
1308	 1.48505519457709E-02 
1309	 1.48481473865118E-02 
1310	 1.47289401982409E-02 
1311	 1.43494097320398E-02 
1312	 1.45093474406007E-02 
1313	 1.49749630590897E-02 
1314	 1.50007387098696E-02 
1315	 1.51992620228417E-02 
1316	 1.53825293116983E-02 
1317	 1.51188029088261E-02 
1318	 1.48078899503555E-02 
1319	 1.44017508204103E-02 
1320	 1.45388159116266E-02 
1321	 0.014714896792262 
1322	 1.50486312430233E-02 
1323	 0.015528072504498 
1324	 1.62841753086311E-02 
1325	 1.59016986255196E-02 
1326	 1.48178600698974E-02 
1327	 1.52268173471561E-02 
1328	 1.60026446999972E-02 
1329	 1.60074368416634E-02 
1330	 1.61485605884785E-02 
1331	 1.60607889987732E-02 
1332	 1.56735867078092E-02 
1333	 1.55908240149798E-02 
1334	 1.56507040913425E-02 
1335	 1.57126425707342E-02 
1336	 1.49950396658789E-02 
1337	 1.46001383336991E-02 
1338	 1.47129495410934E-02 
1339	 1.52680352349917E-02 
1340	 1.59671290794843E-02 
1341	 1.60547239946659E-02 
1342	 1.70972613702249E-02 
1343	 1.74892226499901E-02 
1344	 0.015459251161387 
1345	 1.51661110347775E-02 
1346	 1.75727772022684E-02 
1347	 1.76753205865731E-02 
1348	 1.45607403340233E-02 
1349	 1.47845311758431E-02 
1350	 1.92741627352324E-02 
1351	 1.92993206877647E-02 
1352	 2.03495445521761E-02 
1353	 2.19800947171827E-02 
1354	 7.17563163452198E-03 
1355	-1.97377141312213E-02 
1356	-0.012784378872668 
1357	-1.01659282553939E-03 
1358	 1.55286384687781E-02 
1359	 3.02478798917378E-02 
1360	 1.96717012840869E-02 
1361	 1.58309148090491E-02 
1362	 0.131639011633038 
1363	 0.209921844253444 
1364	 7.30785047482486E-02 
1365	 3.37683675934841E-02 
1366	-5.03394412202936E-02 
1367	-0.270465419160305 
1368	-0.232484908527286 
1369	 0.258240912938487 
1370	 0.281377149095969 
1371	 0.076884034461028 
1372	 6.50783702723767E-02 
1373	-0.114609677284704 
1374	-0.113657346475507 
1375	 0.26127769480169 
1376	 0.384296464409142 
1377	 0.273322629999431 
1378	 0.32320088694261 
1379	 0.578917315445661 
1380	 0.672691536051269 
1381	 0.891080171636353 
1382	 0.840173113897726 
1383	 0.286041163553354 
1384	 0.298126213137652 
1385	 0.697064269604026 
1386	 0.706858316236696 
1387	 0.652716861898161 
1388	 0.560683528359782 
1389	-5.57315453343661E-02 
1390	-0.244381168004351 
1391	-0.129888127857099 
1392	 0.178767784958694 
1393	 0.494452427974533 
1394	 0.332621272038572 
1395	 0.171063156893867 
1396	 0.137257162189638 
1397	 0.021536128422356 
1398	-6.52245444702444E-02 
1399	 0.217282977915031 
1400	 0.614321173144077 
1401	 0.461176609219837 
1402	 0.428954503882219 
1403	 0.488741334580691 
1404	 0.212641112312601 
1405	 0.112464590945422 
1406	 0.186544043914811 
1407	 0.204774893381115 
1408	 0.111930938620666 
1409	 8.34690997664025E-02 
1410	 0.126095422803946 
1411	 0.151079729383792 
1412	 0.16650048322455 
1413	 0.140554565308669 
1414	 0.119971436399593 
1415	 9.22660584811853E-02 
1416	 2.10190132816014E-02 
1417	 1.21176954923595E-02 
1418	 4.24070166124789E-02 
1419	 4.27537615372436E-02 
1420	 4.25838830046542E-02 
1421	 4.34450441385785E-02 
1422	 3.74589055377392E-02 
1423	 0.03604163787108 
1424	 3.66434173991686E-02 
1425	 3.62711282853938E-02 
1426	 4.12969363952836E-02 
1427	 3.71258315614934E-02 
1428	 2.59828512095663E-02 
1429	 2.28439263181485E-02 
1430	 1.68959087569298E-02 
1431	 0.015337071722652 
1432	 2.30869779963967E-02 
1433	 2.28972820283571E-02 
1434	 0.01661475310386 
1435	 1.56590097951726E-02 
1436	 1.54613380536213E-02 
1437	 1.51488979352373E-02 
1438	 1.75203865071357E-02 
1439	 2.23052466451231E-02 
1440	 0.024583728429896 
1441	 2.03795191667951E-02 
1442	 1.90502329826279E-02 
1443	 0.022861969738463 
1444	 2.57955177883393E-02 
1445	 2.36025096350043E-02 
1446	 2.28406262807832E-02 
1447	 0.022525105916704 
1448	 1.84621087937445E-02 
1449	 0.018158986212233 
1450	 1.89347331854581E-02 
1451	 1.57309304931358E-02 
1452	 1.29774698357992E-02 
1453	 1.36812736623059E-02 
1454	 1.41950433518731E-02 
1455	 1.51630538487575E-02 
1456	 1.47052131274707E-02 
1457	 1.39858424640922E-02 
1458	 0.015069352467456 
1459	 0.016538282936127 
1460	 1.63916494278088E-02 
1461	 1.71833912142372E-02 
1462	 1.74981059854679E-02 
1463	 1.54088854371542E-02 
1464	 1.46528604893335E-02 
1465	 1.58945990015922E-02 
1466	 1.60363456801569E-02 
1467	 1.47714544148268E-02 
1468	 1.42114656788347E-02 
1469	 1.43774954678217E-02 
1470	 1.43033001629783E-02 
1471	 1.38938193510745E-02 
1472	 1.36825624876495E-02 
1473	 1.34692137489517E-02 
1474	 0.013948421718758 
1475	 1.54031603807592E-02 
1476	 1.49592050861757E-02 
1477	 1.34623979595742E-02 
1478	 0.013732975985666 
1479	 1.40912693297522E-02 
1480	 1.40827868718498E-02 
1481	 1.49082158331764E-02 
1482	 1.54355916619674E-02 
1483	 1.57354417663996E-02 
1484	 1.50365037456825E-02 
1485	 1.36551398896086E-02 
1486	 1.36206096245835E-02 
1487	 1.35279974981632E-02 
1488	 1.32031552074229E-02 
1489	 0.013899087502973 
1490	 1.40673073658483E-02 
1491	 1.32197110425482E-02 
1492	 1.29892964105667E-02 
1493	 1.32384659109519E-02 
1494	 1.33503104544183E-02 
1495	 1.36634129696281E-02 
1496	 1.35049903626659E-02 
1497	 1.29718613433428E-02 
1498	 1.28165227058019E-02 
1499	 1.25726843765193E-02 
1500	 1.24097939055626E-02 
1501	 1.24299450207363E-02 
1502	 1.26143751462757E-02 
1503	 1.31088705808384E-02 
1504	 1.30489467185627E-02 
1505	 1.29705169880007E-02 
1506	 1.25936478546052E-02 
1507	 1.21897570567964E-02 
1508	 1.22152053075055E-02 
1509	 1.22338655147806E-02 
1510	 1.21500398084881E-02 
1511	 1.21616294756455E-02 
1512	 1.21857773383758E-02 
1513	 1.23076676276033E-02 
1514	 0.012701233016581 
1515	 1.28178335064481E-02 
1516	 1.26272619846062E-02 
1517	 1.27356483125864E-02 
1518	 1.27050106644759E-02 
1519	 0.012358187176902 
1520	 1.23374344238645E-02 
1521	 1.25147583995503E-02 
1522	 0.012480666971403 
1523	 1.23576808598697E-02 
1524	 1.22875233606084E-02 
1525	 1.22432189558423E-02 
1526	 1.21868201914746E-02 
1527	 1.20717439526024E-02 
1528	 0.012041141501467 
1529	 1.21691867590185E-02 
1530	 1.22644258124324E-02 
1531	 1.23476203503721E-02 
1532	 1.22881192015625E-02 
1533	 1.21461846853552E-02 
1534	 1.20709779143205E-02 
1535	 1.20839663327829E-02 
1536	 1.22613967118129E-02 
1537	 0.012148173024266 
1538	 0.012056887795077 
1539	 0.012267777103167 
1540	 1.22664490081881E-02 
1541	 1.23639916322409E-02 
1542	 1.23984748044821E-02 
1543	 1.20472502698414E-02 
1544	 1.19997661993887E-02 
1545	 1.21203648128876E-02 
1546	 1.20429498866369E-02 
1547	 1.21076888978063E-02 
1548	 0.012186170385005 
1549	 1.19644357187106E-02 
1550	 1.18427943914297E-02 
1551	 0.01211911318272 
1552	 1.21300734989643E-02 
1553	 1.16634670001029E-02 
1554	 1.15566348739684E-02 
1555	 1.17284561030294E-02 
1556	 1.15800617206863E-02 
1557	 1.17747835670687E-02 
1558	 1.21707792522346E-02 
1559	 1.19556132495699E-02 
1560	 1.17417230239428E-02 
1561	 1.18701597568598E-02 
1562	 1.18699663212519E-02 
1563	 1.18242816846882E-02 
1564	 1.21026140357613E-02 
1565	 1.23578396938023E-02 
1566	 1.21528030043848E-02 
1567	 1.19355648240135E-02 
1568	 1.19869642585499E-02 
1569	 1.21748370561905E-02 
1570	 1.23039621782863E-02 
1571	 1.21744724358709E-02 
1572	 1.22295991587681E-02 
1573	 1.22713396575341E-02 
1574	 1.20391129729322E-02 
1575	 1.21590868696486E-02 
1576	 1.23074061604622E-02 
1577	 1.20006185637958E-02 
1578	 0.011689112280062 
1579	 1.17388668663469E-02 
1580	 1.20167477268661E-02 
1581	 1.21656492750067E-02 
1582	 1.22305428344285E-02 
1583	 1.22580921177769E-02 
1584	 1.20626486825065E-02 
1585	 1.18321936394002E-02 
1586	 1.18065109790137E-02 
1587	 1.20226294150402E-02 
1588	 1.20080940348659E-02 
1589	 0.011930576354813 
1590	 1.23265918028032E-02 
1591	 1.24557907351685E-02 
1592	 1.21218382571932E-02 
1593	 1.20118135241471E-02 
1594	 1.21635817500724E-02 
1595	 1.21031235509564E-02 
1596	 1.19061702822811E-02 
1597	 1.21301538334339E-02 
1598	 1.23325330161836E-02 
1599	 0.012284987939758 
1600	 1.24855781262171E-02 
1601	 1.26451679500846E-02 
1602	 1.23563522801186E-02 
1603	 1.18941849433304E-02 
1604	 0.011827933474609 
1605	 1.17114408363694E-02 
1606	 1.13453822695098E-02 
1607	 1.14320907910733E-02 
1608	 1.18689119765356E-02 
1609	 1.22285724548396E-02 
1610	 1.22678940945449E-02 
1611	 1.21712422252067E-02 
1612	 1.21688442234846E-02 
1613	 1.21761760725143E-02 
1614	 1.20775669605284E-02 
1615	 1.21457786504821E-02 
1616	 1.24332802383713E-02 
1617	 1.24407059818127E-02 
1618	 1.23963316158367E-02 
1619	 1.25002536562556E-02 
1620	 0.012395812816083 
1621	 1.21246850301192E-02 
1622	 1.20512146580887E-02 
1623	 1.20534482378941E-02 
1624	 1.19568854286988E-02 
1625	 1.19396845747613E-02 
1626	 1.19575229349884E-02 
1627	 1.19377054853678E-02 
1628	 1.18066484553759E-02 
1629	 1.18619431768704E-02 
1630	 1.21213334454616E-02 
1631	 1.21537235077904E-02 
1632	 1.21399647214874E-02 
1633	 1.21090092244585E-02 
1634	 1.18845938374532E-02 
1635	 1.16336440859828E-02 
1636	 1.15920184516127E-02 
1637	 1.18442586219481E-02 
1638	 1.21103160392079E-02 
1639	 1.20654819037828E-02 
1640	 1.21810278287168E-02 
1641	 1.23888031760506E-02 
1642	 1.19458771004902E-02 
1643	 1.14820779913024E-02 
1644	 1.17742811011106E-02 
1645	 1.19821259646867E-02 
1646	 1.16502281753841E-02 
1647	 1.19836157595266E-02 
1648	 1.23851263043853E-02 
1649	 0.011841971870367 
1650	 1.16542407283755E-02 
1651	 1.17626720588319E-02 
1652	 0.011543115724051 
1653	 1.17486857727577E-02 
1654	 1.18133371703371E-02 
1655	 1.19750082743507E-02 
1656	 1.20430174204673E-02 
1657	 1.19417890313232E-02 
1658	 1.18098936950591E-02 
1659	 0.011581522345638 
1660	 1.16857597048853E-02 
1661	 1.19129966952702E-02 
1662	 1.18292020091236E-02 
1663	 0.011901402844722 
1664	 1.21709096870025E-02 
1665	 1.23224071697374E-02 
1666	 1.21265128655061E-02 
1667	 1.18349932168282E-02 
1668	 1.21646102533396E-02 
1669	 0.012197314645218 
1670	 1.18931803203611E-02 
1671	 1.19930820274094E-02 
1672	 0.011649099429163 
1673	 0.011357290010119 
1674	 0.012067249606393 
1675	 1.21277893512938E-02 
1676	 1.15447477703171E-02 
1677	 1.14726371782259E-02 
1678	 1.15168258662366E-02 
1679	 0.01171225058757 
1680	 1.22283498799187E-02 
1681	 1.24197214747246E-02 
1682	 1.24925198602668E-02 
1683	 1.25856201379482E-02 
1684	 0.012075712845317 
1685	 1.16742804629435E-02 
1686	 1.17520612537219E-02 
1687	 0.011675116605215 
1688	 1.17700154853612E-02 
1689	 1.20166842744734E-02 
1690	 1.17684774274861E-02 
1691	 1.15599079195159E-02 
1692	 1.17106798332053E-02 
1693	 1.16270028375673E-02 
1694	 1.14516359165724E-02 
1695	 1.14339192970709E-02 
1696	 1.15640227954254E-02 
1697	 1.16915241372362E-02 
1698	 1.16670182510214E-02 
1699	 1.16296291699494E-02 
1700	 1.13894286106515E-02 
1701	 1.10839492457569E-02 
1702	 1.10881661540436E-02 
1703	 1.12665171210904E-02 
1704	 1.12220227404965E-02 
1705	 1.12841842028295E-02 
1706	 1.15904689763633E-02 
1707	 1.15245124275078E-02 
1708	 0.01197664756892 
1709	 0.012407861799167 
1710	 0.01179512502278 
1711	 1.16553094107508E-02 
1712	 1.17381559998911E-02 
1713	 1.18801652940336E-02 
1714	 1.19578717431038E-02 
1715	 1.15350482379495E-02 
1716	 1.13181483129627E-02 
1717	 1.16309271795411E-02 
1718	 0.01199513295507 
1719	 1.16245452697843E-02 
1720	 1.11408268019844E-02 
1721	 1.13613350868843E-02 
1722	 1.12848407079347E-02 
1723	 1.13522773215342E-02 
1724	 1.22218521179812E-02 
1725	 1.25112057045631E-02 
1726	 1.22588350534579E-02 
1727	 1.23270242801929E-02 
1728	 1.18784975616703E-02 
1729	 1.11655844887366E-02 
1730	 1.15444025622587E-02 
1731	 0.012296662820318 
1732	 1.24668892721897E-02 
1733	 1.26254527650496E-02 
1734	 1.22370102031357E-02 
1735	 1.13275698142645E-02 
1736	 1.13262513283846E-02 
1737	 0.011509166013065 
1738	 1.17696800945178E-02 
1739	 1.28174458406265E-02 
1740	 1.31475003239846E-02 
1741	 1.25200056618784E-02 
1742	 1.22526953531543E-02 
1743	 1.21005771661976E-02 
1744	 1.18982630253774E-02 
1745	 1.24661542063428E-02 
1746	 1.30852623302669E-02 
1747	 0.012842014927078 
1748	 1.17989294653446E-02 
1749	 1.16730031483062E-02 
1750	 1.14319757202598E-02 
1751	 1.14150784164235E-02 
1752	 1.28350802358341E-02 
1753	 1.28835681096515E-02 
1754	 1.17949980201122E-02 
1755	 1.15981055187024E-02 
1756	 1.09029679127712E-02 
1757	 1.10120438221247E-02 
1758	 1.17892569468148E-02 
1759	 1.11008704223059E-02 
1760	 1.14823015514158E-02 
1761	 1.22268919998939E-02 
1762	 1.13699629524397E-02 
1763	 1.18369346319915E-02 
1764	 1.25524857106819E-02 
1765	 1.16539448416511E-02 
1766	 0.011861188964276 
1767	 0.012277648420396 
1768	 1.16710689557853E-02 
1769	 1.11467514065112E-02 
1770	 1.11225214812423E-02 
1771	 1.24335778934756E-02 
1772	 1.29994554682638E-02 
1773	 1.27388124595212E-02 
1774	 1.35523536121328E-02 
1775	 0.0112222215184 
1776	 0.010444962245941 
1777	 1.20727754291956E-02 
1778	 1.25380932624378E-02 
1779	 1.25636611368388E-02 
1780	 1.34130219280346E-02 
1781	 0.014980171202281 
1782	 0.015066756794908 
1783	 1.46893696958113E-02 
1784	 0.014290748390209 
1785	 1.15906154327865E-02 
1786	 1.09583033190498E-02 
1787	 1.22087604413951E-02 
1788	 1.26852217367107E-02 
1789	 1.45729068999383E-02 
1790	 1.42926397482041E-02 
1791	 1.29787352649009E-02 
1792	 0.013986240904026 
1793	 1.25745224265872E-02 
1794	 1.36619069096014E-02 
1795	 1.42967742307067E-02 
1796	 1.06288176096092E-02 
1797	 1.21196516108759E-02 
1798	 1.74366900040484E-02 
1799	 1.68391048128113E-02 
1800	 6.48466527731598E-03 
1801	 3.95934538623016E-03 
1802	-1.61275615139758E-03 
1803	-9.56415897907514E-04 
1804	 3.01048250838805E-02 
1805	 4.25828616511502E-02 
1806	 3.99386317453203E-02 
1807	 4.06656206838372E-02 
1808	 2.21742380159383E-02 
1809	 4.66163037756815E-04 
1810	-3.54006132788365E-02 
1811	-5.54304301592235E-02 
1812	-7.98140764776916E-02 
1813	-5.74109153473017E-02 
1814	 7.28096357183714E-02 
1815	 0.136204157168973 
1816	 0.215018287215621 
1817	 2.69906181070841E-02 
1818	 8.18884418519604E-02 
1819	 2.07402782505359E-02 
1820	 5.72838097750595E-02 
1821	 3.41504595268405E-02 
1822	 1.52126631783498E-02 
1823	-7.26255035505685E-02 
1824	-0.157585985504162 
1825	-0.107447361591076 
1826	 0.39205162334163 
1827	 0.571354698275902 
1828	 0.52300290799781 
1829	 0.378667089718319 
1830	 0.284559001224819 
1831	-1.01384756462796 
1832	-0.865461546103146 
1833	-0.175210452313562 
1834	-0.289630504304177 
1835	-2.18334687411543 
1836	-2.48570843728242 
1837	-1.61095727979142 
1838	-1.29597263758658 
1839	-0.757032337407992 
1840	-0.245530285816356 
1841	 0.452786912438858 
1842	-4.3833223840446 
1843	-1.22874094229839 
1844	-0.579911030373377 
1845	-0.577636265213552 
1846	-1.43458740139585 
1847	-4.38600680540937 
1848	-0.589367699943076 
1849	-1.10544990309663 
1850	-4.87098482157013 
1851	 23.824971376799 
1852	-2.61226721026257 
1853	-1.30123849405428E-02 
1854	 0.416176129761669 
1855	 2.85979506157152 
1856	-13.11568321748 
1857	 0.478649861765481 
1858	 0.58006073462134 
1859	 0.629655251069185 
1860	 0.320491578424195 
1861	 0.382572817679891 
1862	 0.104140512712864 
1863	-4.84718288341285E-02 
1864	 0.460121142118922 
1865	 0.788353673184017 
1866	 1.03783184714659 
1867	 0.311031652451088 
1868	-0.274494645579952 
1869	-0.337083773144119 
1870	-0.314166165273612 
1871	-1.01018074957781 
1872	-1.27233434058369 
1873	 0.277958805579217 
1874	 0.557921214216635 
1875	 1.12204090754342 
1876	 1.2112800862519 
1877	 1.5879899944486 
1878	 2.72738391616826 
1879	 1.69487132537556 
1880	 3.06102029728445 
1881	-2.25565651244224 
1882	 3.92737010754899 
1883	 3.60427227997766 
1884	 3.74296573849972 
1885	 7.43810765642503 
1886	 7.14612803401389 
1887	 26.4411782840821 
1888	 6.89166779701558 
1889	 4.99249667322267 
1890	 1.61155322542125 
1891	 0.961970396017468 
1892	 0.50876430189483 
1893	-2.00649282922997 
1894	 0.848074274147316 
1895	 1.18106127773591 
1896	 1.4004723719286 
1897	 1.37265822487186 
1898	-0.595461037818375 
1899	-2.26170607984355 
1900	-3.13594710881837 
1901	-0.520182824509128 
1902	-0.241787007597877 
1903	 0.269974964520157 
1904	 1.18128636499395 
1905	-6.29170199662018 
1906	-2.52648906144685 
1907	-1.00507999629864 
1908	-0.5998468672835 
1909	-0.363284474583429 
1910	 0.354006414697758 
1911	 0.427309992576727 
1912	-2.6185938535299 
1913	-6.4064319022331 
1914	 2.94528385454969 
1915	 4.28754700557242 
1916	-0.303278608943882 
1917	 0.672847679509961 
1918	-3.8890203840022 
1919	 3.60062283216758 
1920	 0.630839202339919 
1921	 0.182812895588909 
1922	-2.98597702895591E-02 
1923	-0.400501751377206 
1924	 5.37311924722286E-02 
1925	-3.15330867893458E-02 
1926	-1.08453075747807E-02 
1927	-8.03310712141819E-02 
1928	-2.61151098281986E-02 
1929	-0.279675484328738 
1930	-0.112846572332995 
1931	 0.241030824022412 
1932	 8.41952335009864E-02 
1933	-0.226316361508461 
1934	-0.124689438249483 
1935	-5.75053487856045E-03 
1936	-0.10503643998139 
1937	 0.130099854328864 
1938	 0.23106547008133 
1939	 0.197052242187261 
1940	 7.03217658377781E-02 
1941	 4.22998303517028E-02 
1942	 1.57705999901915E-03 
1943	-3.64929590088139E-02 
1944	-1.17901308508061E-02 
1945	-1.3223561409631E-03 
1946	-1.07423724863944E-02 
1947	-5.69861313140139E-03 
1948	-4.27051051775639E-05 
1949	 2.02907830974724E-02 
1950	 3.60941652300965E-02 
1951	 2.38232758966905E-02 
1952	 2.11744811739519E-02 
1953	 5.71052962407157E-03 
1954	 6.43569154008862E-03 
1955	 1.89459402529902E-02 
1956	 1.97987884315083E-02 
1957	 1.64985033301022E-02 
1958	 1.49852097919099E-02 
1959	 1.06033554892201E-02 
1960	 8.31453277002717E-03 
1961	 1.17453656397431E-02 
1962	 6.8805089185682E-03 
1963	 8.01645611957378E-04 
1964	 6.95800137363658E-03 
1965	 8.71259988271779E-03 
1966	 9.38649256803139E-03 
1967	 9.63716460448708E-03 
1968	 0.012509121594401 
1969	 1.19285646059822E-02 
1970	 1.30096887803231E-02 
1971	 1.53152003161138E-02 
1972	 1.47173984251259E-02 
1973	 1.34042884770703E-02 
1974	 1.27968236921562E-02 
1975	 0.01320021758654 
1976	 1.40892018528458E-02 
1977	 1.40302647811337E-02 
1978	 1.33140165235664E-02 
1979	 1.35286980398433E-02 
1980	 1.38134001209565E-02 
1981	 1.35192258622967E-02 
1982	 1.25532442691911E-02 
1983	 1.31039144284601E-02 
1984	 1.29061885614715E-02 
1985	 1.10529687269941E-02 
1986	 1.14271933840841E-02 
1987	 1.23608719081843E-02 
1988	 0.010516830048399 
1989	 8.85213605698795E-03 
1990	 1.00426743689769E-02 
1991	 1.17284836465408E-02 
1992	 1.32195389325546E-02 
1993	 0.015693378868834 
1994	 1.68476408858671E-02 
1995	 1.61715492214552E-02 
1996	 1.47865650770808E-02 
1997	 1.47864263061203E-02 
1998	 1.39971145546493E-02 
1999	 1.63570840331512E-02 
2000	 1.73340738242857E-02 
2001	 1.72078944018605E-02 
2002	 2.03163792823667E-02 
2003	 0.020010326852572 
2004	 1.77723147522214E-02 
2005	 1.27861928564985E-02 
2006	 9.06006495539569E-03 
2007	 9.13912191594126E-03 
2008	 8.19103823716393E-03 
2009	 7.87999278931882E-03 
2010	 1.10754172248166E-02 
2011	 1.13251453664734E-02 
2012	 8.55297580463522E-03 
2013	 8.61570983575911E-03 
2014	 1.27413493040393E-02 
2015	 1.31944434941229E-02 
2016	 1.52989865839546E-02 
2017	 1.69286669260132E-02 
2018	 1.24260795702021E-02 
2019	 9.15175512515356E-03 
2020	 7.6981626637507E-03 
2021	 6.78091419842435E-03 
2022	 6.69356308937876E-03 
2023	 7.32449116216438E-03 
2024	 7.35641660430173E-03 
2025	 6.39303844031607E-03 
2026	 6.37518278851563E-03 
2027	 6.71771487483985E-03 
2028	 0.006972724080273 
2029	 7.9799984968383E-03 
2030	 8.53642393624786E-03 
2031	 8.50361264849626E-03 
2032	 8.61480108957402E-03 
2033	 9.10341373933686E-03 
2034	 1.02564137422904E-02 
2035	 9.79534734724589E-03 
2036	 9.51917573819997E-03 
2037	 9.31681234284885E-03 
2038	 8.05608282186591E-03 
2039	 8.14683907294345E-03 
2040	 9.84976905428947E-03 
2041	 0.010461068033992 
2042	 1.19081127574963E-02 
2043	 1.22648455751283E-02 
2044	 1.16497212034227E-02 
2045	 1.07562384948789E-02 
2046	 1.06292571576164E-02 
2047	 9.27065465304314E-03 
2048	 9.76434719560929E-03 
2049	 1.11825528013236E-02 
2050	 9.54857322291254E-03 
2051	 8.47262657064828E-03 
2052	 8.88068952567388E-03 
2053	 8.05643770735574E-03 
2054	 8.80633296202001E-03 
2055	 9.85338840824489E-03 
2056	 9.97663439537436E-03 
2057	 7.80701596260737E-03 
2058	 7.6028383263392E-03 
2059	 8.9763711530698E-03 
2060	 9.09315275792704E-03 
2061	 8.60587910511696E-03 
2062	 8.62612973430283E-03 
2063	 8.57149901251488E-03 
2064	 8.43927680203811E-03 
2065	 1.02674338513192E-02 
2066	 1.09545788198216E-02 
2067	 1.07772849917919E-02 
2068	 0.011117183563639 
2069	 9.9047092017416E-03 
2070	 8.84091296684999E-03 
2071	 9.07750660428208E-03 
2072	 1.01641206663078E-02 
2073	 1.09443272127854E-02 
2074	 1.24982469396664E-02 
2075	 1.26747144136865E-02 
2076	 1.23849758531421E-02 
2077	 1.18057574281525E-02 
2078	 1.02604080346009E-02 
2079	 9.51156955350363E-03 
2080	 8.7049652373521E-03 
2081	 8.47333715204794E-03 
2082	 8.70856991958756E-03 
2083	 9.58357085036793E-03 
2084	 1.02314313597317E-02 
2085	 9.94902477760918E-03 
2086	 1.03788795643976E-02 
2087	 1.04308008171968E-02 
2088	 1.10664782299149E-02 
2089	 1.28790260445635E-02 
2090	 1.32733746740002E-02 
2091	 1.30753959703098E-02 
2092	 1.23561812098858E-02 
2093	 9.96126820850406E-03 
2094	 9.83803692850092E-03 
2095	 1.04155089175881E-02 
2096	 0.010244682269489 
2097	 1.16803789643005E-02 
2098	 1.16627181701569E-02 
2099	 9.4092623349159E-03 
2100	 9.26217287070376E-03 
2101	 1.02946704695975E-02 
2102	 1.05587180614637E-02 
2103	 1.11056249357413E-02 
2104	 1.09434243210423E-02 
2105	 9.88769909970773E-03 
2106	 9.06928670814976E-03 
2107	 8.5367306864216E-03 
2108	 9.63301363004692E-03 
2109	 1.14962068212643E-02 
2110	 1.15478977534451E-02 
2111	 1.16198304075778E-02 
2112	 1.20250848488449E-02 
2113	 1.25236985239985E-02 
2114	 0.013287228477754 
2115	 1.36511485447626E-02 
2116	 1.46596813313601E-02 
2117	 1.41349942361794E-02 
2118	 1.12933847242014E-02 
2119	 1.06118129807335E-02 
2120	 1.06226163760085E-02 
2121	 9.95587809900506E-03 
2122	 1.10147034821638E-02 
2123	 1.27347766204084E-02 
2124	 1.24016204540175E-02 
2125	 1.18967588852864E-02 
2126	 0.011463413320284 
2127	 0.011400052633783 
2128	 1.16594469298427E-02 
2129	 0.012112658261615 
2130	 0.011748363475964 
2131	 1.04354440367185E-02 
2132	 1.05281541139713E-02 
2133	 1.10495318144204E-02 
2134	 1.09360930786557E-02 
2135	 1.11392943364801E-02 
2136	 1.13866477205015E-02 
2137	 1.08981122551776E-02 
2138	 0.010818888538611 
2139	 1.14537281736565E-02 
2140	 1.18294150201253E-02 
2141	 1.22061832527256E-02 
2142	 1.21324316145956E-02 
2143	 1.18563834332984E-02 
2144	 0.011631823990805 
2145	 1.19999539031133E-02 
2146	 1.21893462381252E-02 
2147	 1.20103607727421E-02 
2148	 1.20097433203392E-02 
2149	 1.19733351730564E-02 
2150	 0.010983306410775 
2151	 9.51574241757452E-03 
2152	 8.94736090340076E-03 
2153	 8.21060707981614E-03 
2154	 7.08949394683705E-03 
2155	 7.74147180189639E-03 
2156	 9.60834903247396E-03 
2157	 1.07058107060816E-02 
2158	 1.19523420027866E-02 
2159	 1.23544100818771E-02 
2160	 1.21676866069805E-02 
2161	 1.21527033579408E-02 
2162	 1.15393197260649E-02 
2163	 1.10570621241459E-02 
2164	 1.10290160993073E-02 
2165	 1.07473222333972E-02 
2166	 9.89134408084282E-03 
2167	 9.52400965203217E-03 
2168	 9.30521712698027E-03 
2169	 9.14067899456419E-03 
2170	 9.19687649835019E-03 
2171	 8.84535175809843E-03 
2172	 9.5318052981367E-03 
2173	 1.07144896069677E-02 
2174	 1.04820709495027E-02 
2175	 1.04971994387344E-02 
2176	 1.17787139980525E-02 
2177	 1.22538301320008E-02 
2178	 1.16163199948675E-02 
2179	 1.05581737560547E-02 
2180	 9.88615202993767E-03 
2181	 8.47537642929997E-03 
2182	 6.95393507402181E-03 
2183	 8.84301508894511E-03 
2184	 9.90129038773277E-03 
2185	 8.70955119535257E-03 
2186	 8.9993564818948E-03 
2187	 0.011318155493926 
2188	 0.011577362088894 
2189	 1.05898756628811E-02 
2190	 1.05128750218891E-02 
2191	 9.73000193405654E-03 
2192	 9.10124086846383E-03 
2193	 9.10463392238643E-03 
2194	 8.76855323387264E-03 
2195	 8.22602072906768E-03 
2196	 8.37964373889474E-03 
2197	 8.8917562802156E-03 
2198	 9.18128561086966E-03 
2199	 9.88674707523117E-03 
2200	 9.79673159923459E-03 
2201	 9.65297491852126E-03 
2202	 1.08085984010265E-02 
2203	 9.75441563628875E-03 
2204	 8.94940445386658E-03 
2205	 9.20174665068997E-03 
2206	 6.11286638358266E-03 
2207	 5.00527122737838E-03 
2208	 5.21243563906327E-03 
2209	 4.32197867261941E-03 
2210	 5.0534252033936E-03 
2211	 6.05788084761523E-03 
2212	 6.60664382660553E-03 
2213	 7.47412751177926E-03 
2214	 1.00944605923163E-02 
2215	 1.25588412418992E-02 
2216	 1.38557876638693E-02 
2217	 1.47076539384101E-02 
2218	 1.41036327460195E-02 
2219	 1.37930248272486E-02 
2220	 1.38437850261478E-02 
2221	 1.31080913782033E-02 
2222	 1.10614911435235E-02 
2223	 1.06432246318509E-02 
2224	 1.07391537743309E-02 
2225	 9.79133887897571E-03 
2226	 9.12042462258895E-03 
2227	 8.71992982102685E-03 
2228	 7.55044338979396E-03 
2229	 7.32467211959373E-03 
2230	 7.73978780516141E-03 
2231	 8.93573006347139E-03 
2232	 1.15232663023269E-02 
2233	 1.17267870708729E-02 
2234	 1.08671278825008E-02 
2235	 1.19151274737842E-02 
2236	 1.18389372711399E-02 
2237	 1.12613226417459E-02 
2238	 1.19889461360384E-02 
2239	 0.012700186014243 
2240	 1.26773173574413E-02 
2241	 1.34379793960537E-02 
2242	 1.54862771900019E-02 
2243	 1.40834195098729E-02 
2244	 1.12451251652044E-02 
2245	 9.92020359762635E-03 
2246	 6.2344929950734E-03 
2247	 5.63281661176444E-03 
2248	 7.17140876866355E-03 
2249	 5.91970925909379E-03 
2250	 7.39199729635536E-03 
2251	 8.9272912886975E-03 
2252	 9.73464162828355E-03 
2253	 1.26053045573501E-02 
2254	 1.28266213310395E-02 
2255	 1.25553158272387E-02 
2256	 1.19825681611915E-02 
2257	 9.45243712175809E-03 
2258	 7.86906953875908E-03 
2259	 8.34391581297173E-03 
2260	 1.02755543871746E-02 
2261	 1.56210400860274E-02 
2262	 1.58519952269703E-02 
2263	 1.57242919573781E-02 
2264	 1.45124327444124E-02 
2265	 7.55410682020111E-03 
2266	 6.06993680981056E-03 
2267	 8.54901582708944E-03 
2268	 8.46978309048924E-03 
2269	 8.2793664173992E-03 
2270	 8.29390328279146E-03 
2271	 7.96934794037378E-03 
2272	 7.96600250698247E-03 
2273	 9.36446109999991E-03 
2274	 9.40542719082128E-03 
2275	 7.34977955713442E-03 
2276	 7.20282659626757E-03 
2277	 8.49679148343267E-03 
2278	 7.72589477917939E-03 
2279	 5.41761882027832E-03 
2280	 5.3218593978995E-03 
2281	 4.20880912556876E-03 
2282	 5.11631884099869E-03 
2283	 1.07412736687071E-02 
2284	 1.52992685445985E-02 
2285	 1.66269385452882E-02 
2286	 1.74924717869994E-02 
2287	 1.68923761807069E-02 
2288	 1.86902395893349E-02 
2289	 2.11040051076368E-02 
2290	 0.019103287329762 
2291	 1.52930518505445E-02 
2292	 1.26497942319951E-02 
2293	 8.99739570921806E-03 
2294	 6.94181145755596E-03 
2295	 8.17638919814376E-03 
2296	 8.73732307807275E-03 
2297	 8.48496815474794E-03 
2298	 9.39375173692769E-03 
2299	 1.22092168729177E-02 
2300	 1.12759029049806E-02 
2301	 9.95754047888222E-03 
2302	 1.21307135898148E-02 
2303	 9.96588065057906E-03 
2304	 6.47866679727102E-03 
2305	 4.21199674211046E-03 
2306	 3.55722114690587E-03 
2307	 5.69317875437504E-03 
2308	 9.30682936741227E-03 
2309	 1.52397975248207E-02 
2310	 1.38074213803741E-02 
2311	 9.20121493276957E-03 
2312	 8.71499304297165E-03 
2313	 1.88290621552101E-03 
2314	-3.13015161102677E-04 
2315	 7.27413395753806E-03 
2316	 8.80203483244758E-03 
2317	 1.10465892354578E-02 
2318	 1.70825750087782E-02 
2319	 1.37225038118399E-02 
2320	 1.20916384135335E-02 
2321	 1.97714143311207E-02 
2322	 2.31316085042076E-02 
2323	 0.027886293790976 
2324	 2.89717669670792E-02 
2325	 1.76602448804276E-02 
2326	 9.47415892088594E-03 
2327	 1.79687422906684E-03 
2328	 1.69854220435016E-03 
2329	 3.96709305978243E-03 
2330	 7.91157311852344E-04 
2331	 1.00865112407105E-02 
2332	 1.09633905557747E-02 
2333	 6.0274885833165E-03 
2334	 9.02428632920152E-03 
2335	 6.90523251002434E-03 
2336	 8.02377374821235E-03 
2337	 1.18815420955882E-02 
2338	 1.23942865154566E-02 
2339	 6.97327075673681E-03 
2340	-1.66844569063298E-03 
2341	-6.62389568800634E-03 
2342	-8.14587649749411E-03 
2343	-1.04265294726093E-02 
2344	-1.15066189005875E-02 
2345	-7.1899482738442E-03 
2346	-9.22694978532564E-03 
2347	-9.70316763443793E-03 
2348	-5.81483212285916E-03 
2349	-1.05495900407117E-02 
2350	-8.35853084613492E-03 
2351	-7.31510149568971E-03 
2352	-5.82513660443019E-03 
2353	 3.52712510710472E-03 
2354	 5.02512073350827E-03 
2355	 1.26976491175943E-02 
2356	 1.72980005790918E-02 
2357	 3.72411788074671E-03 
2358	 2.55445847545601E-03 
2359	 1.54707074624435E-02 
2360	 1.29369759589571E-02 
2361	 4.55056161794663E-03 
2362	 1.07981605662905E-02 
2363	 1.33864170928364E-02 
2364	 9.76239709193982E-03 
2365	 2.68872825009004E-02 
2366	 2.56527245853691E-02 
2367	 1.40964790572761E-03 
2368	 2.82993618026453E-04 
2369	-3.95760865090031E-03 
2370	-7.65559571379199E-03 
2371	 0.001249169128452 
2372	 4.61955444008146E-03 
2373	 8.90430633283602E-03 
2374	 1.30304931814769E-02 
2375	 1.97997952013249E-02 
2376	 3.05483837157962E-02 
2377	 2.02390304303404E-02 
2378	 2.15493283864293E-02 
2379	 2.38535170345489E-02 
2380	 3.31679996634298E-03 
2381	 1.78104029637273E-02 
2382	 0.029387402117129 
2383	 3.38861168080512E-02 
2384	 4.25058703461853E-02 
2385	 4.27394991859292E-02 
2386	 3.95889371923552E-02 
2387	 1.04903212879074E-02 
2388	 3.46485684484475E-03 
2389	-9.59841884175292E-03 
2390	-3.51091668274818E-02 
2391	-3.15739768830036E-02 
2392	-3.75679660284386E-02 
2393	-2.36070227862623E-02 
2394	-7.38025058234656E-03 
2395	 5.02808420359834E-03 
2396	 1.86909796589144E-02 
2397	 2.93618597444932E-03 
2398	 6.91458420373612E-04 
2399	 4.49220597350408E-03 
2400	-4.4806219311384E-03 
2401	 3.12450806020096E-03 
2402	 2.29510203244447E-02 
2403	 2.53024399785385E-02 
2404	-7.00806495805757E-03 
2405	-0.03436909571369 
2406	-3.68409164773759E-02 
2407	-8.84374408197635E-02 
2408	-0.108385132862155 
2409	-5.41555161145503E-02 
2410	-6.92686936772208E-02 
2411	-0.1002661947276 
2412	-0.058367834458546 
2413	-8.28550007323068E-02 
2414	-0.133799998552531 
2415	-5.04859903895587E-02 
2416	-4.48784747648312E-02 
2417	-0.124113278885976 
2418	-0.121265830839388 
2419	-9.73622575744588E-02 
2420	-1.59153073755494E-02 
2421	 0.12801680299158 
2422	 0.19931641449082 
2423	 0.104433900429804 
2424	-2.03943242283935E-02 
2425	 1.79061378544928E-02 
2426	 5.33867576222939E-02 
2427	 2.27107653649574E-02 
2428	 2.66837399288754E-02 
2429	-1.49388250995389E-02 
2430	-0.105752533927742 
2431	-0.126622022012848 
2432	-6.50967478646455E-02 
2433	 2.62810942850413E-02 
2434	-1.36819576038878E-04 
2435	-4.34171564860974E-02 
2436	-6.75294780399658E-02 
2437	-0.119285536363656 
2438	-0.180628350341843 
2439	-0.180986405638178 
2440	-0.109305563238618 
2441	-5.93445406325968E-02 
2442	-4.62199624771209E-03 
2443	 2.60526670834951E-02 
2444	-0.036383382633313 
2445	-0.37828330305902 
2446	-0.732537806270829 
2447	-1.16371938086976 
2448	-0.235560884156896 
2449	 1.05308969755574 
2450	 1.42880044944667 
2451	 1.28641310979422 
2452	 1.4826466112864 
2453	 0.666282887559073 
2454	-1.38112526987852E-02 
2455	-0.260383968339398 
2456	-0.278566985281149 
2457	-0.267306137818442 
2458	-3.33185275351928E-02 
2459	 0.229110505732121 
2460	 0.388656327902371 
2461	 0.461460672050713 
2462	 0.396051881112561 
2463	 0.226481714293717 
2464	 9.98649707453175E-02 
2465	 4.00355993008591E-02 
2466	-4.66347018093149E-02 
2467	-0.143275696114856 
2468	-0.450283458090049 
2469	-0.196222245260107 
2470	 0.672896796357294 
2471	-0.463213865859598 
2472	-9.16933606774139E-02 
2473	-0.245646154177409 
2474	-0.612843552059919 
2475	-0.83125814259712 
2476	-0.909458197680268 
2477	-0.769233055887502 
2478	-1.03447236281686 
2479	-1.52987104315979 
2480	-0.970127727873456 
2481	-1.9581669139541 
2482	-1.69079132540233 
2483	-0.685692667677125 
2484	 10.3648793050936 
2485	 0.238690585414473 
2486	 21.5070616296334 
2487	 5.08903429983838 
2488	 0.588353258851483 
2489	-0.92911490880299 
2490	-0.584583166734664 
2491	-0.433739074007767 
2492	-0.806044996265362 
2493	-5.48495407828414 
2494	 1.20289129386096 
2495	 4.86742451164095 
2496	 0.380983485192527 
2497	 1.06116087940101 
2498	-3.15355055400671E-02 
2499	-0.433021215503809 
2500	 217.626887245994 
