Wavelength	rt0711a00008.asd
350	 7.06691569156775E-02 
351	 7.15441643587345E-02 
352	 7.19070788938179E-02 
353	 7.23888683695946E-02 
354	 7.32574788066056E-02 
355	 7.33792428525315E-02 
356	 7.37247064984191E-02 
357	 7.42740594248212E-02 
358	 0.074780880967149 
359	 7.54842345693962E-02 
360	 7.57655107603029E-02 
361	 7.58324540796612E-02 
362	 7.63874320492568E-02 
363	 0.077037788241697 
364	 7.74242266731162E-02 
365	 7.75648083866826E-02 
366	 7.80183947857643E-02 
367	 0.078328060466231 
368	 7.86115834403119E-02 
369	 7.90955714326174E-02 
370	 7.99124014845292E-02 
371	 8.02803020459049E-02 
372	 8.04210285956658E-02 
373	 8.10580373272455E-02 
374	 8.16488015350398E-02 
375	 0.082030607218867 
376	 8.22431894867607E-02 
377	 8.25390944772794E-02 
378	 8.26883567278499E-02 
379	 8.30253250045171E-02 
380	 8.37645283810017E-02 
381	 8.44388891611361E-02 
382	 8.46351057831466E-02 
383	 8.47387228601005E-02 
384	 8.53389925881224E-02 
385	 8.53815763288974E-02 
386	 8.56428878766828E-02 
387	 8.62433062430688E-02 
388	 8.64507043570646E-02 
389	 8.67436220417175E-02 
390	 8.69199946467341E-02 
391	 8.68370825213215E-02 
392	 8.67487970019918E-02 
393	 8.68919634162512E-02 
394	 8.72099038016206E-02 
395	 8.74842600844422E-02 
396	 8.74052973109031E-02 
397	 8.71620439263664E-02 
398	 8.69744992321959E-02 
399	 8.70269539746504E-02 
400	 0.08702788189219 
401	 8.69217818707413E-02 
402	 8.67426119608146E-02 
403	 8.66179985644056E-02 
404	 8.64803401167326E-02 
405	 8.63677687232362E-02 
406	 0.086324351754919 
407	 8.62302079673415E-02 
408	 8.60084338955617E-02 
409	 8.57884258592297E-02 
410	 8.58564648275979E-02 
411	 8.55186966289604E-02 
412	 8.52423215537256E-02 
413	 8.53043011053508E-02 
414	 8.50186615822417E-02 
415	 0.084800691419398 
416	 0.084653857807613 
417	 8.44510534504332E-02 
418	 8.43326392973973E-02 
419	 8.41837108608022E-02 
420	 8.39679454094584E-02 
421	 8.37552105500641E-02 
422	 8.38386284220961E-02 
423	 8.39248423017715E-02 
424	 8.37995558918932E-02 
425	 8.38002984457656E-02 
426	 8.39590521919929E-02 
427	 8.41398375557666E-02 
428	 8.41777250587035E-02 
429	 8.43904302594354E-02 
430	 0.084620162105918 
431	 8.48018948479986E-02 
432	 8.50318898230271E-02 
433	 0.085285732421065 
434	 8.54785475951862E-02 
435	 8.55823261745189E-02 
436	 8.57709406106402E-02 
437	 8.59335601359545E-02 
438	 8.60299493723162E-02 
439	 8.60747652136466E-02 
440	 8.62106953205332E-02 
441	 8.62117428921009E-02 
442	 8.60444212941255E-02 
443	 8.60091373169653E-02 
444	 8.59805575161753E-02 
445	 8.58867292051163E-02 
446	 8.57099340804242E-02 
447	 0.085585896257097 
448	 8.54923686924575E-02 
449	 8.53842453209649E-02 
450	 8.52069071010845E-02 
451	 8.49826859713581E-02 
452	 0.084792679429077 
453	 8.46632605968356E-02 
454	 8.44995201003902E-02 
455	 8.43041146797651E-02 
456	 8.41297477791959E-02 
457	 8.40142633280658E-02 
458	 8.38029979770905E-02 
459	 8.35862285336877E-02 
460	 0.083406848903352 
461	 0.083243853379204 
462	 8.29781722442692E-02 
463	 8.27168310008438E-02 
464	 8.25465071170202E-02 
465	 8.23693909787549E-02 
466	 8.22219877763328E-02 
467	 8.20348299991955E-02 
468	 8.17353682260212E-02 
469	 8.16174669005837E-02 
470	 8.14779346468045E-02 
471	 8.12576958573197E-02 
472	 8.11508819182615E-02 
473	 8.09548118915805E-02 
474	 8.07668700267172E-02 
475	 8.06907014951462E-02 
476	 8.05636083496956E-02 
477	 8.05120619392302E-02 
478	 8.04526762753935E-02 
479	 8.02062875178155E-02 
480	 8.02303216556197E-02 
481	 8.03114262540644E-02 
482	 8.02845105823354E-02 
483	 8.02570891640176E-02 
484	 8.03672266920992E-02 
485	 0.080485797679602 
486	 8.04518093355883E-02 
487	 8.05341317326073E-02 
488	 8.06680703877807E-02 
489	 8.08009049181725E-02 
490	 8.09140300036293E-02 
491	 8.10447379550627E-02 
492	 0.081249275195304 
493	 8.15135322929881E-02 
494	 8.16172744196716E-02 
495	 8.18218296005771E-02 
496	 8.21027732075981E-02 
497	 8.23052748786879E-02 
498	 8.25152216571874E-02 
499	 8.27104018196717E-02 
500	 8.28956806818989E-02 
501	 8.31326037620871E-02 
502	 8.33607961368423E-02 
503	 8.35366493155996E-02 
504	 8.36647833682162E-02 
505	 8.39165180796677E-02 
506	 0.084100799641849 
507	 8.42132879105607E-02 
508	 8.43990406828317E-02 
509	 8.45985804694288E-02 
510	 8.48360998049099E-02 
511	 8.50999481325266E-02 
512	 0.085241286417152 
513	 8.56134285110111E-02 
514	 8.61129671649931E-02 
515	 8.64621305793722E-02 
516	 8.67771462141253E-02 
517	 8.71620890262429E-02 
518	 8.76080973792561E-02 
519	 8.79709186464228E-02 
520	 8.84968075642512E-02 
521	 8.91378121202069E-02 
522	 8.98078013885862E-02 
523	 9.05341034819049E-02 
524	 9.12517837080262E-02 
525	 9.20291856338621E-02 
526	 9.30065430743699E-02 
527	 9.39640954543103E-02 
528	 9.49005021075787E-02 
529	 9.59068016896953E-02 
530	 9.72225723936938E-02 
531	 9.84536152940068E-02 
532	 9.96801800687457E-02 
533	 0.101102085211117 
534	 0.102510369437819 
535	 0.103956251479401 
536	 0.105515719897415 
537	 0.10726204364221 
538	 0.108983888023288 
539	 0.110711815483194 
540	 0.112482723797496 
541	 0.114147049217672 
542	 0.115823309880743 
543	 0.117524620914897 
544	 0.119200138611019 
545	 0.120809833579858 
546	 0.122354271149497 
547	 0.123854871912854 
548	 0.125372418912024 
549	 0.126752016050967 
550	 0.128048619657894 
551	 0.129366583973251 
552	 0.130589004770932 
553	 0.131799039178961 
554	 0.133041121603036 
555	 0.134294971554288 
556	 0.135487895286307 
557	 0.13671534706867 
558	 0.138039094504409 
559	 0.13932267150921 
560	 0.140615969465612 
561	 0.141934407909563 
562	 0.143279506385771 
563	 0.144655972450805 
564	 0.145975602252318 
565	 0.147192375072806 
566	 0.148366163854395 
567	 0.149490296921221 
568	 0.150567903690981 
569	 0.151587797954714 
570	 0.152474557355529 
571	 0.15325521305442 
572	 0.153991559769095 
573	 0.154769873349554 
574	 0.155540939353822 
575	 0.15628422330146 
576	 0.156987141788684 
577	 0.15766639319489 
578	 0.158294716706478 
579	 0.158862772742532 
580	 0.159382538027527 
581	 0.159929775480732 
582	 0.160463595806176 
583	 0.160982579178121 
584	 0.161591393391393 
585	 0.162097939904548 
586	 0.16253506705945 
587	 0.162999680689027 
588	 0.163426907150561 
589	 0.163711169194681 
590	 0.163877801784601 
591	 0.164097848338231 
592	 0.164183122432967 
593	 0.164267743029753 
594	 0.164409591670434 
595	 0.164236378554322 
596	 0.164091909412411 
597	 0.163987707813203 
598	 0.16376638782635 
599	 0.163617465092583 
600	 0.163528446340211 
601	 0.163483343670106 
602	 0.163499214076734 
603	 0.163674281654532 
604	 0.163861940950685 
605	 0.163913768145242 
606	 0.164110186001527 
607	 0.164336710444783 
608	 0.164553551160947 
609	 0.164808419362288 
610	 0.164894093384174 
611	 0.164966283488497 
612	 0.16517349275116 
613	 0.165417091099107 
614	 0.165606228812936 
615	 0.165745581396099 
616	 0.165892540334983 
617	 0.16600481530368 
618	 0.166173960295126 
619	 0.166401251717621 
620	 0.166518359819139 
621	 0.166643858435366 
622	 0.166850474116267 
623	 0.167134932649816 
624	 0.167213842656516 
625	 0.167292108022766 
626	 0.167453206838535 
627	 0.167642245652233 
628	 0.167804014896295 
629	 0.167934016790914 
630	 0.168045613684507 
631	 0.168151865640412 
632	 0.168307494965385 
633	 0.16847202942025 
634	 0.168575265401838 
635	 0.168706642340577 
636	 0.168877651583833 
637	 0.169068315102358 
638	 0.169229587721207 
639	 0.169363663752551 
640	 0.169432393135487 
641	 0.16944470787062 
642	 0.16963417745271 
643	 0.169776729247224 
644	 0.169845145566695 
645	 0.169970055777909 
646	 0.170035408618016 
647	 0.17005231069476 
648	 0.170045216492384 
649	 0.170005294645324 
650	 0.170043414285098 
651	 0.170050524954573 
652	 0.169865708228624 
653	 0.169593839618732 
654	 0.169406186863317 
655	 0.169208309218289 
656	 0.168587574388428 
657	 0.168135608643695 
658	 0.167741909890045 
659	 0.167261682103316 
660	 0.16698942427092 
661	 0.166699605229281 
662	 0.166309904459345 
663	 0.165859322047949 
664	 0.165562071439852 
665	 0.165293480749011 
666	 0.164987180753277 
667	 0.1647760306394 
668	 0.164490169826831 
669	 0.164253976402547 
670	 0.164214325904919 
671	 0.164104506997472 
672	 0.164095713306684 
673	 0.164149043218576 
674	 0.164040548355371 
675	 0.164218012878859 
676	 0.164446438199247 
677	 0.164554615423619 
678	 0.164868737816956 
679	 0.16522153506215 
680	 0.165586876078773 
681	 0.165997350362804 
682	 0.166455999467952 
683	 0.166861710648629 
684	 0.167279819727715 
685	 0.168066200243401 
686	 0.168685776627946 
687	 0.169150874401443 
688	 0.169612083591639 
689	 0.170031732466015 
690	 0.170310511331352 
691	 0.170506273722017 
692	 0.17074854081466 
693	 0.170857564305124 
694	 0.170733318934798 
695	 0.170465729767032 
696	 0.170379475957313 
697	 0.170241006223022 
698	 0.169962380300813 
699	 0.169539614189698 
700	 0.169128678360008 
701	 0.168616966645551 
702	 0.168042295714515 
703	 0.167534248175469 
704	 0.166865302593783 
705	 0.16604672479734 
706	 0.165174097195306 
707	 0.164414430320736 
708	 0.163413388509792 
709	 0.16227262395699 
710	 0.161199396413053 
711	 0.159964019652841 
712	 0.158540342598177 
713	 0.157020433062359 
714	 0.15556505678313 
715	 0.154103217406502 
716	 0.152603931230747 
717	 0.151057320133341 
718	 0.149085747947157 
719	 0.14702170423848 
720	 0.145135625739258 
721	 0.143248433005706 
722	 0.14149130489518 
723	 0.139616490554484 
724	 0.137647205811333 
725	 0.135471362387096 
726	 0.133156526207866 
727	 0.130627739520186 
728	 0.127878505992373 
729	 0.125074199836313 
730	 0.121993546033968 
731	 0.118910569195198 
732	 0.116165610971263 
733	 0.113893527400771 
734	 0.1119191266608 
735	 0.110178896889546 
736	 0.10874646311684 
737	 0.107624328970656 
738	 0.106787020525732 
739	 0.106195418535445 
740	 0.105743158536251 
741	 0.105475353109376 
742	 0.10527562571926 
743	 0.10499002346647 
744	 0.104913881524564 
745	 0.104879448214256 
746	 0.104795256267311 
747	 0.10473465054541 
748	 0.104724676287815 
749	 0.104724536868023 
750	 0.104696704403877 
751	 0.104683359198666 
752	 0.10464685395159 
753	 0.104593938105693 
754	 0.104561270921115 
755	 0.104629029220165 
756	 0.104525226856327 
757	 0.104284237630534 
758	 0.104486484061795 
759	 0.10561913948283 
760	 0.10693767203498 
761	 0.106616193622588 
762	 0.106742079146898 
763	 0.106635436092151 
764	 0.106362386639967 
765	 0.106175981674275 
766	 0.106067153477014 
767	 0.106079469807442 
768	 0.106194077629148 
769	 0.106332597327528 
770	 0.106508173069259 
771	 0.106768183209336 
772	 0.107116285754059 
773	 0.107428464624275 
774	 0.107719535075422 
775	 0.108016307614577 
776	 0.108345388596799 
777	 0.108644637311618 
778	 0.108992111269965 
779	 0.1094459675626 
780	 0.110019765874483 
781	 0.110458489238184 
782	 0.110838156097639 
783	 0.111261559623846 
784	 0.111742046422951 
785	 0.1122515736051 
786	 0.112818353563526 
787	 0.113453850101505 
788	 0.114004424196896 
789	 0.114517685116291 
790	 0.115042194361398 
791	 0.115618373033491 
792	 0.116216047285451 
793	 0.116784978303727 
794	 0.117277023502659 
795	 0.117631832649419 
796	 0.118199023938923 
797	 0.118799939342057 
798	 0.119221296435745 
799	 0.119619881024186 
800	 0.1199577999753 
801	 0.120309813981697 
802	 0.120752344563212 
803	 0.120896771821385 
804	 0.120984833509035 
805	 0.121115858736735 
806	 0.121167060864186 
807	 0.121106269972156 
808	 0.12104295423855 
809	 0.120997256243549 
810	 0.120669602830734 
811	 0.120409982927203 
812	 0.120222341546525 
813	 0.119957231989932 
814	 0.119492410339644 
815	 0.11899789846362 
816	 0.11849384785678 
817	 0.117838000320675 
818	 0.116844750968207 
819	 0.115812934490039 
820	 0.11485021860126 
821	 0.113838787834699 
822	 0.112140499030605 
823	 0.110077514171647 
824	 0.10815739102196 
825	 0.106453137353461 
826	 0.104211996693327 
827	 0.101612755784737 
828	 9.92660877692155E-02 
829	 9.68439076918562E-02 
830	 9.45712860012262E-02 
831	 9.26317049134776E-02 
832	 9.11379973170382E-02 
833	 8.96292807761216E-02 
834	 8.83142236886923E-02 
835	 8.73440722612759E-02 
836	 8.66957503470475E-02 
837	 8.60251332904383E-02 
838	 8.53577546743855E-02 
839	 0.084788788749477 
840	 8.43574146674478E-02 
841	 8.39418821957177E-02 
842	 8.34595633882373E-02 
843	 8.29219994597133E-02 
844	 8.26797779530716E-02 
845	 8.22167779432845E-02 
846	 8.15718120760007E-02 
847	 8.11615018227583E-02 
848	 8.08956656828635E-02 
849	 0.080483148762049 
850	 7.99333629597701E-02 
851	 7.96470798777201E-02 
852	 7.95424137683248E-02 
853	 7.92832969302897E-02 
854	 7.87393917292402E-02 
855	 7.83111098422591E-02 
856	 7.79593583021816E-02 
857	 7.76951027546898E-02 
858	 7.74899662738848E-02 
859	 7.71908644637953E-02 
860	 7.67421567227787E-02 
861	 7.62902631967449E-02 
862	 7.60214340739179E-02 
863	 0.075674194788284 
864	 7.56300779072129E-02 
865	 7.56535401276115E-02 
866	 7.50230152891833E-02 
867	 7.43788254186279E-02 
868	 7.39365435285333E-02 
869	 7.36466934777697E-02 
870	 7.32198837708045E-02 
871	 7.27419415493432E-02 
872	 7.22817452604712E-02 
873	 7.18808929430839E-02 
874	 7.15219595024021E-02 
875	 0.071090830078432 
876	 0.070652733724359 
877	 0.070235658991023 
878	 6.94880405418385E-02 
879	 6.90084634819065E-02 
880	 6.86333947167206E-02 
881	 6.79642479369445E-02 
882	 6.75503015097157E-02 
883	 6.71928040638873E-02 
884	 6.68535819493611E-02 
885	 6.65859733972454E-02 
886	 6.59006862838632E-02 
887	 6.52868748620553E-02 
888	 6.49630298143032E-02 
889	 0.064697737961568 
890	 6.42137626152787E-02 
891	 6.38544596796077E-02 
892	 6.37067106880817E-02 
893	 6.31723905629286E-02 
894	 6.29183434391346E-02 
895	 6.28161049381574E-02 
896	 6.26239485896943E-02 
897	 6.25444763464486E-02 
898	 6.19616438727267E-02 
899	 6.16394419958112E-02 
900	 6.20078030367611E-02 
901	 0.060777010256304 
902	 5.99822535650235E-02 
903	 5.97161828247742E-02 
904	 5.93453595660161E-02 
905	 5.88451917313078E-02 
906	 5.85447614435236E-02 
907	 5.82931096534588E-02 
908	 5.76742413169961E-02 
909	 5.71645883389773E-02 
910	 5.65725445865533E-02 
911	 5.61184278709993E-02 
912	 0.056250286387985 
913	 5.56348034943074E-02 
914	 5.47444339036099E-02 
915	 0.05375260956106 
916	 5.23337387961356E-02 
917	 5.19101021668268E-02 
918	 0.051687194193927 
919	 0.051133444769399 
920	 5.05278877238108E-02 
921	 4.92449702483451E-02 
922	 4.83248798481131E-02 
923	 0.048186443691904 
924	 4.73078360159377E-02 
925	 4.65465176182895E-02 
926	 4.63607020178463E-02 
927	 4.66220836174449E-02 
928	 4.54082312749825E-02 
929	 4.53957353961493E-02 
930	 4.64890755945408E-02 
931	 4.72176052842759E-02 
932	 4.87309433787306E-02 
933	 4.69393540207642E-02 
934	 4.57521536674732E-02 
935	 4.90190199355644E-02 
936	 4.41691029655192E-02 
937	 4.15398662055869E-02 
938	 4.18741632074197E-02 
939	 4.23921419070695E-02 
940	 4.08789615285568E-02 
941	 4.09568091830331E-02 
942	 4.24660523604328E-02 
943	 0.042997396919513 
944	 0.040070686488069 
945	 3.77462363647124E-02 
946	 0.03718368192085 
947	 3.73280059821559E-02 
948	 3.93390296625712E-02 
949	 3.96336284734512E-02 
950	 3.83228309573483E-02 
951	 0.03776862952576 
952	 3.72924888312415E-02 
953	 3.73033988765882E-02 
954	 3.73488772986677E-02 
955	 3.67012070609428E-02 
956	 3.71125030521047E-02 
957	 3.67084777245873E-02 
958	 3.57424587985344E-02 
959	 3.58904010124968E-02 
960	 3.64179915446088E-02 
961	 3.53593112338794E-02 
962	 3.39904673804483E-02 
963	 3.51631566700868E-02 
964	 3.59705875100688E-02 
965	 0.035197891081291 
966	 3.38919879836907E-02 
967	 3.41977350621409E-02 
968	 3.48484966876387E-02 
969	 3.43426714107653E-02 
970	 3.32626226820751E-02 
971	 3.35966671004992E-02 
972	 3.33434276012022E-02 
973	 3.35503503683881E-02 
974	 3.39061143188157E-02 
975	 3.28495462790048E-02 
976	 3.23129172841559E-02 
977	 3.25007139849729E-02 
978	 3.27968640027974E-02 
979	 3.23830055795137E-02 
980	 3.28766276710977E-02 
981	 3.31448535830334E-02 
982	 3.27405474198086E-02 
983	 3.22051678095528E-02 
984	 3.31666051811912E-02 
985	 3.29582574929045E-02 
986	 0.031987911119474 
987	 3.28538842316055E-02 
988	 3.27764186502773E-02 
989	 3.33807770722921E-02 
990	 3.37371840643656E-02 
991	 3.17004740344538E-02 
992	 0.032007540333869 
993	 3.35485661033241E-02 
994	 3.37049382941986E-02 
995	 3.07232656004169E-02 
996	 3.14847488745294E-02 
997	 3.20682660909524E-02 
998	 3.19294225117581E-02 
999	 3.27599178995301E-02 
1000	 3.32426876871156E-02 
1001	 2.83560658421962E-02 
1002	 2.83309441972342E-02 
1003	 2.83379023058252E-02 
1004	 2.82800910790457E-02 
1005	 2.82910044293664E-02 
1006	 2.83503577867984E-02 
1007	 2.85993897932579E-02 
1008	 2.87280194801137E-02 
1009	 0.028804846842316 
1010	 2.89937091086135E-02 
1011	 2.91243467274199E-02 
1012	 2.88678912713176E-02 
1013	 2.84078563926157E-02 
1014	 2.81868917519303E-02 
1015	 2.78136525902829E-02 
1016	 2.76330838134001E-02 
1017	 2.75920881828328E-02 
1018	 2.78057417606325E-02 
1019	 0.028219366729716 
1020	 2.84797707611403E-02 
1021	 2.91157251443206E-02 
1022	 0.029433838575446 
1023	 2.91099200867544E-02 
1024	 2.88408167144998E-02 
1025	 2.84980405260772E-02 
1026	 2.82671793636292E-02 
1027	 2.81924910195937E-02 
1028	 2.84204481641118E-02 
1029	 2.83462250421184E-02 
1030	 2.81401942578264E-02 
1031	 0.028070825996316 
1032	 2.78857246866729E-02 
1033	 2.79010447019379E-02 
1034	 2.80895251659669E-02 
1035	 2.83597824754541E-02 
1036	 2.88969253164006E-02 
1037	 2.91108367589577E-02 
1038	 0.029185648636671 
1039	 2.94081608644035E-02 
1040	 2.94151071962962E-02 
1041	 2.93504857569556E-02 
1042	 2.92744063658031E-02 
1043	 2.92577610025269E-02 
1044	 0.029108291513492 
1045	 2.85323514808057E-02 
1046	 2.87259294341152E-02 
1047	 2.93254678820219E-02 
1048	 2.97736456497216E-02 
1049	 3.08206705111318E-02 
1050	 3.12323720011255E-02 
1051	 3.12748676108367E-02 
1052	 0.03129440533956 
1053	 3.09889101437719E-02 
1054	 3.08478028204253E-02 
1055	 3.05229787282365E-02 
1056	 3.04415311525039E-02 
1057	 3.04952674393016E-02 
1058	 3.07252631721769E-02 
1059	 3.08902992297276E-02 
1060	 3.12421808345572E-02 
1061	 3.14277666057623E-02 
1062	 0.031572772634839 
1063	 3.16306637908706E-02 
1064	 3.16246303335887E-02 
1065	 0.031606130413528 
1066	 3.14313908625855E-02 
1067	 3.13846013236191E-02 
1068	 3.15221443518017E-02 
1069	 3.14279673538962E-02 
1070	 3.09623748619883E-02 
1071	 3.09660408482261E-02 
1072	 3.12334778830545E-02 
1073	 0.03135287928956 
1074	 3.14211096978758E-02 
1075	 0.031903546299597 
1076	 3.17640027825791E-02 
1077	 3.08992966025258E-02 
1078	 3.07391912120852E-02 
1079	 3.08663012903524E-02 
1080	 3.07195908452334E-02 
1081	 0.030728244533027 
1082	 0.030624483202442 
1083	 3.00615920281124E-02 
1084	 2.98965042366276E-02 
1085	 3.01351304875214E-02 
1086	 3.01475665026114E-02 
1087	 0.030219976667585 
1088	 3.01988953200679E-02 
1089	 3.00097197755511E-02 
1090	 2.98348618081155E-02 
1091	 0.029664676141528 
1092	 2.94737012804299E-02 
1093	 0.029300803520031 
1094	 2.90869816854251E-02 
1095	 2.89696966469215E-02 
1096	 2.89473981255229E-02 
1097	 2.88143198354508E-02 
1098	 2.86690404714724E-02 
1099	 2.85623929918656E-02 
1100	 2.83131983237836E-02 
1101	 2.82925868658218E-02 
1102	 2.86295406995173E-02 
1103	 2.86504880210039E-02 
1104	 2.86326158214351E-02 
1105	 2.83990768740373E-02 
1106	 2.83731961638439E-02 
1107	 2.84340733910622E-02 
1108	 2.85172454509291E-02 
1109	 2.88999280442647E-02 
1110	 2.88492085780488E-02 
1111	 2.80809824241861E-02 
1112	 0.028052567203753 
1113	 2.83576799968639E-02 
1114	 2.87313239111792E-02 
1115	 3.00180413475944E-02 
1116	 3.05863486851577E-02 
1117	 3.02634838336587E-02 
1118	 0.030606124585393 
1119	 3.16371756883245E-02 
1120	 3.20679403842646E-02 
1121	 3.24092832085091E-02 
1122	 3.24894852806301E-02 
1123	 3.30365237498156E-02 
1124	 3.31882684522557E-02 
1125	 3.32646016733653E-02 
1126	 3.29510508777505E-02 
1127	 3.22954570057322E-02 
1128	 3.05002789070806E-02 
1129	 2.98389108757496E-02 
1130	 3.08511897839533E-02 
1131	 3.06264978078491E-02 
1132	 3.00912377950079E-02 
1133	 2.93691121478319E-02 
1134	 2.79759538811077E-02 
1135	 2.78882731269953E-02 
1136	 2.80265437075694E-02 
1137	 2.76192248455799E-02 
1138	 2.74661729372895E-02 
1139	 2.81187972040843E-02 
1140	 2.66597832226473E-02 
1141	 2.67144849813935E-02 
1142	 0.027239508316518 
1143	 2.65947736109466E-02 
1144	 2.73016919276599E-02 
1145	 2.76472728545537E-02 
1146	 2.72657081680788E-02 
1147	 2.77249135912125E-02 
1148	 2.78351652661867E-02 
1149	 2.66512700135162E-02 
1150	 2.63141549947905E-02 
1151	 2.68707518527769E-02 
1152	 2.66061465302912E-02 
1153	 2.58815924702075E-02 
1154	 2.56315083692295E-02 
1155	 2.58124565491823E-02 
1156	 2.46644948433194E-02 
1157	 2.40029479955998E-02 
1158	 2.45974745680909E-02 
1159	 2.43396895116963E-02 
1160	 2.38537930337146E-02 
1161	 2.41479195604217E-02 
1162	 2.40330115740509E-02 
1163	 2.36237116405804E-02 
1164	 2.36984232601281E-02 
1165	 2.37297789821924E-02 
1166	 2.32528674009984E-02 
1167	 2.31056139922546E-02 
1168	 2.34831449396162E-02 
1169	 2.32533538403667E-02 
1170	 2.29213165719968E-02 
1171	 2.30136387523762E-02 
1172	 2.34671910612914E-02 
1173	 2.33537629515438E-02 
1174	 2.30913608812303E-02 
1175	 2.33160087730554E-02 
1176	 2.32723046521849E-02 
1177	 2.29190110848279E-02 
1178	 2.30053024384165E-02 
1179	 2.30866354156712E-02 
1180	 2.27589894856776E-02 
1181	 2.26474838991606E-02 
1182	 2.27658681857576E-02 
1183	 2.28345061417757E-02 
1184	 2.27118684377277E-02 
1185	 2.25130709213036E-02 
1186	 2.24352585661185E-02 
1187	 2.24478657899797E-02 
1188	 0.022511617406274 
1189	 2.26265536614285E-02 
1190	 2.28173540629748E-02 
1191	 2.28034407493678E-02 
1192	 2.27422242685097E-02 
1193	 2.26111998960246E-02 
1194	 2.26505230239278E-02 
1195	 2.26450950826824E-02 
1196	 2.25546892675154E-02 
1197	 0.02252056945971 
1198	 2.26758566704503E-02 
1199	 0.022752372309481 
1200	 2.26524230305402E-02 
1201	 2.26696017685335E-02 
1202	 2.24841615717808E-02 
1203	 2.21580689570258E-02 
1204	 2.23056195184019E-02 
1205	 2.25039029383612E-02 
1206	 2.23840857644518E-02 
1207	 2.22255502923042E-02 
1208	 2.21882752813461E-02 
1209	 2.22875846533139E-02 
1210	 2.23124289915571E-02 
1211	 2.23942388086571E-02 
1212	 2.25654204005261E-02 
1213	 2.25152625840431E-02 
1214	 0.022440056112811 
1215	 2.24499872704175E-02 
1216	 2.25112571763316E-02 
1217	 2.23436101712699E-02 
1218	 2.22094196707965E-02 
1219	 2.21056560853025E-02 
1220	 2.20393133459643E-02 
1221	 2.20537995370391E-02 
1222	 2.19153412349902E-02 
1223	 2.19282459149729E-02 
1224	 0.022148146181006 
1225	 2.21729845799283E-02 
1226	 0.022119844843985 
1227	 2.19039590640172E-02 
1228	 0.021701782459654 
1229	 2.18460549518715E-02 
1230	 2.18718899839017E-02 
1231	 2.18619460845297E-02 
1232	 2.20922783156987E-02 
1233	 2.19085844060576E-02 
1234	 2.14500476552924E-02 
1235	 2.14063883943884E-02 
1236	 2.17451084702712E-02 
1237	 2.17856741786673E-02 
1238	 2.17872576483974E-02 
1239	 0.022025115763881 
1240	 2.21561442190017E-02 
1241	 2.19850348844137E-02 
1242	 2.17868457051864E-02 
1243	 2.18030500804465E-02 
1244	 2.17729162925887E-02 
1245	 2.14329963899457E-02 
1246	 2.14614961199793E-02 
1247	 2.19265771854705E-02 
1248	 2.20236137197363E-02 
1249	 2.19376012602272E-02 
1250	 0.021774232097952 
1251	 2.15476246948784E-02 
1252	 2.16846461789197E-02 
1253	 2.19587451339986E-02 
1254	 2.21025929405132E-02 
1255	 2.20409116540292E-02 
1256	 2.20110665099679E-02 
1257	 2.16799942094933E-02 
1258	 0.021633303409023 
1259	 0.021814102488245 
1260	 2.18227904919694E-02 
1261	 2.17330983995088E-02 
1262	 2.17982170402523E-02 
1263	 2.20115482434129E-02 
1264	 2.20255790330283E-02 
1265	 2.17977330069623E-02 
1266	 2.16893302632661E-02 
1267	 2.17001413594143E-02 
1268	 2.18765974389153E-02 
1269	 0.022193091335462 
1270	 2.22382651655746E-02 
1271	 2.19795898612522E-02 
1272	 2.17142385673527E-02 
1273	 2.16643169335645E-02 
1274	 2.17468320599029E-02 
1275	 2.15943266436786E-02 
1276	 2.13993878728371E-02 
1277	 2.15462312407354E-02 
1278	 2.17846372323479E-02 
1279	 2.18766411410841E-02 
1280	 2.18080997738569E-02 
1281	 2.17089053237201E-02 
1282	 2.12789642035813E-02 
1283	 2.11734001778231E-02 
1284	 2.12607990524798E-02 
1285	 2.12434748346176E-02 
1286	 2.12316888994729E-02 
1287	 2.12619156095029E-02 
1288	 2.13550237748436E-02 
1289	 2.13720889582901E-02 
1290	 2.14725270611111E-02 
1291	 2.13794216328089E-02 
1292	 2.12585764402454E-02 
1293	 2.12309973485789E-02 
1294	 2.13426919263309E-02 
1295	 2.14811828975504E-02 
1296	 2.14792413577509E-02 
1297	 2.14117968725183E-02 
1298	 2.14527695476085E-02 
1299	 2.15480829820649E-02 
1300	 2.13692199275477E-02 
1301	 0.021237142449439 
1302	 2.14989368391634E-02 
1303	 0.021453786613337 
1304	 2.14236383810903E-02 
1305	 2.17468457176816E-02 
1306	 2.18317278920374E-02 
1307	 2.14925385204534E-02 
1308	 2.14762970111871E-02 
1309	 2.16942142199107E-02 
1310	 2.17365832220516E-02 
1311	 2.17729387645416E-02 
1312	 2.17329423954832E-02 
1313	 2.14500145568295E-02 
1314	 2.15189357260254E-02 
1315	 0.021859888663503 
1316	 2.19264117585964E-02 
1317	 2.20730939778181E-02 
1318	 2.22024587028384E-02 
1319	 2.20602396703857E-02 
1320	 2.19785783757001E-02 
1321	 2.19386681465265E-02 
1322	 2.21709425073383E-02 
1323	 2.21051087343409E-02 
1324	 0.021942247572469 
1325	 2.19230416919329E-02 
1326	 2.20827918943715E-02 
1327	 2.27000729992775E-02 
1328	 2.27808121414886E-02 
1329	 2.23882717749036E-02 
1330	 2.27394550568355E-02 
1331	 2.30835107188192E-02 
1332	 2.30016313164671E-02 
1333	 2.32105567556929E-02 
1334	 2.31920428006744E-02 
1335	 2.31374011266752E-02 
1336	 0.022623502355984 
1337	 2.26746959636783E-02 
1338	 0.023333350035333 
1339	 2.34091396047115E-02 
1340	 2.30684112200698E-02 
1341	 2.30723486353597E-02 
1342	 0.022820579453667 
1343	 2.29318985695932E-02 
1344	 2.40788192112132E-02 
1345	 0.024732722837208 
1346	 2.48574611795904E-02 
1347	 2.56623255627197E-02 
1348	 2.71943882147199E-02 
1349	 2.89156075387914E-02 
1350	 3.26775368022596E-02 
1351	 3.67613179637344E-02 
1352	 3.99160471823916E-02 
1353	 0.043976099375348 
1354	 4.87532734503517E-02 
1355	 4.78663135556576E-02 
1356	 4.37514169487215E-02 
1357	 5.59601056678903E-02 
1358	 0.112887047459665 
1359	 0.189162906797895 
1360	 0.175913110004488 
1361	 0.151795147559733 
1362	 0.211511934935978 
1363	 0.226793913669628 
1364	 0.208162269695975 
1365	 0.263074592871685 
1366	 0.302809295616511 
1367	 0.225404612360114 
1368	 0.184688565046362 
1369	 0.335275450742503 
1370	 0.377718685016608 
1371	 0.224123945372404 
1372	 0.157472840477313 
1373	 0.17487202744458 
1374	 0.219562618426638 
1375	 0.226867602466031 
1376	 0.208328331230295 
1377	 0.32081943024633 
1378	 0.308243421665921 
1379	 6.29189645549805E-02 
1380	 3.06500924197873E-02 
1381	 0.238587142092548 
1382	 0.303791729049099 
1383	 0.340740211745198 
1384	 0.440747617569429 
1385	 0.499654995496677 
1386	 0.479379795271785 
1387	 0.414938156886647 
1388	 0.483106949571406 
1389	 0.717582395034691 
1390	 0.708928142515087 
1391	 0.625172363263608 
1392	 0.760798720657845 
1393	 0.615878037741222 
1394	 0.277082203323929 
1395	 0.220676791922514 
1396	 0.34512155653132 
1397	 0.207094166419559 
1398	 0.120533825485592 
1399	 0.165860412972777 
1400	 6.87652850017593E-02 
1401	 9.6067381311485E-03 
1402	 0.126574550160486 
1403	 0.184450480708427 
1404	 9.99808087627075E-02 
1405	 6.38658744657004E-02 
1406	 1.58362039076465E-02 
1407	-1.96638951229228E-02 
1408	-6.56909509436829E-02 
1409	-3.19857010480381E-02 
1410	 2.35997834333961E-02 
1411	 2.83317689855901E-02 
1412	 3.78797115480073E-02 
1413	 0.056628569613071 
1414	 7.56243238408823E-02 
1415	 6.30594683195748E-02 
1416	 5.28947428373519E-02 
1417	 4.29794593806292E-02 
1418	 3.42758107326639E-03 
1419	 2.14344450339162E-03 
1420	 2.83789530842893E-02 
1421	 3.36895948076555E-02 
1422	 3.17971202380144E-02 
1423	 3.50722871389122E-02 
1424	 4.17990163245846E-02 
1425	 0.037961339964797 
1426	 2.85374625692957E-02 
1427	 2.88783599246535E-02 
1428	 3.06436895311707E-02 
1429	 2.79149215203628E-02 
1430	 2.75714172260906E-02 
1431	 2.83098418451416E-02 
1432	 2.16765167519953E-02 
1433	 2.10315021925501E-02 
1434	 3.25423646298127E-02 
1435	 3.48580748603345E-02 
1436	 3.28619318570206E-02 
1437	 2.95167067623356E-02 
1438	 2.93440845744073E-02 
1439	 0.026726088203899 
1440	 2.41167100540094E-02 
1441	 2.69288083158673E-02 
1442	 2.94250818428245E-02 
1443	 2.66334144184419E-02 
1444	 2.46556851813534E-02 
1445	 2.71714923964461E-02 
1446	 2.64708605910943E-02 
1447	 0.021814606023049 
1448	 2.09050156301231E-02 
1449	 2.09796311334423E-02 
1450	 1.96387740520058E-02 
1451	 2.06529382612448E-02 
1452	 0.022297265578888 
1453	 2.20647250410612E-02 
1454	 2.21329760959218E-02 
1455	 2.26302726371625E-02 
1456	 2.25148827087411E-02 
1457	 2.12201769827455E-02 
1458	 2.14378456500907E-02 
1459	 0.022569333951098 
1460	 2.23754486669158E-02 
1461	 2.23364087566239E-02 
1462	 2.21582416688922E-02 
1463	 2.06238958311797E-02 
1464	 2.03092278896493E-02 
1465	 0.021177340711096 
1466	 2.12255814229002E-02 
1467	 2.07043379511173E-02 
1468	 2.10604283227112E-02 
1469	 2.23992977391373E-02 
1470	 2.20552028758964E-02 
1471	 2.08066537092095E-02 
1472	 2.11965726266751E-02 
1473	 2.12246421104395E-02 
1474	 2.11144149406684E-02 
1475	 2.21538820088613E-02 
1476	 2.29357173259634E-02 
1477	 2.37187371433183E-02 
1478	 2.31866151874407E-02 
1479	 2.16124578941742E-02 
1480	 2.18058631341048E-02 
1481	 2.22871816445876E-02 
1482	 2.18716388390173E-02 
1483	 2.23375346252392E-02 
1484	 2.24741180038624E-02 
1485	 0.021331779601555 
1486	 0.020700969140837 
1487	 2.07804156534429E-02 
1488	 2.07415156052906E-02 
1489	 2.05514812264414E-02 
1490	 2.01628755111466E-02 
1491	 1.97145826043318E-02 
1492	 1.96576108285646E-02 
1493	 0.019676227011323 
1494	 1.93729019106054E-02 
1495	 1.91923680613574E-02 
1496	 1.92282693424584E-02 
1497	 1.88690073217879E-02 
1498	 1.87311053738336E-02 
1499	 1.92286656941853E-02 
1500	 1.92203836477216E-02 
1501	 0.018836937882935 
1502	 1.86728279335612E-02 
1503	 1.82905486927779E-02 
1504	 0.018200908059304 
1505	 1.82113590964751E-02 
1506	 1.85728554323075E-02 
1507	 1.88773906379542E-02 
1508	 1.89176788955643E-02 
1509	 1.85988202049377E-02 
1510	 1.83110205313704E-02 
1511	 1.83455013760169E-02 
1512	 1.83058822289437E-02 
1513	 1.81880308719783E-02 
1514	 0.0182753136315 
1515	 1.83862991219081E-02 
1516	 1.83166733936999E-02 
1517	 1.83635818659327E-02 
1518	 1.85130738755535E-02 
1519	 1.84390920133441E-02 
1520	 0.018395541896277 
1521	 1.84836693874675E-02 
1522	 1.85106350117536E-02 
1523	 1.85548437370866E-02 
1524	 1.85137112691066E-02 
1525	 1.84285244905163E-02 
1526	 0.018335955479746 
1527	 1.82247563978346E-02 
1528	 1.82434172232081E-02 
1529	 1.81839267260855E-02 
1530	 1.81374554868622E-02 
1531	 1.83589875713021E-02 
1532	 1.84229170679867E-02 
1533	 1.82586021093095E-02 
1534	 1.83078896567486E-02 
1535	 1.83031861143763E-02 
1536	 1.81584077432119E-02 
1537	 1.82354484683228E-02 
1538	 0.018289650106539 
1539	 0.018268490994468 
1540	 0.018294179281786 
1541	 1.83606616910302E-02 
1542	 1.84493811652979E-02 
1543	 1.84097254352506E-02 
1544	 1.83436658008008E-02 
1545	 1.83127195792196E-02 
1546	 1.83891433603766E-02 
1547	 1.85168952352138E-02 
1548	 1.85697391700953E-02 
1549	 1.85507583899629E-02 
1550	 1.84354398425098E-02 
1551	 1.82757292027308E-02 
1552	 1.81141369506554E-02 
1553	 1.80730542432657E-02 
1554	 1.81577730124915E-02 
1555	 1.82705713641624E-02 
1556	 1.84039927564656E-02 
1557	 1.85536371204029E-02 
1558	 0.01858466401234 
1559	 1.83678238959544E-02 
1560	 1.81102959447354E-02 
1561	 1.80416356432024E-02 
1562	 1.81113361877967E-02 
1563	 1.81810345896669E-02 
1564	 1.82695306170268E-02 
1565	 1.82814748589518E-02 
1566	 1.80825360272285E-02 
1567	 1.81464764456209E-02 
1568	 1.84224586499294E-02 
1569	 1.84077346851286E-02 
1570	 1.84884375918688E-02 
1571	 1.85608640912435E-02 
1572	 1.82381122396785E-02 
1573	 1.80350902411756E-02 
1574	 1.81449591236037E-02 
1575	 1.82700043200529E-02 
1576	 1.83955137557451E-02 
1577	 1.85960452889061E-02 
1578	 1.85555904745881E-02 
1579	 0.018444322142652 
1580	 1.85647715119957E-02 
1581	 1.86530876853323E-02 
1582	 1.87996861270137E-02 
1583	 1.86433008169176E-02 
1584	 1.83063188655501E-02 
1585	 1.85556771027045E-02 
1586	 1.86191589810281E-02 
1587	 1.82469515482291E-02 
1588	 1.83683941724382E-02 
1589	 1.87091824564085E-02 
1590	 1.85998970004887E-02 
1591	 1.85275531941784E-02 
1592	 1.88318840116432E-02 
1593	 1.87528014248482E-02 
1594	 1.84527165135934E-02 
1595	 1.86597047474975E-02 
1596	 1.87915309695725E-02 
1597	 1.84965814294783E-02 
1598	 1.85174989895679E-02 
1599	 1.87933121322655E-02 
1600	 1.87361870117104E-02 
1601	 0.01870495638681 
1602	 1.88627838155103E-02 
1603	 1.88637677063635E-02 
1604	 1.88806717013819E-02 
1605	 1.89384739313333E-02 
1606	 1.87938332369599E-02 
1607	 1.87256751427436E-02 
1608	 1.88018089205739E-02 
1609	 1.88972064613195E-02 
1610	 1.89650123419472E-02 
1611	 1.88403571693213E-02 
1612	 1.88077559900729E-02 
1613	 1.89496291883249E-02 
1614	 1.89386578093728E-02 
1615	 1.89055382983372E-02 
1616	 1.88910043516069E-02 
1617	 0.018684972727346 
1618	 1.86616438698519E-02 
1619	 1.89125783557698E-02 
1620	 1.87115524641983E-02 
1621	 1.84835436937789E-02 
1622	 1.88237173272023E-02 
1623	 1.88447837431611E-02 
1624	 1.86140967777211E-02 
1625	 1.87524317155553E-02 
1626	 1.87391892979955E-02 
1627	 1.85226891051268E-02 
1628	 1.87182926169308E-02 
1629	 0.019093828788819 
1630	 1.89010523562782E-02 
1631	 1.84535880673971E-02 
1632	 1.85971021653304E-02 
1633	 1.87728756159894E-02 
1634	 1.85644269412171E-02 
1635	 0.018759585183031 
1636	 1.90076705905608E-02 
1637	 0.018814445114308 
1638	 1.86609905812045E-02 
1639	 1.85758871274757E-02 
1640	 1.84408143932798E-02 
1641	 1.83084214109752E-02 
1642	 1.84008604407153E-02 
1643	 1.87865841856797E-02 
1644	 1.89470449137609E-02 
1645	 0.018835630771189 
1646	 1.88252048709434E-02 
1647	 1.88426779876937E-02 
1648	 1.88557142744802E-02 
1649	 1.89050658628651E-02 
1650	 1.87973345547512E-02 
1651	 1.86538477126597E-02 
1652	 1.85725894822176E-02 
1653	 1.85978576943563E-02 
1654	 1.87270494349494E-02 
1655	 1.89364190228356E-02 
1656	 1.88823020785576E-02 
1657	 1.87746294596626E-02 
1658	 1.87675525456797E-02 
1659	 1.86591750495419E-02 
1660	 1.86081547972115E-02 
1661	 1.86543817437951E-02 
1662	 1.86375034383736E-02 
1663	 0.018474287996977 
1664	 1.84430694751517E-02 
1665	 1.86674877878051E-02 
1666	 1.88153203074127E-02 
1667	 1.87711721025586E-02 
1668	 1.88388116110005E-02 
1669	 1.91235331189184E-02 
1670	 1.89687673424345E-02 
1671	 1.86335952960378E-02 
1672	 0.018505218292141 
1673	 1.84554055449708E-02 
1674	 1.82982920853857E-02 
1675	 1.82474930494321E-02 
1676	 0.018588209875571 
1677	 1.86079190311756E-02 
1678	 1.81506935224818E-02 
1679	 1.83488868324332E-02 
1680	 0.01873428329274 
1681	 1.85454405783466E-02 
1682	 1.85665597787806E-02 
1683	 0.018759779099717 
1684	 1.87450164849369E-02 
1685	 1.90355672788322E-02 
1686	 1.93568722399485E-02 
1687	 1.90582987830472E-02 
1688	 1.86088913270298E-02 
1689	 1.86099291324822E-02 
1690	 1.88757218071434E-02 
1691	 1.92087635142453E-02 
1692	 1.94289428073895E-02 
1693	 1.91526594275677E-02 
1694	 1.86509170170484E-02 
1695	 1.85035549937206E-02 
1696	 1.85425334888101E-02 
1697	 1.83814247355237E-02 
1698	 1.85040351025019E-02 
1699	 1.87947201397594E-02 
1700	 1.86641727776746E-02 
1701	 1.87262752633127E-02 
1702	 1.87281696285201E-02 
1703	 1.84283314723645E-02 
1704	 1.86705587640504E-02 
1705	 1.89170054588007E-02 
1706	 1.88182072691491E-02 
1707	 1.88872450004705E-02 
1708	 1.88528234191316E-02 
1709	 1.87262523044438E-02 
1710	 1.87093473999262E-02 
1711	 1.86734893376599E-02 
1712	 1.87462762853752E-02 
1713	 1.90017619460424E-02 
1714	 1.89166426399685E-02 
1715	 1.86033034850573E-02 
1716	 1.87410185343226E-02 
1717	 1.87029510974797E-02 
1718	 1.88796343183067E-02 
1719	 1.92785517128518E-02 
1720	 0.019261775159779 
1721	 1.89351478955465E-02 
1722	 1.85496907317216E-02 
1723	 1.84380037779221E-02 
1724	 1.89651346790436E-02 
1725	 1.93818666296486E-02 
1726	 1.91914515597659E-02 
1727	 1.89282339498956E-02 
1728	 1.88376989349711E-02 
1729	 1.88161781480803E-02 
1730	 1.89405135200449E-02 
1731	 1.92193028491147E-02 
1732	 1.89188120490488E-02 
1733	 0.018263102366633 
1734	 1.82747751142282E-02 
1735	 1.88227099921412E-02 
1736	 1.91694607033186E-02 
1737	 1.91054280568259E-02 
1738	 0.019432680763228 
1739	 1.95154431969841E-02 
1740	 1.88656015121364E-02 
1741	 1.87474786731598E-02 
1742	 1.85997876654903E-02 
1743	 1.81580207096104E-02 
1744	 1.82810990010026E-02 
1745	 1.86296784087018E-02 
1746	 1.88037357500235E-02 
1747	 1.88747502163465E-02 
1748	 0.01888331792571 
1749	 1.88412336236345E-02 
1750	 1.86471208417875E-02 
1751	 1.88046553033585E-02 
1752	 1.92351645896884E-02 
1753	 0.019218313582275 
1754	 1.89972941772772E-02 
1755	 1.90231341188029E-02 
1756	 1.88855307429101E-02 
1757	 1.88427794375498E-02 
1758	 0.019366669771302 
1759	 1.90392775019943E-02 
1760	 1.85132042019052E-02 
1761	 0.018760269141891 
1762	 1.88331039485804E-02 
1763	 1.90645173138263E-02 
1764	 1.93727081965804E-02 
1765	 1.89761283302675E-02 
1766	 1.86246273331421E-02 
1767	 1.86615173229731E-02 
1768	 1.87320428012671E-02 
1769	 0.019525387364004 
1770	 2.01437932507976E-02 
1771	 1.93567168442442E-02 
1772	 1.91514245199083E-02 
1773	 1.97543909439133E-02 
1774	 1.93370234548402E-02 
1775	 2.00340270969494E-02 
1776	 0.020319757729355 
1777	 0.019251226000455 
1778	 1.91997635929982E-02 
1779	 1.96619507975206E-02 
1780	 1.99059747036161E-02 
1781	 2.12403907437066E-02 
1782	 0.021363243469942 
1783	 2.08074861726485E-02 
1784	 2.05181597680266E-02 
1785	 1.83742272254386E-02 
1786	 1.84173599067759E-02 
1787	 2.05175525758212E-02 
1788	 0.020684491728577 
1789	 2.16957510144215E-02 
1790	 0.021245941759223 
1791	 1.96099925435563E-02 
1792	 2.06646317101934E-02 
1793	 2.07643222944188E-02 
1794	 2.15668419581719E-02 
1795	 0.02397055626423 
1796	 2.83340164312746E-02 
1797	 3.16744053259583E-02 
1798	 2.95697253957807E-02 
1799	 0.028755138928722 
1800	 2.17554439160254E-02 
1801	 1.82435625201167E-02 
1802	 0.020025787260263 
1803	 0.02136442418349 
1804	 2.81747291359429E-02 
1805	 3.56258931124731E-02 
1806	 4.57566732729155E-02 
1807	 5.61533790571731E-02 
1808	 7.10487696723139E-02 
1809	 7.53699655037297E-02 
1810	 5.76849790440779E-02 
1811	 6.67363883310508E-02 
1812	 7.52579160182724E-02 
1813	 9.35411679870236E-02 
1814	 0.17757719939405 
1815	 0.188697582804371 
1816	 0.112311073731609 
1817	 0.260036993561595 
1818	 0.288776921086915 
1819	 0.478723215331024 
1820	 0.612947559929528 
1821	 0.42005260678444 
1822	 0.249474010455166 
1823	 0.24270280961961 
1824	 0.34657659945368 
1825	 0.483169150466284 
1826	 0.489554987228617 
1827	 0.736478382871073 
1828	 0.787013422730697 
1829	 0.164143299849108 
1830	 0.089960798862778 
1831	 1.24531604586529 
1832	 1.50485886618867 
1833	 1.70484616060055 
1834	 2.84624012485278 
1835	-2.17971322191896 
1836	-1.49737878945165 
1837	-15.0844334572152 
1838	 6.04363323049209 
1839	 2.09189008768154 
1840	 1.49785237919418 
1841	 2.29975746244481 
1842	 4.98378510059821 
1843	 9.43720483318594 
1844	-2.57461458273292 
1845	-5.94114348499769 
1846	 2.35710462665049 
1847	 5.3200413483803 
1848	-11.9146744952519 
1849	-5.02305190338754 
1850	-3.31852252459449 
1851	-1.40653906570408 
1852	 3.83459300721862 
1853	 0.308173244263356 
1854	 0.204144434505693 
1855	 0.676512307237963 
1856	 0.916188542407678 
1857	 1.29745285617111 
1858	 1.3194714908665 
1859	 1.23773600194604 
1860	 2.65835392892811 
1861	 0.632823428059472 
1862	-2.94935210834554 
1863	-12.3624059474295 
1864	-2.40496627157663 
1865	-1.29874472387221 
1866	-0.160116210219306 
1867	 0.202486740840324 
1868	 0.555991665948632 
1869	 0.617334982645819 
1870	 0.683413904301849 
1871	 1.03598384145542 
1872	 0.284234159264517 
1873	 0.687619740134817 
1874	 8.40021158602529 
1875	 12.3927037478476 
1876	 17.9781106579165 
1877	 1.89007404500514 
1878	 2.1886535503113 
1879	-10.7373706932282 
1880	 21.1174621629593 
1881	 0.981632368701845 
1882	 0.99489037819592 
1883	 0.936289753313411 
1884	 0.146278390358292 
1885	-4.28634977368846E-02 
1886	-0.143066448929266 
1887	 0.139247944635909 
1888	 0.581587556239434 
1889	 0.759000277120833 
1890	 5.10105262798624 
1891	 5.91965932858087 
1892	 0.974077251789099 
1893	 0.590435467204042 
1894	 1.07568426085073 
1895	 0.980890630990746 
1896	 1.04655332304519 
1897	 2.2610847355384 
1898	 1.8993515291019 
1899	 0.974879954575238 
1900	 1.27073384391553 
1901	-2.30692179091739 
1902	-3.14104681415163 
1903	 1.41928896707836 
1904	 1.34666053650092 
1905	 2.51078891113747 
1906	 0.385909912034805 
1907	-0.612169018711631 
1908	 2.80721130118664 
1909	-0.120913318748368 
1910	-0.235297997091964 
1911	-7.75843504335763E-02 
1912	-0.137005145712809 
1913	-6.02538898135683E-02 
1914	-4.70518053315297 
1915	-1.12367346298517 
1916	-0.377562430053487 
1917	-1.39595136699148E-02 
1918	 0.844544564365324 
1919	-0.763601539453201 
1920	-0.174900913594806 
1921	 0.620125228823582 
1922	 1.01614008153578 
1923	 1.29935651995425 
1924	 3.86590250874225 
1925	-1.38924225176019 
1926	-0.477637724465156 
1927	 1.32850626026758 
1928	 0.800832983569779 
1929	 0.310340856360949 
1930	 0.434943976018083 
1931	 1.14877050641755 
1932	 0.906656509858796 
1933	 0.684513044455455 
1934	 0.517774190763688 
1935	 0.281408674918573 
1936	 0.189955896334407 
1937	 0.173172828756042 
1938	 0.146431929022419 
1939	 0.124375784789363 
1940	 0.11634354401385 
1941	 6.38909297342667E-02 
1942	 3.02598132417111E-02 
1943	 3.61792268911242E-02 
1944	 8.19625916267741E-03 
1945	 4.89487785315359E-03 
1946	 2.15667095362804E-02 
1947	 1.95406839582199E-02 
1948	 2.17911152310792E-02 
1949	 2.76248448585107E-02 
1950	 3.31349871444655E-02 
1951	 3.47467731677105E-02 
1952	 3.44650016314216E-02 
1953	 3.45198608246754E-02 
1954	 3.70461233044055E-02 
1955	 3.66886074523915E-02 
1956	 2.97820875228088E-02 
1957	 2.84092903857914E-02 
1958	 2.76482914006367E-02 
1959	 1.88111546123235E-02 
1960	 0.016394660442762 
1961	 1.40624524722141E-02 
1962	 1.06361113113841E-02 
1963	 1.47732290635127E-02 
1964	 1.61069900607251E-02 
1965	 1.46532301456496E-02 
1966	 1.39388631938821E-02 
1967	 1.30534814694878E-02 
1968	 1.08037096344796E-02 
1969	 1.08363333698822E-02 
1970	 1.32355024742032E-02 
1971	 1.62801861908903E-02 
1972	 1.76938886579842E-02 
1973	 1.84753848259607E-02 
1974	 1.85223635902065E-02 
1975	 1.78390421955527E-02 
1976	 1.80473123492443E-02 
1977	 1.82895299215999E-02 
1978	 1.81100483152194E-02 
1979	 1.77326805169297E-02 
1980	 1.70310189997941E-02 
1981	 1.69189635693794E-02 
1982	 0.017241232836653 
1983	 1.73204099672955E-02 
1984	 1.76859337811069E-02 
1985	 1.69605449200792E-02 
1986	 0.015589678618442 
1987	 1.55996289210644E-02 
1988	 1.59829453394167E-02 
1989	 1.63423233012053E-02 
1990	 1.62896418007052E-02 
1991	 1.55397127963726E-02 
1992	 1.55853885950482E-02 
1993	 1.62632789525073E-02 
1994	 1.66807936863826E-02 
1995	 1.79224021359729E-02 
1996	 1.86503308251327E-02 
1997	 1.82371585350261E-02 
1998	 1.77116494604967E-02 
1999	 1.70443564602112E-02 
2000	 1.65742103483569E-02 
2001	 1.53251172743493E-02 
2002	 1.44869763353791E-02 
2003	 1.63373803861431E-02 
2004	 1.69255910557817E-02 
2005	 1.91647422147481E-02 
2006	 2.25973698286873E-02 
2007	 2.45522441695117E-02 
2008	 2.60543780975349E-02 
2009	 2.63433367131585E-02 
2010	 2.61165948750344E-02 
2011	 2.54065613219438E-02 
2012	 2.26962934226838E-02 
2013	 2.12643608835919E-02 
2014	 2.14793479223832E-02 
2015	 2.00800080947092E-02 
2016	 1.89112612197702E-02 
2017	 0.018432833844382 
2018	 1.85652825012526E-02 
2019	 1.80059073087289E-02 
2020	 0.019288214425344 
2021	 2.08372477141952E-02 
2022	 1.89563352792558E-02 
2023	 0.017858877076686 
2024	 1.74566096183703E-02 
2025	 1.58685385440512E-02 
2026	 1.56237637528614E-02 
2027	 1.68686926250792E-02 
2028	 1.75466508564881E-02 
2029	 0.017166455866932 
2030	 1.70807425046085E-02 
2031	 1.63258768251043E-02 
2032	 0.016252079712246 
2033	 1.63744268770125E-02 
2034	 1.59467517789137E-02 
2035	 1.65685344142418E-02 
2036	 0.016541917864068 
2037	 1.57602524974448E-02 
2038	 1.60842054567516E-02 
2039	 1.58340887849192E-02 
2040	 1.46111597304017E-02 
2041	 1.45071729609199E-02 
2042	 1.48168250276636E-02 
2043	 1.47815341491839E-02 
2044	 1.48071705632473E-02 
2045	 1.58260558878298E-02 
2046	 1.63738011929576E-02 
2047	 1.74619389342796E-02 
2048	 1.85193479870367E-02 
2049	 1.82788745392988E-02 
2050	 1.71506957567079E-02 
2051	 0.016385939371964 
2052	 1.54351863359954E-02 
2053	 1.52777330819928E-02 
2054	 1.66403422290976E-02 
2055	 1.75460965040684E-02 
2056	 1.76268668062525E-02 
2057	 1.74289743990375E-02 
2058	 1.72493219371809E-02 
2059	 1.59092637814335E-02 
2060	 1.52525277958693E-02 
2061	 1.49338398197806E-02 
2062	 1.54668142590781E-02 
2063	 1.54254194461301E-02 
2064	 1.49730446462826E-02 
2065	 1.54215897737084E-02 
2066	 1.55752713657626E-02 
2067	 0.015077798730804 
2068	 1.52417715846717E-02 
2069	 1.56520852035937E-02 
2070	 1.60918382003159E-02 
2071	 1.69816078717798E-02 
2072	 1.73782263743646E-02 
2073	 1.77619525173906E-02 
2074	 1.86103742712907E-02 
2075	 1.82207197389278E-02 
2076	 1.65939325445159E-02 
2077	 1.63549036500463E-02 
2078	 1.58256612637212E-02 
2079	 1.54657396857824E-02 
2080	 1.58539304729158E-02 
2081	 1.65734897788337E-02 
2082	 1.59461814435139E-02 
2083	 1.55437481104256E-02 
2084	 1.65061852842324E-02 
2085	 1.78507189766273E-02 
2086	 1.90851332395983E-02 
2087	 1.99885160573298E-02 
2088	 1.96166465822945E-02 
2089	 1.92537745706202E-02 
2090	 1.90073109376052E-02 
2091	 1.83506171291392E-02 
2092	 1.78122125011867E-02 
2093	 1.68520772587615E-02 
2094	 1.65924870207042E-02 
2095	 0.01688018747618 
2096	 1.68564486561972E-02 
2097	 1.72612585676999E-02 
2098	 1.74612225038982E-02 
2099	 1.73553671165241E-02 
2100	 1.69122195295374E-02 
2101	 1.70760101191165E-02 
2102	 1.73416668998549E-02 
2103	 0.017672218876963 
2104	 1.79392543635453E-02 
2105	 1.78762682032673E-02 
2106	 1.75347359217045E-02 
2107	 0.016903337570163 
2108	 1.65676455660924E-02 
2109	 1.65398652110318E-02 
2110	 1.64044525415854E-02 
2111	 1.65117640271392E-02 
2112	 1.65140240622126E-02 
2113	 1.66742383480158E-02 
2114	 1.71168122498793E-02 
2115	 1.76202528615487E-02 
2116	 1.87897239601305E-02 
2117	 1.87979104521489E-02 
2118	 1.79981540689468E-02 
2119	 1.75807838230332E-02 
2120	 1.65929504539345E-02 
2121	 1.55192426447017E-02 
2122	 1.58762139991386E-02 
2123	 1.72976274611783E-02 
2124	 1.81534780995708E-02 
2125	 1.87701811435745E-02 
2126	 0.01893794847031 
2127	 1.79676662725305E-02 
2128	 1.75017398793718E-02 
2129	 0.017821386676545 
2130	 1.81885722107982E-02 
2131	 0.018935760870478 
2132	 1.90657519519504E-02 
2133	 1.82859988212618E-02 
2134	 1.77936000332101E-02 
2135	 1.64176410798676E-02 
2136	 1.62992030388204E-02 
2137	 1.73818582163995E-02 
2138	 1.75132612790041E-02 
2139	 1.77472682349568E-02 
2140	 1.78171954853385E-02 
2141	 1.66972633231566E-02 
2142	 1.65082321058272E-02 
2143	 1.66143213073499E-02 
2144	 1.77628714090433E-02 
2145	 1.84711692203678E-02 
2146	 1.94736497011456E-02 
2147	 2.05368571364821E-02 
2148	 2.04417157489248E-02 
2149	 2.02613719869743E-02 
2150	 2.07461794168822E-02 
2151	 2.13918484900525E-02 
2152	 2.12150025412009E-02 
2153	 2.10542810395166E-02 
2154	 2.05448734772706E-02 
2155	 0.018304153720006 
2156	 1.73079671197347E-02 
2157	 1.66043644367335E-02 
2158	 1.58822848195333E-02 
2159	 1.53602844986622E-02 
2160	 1.55490164451942E-02 
2161	 1.56115299320069E-02 
2162	 1.57550523246041E-02 
2163	 1.57959719376825E-02 
2164	 1.59379766044534E-02 
2165	 1.65516143989981E-02 
2166	 1.74559686183794E-02 
2167	 1.77083274391851E-02 
2168	 1.79196026710898E-02 
2169	 0.018176300709984 
2170	 1.76752400772135E-02 
2171	 1.79056569624432E-02 
2172	 1.82333454383216E-02 
2173	 1.96244991250681E-02 
2174	 1.92486064932239E-02 
2175	 1.77324873737905E-02 
2176	 1.76431938522653E-02 
2177	 1.68277221831107E-02 
2178	 1.63148247591336E-02 
2179	 1.70234555835585E-02 
2180	 0.016977031930857 
2181	 1.64953445785838E-02 
2182	 1.74746305470454E-02 
2183	 1.82535894843707E-02 
2184	 1.82224940251531E-02 
2185	 1.95821268447635E-02 
2186	 1.98318026659933E-02 
2187	 1.86602421635449E-02 
2188	 1.83953626536823E-02 
2189	 1.88962397630254E-02 
2190	 1.78727013780215E-02 
2191	 1.55329592643229E-02 
2192	 1.52108568451684E-02 
2193	 1.43471638830108E-02 
2194	 1.50583155069313E-02 
2195	 1.93903814498305E-02 
2196	 2.08873730524816E-02 
2197	 2.19479907367277E-02 
2198	 2.20532577052483E-02 
2199	 1.99288898535989E-02 
2200	 1.85308150341114E-02 
2201	 1.89685895215222E-02 
2202	 1.76972132666654E-02 
2203	 1.63234407142057E-02 
2204	 1.56842012923989E-02 
2205	 1.45446564011093E-02 
2206	 1.42919606717929E-02 
2207	 1.60020901577359E-02 
2208	 1.81019743065957E-02 
2209	 1.86973468833699E-02 
2210	 1.79441698624311E-02 
2211	 1.67348752085466E-02 
2212	 1.61509034134448E-02 
2213	 1.64002405086758E-02 
2214	 1.74078558373209E-02 
2215	 1.82099557634806E-02 
2216	 1.75188918148592E-02 
2217	 1.78697766404506E-02 
2218	 1.80758819254943E-02 
2219	 1.83626068544832E-02 
2220	 2.00188399906222E-02 
2221	 1.98991749964852E-02 
2222	 1.73599450517164E-02 
2223	 1.73510758335574E-02 
2224	 0.018789222181397 
2225	 1.88105242043564E-02 
2226	 2.00151168476653E-02 
2227	 1.96052269495162E-02 
2228	 1.54403011072606E-02 
2229	 1.43802152149169E-02 
2230	 1.47487861663879E-02 
2231	 1.52394758648602E-02 
2232	 1.85297575125531E-02 
2233	 1.97419899546948E-02 
2234	 1.98440508496946E-02 
2235	 1.95804330978946E-02 
2236	 2.04342344392184E-02 
2237	 1.99227278134269E-02 
2238	 2.07451161207325E-02 
2239	 2.17624855451386E-02 
2240	 1.86630778749831E-02 
2241	 1.68167880062123E-02 
2242	 0.016702723818839 
2243	 1.55470745322627E-02 
2244	 1.56444567068017E-02 
2245	 1.65381268081678E-02 
2246	 1.74721499246129E-02 
2247	 1.86207570674646E-02 
2248	 1.96583288421857E-02 
2249	 2.00672248791751E-02 
2250	 2.07180488645324E-02 
2251	 0.0199959344807 
2252	 1.76737261693363E-02 
2253	 0.018678665131078 
2254	 1.97659465251337E-02 
2255	 0.018054078784894 
2256	 1.73941293902766E-02 
2257	 0.017430249912355 
2258	 1.61699784378237E-02 
2259	 1.57257351386234E-02 
2260	 1.61698865072827E-02 
2261	 1.84072324169099E-02 
2262	 1.88764058336688E-02 
2263	 1.91006421169072E-02 
2264	 1.96747721473544E-02 
2265	 0.021072893988179 
2266	 1.98459165429115E-02 
2267	 1.57233805236983E-02 
2268	 1.51452129131028E-02 
2269	 0.014877074436674 
2270	 1.49731062004267E-02 
2271	 1.90155950380967E-02 
2272	 1.94075752519956E-02 
2273	 1.57991885831584E-02 
2274	 1.44276403334505E-02 
2275	 1.31561008934556E-02 
2276	 1.29904160801148E-02 
2277	 1.50296672339158E-02 
2278	 1.55115145477378E-02 
2279	 1.47672836879364E-02 
2280	 1.47604931126905E-02 
2281	 1.42889543387502E-02 
2282	 1.50757967735494E-02 
2283	 1.64888773445062E-02 
2284	 1.80514757069031E-02 
2285	 0.018912214726857 
2286	 1.80264697862707E-02 
2287	 1.54066253721501E-02 
2288	 1.65491266640369E-02 
2289	 1.94496272736249E-02 
2290	 1.87836710828707E-02 
2291	 1.88751147826112E-02 
2292	 1.97857899703711E-02 
2293	 1.72907211404413E-02 
2294	 1.73382302821061E-02 
2295	 1.97835833676086E-02 
2296	 1.78433484998199E-02 
2297	 1.94765087240008E-02 
2298	 2.26651888615908E-02 
2299	 0.019350578503659 
2300	 1.76204603744942E-02 
2301	 0.016612867199391 
2302	 0.012197450096001 
2303	 1.23146204185901E-02 
2304	 1.59365895878379E-02 
2305	 1.46604944606092E-02 
2306	 1.42973228433804E-02 
2307	 1.69404676089364E-02 
2308	 1.85790680385923E-02 
2309	 2.26663396312712E-02 
2310	 2.50625827498791E-02 
2311	 2.19574953046832E-02 
2312	 1.91234012326364E-02 
2313	 1.89038237323225E-02 
2314	 1.94455313293404E-02 
2315	 2.26212791020875E-02 
2316	 2.62678674877585E-02 
2317	 2.27470443120999E-02 
2318	 0.016511862739586 
2319	 1.41470536514222E-02 
2320	 1.23281348031766E-02 
2321	 1.18245336022237E-02 
2322	 1.14575644339164E-02 
2323	 8.48954287643236E-03 
2324	 8.20389389631832E-03 
2325	 1.11762679296222E-02 
2326	 1.61865346142645E-02 
2327	 2.05392500722707E-02 
2328	 2.00274188325223E-02 
2329	 1.68967904875952E-02 
2330	 1.73349419815465E-02 
2331	 1.51940183516318E-02 
2332	 7.08534106725781E-03 
2333	 5.45065511803582E-03 
2334	 2.90557110660575E-03 
2335	-2.67852762628613E-04 
2336	 7.90717327614183E-03 
2337	 1.20357266760865E-02 
2338	 0.011088551292451 
2339	 1.99886075608223E-02 
2340	 2.42533505039183E-02 
2341	 2.09292230406084E-02 
2342	 2.07822984580789E-02 
2343	 2.03109080247798E-02 
2344	 2.26267979633816E-02 
2345	 2.80797023170059E-02 
2346	 0.035500140186651 
2347	 3.84925729906966E-02 
2348	 4.09272069632807E-02 
2349	 4.01844555340205E-02 
2350	 2.73450802593731E-02 
2351	 2.11576107099145E-02 
2352	 5.77823825760178E-03 
2353	-1.13244977488939E-02 
2354	-4.44229986475293E-03 
2355	-9.74523579299283E-03 
2356	-1.42486808608244E-02 
2357	 7.76874857242662E-03 
2358	 1.80738130019688E-02 
2359	 1.58431747800646E-02 
2360	 2.20722391066897E-02 
2361	 0.020939755931304 
2362	 1.89158509163629E-02 
2363	 2.68197890255794E-02 
2364	 2.99625292979299E-02 
2365	 0.02638760655758 
2366	 2.54071852898946E-02 
2367	 2.72867161067246E-02 
2368	 2.68704851768726E-02 
2369	 3.22181902762194E-02 
2370	 3.04902900337323E-02 
2371	 2.87966952208955E-02 
2372	 0.040148033173571 
2373	 3.70827859322985E-02 
2374	 3.63158862799693E-02 
2375	 2.74440748885462E-02 
2376	 0.012371019739016 
2377	 1.60310900686521E-02 
2378	 1.76721918989733E-02 
2379	 1.90951182643329E-02 
2380	 1.83031321283131E-02 
2381	 2.24285183627893E-02 
2382	 2.34565474918797E-02 
2383	 0.026751541504723 
2384	 4.45744439133317E-02 
2385	 3.36937776081111E-02 
2386	 0.022784641316412 
2387	 3.58516756075741E-02 
2388	 4.44935321705879E-02 
2389	 5.39576240641675E-02 
2390	 6.25468890946872E-02 
2391	 5.33602037750949E-02 
2392	 4.19957983955282E-02 
2393	 4.44497271822089E-02 
2394	 2.71444923290188E-02 
2395	 3.81838769633159E-02 
2396	 4.91627280410986E-02 
2397	 3.84790880355597E-02 
2398	 0.070511721603361 
2399	 7.62216885713205E-02 
2400	 0.073437062356743 
2401	 8.35471789811273E-02 
2402	 7.63195419541937E-02 
2403	 9.08925699364781E-02 
2404	 9.99461942705735E-02 
2405	 0.129374225026621 
2406	 0.173556101407246 
2407	 0.160343096377833 
2408	 0.13722466167229 
2409	 0.131140803693434 
2410	 0.12733631217658 
2411	 0.120894547197325 
2412	 0.100321029259006 
2413	 2.12738044764512E-02 
2414	-6.44287427985608E-02 
2415	-4.98269769068427E-02 
2416	 1.39440801748024E-02 
2417	 3.03919950895561E-02 
2418	 3.56687391551613E-02 
2419	 2.26103532754513E-02 
2420	 8.60920564579958E-04 
2421	 3.25651631034375E-02 
2422	 9.25175069153123E-02 
2423	 9.15850229536323E-02 
2424	 7.99105335400457E-02 
2425	 9.05995738680722E-02 
2426	 0.065102713802433 
2427	 3.55407702865377E-02 
2428	 1.58375496386521E-02 
2429	 1.52745614039678E-02 
2430	 3.80572905189185E-03 
2431	-2.11433646084822E-02 
2432	 2.40162916908763E-03 
2433	 1.61460356848861E-04 
2434	 1.17744514197094E-02 
2435	 6.28167751943522E-03 
2436	-4.87271823333903E-02 
2437	-4.32880570949565E-02 
2438	-3.32232485888845E-02 
2439	-3.79864711500778E-02 
2440	-1.03234707902333E-02 
2441	-2.60347830413283E-02 
2442	-4.87884033503061E-02 
2443	 1.54164657638465E-02 
2444	 8.68716170952123E-02 
2445	 0.127953847869574 
2446	 0.143371159147009 
2447	 0.125261678718308 
2448	 0.122984770760644 
2449	 3.73271627825122E-02 
2450	-1.71511011251536E-02 
2451	 5.52703936825183E-02 
2452	 3.54535209730887E-02 
2453	-1.39698882701316E-02 
2454	 2.33631159521808E-02 
2455	-1.39651410714067E-02 
2456	-0.136233976289672 
2457	-0.152900380934876 
2458	-9.84657999103455E-02 
2459	 0.042481362133531 
2460	 0.211914410786546 
2461	 0.501775329619116 
2462	 0.982716682027947 
2463	 0.78730581238478 
2464	 0.660353590351218 
2465	 0.657667576529701 
2466	 0.322652157895902 
2467	 0.444609428643257 
2468	 0.50813362178051 
2469	 0.512125485179921 
2470	 1.79627739427955 
2471	 2.25196300157744 
2472	 1.83584011985072E-02 
2473	-0.464957496558876 
2474	-0.611925943267657 
2475	-0.773196101306462 
2476	-0.446687506013096 
2477	-6.66066373601652E-03 
2478	 0.076123526516389 
2479	 0.108863571536341 
2480	 0.348049384448302 
2481	 0.475344999738903 
2482	 0.227076600533312 
2483	-0.138683444266764 
2484	-2.07953301121857E-02 
2485	-0.458311410164968 
2486	 1.9735107395865 
2487	 0.763105437660581 
2488	 0.938111308108423 
2489	 1.81274425820182 
2490	 2.83281925330991 
2491	 0.194864978764837 
2492	 1.75568627887867 
2493	-1.07993655806815 
2494	-1.05877121508019 
2495	-0.71226766047157 
2496	-0.398478446226715 
2497	-1.09789401695999 
2498	-4.1263271525691 
2499	-14.7335681423331 
2500	-0.898104901819226 
