Wavelength	rt0711a300006.asd
350	 0.127239644140681 
351	 0.129358733843578 
352	 0.131095490531388 
353	 0.132084204537307 
354	 0.132834271638729 
355	 0.135381655725708 
356	 0.137551512221297 
357	 0.139434738236742 
358	 0.141520968544713 
359	 0.142784321162617 
360	 0.144151039121738 
361	 0.146042576160475 
362	 0.148282812693791 
363	 0.148904526791689 
364	 0.149933452372891 
365	 0.152081461799822 
366	 0.153394681306643 
367	 0.154850388138792 
368	 0.156484638613138 
369	 0.15807756592242 
370	 0.159309288441367 
371	 0.160859787384754 
372	 0.162631619298682 
373	 0.164103190780189 
374	 0.165458719774261 
375	 0.1665669217528 
376	 0.167547517030646 
377	 0.168876948912335 
378	 0.170055634831829 
379	 0.171208812923909 
380	 0.172441722212963 
381	 0.173293479846359 
382	 0.174472689486843 
383	 0.175820371247515 
384	 0.176740933254223 
385	 0.176870664026018 
386	 0.177124985543065 
387	 0.177744374927234 
388	 0.178129020007525 
389	 0.1790258208462 
390	 0.179562684635282 
391	 0.179369681946107 
392	 0.179995689502733 
393	 0.180450663808143 
394	 0.180416159285528 
395	 0.179969742159735 
396	 0.17970500713379 
397	 0.179276977634456 
398	 0.178656862733064 
399	 0.178118245651295 
400	 0.177579561644952 
401	 0.177183228479272 
402	 0.176954154477997 
403	 0.176607428499146 
404	 0.176304254636656 
405	 0.176032150530789 
406	 0.175669346061234 
407	 0.174842794531542 
408	 0.174121476009976 
409	 0.173569475474865 
410	 0.172725091354488 
411	 0.171795516985145 
412	 0.171025324323907 
413	 0.170466943178481 
414	 0.169712946437732 
415	 0.169064568978098 
416	 0.168359526121124 
417	 0.167393357709982 
418	 0.166894837869013 
419	 0.166338516427882 
420	 0.165586880294533 
421	 0.165003779607237 
422	 0.164576192747453 
423	 0.164201023830568 
424	 0.163895466677766 
425	 0.164093357778729 
426	 0.164371911282296 
427	 0.16463232243716 
428	 0.164947085868271 
429	 0.165409366695666 
430	 0.165724923143029 
431	 0.165879611280447 
432	 0.166218682693594 
433	 0.166606232137234 
434	 0.166934918478546 
435	 0.167176585694342 
436	 0.167538421310838 
437	 0.167736466806845 
438	 0.167738123030761 
439	 0.167638191209556 
440	 0.167299843072384 
441	 0.166906355349881 
442	 0.166550844230966 
443	 0.166147418182604 
444	 0.165709629694699 
445	 0.165189400350495 
446	 0.164564904190163 
447	 0.163959231099992 
448	 0.163327292870052 
449	 0.162635682870244 
450	 0.161880261670512 
451	 0.161297624564404 
452	 0.160801739361728 
453	 0.160253720434855 
454	 0.159504879499106 
455	 0.1587930121731 
456	 0.158140219681379 
457	 0.157483481625362 
458	 0.156762788777361 
459	 0.156116156583807 
460	 0.155534515764791 
461	 0.15486325136626 
462	 0.154235666154856 
463	 0.15365209701752 
464	 0.15305946077836 
465	 0.152317488902081 
466	 0.151711658875309 
467	 0.151148866233846 
468	 0.15040541675406 
469	 0.149827456510429 
470	 0.149311709860185 
471	 0.148757181606578 
472	 0.148125806185913 
473	 0.1475373721743 
474	 0.147089371798592 
475	 0.146767601915513 
476	 0.146218066054455 
477	 0.145657249005834 
478	 0.145234655573143 
479	 0.145009296328193 
480	 0.14465074150417 
481	 0.144394244318213 
482	 0.144373360303684 
483	 0.144366530596313 
484	 0.144388264392909 
485	 0.144445046326879 
486	 0.144505152552195 
487	 0.144312522836664 
488	 0.144179387717488 
489	 0.144235515468542 
490	 0.144402002904992 
491	 0.144732233479316 
492	 0.145020843911328 
493	 0.145135654646739 
494	 0.145249998761342 
495	 0.145474437293868 
496	 0.145734413039707 
497	 0.145904188129976 
498	 0.14635822505511 
499	 0.146726775330751 
500	 0.146828085238579 
501	 0.146876904712035 
502	 0.147024194825497 
503	 0.147162973214084 
504	 0.147188231433831 
505	 0.147344474147624 
506	 0.147568072644096 
507	 0.14777611155111 
508	 0.147886163764933 
509	 0.147959151764391 
510	 0.148124860720842 
511	 0.14843644730815 
512	 0.148761958893716 
513	 0.14908061215879 
514	 0.149518286478636 
515	 0.150201759277066 
516	 0.150775996927753 
517	 0.151323623857759 
518	 0.151891877611687 
519	 0.152434275880171 
520	 0.153285637782801 
521	 0.154328544383325 
522	 0.155389660564925 
523	 0.156429941818409 
524	 0.157867815808688 
525	 0.159651249823153 
526	 0.161382723744717 
527	 0.162851080267342 
528	 0.164436418922841 
529	 0.166394279818075 
530	 0.168595850264212 
531	 0.17099882637568 
532	 0.173523271828595 
533	 0.176071517437418 
534	 0.178557365379052 
535	 0.181303069597303 
536	 0.184363443455686 
537	 0.187455522845155 
538	 0.190630565169024 
539	 0.193867265355595 
540	 0.19711852987788 
541	 0.200302376497849 
542	 0.203468545634975 
543	 0.206604843462274 
544	 0.209676831235115 
545	 0.212717907678348 
546	 0.215694471960391 
547	 0.218565399388911 
548	 0.221295432607583 
549	 0.223908738881545 
550	 0.226421258193685 
551	 0.228839915886889 
552	 0.231092150840499 
553	 0.233268983056869 
554	 0.235434436795379 
555	 0.237598617319646 
556	 0.239902039532221 
557	 0.242275891308878 
558	 0.244573994884499 
559	 0.246653861334046 
560	 0.248886338192826 
561	 0.251232905064106 
562	 0.253435585287348 
563	 0.25571534096199 
564	 0.258037463596337 
565	 0.260327491165308 
566	 0.262510324255478 
567	 0.264608863485094 
568	 0.266610595008252 
569	 0.268496182835457 
570	 0.270295981866608 
571	 0.271927515589092 
572	 0.273465561491965 
573	 0.275148133518007 
574	 0.276699099231655 
575	 0.278097721127164 
576	 0.27940096031843 
577	 0.280743258248145 
578	 0.282018405617501 
579	 0.283183381826415 
580	 0.284246573809261 
581	 0.28528667432005 
582	 0.286320844600942 
583	 0.2873388406326 
584	 0.288295800729741 
585	 0.289172627555598 
586	 0.289968601016109 
587	 0.290708435905708 
588	 0.291475531839507 
589	 0.292016305924625 
590	 0.292307372684704 
591	 0.29261872724739 
592	 0.293066312108327 
593	 0.293592177660423 
594	 0.294059094269992 
595	 0.29426615026963 
596	 0.294443153134162 
597	 0.294688699052475 
598	 0.295005783940446 
599	 0.295287263227919 
600	 0.295589016711206 
601	 0.295936151086497 
602	 0.296270734504265 
603	 0.296516239431597 
604	 0.296808559719943 
605	 0.297277959422848 
606	 0.297652627897243 
607	 0.297981686785432 
608	 0.29831057086335 
609	 0.298661475440348 
610	 0.298973308613914 
611	 0.299288905604212 
612	 0.299634115476204 
613	 0.299912538412991 
614	 0.300205822794996 
615	 0.300530498299484 
616	 0.300856754727896 
617	 0.301137556328906 
618	 0.301414490819544 
619	 0.301715526561455 
620	 0.30202893935709 
621	 0.302233308773494 
622	 0.302442701397326 
623	 0.302786829661059 
624	 0.303073936243277 
625	 0.303288521817767 
626	 0.303486977564193 
627	 0.303776541642462 
628	 0.304002989270091 
629	 0.304307364724213 
630	 0.304744955619172 
631	 0.304994887003363 
632	 0.305247254059664 
633	 0.305536831127616 
634	 0.305830999345491 
635	 0.306165649620652 
636	 0.30643314563561 
637	 0.306638664701816 
638	 0.306968803583516 
639	 0.307232720319965 
640	 0.307401211101318 
641	 0.307531783254869 
642	 0.307833185783991 
643	 0.308040895031502 
644	 0.308104429209393 
645	 0.308154854349687 
646	 0.308203799779429 
647	 0.308345717885165 
648	 0.308593705132692 
649	 0.308768911306046 
650	 0.308862080410787 
651	 0.308894837451392 
652	 0.308899784518338 
653	 0.308852946362268 
654	 0.308779101274902 
655	 0.30864741429968 
656	 0.308378161337565 
657	 0.308166226162322 
658	 0.307987343052346 
659	 0.307772804455539 
660	 0.307487558175245 
661	 0.307254507900695 
662	 0.307071238084856 
663	 0.306857479926119 
664	 0.306575226690146 
665	 0.306366187264353 
666	 0.306267460409473 
667	 0.306096024590532 
668	 0.305946155693135 
669	 0.305863111454969 
670	 0.305863321355127 
671	 0.305890374069095 
672	 0.305944399949073 
673	 0.306033364676312 
674	 0.30616883896339 
675	 0.306317990752822 
676	 0.306498543714167 
677	 0.306715069291808 
678	 0.306898436522561 
679	 0.307214259949536 
680	 0.307600838597732 
681	 0.307932229884684 
682	 0.308439879331076 
683	 0.308996279457363 
684	 0.309472163812404 
685	 0.30980968304532 
686	 0.310267123617896 
687	 0.310787333484575 
688	 0.311230366144394 
689	 0.311719621596417 
690	 0.312077706726646 
691	 0.312314651943472 
692	 0.312543638065356 
693	 0.312650683038849 
694	 0.312923749135838 
695	 0.313362417710338 
696	 0.313484109686643 
697	 0.313432331236729 
698	 0.313269582645969 
699	 0.313056349960639 
700	 0.312845925837925 
701	 0.31273726659081 
702	 0.312640014422386 
703	 0.312335047313733 
704	 0.312027594012484 
705	 0.311705907915761 
706	 0.311324123748284 
707	 0.310807458927837 
708	 0.310307615980543 
709	 0.309762556643687 
710	 0.30904461877947 
711	 0.308164945916409 
712	 0.307235716923019 
713	 0.306216298862936 
714	 0.304878525452634 
715	 0.303399129840171 
716	 0.301849685558905 
717	 0.300400751370972 
718	 0.299092940210768 
719	 0.297956839747601 
720	 0.296965855493367 
721	 0.295879301321088 
722	 0.29447207177468 
723	 0.292832929509402 
724	 0.291245486422053 
725	 0.289767660124985 
726	 0.28813204537144 
727	 0.286335451039643 
728	 0.284448074405056 
729	 0.282464614855402 
730	 0.280335399433603 
731	 0.278311775560722 
732	 0.276614169162718 
733	 0.275038887405257 
734	 0.273453421993519 
735	 0.272001303774298 
736	 0.27115816667235 
737	 0.270396140952116 
738	 0.269821122627804 
739	 0.269576288739741 
740	 0.269421699295786 
741	 0.269216268138625 
742	 0.269017154328474 
743	 0.268966698415836 
744	 0.268945648572536 
745	 0.268851953384673 
746	 0.268735935587271 
747	 0.268843366017955 
748	 0.268829912334195 
749	 0.268773088882188 
750	 0.268793275938635 
751	 0.268775125981346 
752	 0.268751881006068 
753	 0.268756215482069 
754	 0.268798931968398 
755	 0.268751981623433 
756	 0.268502178751132 
757	 0.26808798254556 
758	 0.267690661922529 
759	 0.267733473735008 
760	 0.26796656484913 
761	 0.267702131929013 
762	 0.267895821771238 
763	 0.268282601187999 
764	 0.268706282369182 
765	 0.269096254445375 
766	 0.269466440087438 
767	 0.269732637697553 
768	 0.269900419094123 
769	 0.270045543962274 
770	 0.270243060113569 
771	 0.270456637862523 
772	 0.270663253761078 
773	 0.270955950101481 
774	 0.271190332198599 
775	 0.27144229097956 
776	 0.271838651662187 
777	 0.272172567345251 
778	 0.272466719714854 
779	 0.272752684764797 
780	 0.273057803082486 
781	 0.27341937781556 
782	 0.273795712573918 
783	 0.274139567718041 
784	 0.274414896963767 
785	 0.27482393412382 
786	 0.275286258187045 
787	 0.275642867920088 
788	 0.275920723662942 
789	 0.276335100168112 
790	 0.276909841497716 
791	 0.277486088841454 
792	 0.277792298700456 
793	 0.278196367344418 
794	 0.27881734032252 
795	 0.279217664476288 
796	 0.279489686155471 
797	 0.279803583529901 
798	 0.280237600013562 
799	 0.280402412207463 
800	 0.280789468693435 
801	 0.28126671855588 
802	 0.281427768005801 
803	 0.281677096376635 
804	 0.281875930177438 
805	 0.281939675282448 
806	 0.281899471333592 
807	 0.281850959404497 
808	 0.281784822840741 
809	 0.281596743535436 
810	 0.28097835438521 
811	 0.280403975452505 
812	 0.280005270739052 
813	 0.279720514809469 
814	 0.279233753837347 
815	 0.278669121981508 
816	 0.278172830754642 
817	 0.277806098380136 
818	 0.277201219199237 
819	 0.276281878785734 
820	 0.275230199815943 
821	 0.274545626221568 
822	 0.273586218571688 
823	 0.272048579528942 
824	 0.270111558304705 
825	 0.268519604989695 
826	 0.266627204368998 
827	 0.264499934989166 
828	 0.2625098296001 
829	 0.260302845611124 
830	 0.25840100666599 
831	 0.2569232736286 
832	 0.255669627516389 
833	 0.254438189540304 
834	 0.253400289320134 
835	 0.25260889676838 
836	 0.251914929609069 
837	 0.251351483291278 
838	 0.250741652824305 
839	 0.250070260047889 
840	 0.249850382395296 
841	 0.249614989373534 
842	 0.249262498452703 
843	 0.248837510816321 
844	 0.248364255443335 
845	 0.247822318288544 
846	 0.247389114348939 
847	 0.24729682172026 
848	 0.247057967550524 
849	 0.246551623968255 
850	 0.245926649453619 
851	 0.245584949752192 
852	 0.245485313194578 
853	 0.245433365303111 
854	 0.24513820899569 
855	 0.244188542129508 
856	 0.243823675204854 
857	 0.243694793765535 
858	 0.243280053157547 
859	 0.243211763905604 
860	 0.242983457920209 
861	 0.242439002319223 
862	 0.241754558600613 
863	 0.241836694435993 
864	 0.24173262244309 
865	 0.241181321644278 
866	 0.240695682407263 
867	 0.240441093516022 
868	 0.240046946116141 
869	 0.239451167831828 
870	 0.239078714591445 
871	 0.23877801163898 
872	 0.238213458256688 
873	 0.237391819199874 
874	 0.23716075077059 
875	 0.236894195869457 
876	 0.236325334906887 
877	 0.235508863593919 
878	 0.235173421984838 
879	 0.234852811912753 
880	 0.234314490689491 
881	 0.233539718282025 
882	 0.232862838791484 
883	 0.232403631700958 
884	 0.232037575822784 
885	 0.231481612073201 
886	 0.230679685350365 
887	 0.23019846636819 
888	 0.229931234919809 
889	 0.229021292502813 
890	 0.228176666348382 
891	 0.227613472244035 
892	 0.227202420920876 
893	 0.226345455790133 
894	 0.226047411037909 
895	 0.225843862460215 
896	 0.225200145740569 
897	 0.224765315094636 
898	 0.224624625751448 
899	 0.224569606908645 
900	 0.224183203311272 
901	 0.222861060761766 
902	 0.221469425916492 
903	 0.220497039552632 
904	 0.220126643277535 
905	 0.220084413915948 
906	 0.220335073809523 
907	 0.220277345396947 
908	 0.219135867389017 
909	 0.217997909489435 
910	 0.216769478367976 
911	 0.215676434219129 
912	 0.215239044893124 
913	 0.215355015589103 
914	 0.214424993759551 
915	 0.212617310202051 
916	 0.212047320337279 
917	 0.211383717411625 
918	 0.209815269047857 
919	 0.207847822572093 
920	 0.207439822350126 
921	 0.206424434410016 
922	 0.204901666363945 
923	 0.203378245949397 
924	 0.202278062037939 
925	 0.199965800593583 
926	 0.197852627301706 
927	 0.197470443808452 
928	 0.197100464249488 
929	 0.195528316097417 
930	 0.193812979590091 
931	 0.194145575166312 
932	 0.195013752151948 
933	 0.192188292243431 
934	 0.187816337943876 
935	 0.186019791296601 
936	 0.18126098268381 
937	 0.179714974461038 
938	 0.17820516963494 
939	 0.173404691874471 
940	 0.1731556591248 
941	 0.173742901662911 
942	 0.172965357882495 
943	 0.1703857543042 
944	 0.170833992687046 
945	 0.16916750598443 
946	 0.165284749473917 
947	 0.162588669807252 
948	 0.16242995373644 
949	 0.158300960943928 
950	 0.153813986352391 
951	 0.156462822689601 
952	 0.154113560361418 
953	 0.151097739826368 
954	 0.149234980777246 
955	 0.147708865008194 
956	 0.147016336810847 
957	 0.146961211989411 
958	 0.145664606133524 
959	 0.141500849520567 
960	 0.142059916315157 
961	 0.14181633919054 
962	 0.140062104364897 
963	 0.139997668816885 
964	 0.139422087021478 
965	 0.138951114363819 
966	 0.138111174130056 
967	 0.136069676112344 
968	 0.136949474811153 
969	 0.136455314958887 
970	 0.134494198942916 
971	 0.134898894861257 
972	 0.136790336749177 
973	 0.137804862987315 
974	 0.13754201549134 
975	 0.137671014296895 
976	 0.138148201201126 
977	 0.13787386278683 
978	 0.136938988122958 
979	 0.136478921104551 
980	 0.136053102108052 
981	 0.137273902502871 
982	 0.139029075458489 
983	 0.138549112168748 
984	 0.138633152273274 
985	 0.138996691919448 
986	 0.139109951444946 
987	 0.13870594448558 
988	 0.138983710221121 
989	 0.139196820909474 
990	 0.140310517205282 
991	 0.143416456432202 
992	 0.140937450447917 
993	 0.139985430601398 
994	 0.141129871631729 
995	 0.14042192725489 
996	 0.142426901172345 
997	 0.143216189901323 
998	 0.142967262168228 
999	 0.144215872589143 
1000	 0.145148670603105 
1001	 0.1205042512959 
1002	 0.121395791385784 
1003	 0.122087876917932 
1004	 0.122583573558524 
1005	 0.12318707601015 
1006	 0.123772613645127 
1007	 0.124431623823832 
1008	 0.125103476064822 
1009	 0.125858978944511 
1010	 0.126176395925496 
1011	 0.12642551580988 
1012	 0.126919993881071 
1013	 0.127049035606898 
1014	 0.127547202708754 
1015	 0.128485182753792 
1016	 0.129169553788692 
1017	 0.129658110618288 
1018	 0.130478541641355 
1019	 0.131480555899471 
1020	 0.132336132582381 
1021	 0.133328850359875 
1022	 0.134289003697833 
1023	 0.135220204382748 
1024	 0.135744737156286 
1025	 0.136155722296994 
1026	 0.136941018659948 
1027	 0.137652886567458 
1028	 0.138216483031314 
1029	 0.139068078393909 
1030	 0.140234143746771 
1031	 0.141191575851919 
1032	 0.142186093568744 
1033	 0.143130382085546 
1034	 0.144092716663668 
1035	 0.144798625220561 
1036	 0.145402312380749 
1037	 0.145970454445447 
1038	 0.146126974609024 
1039	 0.146676386335765 
1040	 0.147632150585659 
1041	 0.14794032702493 
1042	 0.148553827989283 
1043	 0.14930234913688 
1044	 0.149983998798055 
1045	 0.150712571326477 
1046	 0.151281568386316 
1047	 0.151762801900841 
1048	 0.152262858498211 
1049	 0.152580087533643 
1050	 0.153025361258049 
1051	 0.153787958972236 
1052	 0.154166672144272 
1053	 0.154110883878473 
1054	 0.154438965413035 
1055	 0.154796292762849 
1056	 0.155157919649886 
1057	 0.15562367779074 
1058	 0.156520262989409 
1059	 0.156878232694521 
1060	 0.156929923020097 
1061	 0.15713969579442 
1062	 0.157284277324452 
1063	 0.157395714249955 
1064	 0.157506077159922 
1065	 0.157608287427099 
1066	 0.157688866649793 
1067	 0.157680816251223 
1068	 0.157439557198079 
1069	 0.157545418710156 
1070	 0.157940308478091 
1071	 0.158041384241154 
1072	 0.158361977781758 
1073	 0.158531103200781 
1074	 0.158197549120353 
1075	 0.157148103924391 
1076	 0.156811794140386 
1077	 0.156450715061208 
1078	 0.15627017333355 
1079	 0.156653568538983 
1080	 0.156452231665338 
1081	 0.155813796976882 
1082	 0.15551099540585 
1083	 0.155329369433818 
1084	 0.154937310294313 
1085	 0.15458393551517 
1086	 0.154222760831176 
1087	 0.153629855863852 
1088	 0.153018260440032 
1089	 0.15236052650746 
1090	 0.151806978184872 
1091	 0.15152451423533 
1092	 0.151437390337021 
1093	 0.150936378846946 
1094	 0.150615706280518 
1095	 0.15002646863952 
1096	 0.148724197199991 
1097	 0.148064553965735 
1098	 0.14784068712482 
1099	 0.147337568683765 
1100	 0.146935122132585 
1101	 0.146299772828117 
1102	 0.145179642299323 
1103	 0.144553073559245 
1104	 0.144243348689517 
1105	 0.14377371505583 
1106	 0.143080217154641 
1107	 0.142577124299017 
1108	 0.141687326668281 
1109	 0.140528089048662 
1110	 0.139734361967227 
1111	 0.139259919409984 
1112	 0.138846162702582 
1113	 0.138725710571972 
1114	 0.138169647592916 
1115	 0.137637883155925 
1116	 0.136787952828387 
1117	 0.134577594804088 
1118	 0.133856947254108 
1119	 0.135673177270313 
1120	 0.134911112958975 
1121	 0.133418750719706 
1122	 0.131694809624969 
1123	 0.127482124316717 
1124	 0.123689483744585 
1125	 0.124165903564812 
1126	 0.125466526473505 
1127	 0.121496196654181 
1128	 0.116496494401771 
1129	 0.115597766109264 
1130	 0.116001440977367 
1131	 0.114016339856277 
1132	 0.114543529970176 
1133	 0.113051556021541 
1134	 0.108027513913455 
1135	 0.105862866981691 
1136	 0.106514137431319 
1137	 0.104766230572045 
1138	 0.10255590818384 
1139	 9.86016698793585E-02 
1140	 9.64395111276686E-02 
1141	 9.50386508803745E-02 
1142	 9.28285325908156E-02 
1143	 9.10974969925827E-02 
1144	 8.97190313326783E-02 
1145	 8.80878634297183E-02 
1146	 8.68166211918505E-02 
1147	 8.62715409055611E-02 
1148	 8.42622248108525E-02 
1149	 0.081063402950157 
1150	 7.94254228431858E-02 
1151	 7.91342664819057E-02 
1152	 7.77881062623134E-02 
1153	 7.61155189477615E-02 
1154	 7.56210694059449E-02 
1155	 7.52582240335898E-02 
1156	 7.49079394488428E-02 
1157	 0.074761459865972 
1158	 0.074384899843022 
1159	 7.38357766986596E-02 
1160	 0.073495558030145 
1161	 7.40415492934007E-02 
1162	 7.44187609759494E-02 
1163	 7.39684383326356E-02 
1164	 7.36267228156016E-02 
1165	 7.32343588331861E-02 
1166	 7.31232748533044E-02 
1167	 7.35202777850931E-02 
1168	 7.32778086781826E-02 
1169	 7.28977533644035E-02 
1170	 7.30908537533989E-02 
1171	 7.29625543109476E-02 
1172	 7.24174638791023E-02 
1173	 7.24997499828693E-02 
1174	 7.30322944979346E-02 
1175	 7.29805984765786E-02 
1176	 7.26918548441782E-02 
1177	 7.29172557270188E-02 
1178	 7.30041521848121E-02 
1179	 7.28194302468376E-02 
1180	 7.30452094170707E-02 
1181	 0.073112937196457 
1182	 7.23847469439714E-02 
1183	 7.18248627153747E-02 
1184	 7.17452239638205E-02 
1185	 7.20681527226762E-02 
1186	 7.25299969454943E-02 
1187	 7.26004152107725E-02 
1188	 7.24799007846889E-02 
1189	 7.21288357115542E-02 
1190	 0.071804779498148 
1191	 7.18092216006597E-02 
1192	 7.18695703992017E-02 
1193	 7.21064556906193E-02 
1194	 7.21269121244688E-02 
1195	 7.19114027231224E-02 
1196	 0.071969659783833 
1197	 7.19006174253771E-02 
1198	 7.16363023137522E-02 
1199	 7.18497082271308E-02 
1200	 7.19698588624762E-02 
1201	 7.18121474954744E-02 
1202	 7.18696538413586E-02 
1203	 7.20466660873787E-02 
1204	 7.23216527434642E-02 
1205	 7.23717448106677E-02 
1206	 7.22572191785087E-02 
1207	 7.23761499055983E-02 
1208	 7.24746795525354E-02 
1209	 7.25490973042107E-02 
1210	 7.27900472965244E-02 
1211	 7.29960460964342E-02 
1212	 7.29988941028085E-02 
1213	 7.31124110205682E-02 
1214	 7.32042427490262E-02 
1215	 7.33486973306799E-02 
1216	 7.35042875833961E-02 
1217	 0.07369778595822 
1218	 7.35691837212186E-02 
1219	 7.38249143490952E-02 
1220	 0.074140553364887 
1221	 7.38465789428977E-02 
1222	 7.39154291665031E-02 
1223	 7.42292323093223E-02 
1224	 7.41558221652652E-02 
1225	 7.41953473434969E-02 
1226	 7.46539500853425E-02 
1227	 7.49404852157431E-02 
1228	 7.47570386623251E-02 
1229	 7.48050937625867E-02 
1230	 7.51468390550099E-02 
1231	 7.51154799839119E-02 
1232	 0.075151373390337 
1233	 7.55512273811167E-02 
1234	 7.56879890023258E-02 
1235	 7.57632813037959E-02 
1236	 7.57890008718234E-02 
1237	 7.59361272726018E-02 
1238	 7.61284370528179E-02 
1239	 7.59698519228566E-02 
1240	 7.60763842869805E-02 
1241	 7.65178736146504E-02 
1242	 7.67229040541835E-02 
1243	 7.69946477391525E-02 
1244	 7.73202588714015E-02 
1245	 0.077250489241651 
1246	 7.71101693137515E-02 
1247	 7.72342284684757E-02 
1248	 7.75429692622043E-02 
1249	 0.077691440974831 
1250	 7.74929104257735E-02 
1251	 7.74620546532626E-02 
1252	 7.75833412451386E-02 
1253	 7.75702397054814E-02 
1254	 7.77610539485278E-02 
1255	 7.79635986369598E-02 
1256	 0.078060146926464 
1257	 7.78458891356299E-02 
1258	 0.077882515994183 
1259	 7.81500369907981E-02 
1260	 7.82487050488842E-02 
1261	 7.82464148218926E-02 
1262	 7.82240535183978E-02 
1263	 7.80886829899787E-02 
1264	 7.81849719062987E-02 
1265	 7.82315852016169E-02 
1266	 7.81403567637077E-02 
1267	 7.82408197885724E-02 
1268	 7.82899912235318E-02 
1269	 7.82551561096247E-02 
1270	 7.82268602949374E-02 
1271	 7.81347534475003E-02 
1272	 7.80519841535175E-02 
1273	 7.78901690114484E-02 
1274	 7.79639153905518E-02 
1275	 7.80549630278854E-02 
1276	 7.77755349640744E-02 
1277	 7.75630434502618E-02 
1278	 7.74005148648725E-02 
1279	 7.70612416396687E-02 
1280	 7.69095055770398E-02 
1281	 7.67679195993989E-02 
1282	 7.65288039429107E-02 
1283	 7.62962116260249E-02 
1284	 0.076311484584623 
1285	 7.60528095500529E-02 
1286	 0.075513373852357 
1287	 7.52222227116275E-02 
1288	 7.50280451771054E-02 
1289	 7.46744228200745E-02 
1290	 7.43224408779474E-02 
1291	 7.38181625632134E-02 
1292	 7.36369749126845E-02 
1293	 7.33982687631103E-02 
1294	 7.28417361236125E-02 
1295	 7.26449419978899E-02 
1296	 7.22668350546007E-02 
1297	 7.13648201022146E-02 
1298	 7.08981477568853E-02 
1299	 7.09124419990382E-02 
1300	 7.04894867374462E-02 
1301	 6.98248799558655E-02 
1302	 6.93476504589835E-02 
1303	 6.86539518140269E-02 
1304	 0.067896523066515 
1305	 6.77069965136166E-02 
1306	 6.73922850513466E-02 
1307	 6.72873010440679E-02 
1308	 6.65353342703773E-02 
1309	 6.53398183477763E-02 
1310	 6.47765357705981E-02 
1311	 6.40944125898592E-02 
1312	 0.063585388808019 
1313	 6.38790150267988E-02 
1314	 6.35648076750432E-02 
1315	 6.27581185261919E-02 
1316	 6.20605482022956E-02 
1317	 6.14240065998935E-02 
1318	 6.06584349343968E-02 
1319	 0.059227088148668 
1320	 5.85205402901843E-02 
1321	 5.81797157657556E-02 
1322	 5.82662560073987E-02 
1323	 5.79898116635185E-02 
1324	 5.78056317498873E-02 
1325	 0.056992052692204 
1326	 5.56898827562719E-02 
1327	 5.54114978133513E-02 
1328	 5.53294135833544E-02 
1329	 5.49504669718988E-02 
1330	 5.45683548656563E-02 
1331	 5.33379265465444E-02 
1332	 5.25098514089562E-02 
1333	 5.26601914205822E-02 
1334	 5.19098832348809E-02 
1335	 0.051188765316132 
1336	 5.01163818072803E-02 
1337	 4.95962140687771E-02 
1338	 4.93083819064374E-02 
1339	 4.87944616164161E-02 
1340	 4.82834363183611E-02 
1341	 0.048037547304671 
1342	 4.77408995124722E-02 
1343	 4.72161587141725E-02 
1344	 4.71391860480407E-02 
1345	 4.72010705773316E-02 
1346	 4.63253029360925E-02 
1347	 4.57817249815013E-02 
1348	 0.046749015777588 
1349	 4.72667642031777E-02 
1350	 0.047076610874397 
1351	 4.78182044749703E-02 
1352	 5.04502922976405E-02 
1353	 5.23692445010986E-02 
1354	 4.60246994059821E-02 
1355	 6.32549553188703E-02 
1356	 7.32828072047828E-02 
1357	 4.64529624710102E-02 
1358	 0.013302699356121 
1359	-1.97740977645783E-02 
1360	-3.67111124324887E-02 
1361	-6.20490371009273E-02 
1362	-1.00862212218423E-02 
1363	 1.33866590105808E-02 
1364	-0.171978917944243 
1365	-0.163624385062154 
1366	 9.78547733799802E-02 
1367	 0.144355608972006 
1368	 4.89968862713539E-02 
1369	-0.144028612567027 
1370	-9.93268216505632E-02 
1371	-0.196304693169705 
1372	-0.299060673300653 
1373	-2.87905274356704E-02 
1374	 5.75887808977369E-02 
1375	-0.205247667391195 
1376	-0.361001567498036 
1377	-0.217801379333999 
1378	-0.143873174648728 
1379	-0.160510862163551 
1380	-0.164842320747161 
1381	-4.27811765998167E-02 
1382	 6.57764078873931E-02 
1383	 0.121293509668072 
1384	 5.09187577478918E-02 
1385	-6.79258203386723E-02 
1386	-7.93437028745419E-02 
1387	-0.122538503061674 
1388	-0.182860099161053 
1389	-0.268877325352663 
1390	-0.199208860961678 
1391	 3.87743038924552E-03 
1392	-0.123067090374385 
1393	-0.435254593343387 
1394	-0.376535416045867 
1395	-0.300185424320156 
1396	-0.222630806322315 
1397	 0.103583769467164 
1398	 0.248053057404861 
1399	 0.113713842419816 
1400	-0.342061787578487 
1401	-0.30066039200471 
1402	-0.109281659718012 
1403	 1.85733050172128E-02 
1404	 0.050095970745701 
1405	 5.30791593082043E-02 
1406	-7.72023365974243E-03 
1407	 8.86629015134536E-03 
1408	 4.12771071924565E-02 
1409	 4.60226152509586E-02 
1410	 5.61098742673655E-02 
1411	 8.75887293122595E-02 
1412	 0.116250653000055 
1413	 0.109974794771144 
1414	 0.132383661508318 
1415	 0.101203685761493 
1416	 2.56381442599871E-03 
1417	-3.0560134607403E-03 
1418	 2.77120322079293E-02 
1419	 0.022034654399619 
1420	 2.72900811316617E-02 
1421	 0.03011070602574 
1422	 1.40164432134001E-02 
1423	 1.03404841461721E-02 
1424	 2.13396990675256E-02 
1425	 2.04591571620577E-02 
1426	 9.43326957826077E-03 
1427	 1.05875529958849E-02 
1428	 1.99859639230589E-02 
1429	 0.018535781850507 
1430	 1.12278205220472E-02 
1431	 1.26162721094031E-02 
1432	 1.65030243345048E-02 
1433	 1.46495472118709E-02 
1434	 1.13907679401794E-02 
1435	 1.58258122710936E-02 
1436	 2.11904801593949E-02 
1437	 2.33495436034096E-02 
1438	 2.17031777598866E-02 
1439	 2.46522315288289E-02 
1440	 2.20164923284949E-02 
1441	 0.010972117837535 
1442	 1.22766399435438E-02 
1443	 1.87735671588403E-02 
1444	 1.90474508636228E-02 
1445	 1.74260542260484E-02 
1446	 0.015470615589541 
1447	 1.55521197536398E-02 
1448	 1.55459592188681E-02 
1449	 1.51660906261481E-02 
1450	 1.59823045292148E-02 
1451	 1.66472078286907E-02 
1452	 1.84450298582576E-02 
1453	 2.03435785293426E-02 
1454	 1.96085763583717E-02 
1455	 1.73643385278818E-02 
1456	 1.77596735209643E-02 
1457	 1.82399804306324E-02 
1458	 1.73464629488451E-02 
1459	 1.68644638891619E-02 
1460	 1.78401546090176E-02 
1461	 0.018028088933079 
1462	 1.79557173672511E-02 
1463	 2.04152298587039E-02 
1464	 2.14858250686977E-02 
1465	 2.03381260095726E-02 
1466	 1.90708619748582E-02 
1467	 1.76436256744543E-02 
1468	 0.01778124228087 
1469	 1.73844256904897E-02 
1470	 1.67132264398768E-02 
1471	 1.83054608233855E-02 
1472	 1.88282310875415E-02 
1473	 1.71619517719098E-02 
1474	 1.71292533772879E-02 
1475	 0.018831312476528 
1476	 1.90917629306786E-02 
1477	 1.84534215705179E-02 
1478	 1.81527645160591E-02 
1479	 1.80264337914826E-02 
1480	 1.80872207371645E-02 
1481	 1.79018850883203E-02 
1482	 1.79750003748219E-02 
1483	 1.77098385306249E-02 
1484	 0.018501148812201 
1485	 2.10975252999059E-02 
1486	 2.10963407300618E-02 
1487	 1.97741264481421E-02 
1488	 1.98172768987562E-02 
1489	 0.019263117714821 
1490	 1.89526733294107E-02 
1491	 1.95755324372914E-02 
1492	 2.00794359670045E-02 
1493	 2.03035797749485E-02 
1494	 2.03117062068298E-02 
1495	 2.05653701422099E-02 
1496	 2.07114038258868E-02 
1497	 2.05610267854702E-02 
1498	 2.04130140034068E-02 
1499	 2.01715862205171E-02 
1500	 2.02664880771329E-02 
1501	 2.04198825508375E-02 
1502	 2.04438593963503E-02 
1503	 2.07612527727129E-02 
1504	 2.10021791194596E-02 
1505	 2.11853922265844E-02 
1506	 2.09890766090729E-02 
1507	 2.09904973601492E-02 
1508	 2.13283366896324E-02 
1509	 2.11758614361431E-02 
1510	 2.11312571866064E-02 
1511	 2.16237837647617E-02 
1512	 2.17713006324044E-02 
1513	 2.15764456025116E-02 
1514	 2.15296966509656E-02 
1515	 2.16602864096333E-02 
1516	 2.16800657119921E-02 
1517	 2.15839545671671E-02 
1518	 2.17749690333351E-02 
1519	 2.21071734882617E-02 
1520	 2.20777332767638E-02 
1521	 2.19028922401663E-02 
1522	 2.22212177541716E-02 
1523	 2.25247620155626E-02 
1524	 2.24179113267128E-02 
1525	 2.26186955133754E-02 
1526	 2.29034781597438E-02 
1527	 2.28572608172797E-02 
1528	 0.022822994868706 
1529	 2.28237863206662E-02 
1530	 2.29721095640844E-02 
1531	 0.023262746768623 
1532	 2.33882542847523E-02 
1533	 0.023537541217649 
1534	 2.39116372883159E-02 
1535	 2.42117911942103E-02 
1536	 2.40598956082708E-02 
1537	 2.39996696856738E-02 
1538	 2.42089971888694E-02 
1539	 0.024026202891993 
1540	 2.39329631059317E-02 
1541	 2.41065590198822E-02 
1542	 2.42121288426309E-02 
1543	 2.43216401748064E-02 
1544	 2.44134865163931E-02 
1545	 2.45052591242921E-02 
1546	 2.45451960132312E-02 
1547	 2.46659896446424E-02 
1548	 2.48757564108464E-02 
1549	 2.51017332789115E-02 
1550	 2.52685245544211E-02 
1551	 0.02529691599245 
1552	 2.53041119500157E-02 
1553	 2.53137308924453E-02 
1554	 0.025358044058956 
1555	 2.54256557988011E-02 
1556	 2.55604345946879E-02 
1557	 2.56677997338542E-02 
1558	 2.56857567295741E-02 
1559	 2.57591547527217E-02 
1560	 2.58610448137582E-02 
1561	 2.59785310402188E-02 
1562	 2.60809875784104E-02 
1563	 2.61258896714883E-02 
1564	 2.62057357452995E-02 
1565	 2.64425134091971E-02 
1566	 0.026659251701511 
1567	 2.66584387349853E-02 
1568	 2.69064214753142E-02 
1569	 2.72794252800177E-02 
1570	 2.71549046847911E-02 
1571	 2.70885089559945E-02 
1572	 2.73426091904806E-02 
1573	 2.74870279454572E-02 
1574	 2.74685926275541E-02 
1575	 2.76672434950244E-02 
1576	 2.81726004989314E-02 
1577	 2.83108771053776E-02 
1578	 2.82275790080857E-02 
1579	 2.83554366231082E-02 
1580	 2.83492588551113E-02 
1581	 2.81234384081653E-02 
1582	 2.81633601980161E-02 
1583	 2.85255039429462E-02 
1584	 2.88515643210489E-02 
1585	 2.92066004106333E-02 
1586	 2.95939688348508E-02 
1587	 2.98256251683815E-02 
1588	 0.02977481093429 
1589	 2.98436309325142E-02 
1590	 3.01723675443926E-02 
1591	 3.00947160582882E-02 
1592	 3.00169730452466E-02 
1593	 3.02693042912431E-02 
1594	 3.03309442821223E-02 
1595	 3.05232380116621E-02 
1596	 3.06982282221215E-02 
1597	 3.05785947931033E-02 
1598	 3.06626555415339E-02 
1599	 3.07515146188941E-02 
1600	 3.06504704844375E-02 
1601	 3.08223090785243E-02 
1602	 3.11179267055674E-02 
1603	 3.12959633939928E-02 
1604	 3.17186038642714E-02 
1605	 3.21108720220483E-02 
1606	 3.21652504044858E-02 
1607	 3.21535886232304E-02 
1608	 3.23139303735283E-02 
1609	 3.25593362790537E-02 
1610	 0.032599750496152 
1611	 3.25545556944261E-02 
1612	 3.27667793692083E-02 
1613	 3.29881951227183E-02 
1614	 0.032914165856474 
1615	 3.30596525381923E-02 
1616	 3.32512748604421E-02 
1617	 3.31481327000282E-02 
1618	 3.33932370263587E-02 
1619	 0.033760381291138 
1620	 3.37019207056053E-02 
1621	 3.37139084630516E-02 
1622	 3.38861040359053E-02 
1623	 3.38986953515344E-02 
1624	 3.39644923081003E-02 
1625	 3.40928377339912E-02 
1626	 3.40824886389937E-02 
1627	 3.41205101339139E-02 
1628	 3.43023858680662E-02 
1629	 3.43500899839516E-02 
1630	 3.41937857775565E-02 
1631	 3.41622299936398E-02 
1632	 3.41453228728333E-02 
1633	 3.39883873831656E-02 
1634	 3.39210547886747E-02 
1635	 3.38702343677038E-02 
1636	 3.41669142086259E-02 
1637	 3.45487111653288E-02 
1638	 3.44243480591079E-02 
1639	 3.44604118008489E-02 
1640	 0.034507398144186 
1641	 3.43880695978016E-02 
1642	 3.45870169369865E-02 
1643	 3.46552750123083E-02 
1644	 3.47458930854064E-02 
1645	 3.49594174518826E-02 
1646	 3.51085656529731E-02 
1647	 3.54774113987514E-02 
1648	 3.53581337389679E-02 
1649	 3.50770801021266E-02 
1650	 3.54050509362552E-02 
1651	 3.53393317676414E-02 
1652	 3.52388950762819E-02 
1653	 0.035504933747594 
1654	 3.55656612714922E-02 
1655	 3.57226557886915E-02 
1656	 3.57845484729955E-02 
1657	 3.57446091923695E-02 
1658	 3.57122228326454E-02 
1659	 0.035473948467907 
1660	 3.54765069710845E-02 
1661	 3.57328633637241E-02 
1662	 3.56485927053904E-02 
1663	 0.035507301823982 
1664	 3.55895308533071E-02 
1665	 3.54422651977932E-02 
1666	 3.54619439311461E-02 
1667	 3.58524736650119E-02 
1668	 3.55381845647616E-02 
1669	 3.55754575172668E-02 
1670	 0.035798951172634 
1671	 3.62204018758254E-02 
1672	 3.63295233426553E-02 
1673	 3.60496633467337E-02 
1674	 3.61561737947559E-02 
1675	 3.63369352418032E-02 
1676	 3.64466300632429E-02 
1677	 3.65820675194881E-02 
1678	 3.62907743683031E-02 
1679	 3.61104648845232E-02 
1680	 3.64813752074439E-02 
1681	 3.68895190766401E-02 
1682	 3.72993159650133E-02 
1683	 3.71957649766799E-02 
1684	 3.65497873601513E-02 
1685	 3.66256199491151E-02 
1686	 3.70242038204556E-02 
1687	 3.68725803881465E-02 
1688	 3.70186042486516E-02 
1689	 3.71728221104229E-02 
1690	 3.65180760859045E-02 
1691	 3.64235117776809E-02 
1692	 3.71412203667117E-02 
1693	 3.70618938003904E-02 
1694	 3.65776482232076E-02 
1695	 3.67174079633971E-02 
1696	 3.65127622132938E-02 
1697	 0.035972120479499 
1698	 3.63154950978197E-02 
1699	 0.036685916375503 
1700	 3.63284996393303E-02 
1701	 3.64307671793973E-02 
1702	 3.69862204899143E-02 
1703	 3.72372914943432E-02 
1704	 3.73162339340995E-02 
1705	 3.71365222863477E-02 
1706	 3.69342124254615E-02 
1707	 3.68263926972805E-02 
1708	 0.036681922802723 
1709	 3.68097763831172E-02 
1710	 3.69749747266149E-02 
1711	 3.69998121749201E-02 
1712	 3.70093398246427E-02 
1713	 3.70001295338739E-02 
1714	 3.70873906938062E-02 
1715	 3.69361460606343E-02 
1716	 0.036850683979021 
1717	 3.65832533342961E-02 
1718	 3.62135966508287E-02 
1719	 0.036142853312976 
1720	 3.61836312603561E-02 
1721	 3.61774706487501E-02 
1722	 3.61778993079689E-02 
1723	 3.54215435944699E-02 
1724	 3.51591077574081E-02 
1725	 3.61338056124215E-02 
1726	 3.65707849016335E-02 
1727	 0.036438294666816 
1728	 3.59154116294672E-02 
1729	 3.48630566803498E-02 
1730	 0.034350447098207 
1731	 0.034750668742984 
1732	 3.53499965582872E-02 
1733	 3.55135217212241E-02 
1734	 3.50439352251991E-02 
1735	 3.47964613105137E-02 
1736	 3.51819580240849E-02 
1737	 3.53473721912854E-02 
1738	 3.54265520003135E-02 
1739	 3.53116059138222E-02 
1740	 3.46034401413884E-02 
1741	 3.44776889071468E-02 
1742	 0.034516080277633 
1743	 3.41171603207093E-02 
1744	 3.45893919561715E-02 
1745	 3.47223738734857E-02 
1746	 0.035295752499669 
1747	 3.55916319392667E-02 
1748	 3.49298849203705E-02 
1749	 3.48451415069479E-02 
1750	 3.51175297590973E-02 
1751	 3.49704180482782E-02 
1752	 3.48622892773746E-02 
1753	 3.49045122357511E-02 
1754	 3.46140008907769E-02 
1755	 3.45956694298774E-02 
1756	 3.51163942462506E-02 
1757	 3.57449866872079E-02 
1758	 3.57383788327125E-02 
1759	 3.52088316340969E-02 
1760	 3.46078960479725E-02 
1761	 3.43595350530832E-02 
1762	 3.40677671929014E-02 
1763	 3.41480512524139E-02 
1764	 3.40075910349977E-02 
1765	 3.31619985210202E-02 
1766	 3.33194427533035E-02 
1767	 3.37968142471001E-02 
1768	 3.32785697615111E-02 
1769	 3.29363896147431E-02 
1770	 3.27101232762577E-02 
1771	 0.033067204795873 
1772	 3.40289462718078E-02 
1773	 3.40255184432916E-02 
1774	 3.33443248572695E-02 
1775	 3.23870952860556E-02 
1776	 3.20627747919216E-02 
1777	 3.33344627537603E-02 
1778	 3.35055377122513E-02 
1779	 3.22573102305922E-02 
1780	 3.23479905211414E-02 
1781	 3.31100227643787E-02 
1782	 3.31911666342112E-02 
1783	 3.40295395077773E-02 
1784	 3.43786854391904E-02 
1785	 3.36771852082475E-02 
1786	 3.35692053885525E-02 
1787	 3.38707761495323E-02 
1788	 3.40413989557308E-02 
1789	 3.46648578557998E-02 
1790	 3.23474395369606E-02 
1791	 2.95218918782764E-02 
1792	 2.91703555441531E-02 
1793	 0.027959587780549 
1794	 2.84422863109294E-02 
1795	 3.42155760733467E-02 
1796	 3.70202703233956E-02 
1797	 3.63652772416253E-02 
1798	 3.87119416240373E-02 
1799	 3.70278682979433E-02 
1800	 2.99028013925302E-02 
1801	 2.95203259589731E-02 
1802	 3.78255065690711E-02 
1803	 4.18864394051965E-02 
1804	 5.38644491882156E-02 
1805	 5.65673281712993E-02 
1806	 3.73754994922675E-02 
1807	 2.67514513958008E-02 
1808	 8.61334818290154E-03 
1809	 9.72347437970593E-04 
1810	 1.22408498670274E-02 
1811	 3.19093735728425E-02 
1812	 8.88009547758003E-02 
1813	 0.110281660042871 
1814	 0.123544362759231 
1815	 0.117994175450076 
1816	 0.012596604649958 
1817	 6.45475118047995E-02 
1818	 0.103818313960895 
1819	 9.02863404015841E-02 
1820	 0.134103352451879 
1821	-0.222467763320052 
1822	-0.559991443038172 
1823	-0.843514021106758 
1824	-0.760593478155594 
1825	 2.01559767901192E-02 
1826	 0.404191376444149 
1827	 1.25367952239962 
1828	 1.73185984952493 
1829	 15.4023376508839 
1830	 13.630234229586 
1831	 0.957510825617143 
1832	 1.13783665193148 
1833	 0.995200234442115 
1834	 1.75889172934537 
1835	 0.976885714212698 
1836	 1.02616167487998 
1837	 1.72046074495442 
1838	 2.63948796652354 
1839	-2.46458547035034 
1840	-0.206866301007723 
1841	-9.07059333210811E-02 
1842	 5.46742997412869 
1843	 95.1767041933605 
1844	 2.01086867083013 
1845	 1.25066020722406 
1846	-0.177176539731944 
1847	 1.12278720400803 
1848	-2.62399155224613 
1849	-2.11172637276697 
1850	-1.69638460866292 
1851	-0.657260591656024 
1852	-1.77933079149425 
1853	-1.00508981197964 
1854	-1.34745204461218 
1855	-2.04017902160541 
1856	-1.76593979628401 
1857	-1.12196179287669 
1858	-0.841322547173377 
1859	-0.060654170093051 
1860	 0.766724359358024 
1861	 0.113152958948903 
1862	 1.48345279548349 
1863	 1.22237514548517 
1864	-1.83792389299814E-02 
1865	-0.122247719959852 
1866	 0.636572582266667 
1867	 0.37726507856246 
1868	 11.9506208901845 
1869	 0.451263057265009 
1870	-2.0046494437733 
1871	-3.16327751049016 
1872	-1.08815612070328 
1873	-1.8589566620942 
1874	-4.26204464555978 
1875	-1.73681696129126 
1876	-0.961712570375197 
1877	-0.252626740943597 
1878	 0.478028647981845 
1879	-126.357234297549 
1880	-7.39680113350022 
1881	-0.58160246748745 
1882	-4.7653724317168 
1883	 4.12794312164875 
1884	 24.0128294640063 
1885	-1.03292362628738 
1886	-0.384711483800384 
1887	-0.207111705833425 
1888	-0.318293707766462 
1889	-0.613586487829046 
1890	 4.95094329155718 
1891	 3.71583941935831 
1892	-3.42520294167898 
1893	-1.30669687017185 
1894	-1.12470805036873 
1895	 1.32697841284709 
1896	-5.89149358660006 
1897	-1.88762800993648 
1898	-10.3147142741926 
1899	 1.07690489507106 
1900	 0.802555025953308 
1901	 0.411983342710118 
1902	 1.03487601202393 
1903	-69.6280772176067 
1904	-1.29372212690842 
1905	-0.706047865987906 
1906	-0.344099101209371 
1907	 0.776574712285837 
1908	 1.94118617497508 
1909	 0.446407235654332 
1910	-0.402272661061414 
1911	-1.24554511299496 
1912	-12.5109540441575 
1913	 7.46559298547731 
1914	-0.421190644875207 
1915	-0.488527734506365 
1916	 0.953537362506364 
1917	 148.446055609157 
1918	-0.638888421218685 
1919	-0.489532445211304 
1920	 4.91389713704412 
1921	-0.421798331709968 
1922	-2.04650004955795 
1923	 4.28835108579675 
1924	 20.9274626332717 
1925	 10.9490894702159 
1926	 1.85139924902849 
1927	 0.543342894747818 
1928	 5.67563617992198 
1929	 0.631262497112352 
1930	 0.677108623391659 
1931	 0.999367937707898 
1932	 0.391284317691514 
1933	 0.318599222136757 
1934	 0.330278319076145 
1935	 0.038192870201859 
1936	 1.25316772049774E-02 
1937	 0.102868215911922 
1938	 0.031570477323259 
1939	 1.49268017208124E-02 
1940	 3.13583228755256E-02 
1941	 5.83977935391852E-02 
1942	 3.11236625988828E-02 
1943	 2.83357876146815E-02 
1944	 5.32214321365946E-02 
1945	 0.069984433571613 
1946	 0.053209371540385 
1947	 4.33915848011959E-02 
1948	 4.22316570929236E-02 
1949	 3.02245948314383E-02 
1950	 4.19243027959668E-02 
1951	 6.63622407677024E-02 
1952	 6.08764270267963E-02 
1953	 3.81523337366875E-02 
1954	 9.3081063981097E-03 
1955	 5.06196825548954E-04 
1956	-5.7510426465755E-03 
1957	-5.91320638955104E-03 
1958	 9.52685254523075E-03 
1959	 1.66541308489822E-02 
1960	 1.09053217472558E-02 
1961	 0.01515411246448 
1962	 2.18435477187137E-02 
1963	 1.92129097183393E-02 
1964	 1.73533292053559E-02 
1965	 1.62913484788698E-02 
1966	 1.51331227262121E-02 
1967	 1.22649675037171E-02 
1968	 1.18457428559154E-02 
1969	 1.33646281983563E-02 
1970	 0.013403507254813 
1971	 1.15741189756857E-02 
1972	 1.12271902620239E-02 
1973	 9.22164914187528E-03 
1974	 7.3191497603305E-03 
1975	 9.52274693037944E-03 
1976	 0.010942935749853 
1977	 1.06686608683758E-02 
1978	 1.19516272607308E-02 
1979	 1.27046468275677E-02 
1980	 1.23446163406076E-02 
1981	 1.13387878936762E-02 
1982	 1.23478406598722E-02 
1983	 1.25254300816695E-02 
1984	 1.21998370864805E-02 
1985	 1.38567891492947E-02 
1986	 1.52865087856846E-02 
1987	 0.015902934664424 
1988	 1.62187732145794E-02 
1989	 1.50385934272963E-02 
1990	 0.013624759307437 
1991	 1.33625433517144E-02 
1992	 1.37410607967552E-02 
1993	 1.35028214947339E-02 
1994	 1.28608514349875E-02 
1995	 1.20136212651953E-02 
1996	 1.07896734949622E-02 
1997	 9.44532616393944E-03 
1998	 1.08808202680232E-02 
1999	 1.29459485115292E-02 
2000	 1.36737919991137E-02 
2001	 1.40923463756007E-02 
2002	 1.09485473100831E-02 
2003	 8.14152014333907E-03 
2004	 1.27015392497568E-02 
2005	 0.016845637576872 
2006	 1.56539298424003E-02 
2007	 1.62723691812237E-02 
2008	 1.53642309820608E-02 
2009	 1.44178162505089E-02 
2010	 1.49211952255041E-02 
2011	 1.47007659395125E-02 
2012	 1.32405431885737E-02 
2013	 1.16107608073768E-02 
2014	 1.37746745657827E-02 
2015	 1.33057222264862E-02 
2016	 0.013819892311589 
2017	 1.34679206621221E-02 
2018	 1.09269271714164E-02 
2019	 1.13190379231208E-02 
2020	 1.22351574698376E-02 
2021	 1.26533671408008E-02 
2022	 1.25254115823569E-02 
2023	 1.12547383509592E-02 
2024	 1.11266640394055E-02 
2025	 1.13014126929743E-02 
2026	 1.13665564626997E-02 
2027	 1.14671875016876E-02 
2028	 1.26832013067363E-02 
2029	 1.31663997591495E-02 
2030	 1.30858137905111E-02 
2031	 1.33038674532576E-02 
2032	 1.33926304447194E-02 
2033	 1.26343754736834E-02 
2034	 1.21232079914021E-02 
2035	 1.25986607139889E-02 
2036	 1.23241236211902E-02 
2037	 1.26521302803893E-02 
2038	 1.37373560809008E-02 
2039	 0.014331225462093 
2040	 1.51819307317058E-02 
2041	 0.015326430628374 
2042	 0.014588630173028 
2043	 1.44676834352552E-02 
2044	 1.42606303798132E-02 
2045	 1.41868833053936E-02 
2046	 1.38078387770349E-02 
2047	 1.42487809121788E-02 
2048	 1.45275582711543E-02 
2049	 1.36049247674927E-02 
2050	 1.36005927205498E-02 
2051	 1.38389790303538E-02 
2052	 1.36846266121666E-02 
2053	 1.38808215122881E-02 
2054	 0.01497750022756 
2055	 1.58940255527724E-02 
2056	 0.015352788802282 
2057	 1.31135633369465E-02 
2058	 1.24436605804305E-02 
2059	 0.010715124993607 
2060	 1.09465903803614E-02 
2061	 1.33343251235367E-02 
2062	 1.50950616796054E-02 
2063	 1.54836253723067E-02 
2064	 0.014166217123196 
2065	 1.33176497478094E-02 
2066	 0.012435908273481 
2067	 1.12738988258144E-02 
2068	 1.25470849126398E-02 
2069	 1.28827469678737E-02 
2070	 1.22249522332469E-02 
2071	 1.24981180556228E-02 
2072	 1.22192966544443E-02 
2073	 1.21885749792381E-02 
2074	 0.011527746147435 
2075	 1.19961967775219E-02 
2076	 1.37820325093447E-02 
2077	 1.40945687914585E-02 
2078	 1.35341089235166E-02 
2079	 0.013660907533021 
2080	 0.013475301217282 
2081	 1.37389546189126E-02 
2082	 0.01514374017959 
2083	 1.58858496260554E-02 
2084	 1.61428585490088E-02 
2085	 1.61569164802806E-02 
2086	 1.59406671829048E-02 
2087	 1.66815748478836E-02 
2088	 1.65829820897253E-02 
2089	 1.62615435616864E-02 
2090	 1.55876772471442E-02 
2091	 1.48404916996284E-02 
2092	 0.014537541487701 
2093	 1.45171115575716E-02 
2094	 1.46116963541683E-02 
2095	 1.53093934739974E-02 
2096	 1.53739408173983E-02 
2097	 1.55862054759693E-02 
2098	 1.55710826124233E-02 
2099	 1.50531349334863E-02 
2100	 1.43691139329961E-02 
2101	 0.014457000577981 
2102	 1.48693204029557E-02 
2103	 1.59954178180885E-02 
2104	 1.64865696516207E-02 
2105	 1.63993268040475E-02 
2106	 1.57660923265615E-02 
2107	 1.51694482902021E-02 
2108	 1.55162853322392E-02 
2109	 1.53729527632325E-02 
2110	 1.60734721889117E-02 
2111	 1.72227127204302E-02 
2112	 1.78399692442375E-02 
2113	 1.80327019040596E-02 
2114	 1.81166756948489E-02 
2115	 1.77623580472291E-02 
2116	 0.016247753476355 
2117	 1.58135595018465E-02 
2118	 0.015983515472793 
2119	 1.60528153340071E-02 
2120	 0.016513770584744 
2121	 1.67137378502496E-02 
2122	 1.67571996087621E-02 
2123	 1.68791360254323E-02 
2124	 1.67228514809177E-02 
2125	 1.64933294468853E-02 
2126	 0.016097192199881 
2127	 1.58011236209052E-02 
2128	 0.016328127929649 
2129	 1.68602507236517E-02 
2130	 1.68325352761589E-02 
2131	 1.73397681896958E-02 
2132	 0.017646183551486 
2133	 1.68154736615255E-02 
2134	 1.65346733008992E-02 
2135	 0.016332681916541 
2136	 1.59118257798883E-02 
2137	 1.51956060707783E-02 
2138	 1.54143848848826E-02 
2139	 1.61172031168138E-02 
2140	 0.016794961418567 
2141	 1.84226682487534E-02 
2142	 1.86365477397648E-02 
2143	 1.81993572323479E-02 
2144	 1.74032409082349E-02 
2145	 1.59903784022209E-02 
2146	 1.61765075728871E-02 
2147	 1.79466170628127E-02 
2148	 1.88467362612096E-02 
2149	 0.018598816205803 
2150	 1.84465154022589E-02 
2151	 1.76499082524345E-02 
2152	 0.016544307123584 
2153	 1.61943089177923E-02 
2154	 1.60900884657238E-02 
2155	 1.64595956157519E-02 
2156	 1.66284582883394E-02 
2157	 1.62012503457421E-02 
2158	 1.58617554934103E-02 
2159	 1.55655156306635E-02 
2160	 1.37352672521913E-02 
2161	 1.37072261412151E-02 
2162	 1.55322730260688E-02 
2163	 0.016259618137686 
2164	 1.71382914383976E-02 
2165	 1.78473790615796E-02 
2166	 1.87615870677794E-02 
2167	 1.82854390551729E-02 
2168	 1.58013726046273E-02 
2169	 1.56222604291638E-02 
2170	 0.016180250957674 
2171	 1.61093474815173E-02 
2172	 1.57551142066743E-02 
2173	 1.66264924182736E-02 
2174	 1.59412106513981E-02 
2175	 1.49069878822446E-02 
2176	 1.62248854505819E-02 
2177	 1.80779992952168E-02 
2178	 1.90690808561129E-02 
2179	 1.89749403887403E-02 
2180	 1.90428393452191E-02 
2181	 0.018923539563428 
2182	 1.82876748446683E-02 
2183	 1.88734895688203E-02 
2184	 1.84240793418865E-02 
2185	 1.88019286421345E-02 
2186	 1.97265498069583E-02 
2187	 2.19889918858746E-02 
2188	 2.13644134182807E-02 
2189	 1.87689841330536E-02 
2190	 1.85643978063278E-02 
2191	 0.018180566156002 
2192	 1.81125244578658E-02 
2193	 2.11881714501961E-02 
2194	 2.17022752324137E-02 
2195	 1.89836678662148E-02 
2196	 1.79700174087913E-02 
2197	 1.73066109895268E-02 
2198	 1.73405514333303E-02 
2199	 1.89917852536644E-02 
2200	 0.018312769404402 
2201	 1.80891115274117E-02 
2202	 1.83157049954061E-02 
2203	 1.66571795121825E-02 
2204	 1.68107999022709E-02 
2205	 0.017399265985309 
2206	 1.67404476673444E-02 
2207	 1.83370074015681E-02 
2208	 2.01307240239517E-02 
2209	 2.08432762186797E-02 
2210	 2.05917688833212E-02 
2211	 2.00682496483876E-02 
2212	 1.93188201056442E-02 
2213	 1.82980378373815E-02 
2214	 0.01869814783097 
2215	 1.61304920625835E-02 
2216	 1.39878672419325E-02 
2217	 0.013499443266397 
2218	 1.27750711637042E-02 
2219	 1.37460821891972E-02 
2220	 1.84642335666704E-02 
2221	 0.019365450498706 
2222	 1.85412193897495E-02 
2223	 1.96442787999542E-02 
2224	 2.10297052765402E-02 
2225	 2.05418407127101E-02 
2226	 2.04933598795629E-02 
2227	 1.97143179700033E-02 
2228	 1.59354490643682E-02 
2229	 1.41974117414899E-02 
2230	 1.34306251788384E-02 
2231	 0.013659411065665 
2232	 1.47536808649649E-02 
2233	 0.015114036362338 
2234	 1.66410290734002E-02 
2235	 1.73412780329061E-02 
2236	 1.56560360995774E-02 
2237	 1.54104500830673E-02 
2238	 1.56611884052123E-02 
2239	 1.71881755681305E-02 
2240	 1.87777739855576E-02 
2241	 1.93406982179643E-02 
2242	 1.98487579899534E-02 
2243	 2.04302319276448E-02 
2244	 2.16608737799432E-02 
2245	 2.11378691809627E-02 
2246	 2.12731219339433E-02 
2247	 2.18006150568654E-02 
2248	 1.88882850330249E-02 
2249	 1.82420725609833E-02 
2250	 1.83052481537813E-02 
2251	 1.53915531346402E-02 
2252	 1.40032719688466E-02 
2253	 1.45959134263294E-02 
2254	 1.60284690843373E-02 
2255	 1.59241497847862E-02 
2256	 1.58080508019672E-02 
2257	 0.01823551338794 
2258	 0.018198353996921 
2259	 1.76617078094173E-02 
2260	 1.77895858192507E-02 
2261	 0.018522967951065 
2262	 1.78517631285616E-02 
2263	 1.58417996850194E-02 
2264	 1.61313634922015E-02 
2265	 1.78510586904395E-02 
2266	 1.80321239747238E-02 
2267	 1.91756799025304E-02 
2268	 1.90922217272594E-02 
2269	 1.63629150696624E-02 
2270	 1.55226855508843E-02 
2271	 1.52671269031623E-02 
2272	 1.64339556185161E-02 
2273	 1.90171204737666E-02 
2274	 1.94498947014316E-02 
2275	 2.05962620890065E-02 
2276	 2.09180008684837E-02 
2277	 1.95974636443049E-02 
2278	 1.95700740822987E-02 
2279	 1.95213159138502E-02 
2280	 1.89766246721291E-02 
2281	 1.80495445881232E-02 
2282	 1.77384367511511E-02 
2283	 1.66113311484492E-02 
2284	 1.61281959255049E-02 
2285	 1.57956703471114E-02 
2286	 1.55234349959439E-02 
2287	 1.66680988354041E-02 
2288	 1.78752346884455E-02 
2289	 1.83603333464066E-02 
2290	 1.92038569037407E-02 
2291	 1.61015168679509E-02 
2292	 9.71159735605845E-03 
2293	 8.38727195665393E-03 
2294	 7.24682050911261E-03 
2295	 5.72532621126954E-03 
2296	 1.07936850823477E-02 
2297	 1.48180885004319E-02 
2298	 1.37782411018325E-02 
2299	 0.012420933003533 
2300	 1.27811688354265E-02 
2301	 1.02669944527995E-02 
2302	 6.83196632724502E-03 
2303	 1.01164183492529E-02 
2304	 1.19598698729889E-02 
2305	 1.01006807582784E-02 
2306	 1.20051619762172E-02 
2307	 1.15915540322253E-02 
2308	 8.6147060165943E-03 
2309	 1.26034361498188E-02 
2310	 0.017448278836117 
2311	 1.63529840457368E-02 
2312	 1.89705441119824E-02 
2313	 2.45134522777179E-02 
2314	 2.24878890151516E-02 
2315	 1.90596778319546E-02 
2316	 1.82614930419531E-02 
2317	 1.43618699115334E-02 
2318	 1.03570054815645E-02 
2319	 0.0124993833662 
2320	 1.68031060111394E-02 
2321	 1.47440023630159E-02 
2322	 1.14793544966785E-02 
2323	 1.19053781730958E-02 
2324	 1.25642278084205E-02 
2325	 0.012985630014193 
2326	 1.31518118160654E-02 
2327	 1.18572374543692E-02 
2328	 8.28226113884759E-03 
2329	 7.49476862375383E-03 
2330	 7.93433462427443E-03 
2331	 4.56645361832267E-03 
2332	 2.33234431683049E-03 
2333	 1.49867120004613E-03 
2334	 1.72232579249183E-03 
2335	 5.72915941166196E-03 
2336	 1.00530968139549E-02 
2337	 1.30367177128389E-02 
2338	 1.53208704618964E-02 
2339	 1.78916902617106E-02 
2340	 2.12258868132402E-02 
2341	 2.34987774632596E-02 
2342	 2.73379508412071E-02 
2343	 3.45158481709868E-02 
2344	 3.95349766107712E-02 
2345	 3.40533954570142E-02 
2346	 3.03371421338525E-02 
2347	 3.81145987099667E-02 
2348	 3.59471444883574E-02 
2349	 3.05537711956381E-02 
2350	 3.21189860503255E-02 
2351	 2.47847343768408E-02 
2352	 2.05335082175534E-02 
2353	 2.29638352050213E-02 
2354	 2.35429791568249E-02 
2355	 0.017009078240172 
2356	 1.04324564101368E-02 
2357	 1.55458969639153E-02 
2358	 1.82021451590941E-02 
2359	 1.79742339775413E-02 
2360	 1.88932550561377E-02 
2361	 1.08028516542421E-02 
2362	 9.78541540563493E-04 
2363	 6.75649821469419E-03 
2364	 5.4849483488414E-03 
2365	-6.67306716314953E-03 
2366	-7.44520283329469E-03 
2367	-3.76371924292758E-03 
2368	 9.71579290150969E-03 
2369	 2.71187306582974E-02 
2370	 3.83827914550619E-02 
2371	 3.68285897718983E-02 
2372	 2.00342365301665E-02 
2373	 2.39695073869915E-02 
2374	 0.030966409960775 
2375	 1.10266797810535E-02 
2376	 1.61436766547321E-03 
2377	-1.25649661978289E-03 
2378	-0.015120895772983 
2379	 3.94444353806727E-03 
2380	 3.19907256611571E-02 
2381	 3.11061580793222E-02 
2382	 4.41728934268852E-02 
2383	 3.81496602262258E-02 
2384	 3.44377085292258E-02 
2385	 5.60611853587707E-02 
2386	 4.28644436886816E-02 
2387	 2.34356691115399E-02 
2388	 3.25807643364849E-02 
2389	 4.63876486535047E-02 
2390	 3.61243690682458E-02 
2391	 2.93364900934042E-02 
2392	 1.24541660980543E-02 
2393	-3.39192338251731E-02 
2394	-3.84120089716734E-02 
2395	-2.09863795179633E-02 
2396	-5.10887491533205E-02 
2397	-7.35494686008341E-02 
2398	-5.55604586773388E-02 
2399	-3.76068505232541E-02 
2400	-2.09891003455273E-02 
2401	-0.008318318530166 
2402	-7.73819036029947E-03 
2403	-3.40003299109449E-02 
2404	-3.91834920366717E-02 
2405	-1.35999728679838E-03 
2406	-8.61706984499861E-03 
2407	 1.17119516728007E-02 
2408	 6.92157291242796E-02 
2409	 7.92795922867375E-02 
2410	 8.30333272304846E-02 
2411	 4.38821165935603E-02 
2412	-2.68832556107289E-02 
2413	-6.76521666105704E-02 
2414	-0.131083428932438 
2415	-0.153453810317173 
2416	-0.142161216357763 
2417	-0.156341732018233 
2418	-8.33646995461791E-02 
2419	 1.98560995271999E-02 
2420	-7.28425943911959E-02 
2421	-0.204049386884732 
2422	-0.174566127416014 
2423	-0.167379809937197 
2424	-9.34680147652519E-02 
2425	 8.21610350735078E-02 
2426	 0.114234420661331 
2427	 5.82588179091816E-02 
2428	 8.69710420003053E-02 
2429	 0.111887280484104 
2430	 4.42724297382426E-02 
2431	 1.78190866447648E-02 
2432	 3.38281095446543E-02 
2433	-2.29143085178214E-02 
2434	-3.10033920740494E-02 
2435	 2.34812343621371E-02 
2436	-2.36289399291474E-02 
2437	-8.75112349068853E-02 
2438	-6.13488460012371E-03 
2439	 5.45873883503042E-02 
2440	 0.090444695071491 
2441	 0.14127677194938 
2442	 0.22006606039602 
2443	 0.313167030394676 
2444	 0.340012414172439 
2445	 0.286490658458703 
2446	 0.21830749790386 
2447	 1.15193976455266E-02 
2448	 1.96875530728719E-03 
2449	 0.567786751192261 
2450	 0.654843539297751 
2451	 0.524009102155015 
2452	 0.368330618957765 
2453	-6.39788489507668E-02 
2454	-8.95514842025594E-02 
2455	-0.14539363620416 
2456	-0.13037020880859 
2457	 2.98361475365029E-02 
2458	 2.95976816051557E-02 
2459	-1.21128202426274E-03 
2460	-0.133853750869615 
2461	-0.180796496114184 
2462	 5.91461414131128E-03 
2463	 0.386478921946164 
2464	 0.433170606919731 
2465	 0.500430578132558 
2466	 0.498901373320086 
2467	 0.346482097598525 
2468	 0.428352052017851 
2469	 0.416564421676649 
2470	 0.206186801498352 
2471	 2.27753650204156E-02 
2472	-0.535007810900594 
2473	-1.61819032659069 
2474	-1.81413797521442 
2475	-0.424800957991504 
2476	 0.18254314705443 
2477	 0.467241202366847 
2478	 0.845928696642994 
2479	 0.382482136028358 
2480	-2.85007332732684E-02 
2481	 0.620785760832262 
2482	 1.68520169060493 
2483	 4.8385143655909 
2484	-2.84177229434749 
2485	 1.90816686292391 
2486	-1.10608514667339 
2487	 1.81546984539249 
2488	-0.643546747489453 
2489	-3.63537794156513E-02 
2490	 5.20997754426482E-02 
2491	 0.418933262582142 
2492	 1.25404794860563 
2493	 0.462594997743298 
2494	 1.88600761768333 
2495	 1.94431081799276 
2496	 1.25077054282136 
2497	-0.240579692196942 
2498	-0.115541208611284 
2499	-0.612588991617709 
2500	 11.5113723782456 
