Wavelength	rt0711a00002.asd
350	 7.46410835881641E-02 
351	 7.52873947426433E-02 
352	 7.64312777577796E-02 
353	 0.077385323218889 
354	 7.78116460876412E-02 
355	 7.82501577965577E-02 
356	 7.89939733653445E-02 
357	 7.98704420955815E-02 
358	 8.06814670531398E-02 
359	 8.19830039750173E-02 
360	 8.24457800657725E-02 
361	 0.082445626070752 
362	 8.33672712813812E-02 
363	 8.40844422568878E-02 
364	 8.46751058462229E-02 
365	 8.51986112442707E-02 
366	 8.54467250972058E-02 
367	 8.60926469166085E-02 
368	 0.08676009913172 
369	 8.71288261392958E-02 
370	 8.81683855703715E-02 
371	 8.87506745269463E-02 
372	 8.89708782738861E-02 
373	 8.95953291431702E-02 
374	 9.03357989099621E-02 
375	 9.09795570065073E-02 
376	 9.13786954381705E-02 
377	 9.14837233270467E-02 
378	 9.19632234350225E-02 
379	 9.27549020360683E-02 
380	 9.35048457391863E-02 
381	 0.093568128054729 
382	 9.40327710443573E-02 
383	 9.46091805273745E-02 
384	 9.45575708363699E-02 
385	 9.50402608533938E-02 
386	 9.56472928622243E-02 
387	 9.60625877234343E-02 
388	 9.62470319558635E-02 
389	 9.66231326112772E-02 
390	 9.69384745798188E-02 
391	 9.69958930756914E-02 
392	 9.70357774940874E-02 
393	 9.71575797567657E-02 
394	 9.73584132303756E-02 
395	 9.75659730950428E-02 
396	 9.76550029441447E-02 
397	 9.75753029991576E-02 
398	 9.75329165685164E-02 
399	 9.78831208210437E-02 
400	 9.77082363346432E-02 
401	 9.75182623084057E-02 
402	 0.097651101439938 
403	 9.75781939181193E-02 
404	 9.75358022597086E-02 
405	 0.097445494137672 
406	 9.71866157130271E-02 
407	 9.70457838669428E-02 
408	 9.68820301457674E-02 
409	 9.67574705269381E-02 
410	 9.69207950779662E-02 
411	 9.66408784767833E-02 
412	 9.63637995576503E-02 
413	 9.64022450595038E-02 
414	 9.62430178710073E-02 
415	 9.60187904857562E-02 
416	 9.58588114976034E-02 
417	 9.58419085766794E-02 
418	 9.57004356058571E-02 
419	 9.56064292300263E-02 
420	 9.55855030701081E-02 
421	 9.54822477285676E-02 
422	 9.55441589917882E-02 
423	 9.56421346102993E-02 
424	 9.56484539857079E-02 
425	 0.095639878530699 
426	 9.57840550897033E-02 
427	 9.60783596107618E-02 
428	 9.64243968595366E-02 
429	 9.67800969482951E-02 
430	 9.70840864883446E-02 
431	 9.73579787966769E-02 
432	 9.77164738264507E-02 
433	 9.81460452866002E-02 
434	 9.85156902079172E-02 
435	 0.098752236729798 
436	 9.90154467914557E-02 
437	 9.92874848167165E-02 
438	 9.95048066579764E-02 
439	 9.96008696891532E-02 
440	 9.97336079461203E-02 
441	 9.98314010514166E-02 
442	 9.98662931262047E-02 
443	 9.99114100899321E-02 
444	 9.99331881385576E-02 
445	 0.099888015372649 
446	 9.97723053558071E-02 
447	 9.97533932509922E-02 
448	 9.96294716531114E-02 
449	 9.94407487365547E-02 
450	 9.93893094281395E-02 
451	 9.92757325811153E-02 
452	 9.91529658712565E-02 
453	 9.90360168130963E-02 
454	 9.87782166250901E-02 
455	 9.85929466872492E-02 
456	 9.84547302631629E-02 
457	 9.82714931456216E-02 
458	 9.81078053639263E-02 
459	 0.097938178512707 
460	 9.77398738243384E-02 
461	 9.75019834079304E-02 
462	 9.72991183770429E-02 
463	 9.71113747155681E-02 
464	 9.69080309982712E-02 
465	 9.66787175250468E-02 
466	 9.65187840359694E-02 
467	 0.096349701097824 
468	 9.60532376780978E-02 
469	 9.59160017289061E-02 
470	 9.57984052936607E-02 
471	 9.56317363024532E-02 
472	 9.54965731982346E-02 
473	 0.095277960244005 
474	 9.50647627242477E-02 
475	 9.49594803773472E-02 
476	 9.49277044835746E-02 
477	 9.48653597662023E-02 
478	 9.47479400063543E-02 
479	 9.46278265174923E-02 
480	 9.47277971471075E-02 
481	 9.48532999543885E-02 
482	 9.48507017988923E-02 
483	 9.47454991108192E-02 
484	 9.48096341703741E-02 
485	 9.49517295645195E-02 
486	 9.50023080772329E-02 
487	 9.52081435666019E-02 
488	 9.54618653588937E-02 
489	 9.56717750329701E-02 
490	 9.57942950221666E-02 
491	 9.60615701498435E-02 
492	 9.63796216756645E-02 
493	 9.66459864158737E-02 
494	 9.69226157606159E-02 
495	 9.72356615167606E-02 
496	 9.75072599567116E-02 
497	 9.76451619481021E-02 
498	 9.79078981615051E-02 
499	 9.82108147154641E-02 
500	 9.85084797582364E-02 
501	 9.88762166507864E-02 
502	 9.91767223603153E-02 
503	 9.93797414832132E-02 
504	 9.95348737965391E-02 
505	 0.099847700762514 
506	 0.100184615751212 
507	 0.100440591796615 
508	 0.100563303680805 
509	 0.100804010317486 
510	 0.101181300099372 
511	 0.101613813820613 
512	 0.101880813977446 
513	 0.102259329181799 
514	 0.102724484040942 
515	 0.10313916471778 
516	 0.10360039406003 
517	 0.104141842118906 
518	 0.104727610234413 
519	 0.105248776286114 
520	 0.105948164463718 
521	 0.106708093007216 
522	 0.107424897922259 
523	 0.10833127128178 
524	 0.109233090634645 
525	 0.110166932074663 
526	 0.111313035485229 
527	 0.112436675488403 
528	 0.113599185633356 
529	 0.11486581336168 
530	 0.116239614091128 
531	 0.117655290546851 
532	 0.119152373561998 
533	 0.120778802969059 
534	 0.122424069666686 
535	 0.124102263345525 
536	 0.125854174448972 
537	 0.127728414042069 
538	 0.129593654357077 
539	 0.13150722818207 
540	 0.133499535366016 
541	 0.135360849744945 
542	 0.137250417467879 
543	 0.139168327679854 
544	 0.14102426951256 
545	 0.142815958513344 
546	 0.1446112210488 
547	 0.146419074210132 
548	 0.148126745066322 
549	 0.149737567359811 
550	 0.151315526486946 
551	 0.15291291964977 
552	 0.154337913898879 
553	 0.15573173100481 
554	 0.15716876549135 
555	 0.158615295728128 
556	 0.159955998374913 
557	 0.161297760810333 
558	 0.162725362244199 
559	 0.164115812289878 
560	 0.165508713567552 
561	 0.166926686349224 
562	 0.168383733444094 
563	 0.169825747531784 
564	 0.171197863072908 
565	 0.172508443315441 
566	 0.173893584379982 
567	 0.175232757020659 
568	 0.176531775584505 
569	 0.17780236969677 
570	 0.178846548175033 
571	 0.179843003646545 
572	 0.180827497535095 
573	 0.181661172914127 
574	 0.182531545306953 
575	 0.183422450454015 
576	 0.184260714032922 
577	 0.184968404474984 
578	 0.185691133697989 
579	 0.186423254675237 
580	 0.187075416903377 
581	 0.187750574499849 
582	 0.188339070119263 
583	 0.188819726045944 
584	 0.189378340708234 
585	 0.189837039224705 
586	 0.190206227367478 
587	 0.19057056543981 
588	 0.191002810363626 
589	 0.191380647654241 
590	 0.191688499133724 
591	 0.192053102742802 
592	 0.192229378892322 
593	 0.19240643850303 
594	 0.192710685125212 
595	 0.192823321579848 
596	 0.19288686888548 
597	 0.192931313835697 
598	 0.192931043012591 
599	 0.192955393841094 
600	 0.193002349783732 
601	 0.193080453245404 
602	 0.193233448561033 
603	 0.193450438655029 
604	 0.193639774851792 
605	 0.193737536438509 
606	 0.193949950858178 
607	 0.194243462090321 
608	 0.194561531193725 
609	 0.194834260726412 
610	 0.195003884033117 
611	 0.195167659259023 
612	 0.19541239321973 
613	 0.195701267950588 
614	 0.195903169454972 
615	 0.196061679152389 
616	 0.196298312116616 
617	 0.19644214994428 
618	 0.196642638359317 
619	 0.196934321343094 
620	 0.197107799208705 
621	 0.197331197435756 
622	 0.197579257715831 
623	 0.197780875792203 
624	 0.197966471212844 
625	 0.198105566092035 
626	 0.198231826443469 
627	 0.19843594371688 
628	 0.198695641849372 
629	 0.198922519106065 
630	 0.199067189814197 
631	 0.1991914365902 
632	 0.199423804216996 
633	 0.199694676926428 
634	 0.199860955608712 
635	 0.200047681264925 
636	 0.200281328625946 
637	 0.200533743650612 
638	 0.200717157506675 
639	 0.200879933505399 
640	 0.201031321314989 
641	 0.201177899580115 
642	 0.201366399110852 
643	 0.201504685283743 
644	 0.201570395220534 
645	 0.201604129384366 
646	 0.201684055226438 
647	 0.20178240859483 
648	 0.201869573772109 
649	 0.201968253549105 
650	 0.202055933263084 
651	 0.202104914010241 
652	 0.202074715040265 
653	 0.201868105849502 
654	 0.201617732178955 
655	 0.201365058490056 
656	 0.2010448307436 
657	 0.200678804531102 
658	 0.200308261662776 
659	 0.199969840826302 
660	 0.199739171939358 
661	 0.199491926436492 
662	 0.199167169383855 
663	 0.198774294276709 
664	 0.19853069619557 
665	 0.198266854922131 
666	 0.197934596916338 
667	 0.197807350174602 
668	 0.197599817995324 
669	 0.197387365119067 
670	 0.197320597494499 
671	 0.197277282326051 
672	 0.197353651045965 
673	 0.197448817603663 
674	 0.197307516853273 
675	 0.197491957603553 
676	 0.197787192616558 
677	 0.197973600330826 
678	 0.198191805155025 
679	 0.198561667243799 
680	 0.199020639232799 
681	 0.199433864222482 
682	 0.199863037426486 
683	 0.20031381192448 
684	 0.200802501712232 
685	 0.201415911621141 
686	 0.201869619359488 
687	 0.202314191544282 
688	 0.202925452582146 
689	 0.203543879125212 
690	 0.20392353924485 
691	 0.204109718257403 
692	 0.204306780787112 
693	 0.204385237833151 
694	 0.204392208116874 
695	 0.204397495363894 
696	 0.204469556944068 
697	 0.204400930833697 
698	 0.204164219572358 
699	 0.203807401226543 
700	 0.203390336992738 
701	 0.203032762068013 
702	 0.202714075792284 
703	 0.202294391758498 
704	 0.201809172634438 
705	 0.201175499951269 
706	 0.20040978006716 
707	 0.199748904030338 
708	 0.198947506934953 
709	 0.197996653291725 
710	 0.196969753408103 
711	 0.195881385174526 
712	 0.194696284701577 
713	 0.193365480302273 
714	 0.191803277573573 
715	 0.190304260979365 
716	 0.188705063293298 
717	 0.18689576617219 
718	 0.185010472131133 
719	 0.183197372858891 
720	 0.181662894305069 
721	 0.180214036932731 
722	 0.178512154125561 
723	 0.176561474234847 
724	 0.174570092275015 
725	 0.172454027724902 
726	 0.170216855891399 
727	 0.167788260164221 
728	 0.165138743271811 
729	 0.162263251273563 
730	 0.15927745462537 
731	 0.15640781453276 
732	 0.153779065574607 
733	 0.15149148455389 
734	 0.149481635924514 
735	 0.147743210481768 
736	 0.146326645696323 
737	 0.14518238756327 
738	 0.144331143050631 
739	 0.143768305988288 
740	 0.14330077727924 
741	 0.143078777544764 
742	 0.142974534968731 
743	 0.142754764553752 
744	 0.142633881215812 
745	 0.142613262927715 
746	 0.142608955032775 
747	 0.14245427029307 
748	 0.142434630313886 
749	 0.142523281074403 
750	 0.142602297039958 
751	 0.142544584606499 
752	 0.142528245956473 
753	 0.142529242811325 
754	 0.14244665398085 
755	 0.142544870973589 
756	 0.142654028271997 
757	 0.142664705984763 
758	 0.142581302096827 
759	 0.142679039436223 
760	 0.142915308663773 
761	 0.142929322485151 
762	 0.143033354329823 
763	 0.143073708072809 
764	 0.143192562460601 
765	 0.143509264862737 
766	 0.143736409593506 
767	 0.143913929469374 
768	 0.144114938647592 
769	 0.144423869546636 
770	 0.144728086327347 
771	 0.145021960045694 
772	 0.14531917414301 
773	 0.145618520455195 
774	 0.145974393690303 
775	 0.146323641746526 
776	 0.146607010626675 
777	 0.147101102829907 
778	 0.147552758201048 
779	 0.147946263361202 
780	 0.148524013234529 
781	 0.148968425494354 
782	 0.14939888722295 
783	 0.149921532455336 
784	 0.150431237265066 
785	 0.150971774981969 
786	 0.151557509296216 
787	 0.152167058497657 
788	 0.152665897504815 
789	 0.153182273254636 
790	 0.153751994146144 
791	 0.154328690272337 
792	 0.154895279656055 
793	 0.155475348264267 
794	 0.156030544333247 
795	 0.15639210811821 
796	 0.157024054979724 
797	 0.157727006362203 
798	 0.15821478387208 
799	 0.158507918246133 
800	 0.158827036010624 
801	 0.159264086388535 
802	 0.159769381465487 
803	 0.159952413946938 
804	 0.16000912531237 
805	 0.160129604775203 
806	 0.160406846630405 
807	 0.160377237668486 
808	 0.160231901992764 
809	 0.160118000695953 
810	 0.159693088752915 
811	 0.159388458776825 
812	 0.159124714012694 
813	 0.158646185783478 
814	 0.158039771610639 
815	 0.157492695044711 
816	 0.156906787406178 
817	 0.156015502003233 
818	 0.155291211225929 
819	 0.15455455908428 
820	 0.153617648994916 
821	 0.152402220820153 
822	 0.150524844005722 
823	 0.148569778875846 
824	 0.146955988436294 
825	 0.144982252811479 
826	 0.14251702608009 
827	 0.139692986880223 
828	 0.136944598538362 
829	 0.134407646240127 
830	 0.132066931602283 
831	 0.129973456085334 
832	 0.128260580218232 
833	 0.126803823326919 
834	 0.12548167831499 
835	 0.124325081634554 
836	 0.123566642943052 
837	 0.122923810208196 
838	 0.122362223732235 
839	 0.121848682322619 
840	 0.121185761333257 
841	 0.1206840029755 
842	 0.120201305191045 
843	 0.119574071699507 
844	 0.119401653210534 
845	 0.118939297400101 
846	 0.118209375490927 
847	 0.117760439062552 
848	 0.117440084414071 
849	 0.116959875466422 
850	 0.116361389255365 
851	 0.116094673820542 
852	 0.115846406947739 
853	 0.115408846600997 
854	 0.114862501220115 
855	 0.114824349118536 
856	 0.114376685109249 
857	 0.113870660129845 
858	 0.113726949529632 
859	 0.113292969049982 
860	 0.112883936873308 
861	 0.112536043039333 
862	 0.112146114929991 
863	 0.111736652879897 
864	 0.11135830432873 
865	 0.111031225785226 
866	 0.110727650266529 
867	 0.11031368644328 
868	 0.109809452775498 
869	 0.109292154079621 
870	 0.108869545868429 
871	 0.108224546885805 
872	 0.107627031261064 
873	 0.107236402898287 
874	 0.106672372878529 
875	 0.106233582106285 
876	 0.105806565313831 
877	 0.105194911370597 
878	 0.104337994084778 
879	 0.103894301301092 
880	 0.10354981146071 
881	 0.102701435852343 
882	 0.102000354424966 
883	 0.10154992204967 
884	 0.101129625592442 
885	 0.100387708405377 
886	 9.98493623427852E-02 
887	 9.93479823149821E-02 
888	 9.87895760960973E-02 
889	 9.82533665995343E-02 
890	 9.78172516743238E-02 
891	 9.73998930018069E-02 
892	 9.68940039868338E-02 
893	 9.62067739721541E-02 
894	 9.56969196103838E-02 
895	 9.51111602608565E-02 
896	 0.094352567358117 
897	 9.43853772269099E-02 
898	 9.38540832949024E-02 
899	 9.30518030048574E-02 
900	 9.26849967682099E-02 
901	 9.26568665233811E-02 
902	 9.18017762153825E-02 
903	 9.09224406205427E-02 
904	 9.10507099833039E-02 
905	 9.03364213923884E-02 
906	 8.95572671006474E-02 
907	 8.87573112276799E-02 
908	 8.76012171131378E-02 
909	 0.087283660361094 
910	 8.66582640176417E-02 
911	 8.57779443728722E-02 
912	 8.57264891198517E-02 
913	 8.48545311195855E-02 
914	 0.08363551008684 
915	 8.23954197745212E-02 
916	 8.09940388635628E-02 
917	 7.99325606205133E-02 
918	 7.93467051838321E-02 
919	 7.88702502244788E-02 
920	 7.76524362259908E-02 
921	 7.61416180590872E-02 
922	 7.47742068182216E-02 
923	 7.36414954201075E-02 
924	 7.21185218181455E-02 
925	 0.070707413921326 
926	 6.99721579226432E-02 
927	 6.98196181520813E-02 
928	 6.76431605609337E-02 
929	 6.73471903388388E-02 
930	 6.78382262634355E-02 
931	 6.56917620580058E-02 
932	 6.34737757776158E-02 
933	 6.13502326646726E-02 
934	 6.09654652451357E-02 
935	 6.20663033234567E-02 
936	 5.73181877779632E-02 
937	 0.054039079232868 
938	 5.39041059512383E-02 
939	 5.56254997978993E-02 
940	 5.60572091852741E-02 
941	 5.31894506812235E-02 
942	 5.12870065924071E-02 
943	 5.49100289936463E-02 
944	 5.02265389919662E-02 
945	 4.82944136027219E-02 
946	 4.99967379554981E-02 
947	 4.94205262897425E-02 
948	 4.83865900489105E-02 
949	 4.68501222497833E-02 
950	 4.54107319850395E-02 
951	 4.47374460084436E-02 
952	 4.33142849854697E-02 
953	 4.30167411048776E-02 
954	 4.33304696065134E-02 
955	 4.24716611741771E-02 
956	 4.30144810004135E-02 
957	 4.27716452146377E-02 
958	 4.18886247054822E-02 
959	 4.19941765952688E-02 
960	 4.08888267532908E-02 
961	 0.040409597247102 
962	 4.05423589920408E-02 
963	 0.040019663572022 
964	 4.05395210970229E-02 
965	 0.040647282862418 
966	 4.01276377272866E-02 
967	 3.98494995910002E-02 
968	 4.00921894229964E-02 
969	 3.93388935313323E-02 
970	 3.84879844415933E-02 
971	 4.00236792164256E-02 
972	 4.06670767311808E-02 
973	 4.00691999072934E-02 
974	 3.93247209221307E-02 
975	 4.00668507938121E-02 
976	 0.039080822876344 
977	 3.92869459729593E-02 
978	 4.02258703078091E-02 
979	 3.87688547226155E-02 
980	 3.96670740736021E-02 
981	 3.99672034379795E-02 
982	 3.92543455911641E-02 
983	 3.95389172497677E-02 
984	 0.039544095300085 
985	 3.92838724692514E-02 
986	 3.91477826740342E-02 
987	 3.95634445813943E-02 
988	 3.96694031164427E-02 
989	 4.09654009691734E-02 
990	 4.15315425819193E-02 
991	 3.83897132435856E-02 
992	 3.98127164682386E-02 
993	 4.12746217828418E-02 
994	 4.07477184917851E-02 
995	 3.93483704077215E-02 
996	 4.00624760220529E-02 
997	 4.12225659001093E-02 
998	 4.11418577455974E-02 
999	 3.95737729138403E-02 
1000	 4.21478539436703E-02 
1001	 0.038450746261761 
1002	 3.85887705821765E-02 
1003	 3.90554226930163E-02 
1004	 3.91673159144999E-02 
1005	 0.040307797894006 
1006	 4.23497303033137E-02 
1007	 4.47294199255374E-02 
1008	 4.65838731326379E-02 
1009	 4.89968028038166E-02 
1010	 5.06766070400453E-02 
1011	 5.18310190892336E-02 
1012	 5.20702270359952E-02 
1013	 0.051295996872479 
1014	 5.10895306331083E-02 
1015	 5.01890934344061E-02 
1016	 4.98890006737263E-02 
1017	 5.02936728185756E-02 
1018	 5.04203664291634E-02 
1019	 0.05009140122622 
1020	 5.01197340818385E-02 
1021	 5.04686539128753E-02 
1022	 5.05576362862466E-02 
1023	 5.08632197376672E-02 
1024	 5.35806908978731E-02 
1025	 5.60127581675808E-02 
1026	 6.01301692954962E-02 
1027	 6.12600546388048E-02 
1028	 6.13884840636749E-02 
1029	 6.10478514019148E-02 
1030	 5.83085710863903E-02 
1031	 5.71711825617229E-02 
1032	 5.68249468243919E-02 
1033	 5.59730414095874E-02 
1034	 0.055188409844434 
1035	 5.42794993462506E-02 
1036	 5.32153234655145E-02 
1037	 5.19983679774987E-02 
1038	 0.050629857918344 
1039	 4.92831127343096E-02 
1040	 4.74378937147134E-02 
1041	 4.63145221530387E-02 
1042	 4.57184915615622E-02 
1043	 0.045412763356412 
1044	 4.56870710101749E-02 
1045	 0.046823325019752 
1046	 4.77117655518961E-02 
1047	 4.97600581196297E-02 
1048	 5.01166397454931E-02 
1049	 0.049271651590621 
1050	 0.049223864355786 
1051	 4.82529969636798E-02 
1052	 4.81116878439996E-02 
1053	 4.92750653643351E-02 
1054	 0.049844588916262 
1055	 5.04818678413455E-02 
1056	 5.07472316477129E-02 
1057	 5.07746392932296E-02 
1058	 5.04609518208302E-02 
1059	 5.03561272530047E-02 
1060	 4.97060739335918E-02 
1061	 5.00468630239029E-02 
1062	 0.051072635945977 
1063	 5.16900554035974E-02 
1064	 5.31544984394154E-02 
1065	 0.053370448073647 
1066	 5.23540819197152E-02 
1067	 5.22151090444357E-02 
1068	 5.16476648457194E-02 
1069	 5.16429684168853E-02 
1070	 5.27737666901722E-02 
1071	 5.32618032438095E-02 
1072	 5.37618459556627E-02 
1073	 5.39111002357202E-02 
1074	 5.37411772764934E-02 
1075	 5.29484961061575E-02 
1076	 5.27906001618007E-02 
1077	 0.05246071797214 
1078	 5.25702702874027E-02 
1079	 5.34119227204455E-02 
1080	 5.36120239483327E-02 
1081	 5.38241750486427E-02 
1082	 5.37407520443711E-02 
1083	 5.30212680549367E-02 
1084	 5.27833633716975E-02 
1085	 5.25871300389572E-02 
1086	 5.23874574831821E-02 
1087	 5.25788762700985E-02 
1088	 5.25438982936905E-02 
1089	 5.21688080881225E-02 
1090	 5.19551443830283E-02 
1091	 5.20836359514312E-02 
1092	 5.26778089505884E-02 
1093	 5.22696936410516E-02 
1094	 5.16710212138774E-02 
1095	 5.11508740047819E-02 
1096	 4.95732868656622E-02 
1097	 4.91167328895669E-02 
1098	 4.97469809996102E-02 
1099	 0.049621752745845 
1100	 4.92716970913284E-02 
1101	 4.91739289461917E-02 
1102	 4.91067354898906E-02 
1103	 0.048972602581097 
1104	 4.86787775003814E-02 
1105	 4.88738872518978E-02 
1106	 5.03123608781998E-02 
1107	 5.07340228227745E-02 
1108	 5.17431995786103E-02 
1109	 5.20019622710503E-02 
1110	 5.10891259571563E-02 
1111	 4.70991626823175E-02 
1112	 4.61159134424023E-02 
1113	 4.57452620458226E-02 
1114	 4.60444815717689E-02 
1115	 4.98078762773957E-02 
1116	 5.08271420658038E-02 
1117	 5.02938867723127E-02 
1118	 4.99603955364591E-02 
1119	 4.72231915898854E-02 
1120	 4.56440286470966E-02 
1121	 4.51883870409506E-02 
1122	 4.32028428509138E-02 
1123	 4.38821662282778E-02 
1124	 4.63126429629703E-02 
1125	 4.64630516803329E-02 
1126	 4.76341149928661E-02 
1127	 4.81188877094708E-02 
1128	 4.50899212371576E-02 
1129	 4.31164364576986E-02 
1130	 4.18355534658688E-02 
1131	 4.08839777655168E-02 
1132	 3.87238550082714E-02 
1133	 3.89265200122536E-02 
1134	 4.08172967385984E-02 
1135	 4.14764875148492E-02 
1136	 4.27715491549558E-02 
1137	 4.26470838034481E-02 
1138	 4.14749845908466E-02 
1139	 4.10641248665776E-02 
1140	 4.02410983605225E-02 
1141	 3.98173452959972E-02 
1142	 3.93495061722521E-02 
1143	 0.037782103947317 
1144	 3.57271036095023E-02 
1145	 3.45187727068775E-02 
1146	 0.034336540587214 
1147	 3.52636229352421E-02 
1148	 3.63560208409382E-02 
1149	 3.64479261953059E-02 
1150	 3.64193925823552E-02 
1151	 3.57915202044705E-02 
1152	 3.56415247089515E-02 
1153	 3.56696425590157E-02 
1154	 3.54423864933581E-02 
1155	 3.52794754746187E-02 
1156	 3.49814115130946E-02 
1157	 3.46157213782828E-02 
1158	 3.53589041520085E-02 
1159	 3.54148824011776E-02 
1160	 3.53633396883598E-02 
1161	 3.63939173977915E-02 
1162	 3.58861642071305E-02 
1163	 3.60344397794895E-02 
1164	 0.03629219714419 
1165	 3.48063500400473E-02 
1166	 3.43506371055388E-02 
1167	 3.39800579258712E-02 
1168	 3.33871328816024E-02 
1169	 3.36835268276289E-02 
1170	 3.36139733527466E-02 
1171	 3.35001594728112E-02 
1172	 3.35274460542035E-02 
1173	 3.29661413487636E-02 
1174	 3.20185377525273E-02 
1175	 3.12784194868749E-02 
1176	 3.01782447637606E-02 
1177	 3.00473046447391E-02 
1178	 3.05553759506584E-02 
1179	 3.09249072539198E-02 
1180	 3.12477509053537E-02 
1181	 3.13099468552535E-02 
1182	 3.08862148587431E-02 
1183	 3.06339983264731E-02 
1184	 3.07518584726579E-02 
1185	 3.06586959856508E-02 
1186	 3.07573112308046E-02 
1187	 3.10855997198656E-02 
1188	 3.16335410990363E-02 
1189	 3.22859589984532E-02 
1190	 0.032991114773689 
1191	 3.34041577862374E-02 
1192	 3.37779707964613E-02 
1193	 3.37818476709482E-02 
1194	 3.43407682850377E-02 
1195	 3.51484195254879E-02 
1196	 3.55318917520651E-02 
1197	 3.60055714871754E-02 
1198	 3.62716856998582E-02 
1199	 3.60566302047612E-02 
1200	 3.55628223431421E-02 
1201	 3.50956634654011E-02 
1202	 3.49836739643442E-02 
1203	 3.45817341094734E-02 
1204	 3.47750018065567E-02 
1205	 3.54556067349381E-02 
1206	 3.55110999947466E-02 
1207	 3.49124346588176E-02 
1208	 3.46052010245232E-02 
1209	 3.47805082090645E-02 
1210	 3.41739319775622E-02 
1211	 3.43788886486902E-02 
1212	 3.52296742363915E-02 
1213	 3.54607089511796E-02 
1214	 3.62838499324327E-02 
1215	 3.78842081575368E-02 
1216	 3.91362043347014E-02 
1217	 3.93700103077274E-02 
1218	 3.97631950343327E-02 
1219	 3.99747681340817E-02 
1220	 3.96468344250416E-02 
1221	 3.93398190838821E-02 
1222	 3.89987029520831E-02 
1223	 3.80345175788686E-02 
1224	 3.74746187106161E-02 
1225	 0.037551834869047 
1226	 3.78744727344718E-02 
1227	 3.80918822926217E-02 
1228	 3.79571836258941E-02 
1229	 3.77777594567488E-02 
1230	 3.72555390874997E-02 
1231	 3.66001107068085E-02 
1232	 3.60228886994457E-02 
1233	 3.48870664043367E-02 
1234	 3.45407540767204E-02 
1235	 3.47703479086612E-02 
1236	 3.59115825356864E-02 
1237	 3.59184688565073E-02 
1238	 3.54807270251405E-02 
1239	 3.67184797586096E-02 
1240	 3.82808993602148E-02 
1241	 3.92191567874579E-02 
1242	 4.15814682974419E-02 
1243	 4.18159884870747E-02 
1244	 4.01154135073282E-02 
1245	 3.97165244013695E-02 
1246	 3.96639637462925E-02 
1247	 4.07471440234346E-02 
1248	 4.29703406970319E-02 
1249	 0.045361764760619 
1250	 4.68618308049431E-02 
1251	 4.82905152660588E-02 
1252	 4.86579088043092E-02 
1253	 4.82592053269941E-02 
1254	 4.87200934848051E-02 
1255	 4.92254202997018E-02 
1256	 4.95200072966786E-02 
1257	 4.93494046044386E-02 
1258	 4.93625303660909E-02 
1259	 4.99987946330312E-02 
1260	 4.93020021150501E-02 
1261	 4.76477686097614E-02 
1262	 4.67263160051934E-02 
1263	 4.53977690433433E-02 
1264	 4.41070684406024E-02 
1265	 4.28648668442218E-02 
1266	 4.25102783545295E-02 
1267	 4.21610819383173E-02 
1268	 4.12643954845799E-02 
1269	 4.14470615258913E-02 
1270	 4.16320458496764E-02 
1271	 0.041194377705039 
1272	 4.06733882994848E-02 
1273	 4.02756812533718E-02 
1274	 4.09196203371459E-02 
1275	 4.17540579589353E-02 
1276	 4.20630399542251E-02 
1277	 4.25199137100078E-02 
1278	 4.22083333790561E-02 
1279	 4.15323672893629E-02 
1280	 4.10132666738423E-02 
1281	 4.04564590194821E-02 
1282	 3.98001782904763E-02 
1283	 3.95929663806017E-02 
1284	 3.96913866390409E-02 
1285	 3.96610437523945E-02 
1286	 3.95526577456738E-02 
1287	 3.99429752981599E-02 
1288	 4.09069262511647E-02 
1289	 4.09253927920132E-02 
1290	 4.09455417232811E-02 
1291	 4.09797566420295E-02 
1292	 3.99702029227566E-02 
1293	 0.038523017609511 
1294	 3.84481725516855E-02 
1295	 3.86815979666451E-02 
1296	 3.85565077400979E-02 
1297	 3.86038966199365E-02 
1298	 3.84476454482665E-02 
1299	 3.76928993683568E-02 
1300	 3.71284468737825E-02 
1301	 3.71652300485387E-02 
1302	 3.75331431478685E-02 
1303	 3.86833857855012E-02 
1304	 4.01966110057628E-02 
1305	 4.11866382400757E-02 
1306	 4.24105106943263E-02 
1307	 4.35745801528715E-02 
1308	 4.45678223645692E-02 
1309	 4.58888252441679E-02 
1310	 4.71088685882639E-02 
1311	 4.80766061871419E-02 
1312	 4.86947359922772E-02 
1313	 4.91793341448168E-02 
1314	 0.049531033710697 
1315	 4.94215091088521E-02 
1316	 0.049121675401079 
1317	 4.83803794567175E-02 
1318	 4.79811225453877E-02 
1319	 4.75706692150991E-02 
1320	 4.69459795818763E-02 
1321	 4.62624846851379E-02 
1322	 4.62613194849777E-02 
1323	 4.63604359973958E-02 
1324	 4.60311881332212E-02 
1325	 4.68518318514345E-02 
1326	 4.77817549493695E-02 
1327	 4.73436400385287E-02 
1328	 4.72862537616027E-02 
1329	 4.73110270346811E-02 
1330	 4.72299188681984E-02 
1331	 4.74287766491761E-02 
1332	 4.75806261406249E-02 
1333	 4.77744200481825E-02 
1334	 4.80662892288894E-02 
1335	 4.80503131090233E-02 
1336	 0.047805432132714 
1337	 4.73913600375261E-02 
1338	 0.046926878367642 
1339	 4.58164535247716E-02 
1340	 4.36800028784832E-02 
1341	 4.22353056546228E-02 
1342	 4.01012515421029E-02 
1343	 3.84779391170029E-02 
1344	 3.74809541202693E-02 
1345	 3.65109698330594E-02 
1346	 3.57598886001179E-02 
1347	 3.56051709036866E-02 
1348	 3.73601121736093E-02 
1349	 0.037786333747362 
1350	 3.90229571656385E-02 
1351	 3.99682766116577E-02 
1352	 3.51209566697477E-02 
1353	 0.032977131532234 
1354	 0.033494418870702 
1355	 4.13666939128285E-02 
1356	 4.62156096053387E-02 
1357	 5.78084105556854E-02 
1358	 5.00741233769154E-02 
1359	-5.93233710241437E-03 
1360	 4.43570618687168E-02 
1361	 0.158673572689694 
1362	 0.119017788768531 
1363	 0.178810715881815 
1364	 0.252677441974063 
1365	 0.161609024823791 
1366	 0.213973025391039 
1367	 0.282611295025364 
1368	 0.22733490582757 
1369	-0.21676933957399 
1370	-0.197858129915139 
1371	 0.131105166817719 
1372	 0.142451631967191 
1373	 0.170141262455112 
1374	 0.270293855743596 
1375	 0.242693949489541 
1376	 0.121424632341468 
1377	 1.25611480563456E-04 
1378	 0.106179257791277 
1379	 0.27443287144404 
1380	 0.250854715078738 
1381	 0.300061864550278 
1382	 0.389271836335437 
1383	 0.244291383826256 
1384	 0.131767566654922 
1385	 0.329987497337856 
1386	 0.356667330077793 
1387	 0.113764491643325 
1388	 6.24612890993154E-02 
1389	 0.327967683440765 
1390	 0.304636023294791 
1391	 0.136416083751087 
1392	-0.160446823741512 
1393	-9.58186011791246E-02 
1394	-9.73770034379675E-02 
1395	-7.78223941453186E-03 
1396	 0.351319930792889 
1397	 0.430372375642136 
1398	 0.379508743826555 
1399	 0.367835121798565 
1400	 0.297935086577793 
1401	 0.131863237601889 
1402	-4.24161258774309E-03 
1403	-1.61060091405375E-02 
1404	 2.88642124832464E-02 
1405	 3.89614335959418E-02 
1406	 5.83127516301158E-02 
1407	 3.34678448132633E-02 
1408	-6.88860333229311E-03 
1409	-5.58069980364272E-03 
1410	-3.42857042990674E-02 
1411	-1.89772393640372E-02 
1412	 4.05704448726801E-02 
1413	 0.053531882580403 
1414	 5.78413146398532E-02 
1415	 6.11079108923812E-02 
1416	 5.33836623534342E-02 
1417	 5.11236113760269E-02 
1418	 5.00377843514312E-02 
1419	 5.51823707119184E-02 
1420	 6.90836949348457E-02 
1421	 6.39463225945736E-02 
1422	 5.29939697148873E-02 
1423	 0.048780614943396 
1424	 0.039012155315371 
1425	 3.52821689137875E-02 
1426	 3.82126600621032E-02 
1427	 3.69361668183816E-02 
1428	 3.37725863937597E-02 
1429	 3.18187019865944E-02 
1430	 2.80247200477086E-02 
1431	 2.92478458969481E-02 
1432	 3.30885988845124E-02 
1433	 3.45368812120728E-02 
1434	 4.11183678371241E-02 
1435	 4.26256249087489E-02 
1436	 3.77882065354953E-02 
1437	 0.036286655732459 
1438	 3.56950769774188E-02 
1439	 3.38084729766012E-02 
1440	 3.58415161036193E-02 
1441	 3.65709939522567E-02 
1442	 3.84724962887294E-02 
1443	 4.07989026349459E-02 
1444	 4.44766179205818E-02 
1445	 4.86428156365717E-02 
1446	 5.22541459194839E-02 
1447	 5.52977827865497E-02 
1448	 5.16416188836811E-02 
1449	 5.03134023752415E-02 
1450	 5.30508662149091E-02 
1451	 5.24389421898986E-02 
1452	 0.051045104841851 
1453	 4.99939838459343E-02 
1454	 4.96096900808246E-02 
1455	 4.81885948882767E-02 
1456	 4.66555790511323E-02 
1457	 4.62319898042193E-02 
1458	 4.51849444935487E-02 
1459	 4.21741965278269E-02 
1460	 4.11702704947849E-02 
1461	 4.15347865776578E-02 
1462	 4.12962059415512E-02 
1463	 0.040798552821263 
1464	 4.10733455072626E-02 
1465	 4.23930688583695E-02 
1466	 4.24395342109848E-02 
1467	 4.22001609853977E-02 
1468	 4.18639923359072E-02 
1469	 4.02439220397593E-02 
1470	 0.039941873522361 
1471	 4.05240923345421E-02 
1472	 4.10798835957977E-02 
1473	 4.13872637281052E-02 
1474	 4.26812202577145E-02 
1475	 4.44537854173299E-02 
1476	 0.046610758176769 
1477	 4.95028942396277E-02 
1478	 5.17374308570181E-02 
1479	 5.40682910226351E-02 
1480	 5.62435507353273E-02 
1481	 5.90005771262111E-02 
1482	 5.95817979414555E-02 
1483	 5.96751244264091E-02 
1484	 5.88814161129424E-02 
1485	 0.056098026250326 
1486	 5.46675980394254E-02 
1487	 5.37603779851055E-02 
1488	 5.26857018714914E-02 
1489	 5.22474140089239E-02 
1490	 0.050944433761147 
1491	 0.049051681844614 
1492	 4.76906490085408E-02 
1493	 4.54454691141488E-02 
1494	 0.044755536954797 
1495	 4.46586621091452E-02 
1496	 4.51461912844222E-02 
1497	 4.70425569821101E-02 
1498	 0.048049092048663 
1499	 4.92359279199229E-02 
1500	 4.99333508785462E-02 
1501	 5.02954858938717E-02 
1502	 5.02883035068781E-02 
1503	 4.95402246074595E-02 
1504	 4.92542968916209E-02 
1505	 4.91207353215609E-02 
1506	 4.85603668898602E-02 
1507	 4.80811788996029E-02 
1508	 4.75220615740878E-02 
1509	 4.67617713726429E-02 
1510	 4.59140167884895E-02 
1511	 4.51731264848438E-02 
1512	 4.48318081513654E-02 
1513	 4.47794648661068E-02 
1514	 4.49462501017412E-02 
1515	 4.51113153828314E-02 
1516	 4.54375279215003E-02 
1517	 4.58268363313475E-02 
1518	 4.57337356938978E-02 
1519	 0.045386302130906 
1520	 4.56650470711892E-02 
1521	 4.58806061064431E-02 
1522	 4.52296495416657E-02 
1523	 0.044603860523799 
1524	 4.39560166953257E-02 
1525	 4.29570951120632E-02 
1526	 4.16037046238996E-02 
1527	 4.04932389802923E-02 
1528	 3.96214457032515E-02 
1529	 3.89321618039138E-02 
1530	 3.89521614987162E-02 
1531	 3.90897223494791E-02 
1532	 3.93360849365188E-02 
1533	 3.93997309539853E-02 
1534	 3.90952763815631E-02 
1535	 3.93773707200814E-02 
1536	 4.01794677262759E-02 
1537	 4.08160898831486E-02 
1538	 4.21364202962357E-02 
1539	 4.30973367633091E-02 
1540	 4.29894809556863E-02 
1541	 4.35943324282058E-02 
1542	 4.36903608419898E-02 
1543	 4.34063558507869E-02 
1544	 4.31717305615055E-02 
1545	 4.23756344501619E-02 
1546	 0.041525506138157 
1547	 4.08355100405441E-02 
1548	 4.03470103610535E-02 
1549	 3.96405984660991E-02 
1550	 3.89969139914223E-02 
1551	 3.91284096841828E-02 
1552	 3.91703414116316E-02 
1553	 3.88057195355642E-02 
1554	 0.038644113770349 
1555	 3.81998277890542E-02 
1556	 3.74811509610873E-02 
1557	 3.77936125919394E-02 
1558	 3.89270869372471E-02 
1559	 4.08311279565095E-02 
1560	 4.39936671046456E-02 
1561	 4.46885374096105E-02 
1562	 4.43540433846477E-02 
1563	 0.045243000158335 
1564	 4.52450768113522E-02 
1565	 4.57251925068594E-02 
1566	 4.67705845033486E-02 
1567	 4.59722636230204E-02 
1568	 4.42841299227149E-02 
1569	 4.30569711317298E-02 
1570	 4.24756621209239E-02 
1571	 4.23588700741107E-02 
1572	 4.11978981307561E-02 
1573	 4.07601736691556E-02 
1574	 4.11016351443208E-02 
1575	 0.040680104642911 
1576	 4.04074843086348E-02 
1577	 3.99527584205312E-02 
1578	 3.93550065640001E-02 
1579	 3.84448688716001E-02 
1580	 3.68653051226817E-02 
1581	 3.61166153120511E-02 
1582	 3.55339116390875E-02 
1583	 3.62918958078925E-02 
1584	 3.80418898393027E-02 
1585	 3.90073685545544E-02 
1586	 4.04052283539405E-02 
1587	 4.14651467799264E-02 
1588	 4.19329476189005E-02 
1589	 4.24311398283798E-02 
1590	 4.29309066312125E-02 
1591	 4.22622584200342E-02 
1592	 4.19981304161661E-02 
1593	 0.041782264631434 
1594	 4.10128271753686E-02 
1595	 4.08721507988636E-02 
1596	 3.95939769858233E-02 
1597	 3.79019566292591E-02 
1598	 3.68890955946973E-02 
1599	 3.59070401208155E-02 
1600	 0.035319889071117 
1601	 3.54279880925196E-02 
1602	 3.50905693655889E-02 
1603	 3.46762938840535E-02 
1604	 0.034394323579093 
1605	 3.42758240109893E-02 
1606	 3.44643887446758E-02 
1607	 3.44009981584936E-02 
1608	 0.034030081238892 
1609	 3.36739457631884E-02 
1610	 3.40363233298983E-02 
1611	 0.034909322656478 
1612	 3.55842906332161E-02 
1613	 3.61588078654323E-02 
1614	 3.71705251537255E-02 
1615	 0.037933556737268 
1616	 3.82616975924563E-02 
1617	 3.86713465088485E-02 
1618	 3.84633236530197E-02 
1619	 3.66150488374122E-02 
1620	 3.50178620132502E-02 
1621	 3.36324895761036E-02 
1622	 0.031862839401488 
1623	 3.10359992862519E-02 
1624	 3.04754534911362E-02 
1625	 3.02542411326885E-02 
1626	 2.96407840668672E-02 
1627	 2.87903184920276E-02 
1628	 2.85169043762018E-02 
1629	 2.84285050020792E-02 
1630	 2.82716009214726E-02 
1631	 2.87415593332815E-02 
1632	 2.92228800435981E-02 
1633	 2.85937985456037E-02 
1634	 2.78325037804098E-02 
1635	 2.68894669358549E-02 
1636	 2.61256476886791E-02 
1637	 2.59117069543507E-02 
1638	 2.58434772659117E-02 
1639	 2.57586596004805E-02 
1640	 2.57456505649046E-02 
1641	 2.60592865525454E-02 
1642	 2.60154596648484E-02 
1643	 2.58226681668079E-02 
1644	 2.59566148550871E-02 
1645	 2.65816630410275E-02 
1646	 2.77244198227435E-02 
1647	 2.83265190253204E-02 
1648	 2.83457276789473E-02 
1649	 2.79403650071239E-02 
1650	 2.74571365442148E-02 
1651	 2.77371521632848E-02 
1652	 0.02759642221121 
1653	 2.68493007506586E-02 
1654	 2.64372377560443E-02 
1655	 2.60551378949899E-02 
1656	 2.59417858853098E-02 
1657	 2.58560122616133E-02 
1658	 2.58597132208644E-02 
1659	 2.61278321212639E-02 
1660	 2.64607711270848E-02 
1661	 2.70016673473142E-02 
1662	 2.71051554814278E-02 
1663	 2.71091816605501E-02 
1664	 2.74121168259099E-02 
1665	 2.75288481710631E-02 
1666	 2.81927791091887E-02 
1667	 2.94421948721965E-02 
1668	 2.86843539014645E-02 
1669	 2.87570173601075E-02 
1670	 2.89978071468235E-02 
1671	 0.028969043725821 
1672	 2.97997582036167E-02 
1673	 3.03500336107805E-02 
1674	 2.96517801310189E-02 
1675	 0.029414194086365 
1676	 3.00097892438301E-02 
1677	 2.96562087694372E-02 
1678	 2.81844586637408E-02 
1679	 2.74369959839001E-02 
1680	 2.67585463227412E-02 
1681	 2.61443044470924E-02 
1682	 2.69005272932056E-02 
1683	 2.71046329713857E-02 
1684	 2.67636960794432E-02 
1685	 2.65615349282735E-02 
1686	 2.60254132224675E-02 
1687	 2.59173754849804E-02 
1688	 2.56397608285493E-02 
1689	 2.52812375641614E-02 
1690	 2.54697511542906E-02 
1691	 2.54284129194955E-02 
1692	 2.50531231112886E-02 
1693	 2.47431471979731E-02 
1694	 2.40433793169136E-02 
1695	 2.36632816899809E-02 
1696	 2.34600959758384E-02 
1697	 2.32023441440279E-02 
1698	 2.38544609144568E-02 
1699	 2.46126178753485E-02 
1700	 2.48643027834887E-02 
1701	 2.50368505477992E-02 
1702	 2.52730010412865E-02 
1703	 2.55779620574613E-02 
1704	 2.63078557876357E-02 
1705	 2.67395961594417E-02 
1706	 2.67158957732375E-02 
1707	 2.62722538884534E-02 
1708	 2.58337418191699E-02 
1709	 2.66417282345375E-02 
1710	 2.70706417478778E-02 
1711	 2.69679447216119E-02 
1712	 2.73047560687525E-02 
1713	 2.75013156224313E-02 
1714	 2.78478861529422E-02 
1715	 0.028304048854949 
1716	 2.80757624205302E-02 
1717	 2.79230174587268E-02 
1718	 2.77644143922919E-02 
1719	 2.74264263061584E-02 
1720	 2.71613424573103E-02 
1721	 0.027123933543232 
1722	 0.026674458050578 
1723	 2.58974956477556E-02 
1724	 2.52790827693899E-02 
1725	 2.49243370600415E-02 
1726	 2.45872783724847E-02 
1727	 2.47686499963925E-02 
1728	 2.47016590694875E-02 
1729	 2.44773441464993E-02 
1730	 2.42088411884339E-02 
1731	 2.33611751546709E-02 
1732	 2.33145420618229E-02 
1733	 2.36049693478967E-02 
1734	 2.40157524442805E-02 
1735	 2.50597351467033E-02 
1736	 2.50150550679532E-02 
1737	 2.40347713580192E-02 
1738	 2.43067446028034E-02 
1739	 2.52827739943203E-02 
1740	 2.52345314460114E-02 
1741	 0.025662626387896 
1742	 2.49363212603797E-02 
1743	 0.022240210924263 
1744	 2.18809974102769E-02 
1745	 2.25011240765526E-02 
1746	 2.28917074782935E-02 
1747	 2.31585142353039E-02 
1748	 2.33619381295817E-02 
1749	 2.35611698121832E-02 
1750	 2.39128849551943E-02 
1751	 2.37685262602851E-02 
1752	 2.31094078355289E-02 
1753	 2.31531754389059E-02 
1754	 2.30183522958206E-02 
1755	 2.32761265532276E-02 
1756	 2.44633065365878E-02 
1757	 2.46051554879596E-02 
1758	 2.52866458609379E-02 
1759	 2.54233814127522E-02 
1760	 2.50594517327011E-02 
1761	 0.024946799371054 
1762	 0.024466557770089 
1763	 2.49009799936053E-02 
1764	 2.56020841706989E-02 
1765	 0.025588362370989 
1766	 2.57717758706116E-02 
1767	 0.025151373226064 
1768	 2.43449331814057E-02 
1769	 2.41304206545279E-02 
1770	 2.32658971666546E-02 
1771	 2.19164645603251E-02 
1772	 2.12292578619211E-02 
1773	 2.14149624845547E-02 
1774	 2.09963504114006E-02 
1775	 2.15047773063305E-02 
1776	 0.022058336492296 
1777	 2.24068495438371E-02 
1778	 2.24957147232869E-02 
1779	 2.28379085237484E-02 
1780	 2.30687805152833E-02 
1781	 2.22519037935164E-02 
1782	 2.21139312625198E-02 
1783	 0.023169491121412 
1784	 2.28951706078771E-02 
1785	 2.17878394873996E-02 
1786	 2.15997627665095E-02 
1787	 0.021311389248007 
1788	 2.10177661980665E-02 
1789	 2.14341065783075E-02 
1790	 2.11684413325109E-02 
1791	 1.97329972075382E-02 
1792	 1.92842437770663E-02 
1793	 1.82362902817998E-02 
1794	 1.98372674622428E-02 
1795	 2.36393858632759E-02 
1796	 2.47269163276905E-02 
1797	 2.62302267535619E-02 
1798	 2.31957347849908E-02 
1799	 1.70293729356178E-02 
1800	 1.86610081780749E-02 
1801	 1.95616184370074E-02 
1802	 2.77681809498102E-02 
1803	 3.04737687783371E-02 
1804	 2.15918112231891E-02 
1805	 2.14536098929603E-02 
1806	 2.58916293297731E-02 
1807	 2.91040983046686E-02 
1808	 5.02899370384563E-02 
1809	 0.056763506858211 
1810	 3.29363179889547E-02 
1811	 2.33854234587488E-02 
1812	 0.018294834698304 
1813	-1.33786046023696E-03 
1814	-0.036980053183203 
1815	-3.84881376668756E-02 
1816	-3.22184507390109E-02 
1817	 0.038208083504543 
1818	 0.0822486436233 
1819	 2.22897791987294E-02 
1820	-0.114028591437269 
1821	 0.142342906401804 
1822	 0.132843030177404 
1823	-3.04046966536297E-02 
1824	-9.54349950120942E-02 
1825	-0.559922520938116 
1826	-0.596057953727381 
1827	-3.06078041952443E-02 
1828	 9.66967999884654E-02 
1829	 0.196369331135196 
1830	 0.113678989777805 
1831	 0.141045310973378 
1832	 0.155300012503733 
1833	 0.791578152946669 
1834	 1.20041525319441 
1835	-0.747300197307217 
1836	-0.498208219126858 
1837	 2.76629703183087 
1838	-1.73603872471462 
1839	 0.611308543746384 
1840	 0.390945345939425 
1841	 0.269370852506374 
1842	 0.670580584129497 
1843	 1.95730943128498 
1844	-0.56160866954045 
1845	-3.90318083810391 
1846	 2.99541423356317 
1847	 6.11118463317962 
1848	-6.0089033310397 
1849	-1.72120637123569 
1850	-2.72083778597388 
1851	-2.36715364634275 
1852	 9.62537926187522 
1853	 1.55275156683389 
1854	 0.969779581688292 
1855	 0.11797709751391 
1856	-1.75696629178809E-02 
1857	 0.383979057035683 
1858	 0.501202521744312 
1859	 0.684707650945398 
1860	 1.72805997072322 
1861	 4.18112225902729 
1862	 4.09180616771938 
1863	 17.2850983540342 
1864	 3.47441715419758 
1865	 2.05013951103162 
1866	 0.949726377251955 
1867	 0.774485138302068 
1868	 0.66957655981932 
1869	 0.539683889827866 
1870	 0.430093262987106 
1871	 0.404327361319503 
1872	 0.650996029561116 
1873	 0.923044582124577 
1874	 8.54837123612696 
1875	 24.0918607056219 
1876	 33.8443442249266 
1877	 2.0587784419062 
1878	 1.8568242395199 
1879	-2.83238097692841 
1880	 7.00133887424327 
1881	 2.03961725928281 
1882	 1.78467108931331 
1883	 1.13552206634616 
1884	 0.607773010415537 
1885	 0.333977450466314 
1886	 0.381894855023991 
1887	 0.3033484388162 
1888	 0.122003292777678 
1889	 8.69517591022337E-02 
1890	-2.26412165772279 
1891	-3.18030394951971 
1892	-0.449807369345494 
1893	 7.22540098210257E-02 
1894	 0.217232484865079 
1895	 0.335796737341314 
1896	 0.386342081258967 
1897	 0.869262900094251 
1898	 1.41244378325816 
1899	 1.72988920974367 
1900	 3.31049269316598 
1901	-3.49205077935021 
1902	-4.90148492854374 
1903	 2.2959695306678 
1904	 0.441592924502712 
1905	 1.1285182972161 
1906	-0.294439973761251 
1907	-2.95012711057233 
1908	 20.3877524015971 
1909	-0.522862258957021 
1910	-0.174667372858337 
1911	 0.161475257874064 
1912	 0.116964143884528 
1913	 0.191280628224231 
1914	 0.864403991902943 
1915	 0.201876786428573 
1916	 3.21789787434352E-02 
1917	-0.581557833211332 
1918	-8.35893139892207 
1919	 2.21502232548611 
1920	 1.20059407291212 
1921	 0.397088194495565 
1922	 0.240592523785502 
1923	 0.113050544311538 
1924	 3.50959812488961 
1925	-8.60779639379184 
1926	-9.25794003177351 
1927	-83.6099145095553 
1928	 3.53643896578746 
1929	 1.16102075994941 
1930	 0.7778621256442 
1931	 1.06158872030954 
1932	 0.359776522113114 
1933	 0.247138974114444 
1934	 0.371749703976175 
1935	 0.392523710715605 
1936	 0.277163884773787 
1937	 0.170345814839429 
1938	 0.166439351465373 
1939	 0.138162875472984 
1940	 0.124915357867443 
1941	 0.105203938938889 
1942	 9.12840007709532E-02 
1943	 0.089843483172591 
1944	 9.19810948089618E-02 
1945	 0.084270500144527 
1946	 7.72547777456005E-02 
1947	 5.33115184755471E-02 
1948	 2.47583008903631E-02 
1949	 2.10044867037924E-02 
1950	 2.83403946379491E-02 
1951	 3.66796490734464E-02 
1952	 4.52289999843692E-02 
1953	 5.89191100037424E-02 
1954	 0.073114656347562 
1955	 7.88728364340905E-02 
1956	 6.27546679679013E-02 
1957	 4.49124766711032E-02 
1958	 3.82483192816101E-02 
1959	 3.22621176615853E-02 
1960	 0.031575824101394 
1961	 0.035649598447852 
1962	 3.49038441810723E-02 
1963	 3.33182634280156E-02 
1964	 3.75292591500199E-02 
1965	 3.94555150800215E-02 
1966	 3.96918902253622E-02 
1967	 3.91642982697912E-02 
1968	 0.040201053985664 
1969	 3.93653893096903E-02 
1970	 3.80702263097308E-02 
1971	 3.80063309988131E-02 
1972	 3.68602526021773E-02 
1973	 3.82760010873852E-02 
1974	 4.20091519300801E-02 
1975	 0.043115283542926 
1976	 4.60654821035923E-02 
1977	 4.86188559304537E-02 
1978	 4.89549304522907E-02 
1979	 4.87788520714659E-02 
1980	 4.90212568863573E-02 
1981	 4.83218024299909E-02 
1982	 4.73022976581075E-02 
1983	 4.55553810331067E-02 
1984	 4.64413773558017E-02 
1985	 4.74677085484468E-02 
1986	 4.58862021365162E-02 
1987	 4.44439941006928E-02 
1988	 0.042500945235364 
1989	 4.09496837905484E-02 
1990	 3.90517850264694E-02 
1991	 0.036502584471823 
1992	 3.60121030006485E-02 
1993	 3.69597077429933E-02 
1994	 0.036780039503152 
1995	 3.66699769423423E-02 
1996	 3.85806105648518E-02 
1997	 4.03657246172851E-02 
1998	 3.83333085098594E-02 
1999	 3.79076488915744E-02 
2000	 4.11343491241282E-02 
2001	 4.02581290420019E-02 
2002	 3.71220067746104E-02 
2003	 4.08274926788529E-02 
2004	 4.12338657023569E-02 
2005	 3.94003781559502E-02 
2006	 4.23286569193986E-02 
2007	 4.02963751826932E-02 
2008	 3.96958542616337E-02 
2009	 3.84932012722662E-02 
2010	 3.67444332477881E-02 
2011	 3.56918875827389E-02 
2012	 3.48618717933808E-02 
2013	 0.033837751899125 
2014	 3.46299404895225E-02 
2015	 3.51528967144538E-02 
2016	 0.034921514331026 
2017	 3.53337338686078E-02 
2018	 3.37727921794509E-02 
2019	 3.23322769694004E-02 
2020	 3.32461468005979E-02 
2021	 3.41243508959331E-02 
2022	 3.48859541659533E-02 
2023	 3.65237986852253E-02 
2024	 3.61859256669188E-02 
2025	 3.33930636445011E-02 
2026	 3.27189715514783E-02 
2027	 3.17252190169207E-02 
2028	 3.22496964264066E-02 
2029	 3.39442138654151E-02 
2030	 3.61030439700665E-02 
2031	 3.81491855185921E-02 
2032	 3.85661274573379E-02 
2033	 3.85635241240544E-02 
2034	 3.92868330545062E-02 
2035	 4.03601169990133E-02 
2036	 4.18399184485755E-02 
2037	 4.29940845285807E-02 
2038	 4.40636284748898E-02 
2039	 4.49036778840596E-02 
2040	 4.53078054498821E-02 
2041	 4.61433313701678E-02 
2042	 0.047210928436584 
2043	 4.74137382293209E-02 
2044	 4.77382311886515E-02 
2045	 4.63088892302989E-02 
2046	 4.48395815342002E-02 
2047	 4.48292288924324E-02 
2048	 0.044754004192021 
2049	 4.49814164174415E-02 
2050	 4.58641570970819E-02 
2051	 4.59272643084877E-02 
2052	 4.58137392515092E-02 
2053	 0.046362837293653 
2054	 0.04600561223802 
2055	 4.57088225829803E-02 
2056	 4.52827964803154E-02 
2057	 4.39920780731506E-02 
2058	 4.40669656098537E-02 
2059	 4.53112544003781E-02 
2060	 4.56924992480623E-02 
2061	 0.046308389804384 
2062	 4.78498540789846E-02 
2063	 4.77304724584773E-02 
2064	 4.62133167055064E-02 
2065	 4.56753099991984E-02 
2066	 4.56762744463004E-02 
2067	 4.44469286753388E-02 
2068	 4.30431706359115E-02 
2069	 0.042138423500965 
2070	 3.98688892049846E-02 
2071	 3.77112627537285E-02 
2072	 3.62300127452502E-02 
2073	 3.47184075294181E-02 
2074	 3.23950714255274E-02 
2075	 3.18645702010415E-02 
2076	 3.24674951499756E-02 
2077	 3.27077190316231E-02 
2078	 3.36454283674692E-02 
2079	 0.03495911477432 
2080	 3.63209599147666E-02 
2081	 3.77435443616277E-02 
2082	 3.92942352801221E-02 
2083	 4.06210836055462E-02 
2084	 4.05525984177045E-02 
2085	 3.99740449504806E-02 
2086	 3.93647532477699E-02 
2087	 3.80805229670009E-02 
2088	 3.84217033757189E-02 
2089	 3.91311981166032E-02 
2090	 4.02426344769869E-02 
2091	 0.041397574602547 
2092	 4.23133144886434E-02 
2093	 4.30324345968723E-02 
2094	 4.35165502897625E-02 
2095	 4.33937359655415E-02 
2096	 4.45439048715072E-02 
2097	 4.71206139300383E-02 
2098	 4.70750564973148E-02 
2099	 4.71597876205752E-02 
2100	 4.55389550364804E-02 
2101	 4.08244094145315E-02 
2102	 3.71192187743469E-02 
2103	 3.53059275079005E-02 
2104	 3.51981176181432E-02 
2105	 0.03560009273373 
2106	 3.65927209022207E-02 
2107	 0.036644788726527 
2108	 3.61421449529789E-02 
2109	 0.03653005439616 
2110	 3.64203960477819E-02 
2111	 3.67188695903097E-02 
2112	 3.79488915028315E-02 
2113	 3.86446318838937E-02 
2114	 3.98477302014166E-02 
2115	 3.98528132003028E-02 
2116	 3.85930360034467E-02 
2117	 3.82336818574443E-02 
2118	 0.037557939244358 
2119	 3.73910401988705E-02 
2120	 3.80984665198885E-02 
2121	 3.83545088780028E-02 
2122	 3.82397703124383E-02 
2123	 3.80900938027857E-02 
2124	 3.80867622282384E-02 
2125	 3.91632574544579E-02 
2126	 4.08730364405459E-02 
2127	 4.14713020214091E-02 
2128	 4.08125671446977E-02 
2129	 3.94317197731004E-02 
2130	 3.79052680175951E-02 
2131	 3.79287614281751E-02 
2132	 3.86520977416958E-02 
2133	 3.91405882088887E-02 
2134	 3.95864582785641E-02 
2135	 3.98064102547915E-02 
2136	 3.97622706483788E-02 
2137	 3.94008958656403E-02 
2138	 3.98772912888407E-02 
2139	 0.040867614118867 
2140	 4.12032856455775E-02 
2141	 4.19811377152682E-02 
2142	 4.23949066390322E-02 
2143	 4.23377772113218E-02 
2144	 4.12239826586702E-02 
2145	 4.21440041957866E-02 
2146	 4.19813543319652E-02 
2147	 4.14700390667908E-02 
2148	 4.21743397563798E-02 
2149	 4.13212321764101E-02 
2150	 4.11198214521139E-02 
2151	 4.06685979495765E-02 
2152	 3.94968703025463E-02 
2153	 3.95043879524987E-02 
2154	 3.95027763647083E-02 
2155	 4.01352700391355E-02 
2156	 4.05526552828195E-02 
2157	 3.99007926379495E-02 
2158	 0.03752171758841 
2159	 3.70105338946487E-02 
2160	 0.036581004311368 
2161	 3.65316461578979E-02 
2162	 3.83893825761849E-02 
2163	 3.87506469652657E-02 
2164	 3.77470106707588E-02 
2165	 3.74861706321449E-02 
2166	 3.78586877091072E-02 
2167	 3.74738089535629E-02 
2168	 3.60048730968457E-02 
2169	 3.61073795934773E-02 
2170	 3.70478343323016E-02 
2171	 0.036732527334012 
2172	 0.037518831218443 
2173	 3.89621129731455E-02 
2174	 4.05486698787472E-02 
2175	 4.29137375016875E-02 
2176	 0.044933472808932 
2177	 4.84817580111363E-02 
2178	 4.92128518348778E-02 
2179	 4.79085744833973E-02 
2180	 4.77982982897444E-02 
2181	 4.68514432446806E-02 
2182	 0.047969059230417 
2183	 4.92633343428388E-02 
2184	 0.048966428484669 
2185	 4.86387677673449E-02 
2186	 4.77727975625003E-02 
2187	 4.55239329101707E-02 
2188	 4.45210787020549E-02 
2189	 4.39443562381043E-02 
2190	 4.28030179463829E-02 
2191	 0.04142107984748 
2192	 4.06212638049208E-02 
2193	 3.98525770860919E-02 
2194	 3.94461413728957E-02 
2195	 4.00375773458517E-02 
2196	 3.98055816265598E-02 
2197	 3.91467633245379E-02 
2198	 3.83347988281771E-02 
2199	 3.67013337039807E-02 
2200	 3.65597125698129E-02 
2201	 3.63676142424718E-02 
2202	 3.63827450281004E-02 
2203	 3.72017246897745E-02 
2204	 3.80375438502903E-02 
2205	 4.04735446933547E-02 
2206	 4.26385359249305E-02 
2207	 4.54439163264186E-02 
2208	 4.94710070612993E-02 
2209	 5.20962253496382E-02 
2210	 0.055070714610935 
2211	 0.057096103866951 
2212	 5.86171629879096E-02 
2213	 5.82212651716179E-02 
2214	 5.76665844586084E-02 
2215	 5.80783185816036E-02 
2216	 5.74649293987539E-02 
2217	 5.54167850737818E-02 
2218	 5.15594368066538E-02 
2219	 0.049701162715599 
2220	 4.66616606245864E-02 
2221	 4.49415966822196E-02 
2222	 0.046185024569446 
2223	 4.56722969165926E-02 
2224	 4.38084276959739E-02 
2225	 4.29793027953333E-02 
2226	 4.23347988401166E-02 
2227	 4.24981959557759E-02 
2228	 4.36238216549494E-02 
2229	 4.41708193693151E-02 
2230	 4.50045843740711E-02 
2231	 4.52078932770728E-02 
2232	 4.48498415687185E-02 
2233	 4.50461453180123E-02 
2234	 4.53421253971812E-02 
2235	 4.62009988044495E-02 
2236	 4.58625087063907E-02 
2237	 4.37966872209009E-02 
2238	 4.31017550584609E-02 
2239	 4.11651972909618E-02 
2240	 3.99455417216356E-02 
2241	 4.14343179930008E-02 
2242	 4.22038395163827E-02 
2243	 4.21780522693245E-02 
2244	 4.22139157628346E-02 
2245	 4.17522607353806E-02 
2246	 4.09573975814947E-02 
2247	 4.19884238261188E-02 
2248	 4.40704890625504E-02 
2249	 0.046018205475576 
2250	 4.72230571010831E-02 
2251	 4.54656070287466E-02 
2252	 4.19068093154061E-02 
2253	 3.99416798238744E-02 
2254	 0.040195545955806 
2255	 4.12335091011249E-02 
2256	 4.47881803979058E-02 
2257	 4.63639903266896E-02 
2258	 4.27016439078145E-02 
2259	 3.99320220907331E-02 
2260	 0.038759699113592 
2261	 0.03729108914794 
2262	 3.64072202969049E-02 
2263	 3.75324173667731E-02 
2264	 3.92496293165666E-02 
2265	 4.16521499571611E-02 
2266	 4.14804021575335E-02 
2267	 0.04042591692927 
2268	 4.16415572404827E-02 
2269	 4.30443723041656E-02 
2270	 4.30479465601268E-02 
2271	 4.40166663996802E-02 
2272	 4.56242139876948E-02 
2273	 4.53917279883259E-02 
2274	 4.38633447660421E-02 
2275	 0.045314666902063 
2276	 4.47408640754126E-02 
2277	 3.80238399505106E-02 
2278	 3.63981930668896E-02 
2279	 3.90624774231851E-02 
2280	 3.83135803524037E-02 
2281	 3.68525636885807E-02 
2282	 3.66960856314657E-02 
2283	 3.50165378537197E-02 
2284	 3.42304142046465E-02 
2285	 3.55022016357664E-02 
2286	 3.72489887842452E-02 
2287	 3.71415651822541E-02 
2288	 3.58342981834411E-02 
2289	 3.55709500037053E-02 
2290	 3.84572486712265E-02 
2291	 4.18021480612371E-02 
2292	 0.04356025624218 
2293	 0.044621165675203 
2294	 4.30582494717828E-02 
2295	 4.15507654933971E-02 
2296	 4.50385857513081E-02 
2297	 4.66483523244783E-02 
2298	 4.77400558818637E-02 
2299	 5.14659937217032E-02 
2300	 4.87314216658029E-02 
2301	 4.55387839321047E-02 
2302	 4.30602285601315E-02 
2303	 3.70302978606906E-02 
2304	 3.59433685032505E-02 
2305	 4.08679577935623E-02 
2306	 4.22277459013198E-02 
2307	 4.19365485075282E-02 
2308	 4.49879873028641E-02 
2309	 4.57586121689493E-02 
2310	 4.47799327797079E-02 
2311	 4.21446024217749E-02 
2312	 3.52382486627069E-02 
2313	 3.04821287892522E-02 
2314	 2.86655501295569E-02 
2315	 2.68936773809393E-02 
2316	 2.96837688574543E-02 
2317	 3.40526956983827E-02 
2318	 3.45301030214022E-02 
2319	 3.62225911384962E-02 
2320	 3.76572944919784E-02 
2321	 3.40299542994884E-02 
2322	 3.29541864996458E-02 
2323	 3.79846632321976E-02 
2324	 4.38856488028484E-02 
2325	 4.44488395301739E-02 
2326	 0.041350932561472 
2327	 4.36811905959365E-02 
2328	 4.52311519984931E-02 
2329	 4.21903744811672E-02 
2330	 0.043066422110607 
2331	 4.04268418371645E-02 
2332	 3.39472896625662E-02 
2333	 3.55845786856818E-02 
2334	 3.96624705535367E-02 
2335	 4.06031144422447E-02 
2336	 4.10170322276088E-02 
2337	 0.039588347465875 
2338	 3.70844575945602E-02 
2339	 3.44840819299564E-02 
2340	 3.09023692126043E-02 
2341	 3.05222636158116E-02 
2342	 3.31054818890404E-02 
2343	 4.08432344658225E-02 
2344	 5.08266891039294E-02 
2345	 5.32089002843602E-02 
2346	 5.31631035800432E-02 
2347	 4.41461602454171E-02 
2348	 3.11202385385515E-02 
2349	 3.31786080638564E-02 
2350	 3.39916261245767E-02 
2351	 3.63874369161258E-02 
2352	 4.27369542669368E-02 
2353	 3.33865385374137E-02 
2354	 2.64882751172628E-02 
2355	 2.59115353921284E-02 
2356	 2.36099130250836E-02 
2357	 2.41344241656082E-02 
2358	 1.96052316098626E-02 
2359	 1.02766305869191E-02 
2360	 7.53257749281211E-03 
2361	 1.48589725831947E-02 
2362	 2.53684284250844E-02 
2363	 3.56136843182332E-02 
2364	 3.40428988089997E-02 
2365	 2.32042943996591E-02 
2366	 2.07981392105446E-02 
2367	 2.05141290102158E-02 
2368	 2.47757691048286E-02 
2369	 3.14523906189508E-02 
2370	 3.29867207439792E-02 
2371	 2.96499744484937E-02 
2372	 2.83950248159712E-02 
2373	 4.12015370414185E-02 
2374	 5.18112477260671E-02 
2375	 5.20235955637843E-02 
2376	 5.71121517139477E-02 
2377	 6.98105343488735E-02 
2378	 6.39956358812026E-02 
2379	 4.62509592742575E-02 
2380	 2.48763522324419E-02 
2381	-2.20862741720546E-03 
2382	-8.21677626999068E-03 
2383	 1.32720070070536E-02 
2384	 4.02074556324416E-02 
2385	 3.81420424224318E-02 
2386	 2.71573000307132E-02 
2387	 0.019982398127022 
2388	 7.31907411217525E-03 
2389	 1.86954848199663E-02 
2390	 2.92154726243909E-02 
2391	 1.90784219019552E-02 
2392	 1.51277123076671E-02 
2393	 2.58278054581773E-02 
2394	 0.033287008978877 
2395	 4.22429075416384E-02 
2396	 8.65015801960226E-02 
2397	 0.106838820886314 
2398	 9.62227431912862E-02 
2399	 8.75209409454827E-02 
2400	 5.01288843877633E-02 
2401	 4.71300203312391E-02 
2402	 5.79476083860937E-02 
2403	 4.52173767223373E-02 
2404	 6.07328321122529E-02 
2405	 5.65739388681359E-02 
2406	 4.58298102541996E-02 
2407	 5.93373099559421E-02 
2408	 3.69668383245276E-02 
2409	 2.42017738109863E-02 
2410	 3.10201902906542E-02 
2411	 2.54574137331153E-02 
2412	 5.89519168124878E-02 
2413	 6.14757665818985E-02 
2414	 0.039936207385264 
2415	 8.73534823373636E-02 
2416	 0.122768674660795 
2417	 0.138617257698109 
2418	 0.192696188505612 
2419	 0.202367543822174 
2420	 0.160900089246931 
2421	 0.148754817360036 
2422	 0.128032966049172 
2423	 0.106980588879222 
2424	 0.150503606002166 
2425	 0.120870475910452 
2426	 4.56570338985809E-02 
2427	 5.21829300572674E-02 
2428	 9.09190041750579E-02 
2429	 0.124684022615189 
2430	 0.155667579186092 
2431	 8.91569104729211E-02 
2432	-0.129786925622536 
2433	-0.198708440825654 
2434	-0.110946835934715 
2435	-9.75666768249542E-02 
2436	-0.056546593177671 
2437	-5.60827755910513E-02 
2438	-9.71743947875198E-02 
2439	-3.64029542458449E-02 
2440	 4.87156574368879E-02 
2441	 6.38838692846901E-02 
2442	 4.04778087629794E-02 
2443	 2.42868542864678E-02 
2444	-6.05359521813867E-02 
2445	-4.13104306537507E-02 
2446	 8.09983201783977E-02 
2447	 7.54257834868243E-02 
2448	 0.100346510318262 
2449	 0.161433045323969 
2450	 0.21079932975857 
2451	 0.247574229882034 
2452	 0.439885444393723 
2453	 0.422977751337352 
2454	 0.332497931181513 
2455	 0.216191150036125 
2456	 4.93003628410659E-02 
2457	 1.25757398465205E-02 
2458	 5.82123578636567E-02 
2459	 0.154073259793356 
2460	 0.261638115244874 
2461	 0.407300509413143 
2462	 0.518095584354435 
2463	 0.361180038184134 
2464	 0.276534723639739 
2465	 0.264808902098213 
2466	 0.156984928373434 
2467	 0.125800400473959 
2468	 9.52821802575385E-02 
2469	-0.30160788338132 
2470	-2.27502402196112 
2471	-1.60873100586056 
2472	 6.03753181622354E-02 
2473	 0.318720860711549 
2474	 0.631244676809573 
2475	 0.723327199136945 
2476	 0.669004224572771 
2477	 0.743398197269298 
2478	 0.499731319568128 
2479	 0.304118595149913 
2480	 0.91738023334039 
2481	 1.24267674885504 
2482	 0.828929401004556 
2483	 0.445474357329075 
2484	 0.570916020870874 
2485	 1.15944516183456 
2486	-0.908542117435231 
2487	-1.6890760430045 
2488	-1.33768673027625 
2489	-0.722608005607559 
2490	-4.74038525541599 
2491	 1.10461639909034 
2492	-3.81189145785816 
2493	-1.03459845843292 
2494	-0.94498456433637 
2495	-0.489158577520952 
2496	-0.818472422260848 
2497	-0.748450341326991 
2498	-1.49641212001069 
2499	-8.19064163325882 
2500	-0.818820402242494 
