Wavelength	rt0711a00007.asd
350	 5.75259066939019E-02 
351	 5.84948108962854E-02 
352	 5.90100826698557E-02 
353	 5.93292856202599E-02 
354	 5.97419584862457E-02 
355	 6.01214288493683E-02 
356	 6.04946148216853E-02 
357	 6.09330586686999E-02 
358	 6.15173105572541E-02 
359	 6.23797033235043E-02 
360	 6.27375390198861E-02 
361	 6.26654331084392E-02 
362	 6.28262592489999E-02 
363	 6.34042021816355E-02 
364	 6.37459988372082E-02 
365	 6.37293265354695E-02 
366	 0.064167249727245 
367	 6.46388711509144E-02 
368	 6.48982104206896E-02 
369	 6.49735478716652E-02 
370	 6.57267001869222E-02 
371	 6.60846805342586E-02 
372	 6.61572041349678E-02 
373	 6.67089638950981E-02 
374	 6.75964350894113E-02 
375	 6.79822601097692E-02 
376	 6.78133209349961E-02 
377	 6.81617446094314E-02 
378	 6.81385617463414E-02 
379	 6.85196225171723E-02 
380	 6.96854640610673E-02 
381	 0.069653066519688 
382	 0.06985021967717 
383	 7.03333476733175E-02 
384	 7.05558153271321E-02 
385	 7.07815603280508E-02 
386	 7.10223926382166E-02 
387	 0.071308635125486 
388	 7.16979368200507E-02 
389	 7.19044976802082E-02 
390	 7.21205689211516E-02 
391	 7.24164155223919E-02 
392	 7.23059330304039E-02 
393	 7.24016915484896E-02 
394	 0.072607806095644 
395	 7.26366582052813E-02 
396	 7.27562463817994E-02 
397	 7.26179811096122E-02 
398	 7.23540865001483E-02 
399	 7.24762535351833E-02 
400	 7.23410411351525E-02 
401	 7.20970568312353E-02 
402	 7.19440889759109E-02 
403	 7.19254640243362E-02 
404	 7.18775258262418E-02 
405	 7.17969871151325E-02 
406	 7.17520512522954E-02 
407	 7.18760847956613E-02 
408	 7.16616802681977E-02 
409	 7.12439942811234E-02 
410	 7.13556380076936E-02 
411	 7.11422119682181E-02 
412	 7.08873907972773E-02 
413	 7.08526407578378E-02 
414	 7.07740594796897E-02 
415	 7.05028166188097E-02 
416	 7.02445827498353E-02 
417	 7.02596492912301E-02 
418	 7.01497908883208E-02 
419	 7.00213244410002E-02 
420	 6.99376681304702E-02 
421	 6.98758323344239E-02 
422	 6.97647309017585E-02 
423	 6.97310309946551E-02 
424	 6.98505205673734E-02 
425	 0.069954879731691 
426	 7.00333391993928E-02 
427	 7.01668998932325E-02 
428	 7.04408587266594E-02 
429	 7.06281791134974E-02 
430	 7.07510078052441E-02 
431	 7.08703196722331E-02 
432	 7.10592230501616E-02 
433	 7.13565418632852E-02 
434	 7.15904235438724E-02 
435	 7.16772906970906E-02 
436	 7.19373058106794E-02 
437	 7.20752845612569E-02 
438	 7.21288132836617E-02 
439	 7.22879020114626E-02 
440	 7.23520306115034E-02 
441	 7.23965281343619E-02 
442	 7.24335768117046E-02 
443	 7.23386350103181E-02 
444	 7.22464496041298E-02 
445	 7.21728925265905E-02 
446	 7.21078929406201E-02 
447	 7.20854147241918E-02 
448	 0.072028053886873 
449	 7.19221070982329E-02 
450	 7.17996791295082E-02 
451	 7.16102837449953E-02 
452	 7.14153323250931E-02 
453	 0.071271051452898 
454	 7.12003968737206E-02 
455	 7.10922240341162E-02 
456	 7.09161473263244E-02 
457	 7.06945456958541E-02 
458	 7.05221498277183E-02 
459	 7.04011617525244E-02 
460	 7.02802981046903E-02 
461	 7.00697203198375E-02 
462	 6.99075145302966E-02 
463	 6.97604286617048E-02 
464	 0.069589334204801 
465	 0.069431305927802 
466	 6.93425054757989E-02 
467	 6.92261997870779E-02 
468	 6.89586095914837E-02 
469	 6.88313365291117E-02 
470	 6.87052410495533E-02 
471	 0.068524450202318 
472	 6.83975743874002E-02 
473	 6.82813440608912E-02 
474	 6.81469787367782E-02 
475	 6.80038688577482E-02 
476	 6.79892749385883E-02 
477	 0.06798439062109 
478	 6.78944595974028E-02 
479	 6.76812660274441E-02 
480	 6.76815429064525E-02 
481	 6.77631136605711E-02 
482	 6.78081098683507E-02 
483	 6.78556201172582E-02 
484	 6.80136042181066E-02 
485	 0.068163583501887 
486	 6.81619561698604E-02 
487	 6.82248506259783E-02 
488	 6.82971077119008E-02 
489	 6.83757711537859E-02 
490	 6.85198743051835E-02 
491	 6.87157485685453E-02 
492	 6.89768378341482E-02 
493	 6.92616040452351E-02 
494	 6.93576925271574E-02 
495	 6.95322428886792E-02 
496	 6.97988873118803E-02 
497	 7.00421001747407E-02 
498	 0.070245753998568 
499	 7.05072925194796E-02 
500	 7.08324961449372E-02 
501	 7.10725915733559E-02 
502	 0.071267051699868 
503	 7.14121799441332E-02 
504	 7.15330546289299E-02 
505	 7.17924904387464E-02 
506	 7.20953135856614E-02 
507	 7.23214519263333E-02 
508	 7.23665047053648E-02 
509	 7.25769114235261E-02 
510	 7.28507134696546E-02 
511	 0.073077586655641 
512	 7.32938081156612E-02 
513	 7.36779985113087E-02 
514	 7.41726122089395E-02 
515	 7.46135687249987E-02 
516	 7.49812729259195E-02 
517	 7.53999346585255E-02 
518	 7.58732640812953E-02 
519	 7.62439650324415E-02 
520	 7.67082661328437E-02 
521	 7.72821755333278E-02 
522	 7.79352230597436E-02 
523	 7.86234688856256E-02 
524	 7.93747640569251E-02 
525	 8.02176712963112E-02 
526	 8.11654377668658E-02 
527	 8.20354614834076E-02 
528	 8.28945595143975E-02 
529	 8.38519547527345E-02 
530	 8.50513908286625E-02 
531	 8.62237978029349E-02 
532	 8.74071243990442E-02 
533	 8.87179164258891E-02 
534	 9.00217212858744E-02 
535	 9.13801202573653E-02 
536	 0.092837494685353 
537	 9.43955174273093E-02 
538	 9.59071926863008E-02 
539	 9.74852768060257E-02 
540	 9.91939376645442E-02 
541	 0.100733185465603 
542	 0.102255166970677 
543	 0.103790903061615 
544	 0.105301202482688 
545	 0.106802444608126 
546	 0.108239084136417 
547	 0.10960207896868 
548	 0.110996553411216 
549	 0.112275061963852 
550	 0.113507592262079 
551	 0.114789318700614 
552	 0.115861596636865 
553	 0.116937897741901 
554	 0.118111995615192 
555	 0.119303921239538 
556	 0.120413641749496 
557	 0.12154797914574 
558	 0.122776398496887 
559	 0.12390855183306 
560	 0.125080247752724 
561	 0.126330180558769 
562	 0.127629630699999 
563	 0.128859258462464 
564	 0.130045647860833 
565	 0.131201869940113 
566	 0.132269651055121 
567	 0.133405048184777 
568	 0.13448029052974 
569	 0.135305831537075 
570	 0.136007799013946 
571	 0.136680240891729 
572	 0.137355637385181 
573	 0.137999955704876 
574	 0.138630964410253 
575	 0.139231310981273 
576	 0.139784741225122 
577	 0.140299696297716 
578	 0.140938729891262 
579	 0.141608220763931 
580	 0.142093183957883 
581	 0.142697853820005 
582	 0.143273331480818 
583	 0.143739893340056 
584	 0.14424095679544 
585	 0.144690179074201 
586	 0.145139483799885 
587	 0.145658122780085 
588	 0.146131549334638 
589	 0.146326333045145 
590	 0.146331315952439 
591	 0.146560407931192 
592	 0.14662128505169 
593	 0.146672228698986 
594	 0.146835941555998 
595	 0.146794207125978 
596	 0.146722470928345 
597	 0.146641018007662 
598	 0.146498712906525 
599	 0.14644110021935 
600	 0.146418780252053 
601	 0.146404542621773 
602	 0.146447811934242 
603	 0.146639199667883 
604	 0.146826708429281 
605	 0.146854080965701 
606	 0.146971277484213 
607	 0.147200144793553 
608	 0.147480797438669 
609	 0.147680275483744 
610	 0.147763264793287 
611	 0.147888679252532 
612	 0.148139600754648 
613	 0.148245083972198 
614	 0.148378093821065 
615	 0.148551205613806 
616	 0.14869009803157 
617	 0.148812235503635 
618	 0.14898918576292 
619	 0.149197042411837 
620	 0.149238262957508 
621	 0.149405688391384 
622	 0.149654483677514 
623	 0.149836818845373 
624	 0.149896134508076 
625	 0.149985441777839 
626	 0.150145380002061 
627	 0.150299496276841 
628	 0.150426352178898 
629	 0.150523088221188 
630	 0.150608894901156 
631	 0.150732974390504 
632	 0.150926238694448 
633	 0.15108898207196 
634	 0.151102860707346 
635	 0.151228566125117 
636	 0.151394011989172 
637	 0.151534990107127 
638	 0.151647672438986 
639	 0.151795216268645 
640	 0.151920097772574 
641	 0.151962786466562 
642	 0.151997360673564 
643	 0.152121933131405 
644	 0.152274110498791 
645	 0.152278338171327 
646	 0.152401456474054 
647	 0.152502224319645 
648	 0.152477271801954 
649	 0.152475029315629 
650	 0.152541835735822 
651	 0.152532890995103 
652	 0.15229456072259 
653	 0.152155677404816 
654	 0.152052343493333 
655	 0.151846932951011 
656	 0.151385031065726 
657	 0.150986805775226 
658	 0.150688097445237 
659	 0.150427514721297 
660	 0.150102630463792 
661	 0.149818772694957 
662	 0.149547550773169 
663	 0.149200030835028 
664	 0.14893717291427 
665	 0.148664523223776 
666	 0.148365564427714 
667	 0.148232673681606 
668	 0.148069077305632 
669	 0.147930685366948 
670	 0.147908710744576 
671	 0.147823680546712 
672	 0.147815701251282 
673	 0.147880144335258 
674	 0.14787753991079 
675	 0.148000073295303 
676	 0.14817665211495 
677	 0.148347219517155 
678	 0.148614280362531 
679	 0.148869063656873 
680	 0.149126357577557 
681	 0.149462493977753 
682	 0.149955089874965 
683	 0.150399154134632 
684	 0.150802496521315 
685	 0.151542101935384 
686	 0.152081457471166 
687	 0.152492243705041 
688	 0.152959951078722 
689	 0.153334780584202 
690	 0.153592455158766 
691	 0.153789077421118 
692	 0.154019870708762 
693	 0.154228689020186 
694	 0.154240701936747 
695	 0.154035999938483 
696	 0.1538245217626 
697	 0.15372556434087 
698	 0.153580050650708 
699	 0.153225200379964 
700	 0.152958703073286 
701	 0.152625839565844 
702	 0.152183065707762 
703	 0.151685355578177 
704	 0.151186821427027 
705	 0.150543337514464 
706	 0.149741681222943 
707	 0.149084705754967 
708	 0.148352888523381 
709	 0.147478751126722 
710	 0.14646811505085 
711	 0.14542996047918 
712	 0.144247790498942 
713	 0.1429365560735 
714	 0.141629393067927 
715	 0.140394260636256 
716	 0.139093376002482 
717	 0.137651644671243 
718	 0.136147793245297 
719	 0.134388180649207 
720	 0.132692431705085 
721	 0.131142522375372 
722	 0.129559241471723 
723	 0.127902285363982 
724	 0.126215551836869 
725	 0.124170775730831 
726	 0.122119276402192 
727	 0.119904924704582 
728	 0.117418230292641 
729	 0.114925123864832 
730	 0.112129389109145 
731	 0.109288766869588 
732	 0.106764696428794 
733	 0.104661579057815 
734	 0.102821894197027 
735	 0.101215286981567 
736	 9.99663238968048E-02 
737	 9.88757423625359E-02 
738	 9.80373448155708E-02 
739	 0.097533163449221 
740	 9.71327317374345E-02 
741	 9.69304563458169E-02 
742	 9.67908538383116E-02 
743	 9.65137702265185E-02 
744	 9.64253311010926E-02 
745	 9.63818181178302E-02 
746	 9.62986254978461E-02 
747	 9.62336253683284E-02 
748	 9.62793270749128E-02 
749	 9.63185060629865E-02 
750	 9.62567057940621E-02 
751	 9.62702168398161E-02 
752	 9.62154294414724E-02 
753	 9.61223231884992E-02 
754	 9.61131132425457E-02 
755	 9.62340902660323E-02 
756	 0.096160735655661 
757	 9.59070976573028E-02 
758	 9.60680560271152E-02 
759	 9.70829517086876E-02 
760	 9.82885583888751E-02 
761	 9.80271177298144E-02 
762	 9.82093695653373E-02 
763	 9.81105835441732E-02 
764	 9.78879524775314E-02 
765	 9.78490190744434E-02 
766	 9.77296201235586E-02 
767	 9.76450762803472E-02 
768	 9.76863120916699E-02 
769	 9.79191894405533E-02 
770	 9.81158268898573E-02 
771	 9.83157092715044E-02 
772	 9.85866366457964E-02 
773	 9.89271663041783E-02 
774	 0.099197639362507 
775	 9.94601895661739E-02 
776	 9.98294133234202E-02 
777	 0.100105269686106 
778	 0.100458635078925 
779	 0.100906618142605 
780	 0.101296787609735 
781	 0.101737050165079 
782	 0.102175949938879 
783	 0.102574289074221 
784	 0.102976928086835 
785	 0.103458108577832 
786	 0.104001593209617 
787	 0.104552806629369 
788	 0.105090858314302 
789	 0.105589169795672 
790	 0.10602617830175 
791	 0.106414544041749 
792	 0.107000235232762 
793	 0.107595541234011 
794	 0.108047321523629 
795	 0.108343987623819 
796	 0.108851865900256 
797	 0.109377176662223 
798	 0.109703754412317 
799	 0.110066365055531 
800	 0.110398583093045 
801	 0.1107495521232 
802	 0.111172814487283 
803	 0.111275291633577 
804	 0.111281230315499 
805	 0.111347785750264 
806	 0.11147897967066 
807	 0.111472367847049 
808	 0.111356956580259 
809	 0.11118195002013 
810	 0.110896059071928 
811	 0.110738983627879 
812	 0.110577397025258 
813	 0.110180265586041 
814	 0.109812809072117 
815	 0.109396930904123 
816	 0.108897936846612 
817	 0.108299469976919 
818	 0.107326090178368 
819	 0.106259985719583 
820	 0.105299750051154 
821	 0.104549936179421 
822	 0.103123644630371 
823	 0.101186766999921 
824	 9.92235348917909E-02 
825	 9.74250157141378E-02 
826	 9.54469945202901E-02 
827	 9.31702309986238E-02 
828	 9.07372981545871E-02 
829	 8.83281199247177E-02 
830	 8.62299148606544E-02 
831	 0.084450280859486 
832	 8.28426603960433E-02 
833	 8.15489376492876E-02 
834	 8.03259929201357E-02 
835	 7.91725821536959E-02 
836	 7.84583927212375E-02 
837	 7.78511837656184E-02 
838	 7.73281413614036E-02 
839	 7.68646186017276E-02 
840	 7.62306431823714E-02 
841	 7.57903206978891E-02 
842	 7.54692861445567E-02 
843	 7.50521817130101E-02 
844	 7.45192958928438E-02 
845	 7.39924709746075E-02 
846	 7.35361765023762E-02 
847	 7.31628503782086E-02 
848	 7.28958779266461E-02 
849	 7.24573463951911E-02 
850	 0.071881317627119 
851	 0.071608693698392 
852	 7.14583429453203E-02 
853	 7.12489537066986E-02 
854	 7.08646422449623E-02 
855	 7.03261004477158E-02 
856	 6.99218939782803E-02 
857	 6.96005530708323E-02 
858	 6.92656186550092E-02 
859	 6.90764629287619E-02 
860	 6.87821268559558E-02 
861	 6.83897281484648E-02 
862	 6.80265770287014E-02 
863	 6.76170652856172E-02 
864	 6.74934784499938E-02 
865	 6.74640353653239E-02 
866	 6.69256941238378E-02 
867	 0.066433297594239 
868	 6.58817041917248E-02 
869	 6.53402882384524E-02 
870	 6.51898957986607E-02 
871	 6.46937033498255E-02 
872	 6.40877664369695E-02 
873	 6.36964798874676E-02 
874	 6.35632426285986E-02 
875	 6.30953039316483E-02 
876	 6.23978551005284E-02 
877	 6.17605046312655E-02 
878	 6.11860251002846E-02 
879	 6.08530795049722E-02 
880	 6.04678578961873E-02 
881	 5.96856462079372E-02 
882	 5.91733086484743E-02 
883	 5.88036949935111E-02 
884	 5.84797026780933E-02 
885	 5.81578060457938E-02 
886	 5.78516362443184E-02 
887	 5.71083421796726E-02 
888	 5.61782239720952E-02 
889	 5.60432839327645E-02 
890	 5.57450676164173E-02 
891	 5.54323612976023E-02 
892	 5.52478425740883E-02 
893	 5.49677662994311E-02 
894	 5.44086463889643E-02 
895	 5.38635888951869E-02 
896	 5.36435903786111E-02 
897	 5.36139122427195E-02 
898	 5.33280134573024E-02 
899	 5.30702648279323E-02 
900	 0.053033403787149 
901	 5.21893752387235E-02 
902	 5.10761178000253E-02 
903	 5.03787424023258E-02 
904	 5.04392894811538E-02 
905	 4.97994911509656E-02 
906	 4.95816341589868E-02 
907	 0.049441844848179 
908	 4.82584612241366E-02 
909	 4.79114389794198E-02 
910	 4.71899200593791E-02 
911	 4.64923249172603E-02 
912	 4.74012164137039E-02 
913	 4.64382387790608E-02 
914	 4.54422460270407E-02 
915	 4.47909732072181E-02 
916	 4.27523336090721E-02 
917	 4.25018653371647E-02 
918	 4.20637089569714E-02 
919	 4.07825485825999E-02 
920	 4.06548155825167E-02 
921	 0.039174587614523 
922	 3.78765838437791E-02 
923	 3.76517006646329E-02 
924	 0.036427440029323 
925	 3.54133195666291E-02 
926	 3.51765753683686E-02 
927	 3.55559992526322E-02 
928	 3.43306940091805E-02 
929	 3.47266482902348E-02 
930	 3.57017839805856E-02 
931	 3.43677425743614E-02 
932	 0.033775932967862 
933	 3.18816981149565E-02 
934	 3.16142404785338E-02 
935	 3.46191798060909E-02 
936	 2.96818158900409E-02 
937	 2.89534418815275E-02 
938	 3.03172625044908E-02 
939	 2.88190169952184E-02 
940	 2.79648606745398E-02 
941	 2.74719175515154E-02 
942	 2.81643511549005E-02 
943	 3.03647452628173E-02 
944	 2.86733732192119E-02 
945	 2.64618826454771E-02 
946	 2.53154936193786E-02 
947	 2.50773948689164E-02 
948	 2.60882463459173E-02 
949	 2.62716291849242E-02 
950	 2.57298166088765E-02 
951	 2.56112657175904E-02 
952	 2.34803769158201E-02 
953	 2.34794678592923E-02 
954	 2.46145581105792E-02 
955	 2.31171283120616E-02 
956	 2.38925672156414E-02 
957	 2.48347137477583E-02 
958	 2.46089158852725E-02 
959	 2.33222476413162E-02 
960	 0.02343747485187 
961	 2.28608640913719E-02 
962	 2.21220416632461E-02 
963	 2.33077285559814E-02 
964	 2.38145109804223E-02 
965	 2.30226751384848E-02 
966	 2.18800916367743E-02 
967	 2.19128003413433E-02 
968	 0.021273901913161 
969	 2.07641117711778E-02 
970	 0.020857007626647 
971	 2.14559610692733E-02 
972	 2.22963087428946E-02 
973	 2.20844980159833E-02 
974	 2.09431629498962E-02 
975	 2.03974899813353E-02 
976	 2.05674909653499E-02 
977	 2.06506343246154E-02 
978	 2.03445019995106E-02 
979	 2.00252847927529E-02 
980	 2.06475069511474E-02 
981	 2.06740836012819E-02 
982	 1.98935573868207E-02 
983	 1.94329509856134E-02 
984	 2.01379355110011E-02 
985	 2.02597133492186E-02 
986	 1.98348643131395E-02 
987	 2.02655103811249E-02 
988	 2.02033562260362E-02 
989	 2.11773292108461E-02 
990	 2.20860968496703E-02 
991	 2.04563611645705E-02 
992	 0.019306339737394 
993	 2.02244578346651E-02 
994	 0.021166674708016 
995	 1.90499918833928E-02 
996	 1.98556745045577E-02 
997	 2.02107570643478E-02 
998	 0.019451016620948 
999	 1.91617875777486E-02 
1000	 2.06308266391026E-02 
1001	 1.40186765467323E-02 
1002	 1.40261983960533E-02 
1003	 1.40888777935035E-02 
1004	 1.41790427309768E-02 
1005	 1.42490080644925E-02 
1006	 1.42937224025213E-02 
1007	 1.43236903601629E-02 
1008	 0.014398832887476 
1009	 0.014315910709752 
1010	 0.014113263268817 
1011	 1.38349408826326E-02 
1012	 1.38455235109872E-02 
1013	 1.39889581873624E-02 
1014	 1.41808255274413E-02 
1015	 1.47952174427856E-02 
1016	 1.50369144589908E-02 
1017	 1.50694992961873E-02 
1018	 1.51850362333078E-02 
1019	 1.53141324867277E-02 
1020	 1.53210255169585E-02 
1021	 1.51633625320244E-02 
1022	 0.015147020540087 
1023	 1.53654888818067E-02 
1024	 1.52692030942462E-02 
1025	 1.54685061089885E-02 
1026	 1.56566696834644E-02 
1027	 1.57313243592726E-02 
1028	 1.56459321427838E-02 
1029	 0.015711161105126 
1030	 1.57889078157014E-02 
1031	 1.58934389981838E-02 
1032	 1.60642777989921E-02 
1033	 1.62200580069279E-02 
1034	 1.64112530614679E-02 
1035	 1.65679187558052E-02 
1036	 1.66969636517059E-02 
1037	 1.68135036092916E-02 
1038	 1.69242548932713E-02 
1039	 1.69766493536474E-02 
1040	 1.70786844242309E-02 
1041	 1.73311811537997E-02 
1042	 1.74524260763659E-02 
1043	 1.74502087241254E-02 
1044	 1.77573610545712E-02 
1045	 1.83063438944882E-02 
1046	 1.84908705720641E-02 
1047	 1.86776855230525E-02 
1048	 0.018906550121305 
1049	 1.88657436665594E-02 
1050	 1.89446948971189E-02 
1051	 1.92031652055389E-02 
1052	 1.94551872534166E-02 
1053	 1.97489787090088E-02 
1054	 1.98547247458529E-02 
1055	 1.98006002037643E-02 
1056	 1.99800390455366E-02 
1057	 0.020191112235346 
1058	 2.02789887245972E-02 
1059	 2.04577174063075E-02 
1060	 2.09428290047195E-02 
1061	 2.11361604025845E-02 
1062	 2.10654831798195E-02 
1063	 2.11678263256037E-02 
1064	 2.14084468046618E-02 
1065	 2.14514486495847E-02 
1066	 2.13778625609998E-02 
1067	 2.13627545403935E-02 
1068	 2.11867689439083E-02 
1069	 0.021174654318576 
1070	 2.14131656222461E-02 
1071	 2.14469681891168E-02 
1072	 2.14901180822582E-02 
1073	 2.13670863397981E-02 
1074	 2.13218798007153E-02 
1075	 2.11855956108463E-02 
1076	 2.10631778909796E-02 
1077	 2.09931053174083E-02 
1078	 2.08850711026817E-02 
1079	 2.06200863427519E-02 
1080	 2.05550628215232E-02 
1081	 2.06747257042741E-02 
1082	 2.06574883026633E-02 
1083	 2.07259061200998E-02 
1084	 0.020610218044687 
1085	 0.020291324976155 
1086	 2.00455780235615E-02 
1087	 1.95561499627493E-02 
1088	 1.94152767308677E-02 
1089	 1.96807532745935E-02 
1090	 1.96382392249392E-02 
1091	 0.019625054100495 
1092	 1.98482261600832E-02 
1093	 1.97081932486202E-02 
1094	 1.92056230134861E-02 
1095	 1.89163340264699E-02 
1096	 0.0183887597683 
1097	 1.82990368397635E-02 
1098	 1.87190291706938E-02 
1099	 1.86473318005812E-02 
1100	 0.018649174821793 
1101	 0.018553390154798 
1102	 1.76868523376455E-02 
1103	 1.74181706679233E-02 
1104	 1.76181756372661E-02 
1105	 1.78715166302246E-02 
1106	 1.78185236883566E-02 
1107	 1.81080029019785E-02 
1108	 0.017772752327211 
1109	 1.67074540917104E-02 
1110	 1.65782228998113E-02 
1111	 1.69380214515399E-02 
1112	 1.69654553922694E-02 
1113	 1.76833046622125E-02 
1114	 1.79819020649081E-02 
1115	 0.017167058212424 
1116	 1.70823877669438E-02 
1117	 1.79017146156276E-02 
1118	 1.82866556080428E-02 
1119	 1.88581731293768E-02 
1120	 1.93744332441812E-02 
1121	 2.01312491391615E-02 
1122	 1.92586540815515E-02 
1123	 1.81616660501717E-02 
1124	 1.80660135118303E-02 
1125	 1.57599424998371E-02 
1126	 1.47850331691434E-02 
1127	 0.017245487235418 
1128	 1.84272005510023E-02 
1129	 1.84467211202979E-02 
1130	 1.89673982943639E-02 
1131	 1.88492154325608E-02 
1132	 1.64883507633319E-02 
1133	 1.62651298202325E-02 
1134	 1.83369110436763E-02 
1135	 0.018026840959325 
1136	 1.60659735030323E-02 
1137	 1.59788389706227E-02 
1138	 1.62696368921294E-02 
1139	 1.56873720288514E-02 
1140	 1.65463168915279E-02 
1141	 1.73665418179018E-02 
1142	 0.016465837527429 
1143	 1.57362080308878E-02 
1144	 1.51764398768675E-02 
1145	 1.54536138174348E-02 
1146	 1.59022036988741E-02 
1147	 1.52618708151519E-02 
1148	 1.50816712945281E-02 
1149	 1.49126231898845E-02 
1150	 1.44145522366633E-02 
1151	 1.38172133957958E-02 
1152	 1.35866915479269E-02 
1153	 1.28212675333962E-02 
1154	 1.30329137618369E-02 
1155	 1.38814159053606E-02 
1156	 1.43505885633944E-02 
1157	 1.44519870935876E-02 
1158	 1.42894431447265E-02 
1159	 1.31030113033492E-02 
1160	 1.24621222102096E-02 
1161	 1.31641090871334E-02 
1162	 1.37898471073276E-02 
1163	 1.42090907156108E-02 
1164	 1.38728934731227E-02 
1165	 1.27853928383765E-02 
1166	 1.24724290870961E-02 
1167	 1.26817908820726E-02 
1168	 1.29416596101977E-02 
1169	 1.32547350836144E-02 
1170	 1.31073930457137E-02 
1171	 1.29743243291471E-02 
1172	 1.24719918643234E-02 
1173	 1.24459213502866E-02 
1174	 1.27019036088621E-02 
1175	 1.27472268626996E-02 
1176	 1.28154174663241E-02 
1177	 1.26816241545428E-02 
1178	 1.23983758898503E-02 
1179	 1.23839948222337E-02 
1180	 1.22766360065384E-02 
1181	 1.22967018799074E-02 
1182	 1.27377600979726E-02 
1183	 1.27479722251901E-02 
1184	 1.24751244668829E-02 
1185	 1.25765328142575E-02 
1186	 1.25936308355878E-02 
1187	 1.25344574183215E-02 
1188	 1.26233396874489E-02 
1189	 1.25854562604027E-02 
1190	 1.25400463013056E-02 
1191	 1.25619172455204E-02 
1192	 0.012521050748606 
1193	 1.25043225265115E-02 
1194	 1.26510550854722E-02 
1195	 1.28147300521924E-02 
1196	 1.26957502947457E-02 
1197	 1.25867464362822E-02 
1198	 1.24931849396914E-02 
1199	 0.012356777025318 
1200	 1.23265592044998E-02 
1201	 1.24180632268749E-02 
1202	 0.012754484754186 
1203	 1.28837577894218E-02 
1204	 0.012647561897347 
1205	 1.26061318414061E-02 
1206	 1.25061342276562E-02 
1207	 1.21940281772066E-02 
1208	 1.22984109145818E-02 
1209	 1.26865159862842E-02 
1210	 0.012768212102953 
1211	 1.25115572268381E-02 
1212	 0.012393770787483 
1213	 1.24780865501174E-02 
1214	 1.23724237327516E-02 
1215	 1.21955808833904E-02 
1216	 1.22724051053186E-02 
1217	 1.24280835145816E-02 
1218	 1.22069031889589E-02 
1219	 1.21640229330316E-02 
1220	 1.24749062427191E-02 
1221	 1.24803310712725E-02 
1222	 1.22096114247572E-02 
1223	 1.21343696158164E-02 
1224	 1.20948567995529E-02 
1225	 1.20435543541803E-02 
1226	 1.22813273311843E-02 
1227	 1.24128235502365E-02 
1228	 1.21768038954554E-02 
1229	 1.21617651046146E-02 
1230	 0.012222953839736 
1231	 0.012085135416846 
1232	 1.22297384816796E-02 
1233	 1.23002282659262E-02 
1234	 1.20773384798741E-02 
1235	 1.20799311021028E-02 
1236	 1.24267942932664E-02 
1237	 1.24133718138788E-02 
1238	 1.22249901366446E-02 
1239	 0.012180054179358 
1240	 1.21928761844412E-02 
1241	 1.20246261599064E-02 
1242	 1.20130561982219E-02 
1243	 1.21643016801367E-02 
1244	 1.21452332826807E-02 
1245	 0.012060778817196 
1246	 1.21170449248754E-02 
1247	 1.22544477716013E-02 
1248	 1.21731005955187E-02 
1249	 0.011928465288707 
1250	 0.011929243638786 
1251	 1.20645299618906E-02 
1252	 1.21002286458939E-02 
1253	 1.22832826146812E-02 
1254	 1.25438848209915E-02 
1255	 1.23842702779375E-02 
1256	 1.23354868979156E-02 
1257	 1.23755395073297E-02 
1258	 1.24220598112577E-02 
1259	 1.23754177978071E-02 
1260	 1.23863369363826E-02 
1261	 1.24205047188179E-02 
1262	 1.23644103515927E-02 
1263	 0.012146605593838 
1264	 0.012365642327305 
1265	 1.25435826857368E-02 
1266	 1.25674409340281E-02 
1267	 1.25036415230141E-02 
1268	 1.24227337008897E-02 
1269	 1.24589340123572E-02 
1270	 1.23350789465944E-02 
1271	 1.24324592659979E-02 
1272	 1.27200430848515E-02 
1273	 1.25151334327249E-02 
1274	 1.22660321305865E-02 
1275	 1.22979592636978E-02 
1276	 1.22199391962358E-02 
1277	 1.22004056498927E-02 
1278	 1.25129633732745E-02 
1279	 1.26520184218089E-02 
1280	 1.23462374932541E-02 
1281	 1.23395318330807E-02 
1282	 0.012478384258601 
1283	 1.24728633664297E-02 
1284	 0.012407895355417 
1285	 1.23948524780812E-02 
1286	 0.012356466061809 
1287	 1.22730420920322E-02 
1288	 1.21729566242782E-02 
1289	 1.22534262972773E-02 
1290	 1.25080184257924E-02 
1291	 1.23506805591522E-02 
1292	 1.22451843074427E-02 
1293	 1.24189525657723E-02 
1294	 1.24727064147945E-02 
1295	 1.21924291001331E-02 
1296	 1.19571021328154E-02 
1297	 1.21915676315216E-02 
1298	 1.23275476660431E-02 
1299	 1.20808820085253E-02 
1300	 1.18962036429567E-02 
1301	 1.18351886740293E-02 
1302	 1.18625215949101E-02 
1303	 1.18725936895515E-02 
1304	 1.22525229997143E-02 
1305	 1.28894026193587E-02 
1306	 1.29424232648161E-02 
1307	 0.012546530679213 
1308	 1.26089297868954E-02 
1309	 1.25140907777753E-02 
1310	 1.22665139199135E-02 
1311	 1.21965809049054E-02 
1312	 1.23739394895049E-02 
1313	 1.25301194663493E-02 
1314	 1.24255943053395E-02 
1315	 1.24727496458862E-02 
1316	 1.26132139254054E-02 
1317	 1.24545241317347E-02 
1318	 0.012217904943785 
1319	 1.21154105034807E-02 
1320	 1.23282290047408E-02 
1321	 1.24988563664647E-02 
1322	 1.25941003796345E-02 
1323	 1.28448955893206E-02 
1324	 1.27808110949115E-02 
1325	 1.22836973880613E-02 
1326	 1.21551864357888E-02 
1327	 1.29216325410243E-02 
1328	 1.34520315577691E-02 
1329	 0.013418203793691 
1330	 1.34325604844198E-02 
1331	 1.32894736737113E-02 
1332	 1.31275067401413E-02 
1333	 1.31832993048499E-02 
1334	 1.35901444083934E-02 
1335	 1.37865750773728E-02 
1336	 1.41745226074693E-02 
1337	 1.38400443968908E-02 
1338	 1.24477121505928E-02 
1339	 1.27754834263137E-02 
1340	 0.01439886595603 
1341	 1.39818911519424E-02 
1342	 1.31136349327429E-02 
1343	 1.34034944908759E-02 
1344	 1.22727636228225E-02 
1345	 1.14795054084323E-02 
1346	 1.31908578218815E-02 
1347	 0.014617956032043 
1348	 0.014409014812407 
1349	 1.42087941079186E-02 
1350	 1.78468513833838E-02 
1351	 2.09790134415553E-02 
1352	 1.74493594576604E-02 
1353	 0.015217606454135 
1354	 1.62828316799303E-02 
1355	 1.82281352351511E-02 
1356	 3.30792727171406E-02 
1357	 5.41792082246799E-02 
1358	 0.051747522558887 
1359	 6.58042944237299E-02 
1360	 7.90273015601569E-02 
1361	 0.064013519652399 
1362	 7.48627509901907E-02 
1363	 9.63791477773892E-02 
1364	 0.139320888007326 
1365	 0.171883861180817 
1366	 0.176448967125046 
1367	 0.235876918904701 
1368	 0.24591723831093 
1369	 0.145796895502433 
1370	 0.123767641939601 
1371	 0.167693018496918 
1372	 0.183157759040965 
1373	 0.249239254942815 
1374	 0.205410780026117 
1375	-8.48456104331615E-02 
1376	-5.65967074509452E-02 
1377	 0.312678870771021 
1378	 0.298389712828953 
1379	 0.239437273137112 
1380	 0.284483872386077 
1381	 0.130730232555378 
1382	 3.78374548957102E-02 
1383	 0.07112167385349 
1384	 0.280266827329604 
1385	 0.607792253194635 
1386	 0.511324567135719 
1387	 0.328389133631424 
1388	 0.410847781907884 
1389	 0.451445498945822 
1390	 0.32757728298651 
1391	 0.282562024596213 
1392	 0.601735012496805 
1393	 0.379248190008899 
1394	 0.269186693854393 
1395	 0.435363031507505 
1396	 0.188749546237909 
1397	 3.15263847437016E-02 
1398	 0.203214589097668 
1399	 0.261109999604183 
1400	 0.339024762914382 
1401	 0.288980091047466 
1402	 0.18515005691497 
1403	 0.210224663485181 
1404	 0.23058217479813 
1405	 0.223372926304499 
1406	 0.201446845936196 
1407	 0.161208748423554 
1408	 0.103551442030315 
1409	 0.112314965265886 
1410	 0.135891773146065 
1411	 0.113171387544036 
1412	 8.92574531403342E-02 
1413	 9.97335853322253E-02 
1414	 0.126054043389694 
1415	 8.83603884724801E-02 
1416	 3.47384709898344E-02 
1417	 4.08212993626357E-02 
1418	 3.80440637041004E-02 
1419	 3.00413593109263E-02 
1420	 5.48843393384521E-02 
1421	 6.00567757980033E-02 
1422	 4.24531071237114E-02 
1423	 3.34846723205588E-02 
1424	 3.19387802708037E-02 
1425	 3.27191337592124E-02 
1426	 3.18056970442211E-02 
1427	 2.90464699114511E-02 
1428	 3.07555509508639E-02 
1429	 3.05371763922848E-02 
1430	 2.28084231780253E-02 
1431	 2.01457596853028E-02 
1432	 2.15804404414612E-02 
1433	 2.26052681706453E-02 
1434	 2.81932654683553E-02 
1435	 2.78011799793285E-02 
1436	 2.21945753951813E-02 
1437	 2.07230771043628E-02 
1438	 2.29449145869562E-02 
1439	 1.74509412667594E-02 
1440	 1.69279374933049E-02 
1441	 1.95786173259575E-02 
1442	 1.84833486213435E-02 
1443	 1.73013899174491E-02 
1444	 0.01835887633234 
1445	 1.88474275040797E-02 
1446	 1.87634538527739E-02 
1447	 1.90273631527554E-02 
1448	 1.80553898712633E-02 
1449	 1.71467349056665E-02 
1450	 1.43318521497289E-02 
1451	 1.18666061593436E-02 
1452	 1.29228759677223E-02 
1453	 0.013195926522603 
1454	 1.33555979117661E-02 
1455	 1.43316482578701E-02 
1456	 1.47358866849713E-02 
1457	 1.44957304862174E-02 
1458	 1.41298203143948E-02 
1459	 1.38416718583012E-02 
1460	 1.37133422931702E-02 
1461	 1.33108701198504E-02 
1462	 1.28267906602036E-02 
1463	 1.25848369050849E-02 
1464	 1.21494317362902E-02 
1465	 0.010447198436872 
1466	 1.04448615206792E-02 
1467	 1.22785945522353E-02 
1468	 1.26961347212454E-02 
1469	 1.31745209275572E-02 
1470	 1.37717439089545E-02 
1471	 1.34372896226372E-02 
1472	 1.35342361611638E-02 
1473	 1.46949357839258E-02 
1474	 1.45254296326775E-02 
1475	 1.35111293043255E-02 
1476	 1.29414914628466E-02 
1477	 0.011908485091665 
1478	 1.15186412584253E-02 
1479	 1.15787446678971E-02 
1480	 1.14370264130987E-02 
1481	 1.10040346469368E-02 
1482	 1.12692673753248E-02 
1483	 1.25050766215312E-02 
1484	 1.23214664727976E-02 
1485	 0.011626397219147 
1486	 1.15726218396808E-02 
1487	 1.08957491354071E-02 
1488	 1.06906537038389E-02 
1489	 0.011310625387033 
1490	 1.15508891266714E-02 
1491	 1.15579105989387E-02 
1492	 1.15019097120671E-02 
1493	 1.14012014910017E-02 
1494	 0.01140191409942 
1495	 1.14157125752904E-02 
1496	 1.13590494274677E-02 
1497	 1.13830684008719E-02 
1498	 1.13552973439269E-02 
1499	 1.10011347917289E-02 
1500	 1.09578221531162E-02 
1501	 1.14025302734419E-02 
1502	 1.13937892941344E-02 
1503	 1.11388903129908E-02 
1504	 1.10647649514849E-02 
1505	 1.09326858752758E-02 
1506	 1.06030600701722E-02 
1507	 1.05507590329418E-02 
1508	 1.07537512691104E-02 
1509	 1.07299235031783E-02 
1510	 1.06689418559864E-02 
1511	 1.07275504907852E-02 
1512	 1.07422630232549E-02 
1513	 0.010658720156989 
1514	 1.05872745455323E-02 
1515	 1.05398784317341E-02 
1516	 1.04278058271804E-02 
1517	 1.05791242156228E-02 
1518	 1.08015612958361E-02 
1519	 1.06491863117502E-02 
1520	 1.05862896208802E-02 
1521	 1.06483576767431E-02 
1522	 1.04717552510663E-02 
1523	 1.04665028168619E-02 
1524	 1.05058787002844E-02 
1525	 1.02734949665955E-02 
1526	 1.03148794099086E-02 
1527	 0.010478790160676 
1528	 1.03538886030647E-02 
1529	 1.03912424980187E-02 
1530	 1.04818799303879E-02 
1531	 1.03095299015674E-02 
1532	 1.03417224998178E-02 
1533	 1.05171582916685E-02 
1534	 1.04367248060385E-02 
1535	 1.02652184726901E-02 
1536	 1.03063083848145E-02 
1537	 0.010469393405821 
1538	 1.04628655354756E-02 
1539	 1.04863861680272E-02 
1540	 0.010640414629607 
1541	 1.06027211979522E-02 
1542	 1.03813809783206E-02 
1543	 1.02967305666919E-02 
1544	 1.03658268980741E-02 
1545	 0.010441048982647 
1546	 1.05000742069676E-02 
1547	 1.04684728512359E-02 
1548	 1.03619819657439E-02 
1549	 1.02974565566191E-02 
1550	 0.010253184311482 
1551	 1.01822980273056E-02 
1552	 1.02742422347236E-02 
1553	 1.05012769291361E-02 
1554	 1.05673340643844E-02 
1555	 1.04636946423367E-02 
1556	 1.04179388011767E-02 
1557	 1.05292801994155E-02 
1558	 1.05784893732126E-02 
1559	 1.05644231448292E-02 
1560	 1.06535941247778E-02 
1561	 1.05185677301374E-02 
1562	 1.03145199015019E-02 
1563	 1.06513310476724E-02 
1564	 1.09299028023225E-02 
1565	 1.07913458504973E-02 
1566	 1.07423597892891E-02 
1567	 1.05854101647312E-02 
1568	 1.04566851585993E-02 
1569	 1.07583962772614E-02 
1570	 1.09266294384487E-02 
1571	 1.07844720337085E-02 
1572	 1.07516382268084E-02 
1573	 1.06176121665586E-02 
1574	 1.05739481605882E-02 
1575	 1.09408415400698E-02 
1576	 1.12173991794356E-02 
1577	 1.12006249607353E-02 
1578	 1.08165311145388E-02 
1579	 1.04493836831793E-02 
1580	 1.05935513514333E-02 
1581	 1.07101518578782E-02 
1582	 1.07569794200179E-02 
1583	 1.09466836629733E-02 
1584	 1.08212243549994E-02 
1585	 1.06508943351785E-02 
1586	 1.07512597081826E-02 
1587	 1.06899259677981E-02 
1588	 1.05157332833834E-02 
1589	 1.04852373776249E-02 
1590	 1.06043813011656E-02 
1591	 1.07129147426762E-02 
1592	 1.07966695742789E-02 
1593	 1.08350104673938E-02 
1594	 1.06504179985176E-02 
1595	 1.06888842168485E-02 
1596	 1.08703368903055E-02 
1597	 1.06545650360098E-02 
1598	 0.010568000183966 
1599	 1.07675831699661E-02 
1600	 1.07161398847761E-02 
1601	 1.08030508078426E-02 
1602	 1.09928373385392E-02 
1603	 1.06881400885201E-02 
1604	 1.06473643027953E-02 
1605	 1.09503342853117E-02 
1606	 1.08694714400988E-02 
1607	 1.07978945368508E-02 
1608	 1.09315518805011E-02 
1609	 1.08579451124424E-02 
1610	 0.01057878283584 
1611	 1.06979992652192E-02 
1612	 1.08890757203026E-02 
1613	 0.010629339240641 
1614	 1.08346080706188E-02 
1615	 1.13291678387841E-02 
1616	 1.11822681469916E-02 
1617	 1.09599991520836E-02 
1618	 1.09571057016248E-02 
1619	 1.07725270709815E-02 
1620	 1.05686369743661E-02 
1621	 1.06411605644853E-02 
1622	 1.08178537284802E-02 
1623	 0.010761525308027 
1624	 1.06434895395788E-02 
1625	 1.06934235777918E-02 
1626	 1.07783088188493E-02 
1627	 1.07074632115543E-02 
1628	 1.06504292869968E-02 
1629	 1.07156298004096E-02 
1630	 0.010667432944295 
1631	 1.08597272172489E-02 
1632	 1.10868687843256E-02 
1633	 1.08219730274469E-02 
1634	 1.06924177894081E-02 
1635	 1.09016117048257E-02 
1636	 1.09083476339038E-02 
1637	 1.07438374854856E-02 
1638	 0.010719621702367 
1639	 1.06421910949988E-02 
1640	 1.05924287526044E-02 
1641	 0.010965463554808 
1642	 1.10775801421954E-02 
1643	 0.010655473654623 
1644	 1.07047467725822E-02 
1645	 0.010924551773047 
1646	 1.08595418542951E-02 
1647	 1.09646582365007E-02 
1648	 1.07997385251971E-02 
1649	 1.04180419890383E-02 
1650	 1.03897269362677E-02 
1651	 0.010622610601435 
1652	 1.09401017077548E-02 
1653	 1.10000433671484E-02 
1654	 1.09618723946905E-02 
1655	 0.010627660403043 
1656	 1.06670096335705E-02 
1657	 1.10237460025449E-02 
1658	 0.0110018633273 
1659	 1.09837286250112E-02 
1660	 0.011020662382087 
1661	 1.07445321151576E-02 
1662	 1.06406966986794E-02 
1663	 1.08075659300612E-02 
1664	 1.07136218807576E-02 
1665	 1.03414607151839E-02 
1666	 0.010366177019216 
1667	 1.05975568177894E-02 
1668	 1.08254056189711E-02 
1669	 1.10309043685517E-02 
1670	 0.010835336816498 
1671	 1.09869196287492E-02 
1672	 1.11743843629855E-02 
1673	 1.08649784900834E-02 
1674	 1.08639933464118E-02 
1675	 1.09411379265782E-02 
1676	 1.07432627049123E-02 
1677	 1.09061069189085E-02 
1678	 1.10645782832164E-02 
1679	 1.07644394150732E-02 
1680	 1.09118718820109E-02 
1681	 1.11099235536353E-02 
1682	 1.07282726989377E-02 
1683	 1.08508241481382E-02 
1684	 1.11815425307294E-02 
1685	 1.11398643352017E-02 
1686	 1.12852406070004E-02 
1687	 1.12856334766509E-02 
1688	 1.10573151609419E-02 
1689	 1.10643746395914E-02 
1690	 1.12355154539718E-02 
1691	 0.011110663132469 
1692	 1.06165014240334E-02 
1693	 1.03128889216085E-02 
1694	 1.04404474641145E-02 
1695	 1.08448500597445E-02 
1696	 1.10398251099159E-02 
1697	 1.09471293255981E-02 
1698	 1.07252884452971E-02 
1699	 1.04147929248068E-02 
1700	 1.05399819886859E-02 
1701	 1.10249739589193E-02 
1702	 1.11830031871194E-02 
1703	 1.11501807444947E-02 
1704	 1.11850220873202E-02 
1705	 1.10538606493851E-02 
1706	 1.11881164775116E-02 
1707	 1.15788690660801E-02 
1708	 1.16381146798791E-02 
1709	 0.011348560502103 
1710	 1.09018171474196E-02 
1711	 1.07827702780576E-02 
1712	 1.09057449083049E-02 
1713	 1.16351665469082E-02 
1714	 1.17193524258826E-02 
1715	 1.08813621884807E-02 
1716	 1.13852591066517E-02 
1717	 1.15116209237695E-02 
1718	 1.12364273858262E-02 
1719	 1.16458389713702E-02 
1720	 1.16039197733167E-02 
1721	 1.10927905744824E-02 
1722	 1.10792355751492E-02 
1723	 1.14091830514539E-02 
1724	 1.14290765312675E-02 
1725	 1.13384179827544E-02 
1726	 1.16370400081412E-02 
1727	 0.011654094925411 
1728	 1.13006222088611E-02 
1729	 1.14501917717139E-02 
1730	 1.14806170357312E-02 
1731	 1.08713707262937E-02 
1732	 1.08435685836027E-02 
1733	 1.12986695096723E-02 
1734	 1.12349309444926E-02 
1735	 1.12025941578829E-02 
1736	 1.11275735357905E-02 
1737	 1.07760375341035E-02 
1738	 1.09264556214401E-02 
1739	 1.13388177052864E-02 
1740	 1.12352817023449E-02 
1741	 1.08732491885602E-02 
1742	 1.07524162761698E-02 
1743	 1.08369470369718E-02 
1744	 0.011487990583257 
1745	 1.18412273326937E-02 
1746	 1.10128863165908E-02 
1747	 1.10741607708502E-02 
1748	 1.16788875119442E-02 
1749	 1.17459640018543E-02 
1750	 1.20253384121644E-02 
1751	 1.20410677136861E-02 
1752	 0.011111039412028 
1753	 0.010917153292877 
1754	 1.13634599288664E-02 
1755	 1.14885600921523E-02 
1756	 1.18407454647846E-02 
1757	 1.15097044836094E-02 
1758	 0.010996038066206 
1759	 1.11666420928314E-02 
1760	 1.14065969123783E-02 
1761	 1.12512563890373E-02 
1762	 1.14504599284086E-02 
1763	 0.01143699166115 
1764	 1.09697862175579E-02 
1765	 0.011796763074784 
1766	 1.23174501899657E-02 
1767	 1.12292257009984E-02 
1768	 1.08261734192027E-02 
1769	 1.07042954283012E-02 
1770	 1.06647574580147E-02 
1771	 0.01131646100573 
1772	 1.15077407860757E-02 
1773	 1.21411817697251E-02 
1774	 1.27939638408503E-02 
1775	 1.30933630088663E-02 
1776	 1.34073086499381E-02 
1777	 1.22968713893125E-02 
1778	 0.011771246970766 
1779	 1.20482261582215E-02 
1780	 1.20536652531582E-02 
1781	 1.21757223177486E-02 
1782	 1.23220746679981E-02 
1783	 0.012586734797798 
1784	 1.24674267702622E-02 
1785	 0.01168844158343 
1786	 1.12403762002561E-02 
1787	 1.05994214452448E-02 
1788	 1.07516807924506E-02 
1789	 1.19371383300676E-02 
1790	 1.30371498909983E-02 
1791	 1.36450537930607E-02 
1792	 0.014564971461502 
1793	 1.50023182630321E-02 
1794	 1.47078273316003E-02 
1795	 1.57220323961753E-02 
1796	 1.78822637497299E-02 
1797	 1.60475838097055E-02 
1798	 1.15642990469127E-02 
1799	 8.76890589561802E-03 
1800	 1.00103961564315E-02 
1801	 8.17656165684425E-03 
1802	 9.27611500295585E-03 
1803	 1.11347574508683E-02 
1804	 6.69539504210157E-03 
1805	 3.35960387390829E-03 
1806	 6.00292797027111E-03 
1807	 1.18204509596153E-02 
1808	 2.01852909565814E-02 
1809	 2.27038993407844E-02 
1810	 3.40773240803643E-02 
1811	 4.51454584536551E-02 
1812	 3.10256531451376E-02 
1813	 2.32972562558281E-02 
1814	 3.97538651487456E-02 
1815	 3.02508136811399E-02 
1816	-4.02416318535672E-02 
1817	-1.46603369517684E-02 
1818	-2.05622641941931E-02 
1819	-4.16340371110172E-02 
1820	 0.410022306853571 
1821	 0.725990336856435 
1822	 0.997083201465151 
1823	 0.917547709572112 
1824	 0.751424331416466 
1825	 0.212270823107468 
1826	-0.031232443469298 
1827	-0.496027010159924 
1828	-0.610563637607542 
1829	 8.66947669152018E-02 
1830	 0.313033330632872 
1831	 0.272657259624941 
1832	 0.316356743895195 
1833	 0.203680891989688 
1834	 0.34662971798018 
1835	 7.24454813676826E-02 
1836	-5.15139224711139E-03 
1837	-9.73908244772332 
1838	 5.00353894949239 
1839	 2.33424390156013 
1840	 1.48203557470886 
1841	 0.956627983601358 
1842	 0.951722757861369 
1843	 2.13316506242655 
1844	-7.22360600342933 
1845	-16.467391757511 
1846	 2.15896580250233 
1847	 4.13917689759546 
1848	-7.39184763420372 
1849	-1.30767762470051 
1850	-1.06901574385266 
1851	-2.16469064875648 
1852	 11.9137344217267 
1853	 1.01705238560921 
1854	 0.561202310148811 
1855	 0.10414319381979 
1856	 6.73099080564684E-02 
1857	 0.443394144997464 
1858	 0.589047727424518 
1859	 0.962099578354971 
1860	 2.19315557690586 
1861	 2.44089331086595 
1862	 2.60594406098854 
1863	 7.72590759654645 
1864	 1.19739581149999 
1865	 0.350964305882976 
1866	-0.451198875666174 
1867	-0.391676290955687 
1868	 8.92467168283407E-02 
1869	 0.153478859849196 
1870	 0.50510477669884 
1871	 1.12276688827474 
1872	 0.583287525346421 
1873	 1.24713659735021 
1874	 4.85046270295377 
1875	 11.2329635897413 
1876	 20.0177592491776 
1877	 2.80670554370518 
1878	 2.29094931832782 
1879	-6.56392731567215 
1880	 10.6686170029132 
1881	 5.50496912351902E-02 
1882	 0.184447238139146 
1883	-0.100782965544655 
1884	-0.42401760447119 
1885	-5.53185165099535E-02 
1886	-9.17081709399617E-02 
1887	-0.103917924022423 
1888	-0.134736477170805 
1889	-0.111272511201737 
1890	-0.500881506458561 
1891	-1.00207814325963 
1892	-0.391049656531161 
1893	-0.29389774588912 
1894	-0.382315221769232 
1895	-0.210931178805835 
1896	 0.113719661057124 
1897	 1.45000916284169 
1898	 1.52693566014621 
1899	 1.43159638838761 
1900	 2.38416292188598 
1901	-0.460121259283611 
1902	 0.842495941145107 
1903	-1.94675149054155 
1904	-1.18987346099873 
1905	-1.99725008800853 
1906	-1.17169301110736 
1907	-2.2073256047411 
1908	 20.055504303692 
1909	-0.689390688062024 
1910	-9.73662758448153E-02 
1911	 0.190813680591605 
1912	 0.306320906372769 
1913	 0.470207612842612 
1914	-2.86050685699787 
1915	-0.304408273118363 
1916	 8.88880536813282E-02 
1917	 0.320580177695531 
1918	 1.72104559304165 
1919	-0.664696147170799 
1920	-0.225189304851651 
1921	 0.18887414211444 
1922	 0.146342499772245 
1923	-0.079726443402813 
1924	 2.28951191237618 
1925	-4.50586396325146 
1926	-5.30023205397978 
1927	-75.0958538486865 
1928	 4.02615321998698 
1929	 1.22061935133474 
1930	 0.894807445330013 
1931	 0.74698985842832 
1932	 6.53597718987789E-02 
1933	 5.99334762767557E-02 
1934	 7.72286138639127E-02 
1935	 0.14353290383386 
1936	 0.119347901300389 
1937	 9.04849636389573E-02 
1938	 3.12571387029754E-02 
1939	 8.92198768354749E-03 
1940	-1.03723466708629E-02 
1941	 0.010468691281696 
1942	 3.07874228394652E-03 
1943	 2.70356012726353E-02 
1944	 4.89197433529263E-02 
1945	 3.39272566029682E-02 
1946	 2.44284401527183E-02 
1947	 1.35506010072368E-02 
1948	-4.87605931665534E-04 
1949	-7.60057357086871E-04 
1950	 5.27328743760869E-04 
1951	 1.32442142954452E-02 
1952	 2.55261290063484E-02 
1953	 4.28606406249968E-02 
1954	 4.59624245234761E-02 
1955	 4.87222995533879E-02 
1956	 4.23101971595449E-02 
1957	 2.95759043227546E-02 
1958	 1.99292662050494E-02 
1959	 1.51812185971397E-02 
1960	 1.51600317184648E-02 
1961	 1.20464623185039E-02 
1962	 1.12948212155127E-02 
1963	 1.34802980668355E-02 
1964	 1.27598184923048E-02 
1965	 1.31352058331482E-02 
1966	 1.25926070958031E-02 
1967	 1.26396005183728E-02 
1968	 1.00754744885322E-02 
1969	 7.46417885663543E-03 
1970	 6.4976247903245E-03 
1971	 8.57558270747323E-03 
1972	 1.07451067524201E-02 
1973	 1.15956380952553E-02 
1974	 1.14961202157861E-02 
1975	 1.01729101583716E-02 
1976	 8.95482535539937E-03 
1977	 8.14429824307899E-03 
1978	 8.35947272963339E-03 
1979	 8.2326782320146E-03 
1980	 7.74159253937015E-03 
1981	 6.90932586755115E-03 
1982	 6.67715735167179E-03 
1983	 6.99054154846539E-03 
1984	 7.70681131378848E-03 
1985	 7.63831035488078E-03 
1986	 8.54359921915157E-03 
1987	 9.46753673044003E-03 
1988	 9.10572728206384E-03 
1989	 1.02481067375022E-02 
1990	 1.10190866666438E-02 
1991	 9.95481674182847E-03 
1992	 9.62106613163809E-03 
1993	 9.29795559062637E-03 
1994	 9.39576973174268E-03 
1995	 9.64332306237185E-03 
1996	 1.20420710798694E-02 
1997	 1.33255277375831E-02 
1998	 1.26465757838216E-02 
1999	 1.24106878591338E-02 
2000	 1.10426314384725E-02 
2001	 1.04929720850166E-02 
2002	 1.28889826999363E-02 
2003	 1.48629970102661E-02 
2004	 1.36934389301538E-02 
2005	 1.07700498385422E-02 
2006	 1.10060243437525E-02 
2007	 1.05976314629403E-02 
2008	 1.00753177093856E-02 
2009	 9.30695024153526E-03 
2010	 7.04833630365842E-03 
2011	 6.37333462377405E-03 
2012	 5.63894149573584E-03 
2013	 7.31468702184561E-03 
2014	 8.2947257126317E-03 
2015	 1.09830559137087E-02 
2016	 1.12030205800888E-02 
2017	 9.23696958460165E-03 
2018	 9.74186081535806E-03 
2019	 9.19408082992197E-03 
2020	 8.71839608292321E-03 
2021	 1.03384279146792E-02 
2022	 1.05511612269588E-02 
2023	 1.00362923243306E-02 
2024	 9.70184175090007E-03 
2025	 8.70605247191833E-03 
2026	 8.27561326281378E-03 
2027	 8.06753926128653E-03 
2028	 8.19259639429778E-03 
2029	 7.63073833960875E-03 
2030	 7.38737759182847E-03 
2031	 7.3178102801894E-03 
2032	 6.66364116570338E-03 
2033	 6.61049469678831E-03 
2034	 7.49088265416304E-03 
2035	 7.80573737926902E-03 
2036	 8.21504847227419E-03 
2037	 9.14297080044991E-03 
2038	 9.1528348221301E-03 
2039	 8.9345875413468E-03 
2040	 7.95153473693721E-03 
2041	 8.2633191317654E-03 
2042	 9.06965407326123E-03 
2043	 8.89200602708187E-03 
2044	 8.75530706461261E-03 
2045	 9.31165186345521E-03 
2046	 8.70268060046271E-03 
2047	 8.16877515391492E-03 
2048	 8.69018438292591E-03 
2049	 9.15905132872271E-03 
2050	 8.52828786948759E-03 
2051	 8.25090829249467E-03 
2052	 9.88693496673655E-03 
2053	 1.07902775115313E-02 
2054	 1.03185956616418E-02 
2055	 1.06463509470791E-02 
2056	 1.08787127989484E-02 
2057	 1.07974966661208E-02 
2058	 9.72077425514402E-03 
2059	 7.98687679291814E-03 
2060	 7.31605248264046E-03 
2061	 5.85002192279661E-03 
2062	 5.27220666679299E-03 
2063	 6.98019116624404E-03 
2064	 8.36795638220541E-03 
2065	 9.41517091077975E-03 
2066	 1.06360166720422E-02 
2067	 1.02776195157043E-02 
2068	 1.01408644515132E-02 
2069	 1.00989705906273E-02 
2070	 8.89396967567919E-03 
2071	 8.45331288328716E-03 
2072	 7.97135923951472E-03 
2073	 8.00039624293655E-03 
2074	 8.77150694965059E-03 
2075	 8.90343779667451E-03 
2076	 9.13454315782438E-03 
2077	 9.17820441027969E-03 
2078	 8.40225481795702E-03 
2079	 8.00469424598754E-03 
2080	 7.48162359167599E-03 
2081	 7.95820074854021E-03 
2082	 8.5877597130677E-03 
2083	 8.44685804039893E-03 
2084	 8.45437738872545E-03 
2085	 8.7068373303253E-03 
2086	 8.15967403130119E-03 
2087	 8.10963650163949E-03 
2088	 9.00735288288933E-03 
2089	 9.33920189027497E-03 
2090	 9.54367884687403E-03 
2091	 9.79585368221842E-03 
2092	 9.84460444352854E-03 
2093	 9.39415302545283E-03 
2094	 9.50926464504539E-03 
2095	 9.74719332704773E-03 
2096	 9.71501380926779E-03 
2097	 9.85918128053944E-03 
2098	 9.6973733659324E-03 
2099	 8.75023152893331E-03 
2100	 9.25483267213297E-03 
2101	 9.8460651684628E-03 
2102	 8.98844634844481E-03 
2103	 9.2871790966069E-03 
2104	 0.010082275043667 
2105	 9.46380107818753E-03 
2106	 8.79411653213979E-03 
2107	 8.52849848919183E-03 
2108	 8.22355819422149E-03 
2109	 8.63160459464118E-03 
2110	 0.010015694113396 
2111	 1.03877793837769E-02 
2112	 9.40934712160903E-03 
2113	 8.92486707285656E-03 
2114	 7.99880202944267E-03 
2115	 7.86096983712526E-03 
2116	 8.03737180105716E-03 
2117	 8.29097921202315E-03 
2118	 9.09473961733919E-03 
2119	 9.44058598899858E-03 
2120	 9.42309220888446E-03 
2121	 1.02178749701726E-02 
2122	 1.04965984779005E-02 
2123	 9.87090836447286E-03 
2124	 8.81057533135549E-03 
2125	 8.0129632492574E-03 
2126	 7.7066163096483E-03 
2127	 7.7889676575077E-03 
2128	 8.5435969952825E-03 
2129	 9.05030114950432E-03 
2130	 8.69050211418604E-03 
2131	 8.66931030774365E-03 
2132	 8.57757075297335E-03 
2133	 8.00159271166228E-03 
2134	 7.87735889669827E-03 
2135	 7.8120870276104E-03 
2136	 8.07728053465461E-03 
2137	 8.77237666381358E-03 
2138	 9.20240807251909E-03 
2139	 1.02296766238525E-02 
2140	 0.010620889030925 
2141	 1.02456679911587E-02 
2142	 1.02103796979373E-02 
2143	 1.04974945151528E-02 
2144	 9.63970028228709E-03 
2145	 8.77600070541237E-03 
2146	 9.18176929432631E-03 
2147	 9.15865395521675E-03 
2148	 8.45683492032695E-03 
2149	 8.99907743213523E-03 
2150	 1.03079566535184E-02 
2151	 9.6969760600654E-03 
2152	 8.75446617066746E-03 
2153	 8.94851989141123E-03 
2154	 8.35273983850898E-03 
2155	 8.43422167639519E-03 
2156	 9.9434415946724E-03 
2157	 1.02221361133592E-02 
2158	 9.08555102122639E-03 
2159	 8.83893971991092E-03 
2160	 9.12015163070387E-03 
2161	 9.2347669717834E-03 
2162	 9.15052366352249E-03 
2163	 9.10826007809593E-03 
2164	 9.21121689100697E-03 
2165	 9.01188624791632E-03 
2166	 8.94871641401544E-03 
2167	 9.09359495361753E-03 
2168	 8.82655890136108E-03 
2169	 8.6280019711265E-03 
2170	 8.7662019487271E-03 
2171	 8.37081696245023E-03 
2172	 7.7857498928768E-03 
2173	 8.26055562317636E-03 
2174	 8.80880071379006E-03 
2175	 9.25808681673347E-03 
2176	 9.96699800112394E-03 
2177	 1.07224872964917E-02 
2178	 1.07850224152914E-02 
2179	 1.05141172478711E-02 
2180	 1.02333715972866E-02 
2181	 9.63895613834286E-03 
2182	 8.83239089604787E-03 
2183	 8.09552540066485E-03 
2184	 8.06469428682803E-03 
2185	 7.96944485273335E-03 
2186	 7.64222773594499E-03 
2187	 7.26029343028073E-03 
2188	 7.72895456991988E-03 
2189	 8.75992151088919E-03 
2190	 8.4698640324217E-03 
2191	 7.93073479404244E-03 
2192	 8.06653815588262E-03 
2193	 6.9644496222783E-03 
2194	 7.49201807105097E-03 
2195	 1.07755767680815E-02 
2196	 1.18638360720075E-02 
2197	 1.18998232849996E-02 
2198	 1.20671422458311E-02 
2199	 1.15090220758126E-02 
2200	 1.10949999264026E-02 
2201	 1.04183755933772E-02 
2202	 1.05473721411601E-02 
2203	 1.02083742259585E-02 
2204	 9.67503133549708E-03 
2205	 1.09548837311705E-02 
2206	 1.18319204312473E-02 
2207	 1.14656525741314E-02 
2208	 1.23209339159161E-02 
2209	 1.25020246700177E-02 
2210	 9.47671593450538E-03 
2211	 7.27565099822855E-03 
2212	 6.48733016882043E-03 
2213	 7.13687676285868E-03 
2214	 8.96690497076125E-03 
2215	 9.86154460964666E-03 
2216	 1.13687847879907E-02 
2217	 1.14921809336256E-02 
2218	 9.31482900050193E-03 
2219	 8.41601977488066E-03 
2220	 7.59656707692019E-03 
2221	 7.19967269245308E-03 
2222	 6.69530078453506E-03 
2223	 6.92611129424368E-03 
2224	 8.45985125503409E-03 
2225	 9.07288599578678E-03 
2226	 9.44382408002824E-03 
2227	 1.00038969922652E-02 
2228	 1.10583710958722E-02 
2229	 1.06052952398238E-02 
2230	 8.49560088076561E-03 
2231	 8.0394628403551E-03 
2232	 7.65109261052493E-03 
2233	 7.63286390475951E-03 
2234	 8.77426089651329E-03 
2235	 9.85662378737817E-03 
2236	 1.03138877397738E-02 
2237	 1.08563290745652E-02 
2238	 1.10996491176956E-02 
2239	 1.03640362541345E-02 
2240	 9.79509371400053E-03 
2241	 7.52500932197705E-03 
2242	 4.87205278371829E-03 
2243	 6.40102124364004E-03 
2244	 1.12107441775713E-02 
2245	 1.35637552414616E-02 
2246	 1.33683654616388E-02 
2247	 1.39102173530921E-02 
2248	 1.25173262354412E-02 
2249	 9.53556330094745E-03 
2250	 9.31038849729126E-03 
2251	 9.16722161614056E-03 
2252	 8.13349708514852E-03 
2253	 8.66690557708266E-03 
2254	 9.40887677131753E-03 
2255	 9.38131214821884E-03 
2256	 9.75917436989364E-03 
2257	 1.05162360259289E-02 
2258	 8.4374281260085E-03 
2259	 6.33030149517392E-03 
2260	 6.10788060291762E-03 
2261	 4.79369722879915E-03 
2262	 5.26437389390875E-03 
2263	 1.00214045941461E-02 
2264	 1.08340410649092E-02 
2265	 9.42261842278068E-03 
2266	 9.65443018105567E-03 
2267	 9.42930939479332E-03 
2268	 9.08299969468462E-03 
2269	 9.39049282921977E-03 
2270	 9.5831060565622E-03 
2271	 0.00848379140746 
2272	 9.84655360663796E-03 
2273	 1.48489656025269E-02 
2274	 1.48452716544446E-02 
2275	 1.28342128528325E-02 
2276	 1.21432420696463E-02 
2277	 8.06684505044838E-03 
2278	 5.86678883086793E-03 
2279	 6.70709894943587E-03 
2280	 5.83366799178749E-03 
2281	 3.36641700640506E-03 
2282	 2.71050182469043E-03 
2283	 2.32725933700795E-03 
2284	 2.18973352869213E-03 
2285	 2.56551815951022E-03 
2286	 4.64760131916671E-03 
2287	 8.2355646844117E-03 
2288	 7.93849928505042E-03 
2289	 6.5312222890889E-03 
2290	 5.78564745051206E-03 
2291	 2.9634667410836E-03 
2292	 2.82305515758158E-03 
2293	 3.20433545512175E-03 
2294	 7.07178111826235E-03 
2295	 1.20690515340572E-02 
2296	 1.01572521680367E-02 
2297	 1.07951414064116E-02 
2298	 7.39949156465386E-03 
2299	 4.50944166431362E-03 
2300	 1.01567359454338E-02 
2301	 9.01485321939594E-03 
2302	 7.58357386029188E-03 
2303	 1.04334493775428E-02 
2304	 8.52148971520877E-03 
2305	 7.94591932988599E-03 
2306	 1.14927912723565E-02 
2307	 0.010029985560735 
2308	 7.62561549790081E-03 
2309	 8.31364729704971E-03 
2310	 9.99294227547878E-03 
2311	 1.35951404088109E-02 
2312	 1.29902052815217E-02 
2313	 1.22646337078933E-02 
2314	 1.11608857216303E-02 
2315	 5.92116418377244E-03 
2316	 5.19578539628748E-03 
2317	 5.74583543115389E-03 
2318	 4.93424702424144E-03 
2319	 2.96523083258292E-03 
2320	 4.30130871675368E-05 
2321	 3.55803525955647E-03 
2322	 7.0189766479511E-03 
2323	 6.33124018305558E-03 
2324	 8.3812802670284E-03 
2325	 7.95981916965586E-03 
2326	 5.54240339315079E-03 
2327	 8.87326772211328E-03 
2328	 1.24421587865113E-02 
2329	 1.21951772079978E-02 
2330	 1.07554620629723E-02 
2331	 7.00917275546452E-03 
2332	 3.99791934686358E-03 
2333	 5.93551525352509E-03 
2334	 8.33463062889501E-03 
2335	 1.23576400526601E-02 
2336	 1.76738464512744E-02 
2337	 1.51356720697005E-02 
2338	 6.67499853988096E-03 
2339	-2.85887483695474E-03 
2340	-6.40629519009236E-03 
2341	-6.93175044956439E-03 
2342	-1.04907473360248E-02 
2343	 3.98493387198825E-03 
2344	 2.25864206012504E-02 
2345	 2.13616245703216E-02 
2346	 2.23917029872195E-02 
2347	 2.17886390788324E-02 
2348	 6.03198343176477E-03 
2349	-2.85754176881774E-03 
2350	 8.37788303198989E-03 
2351	 0.01664844408173 
2352	 9.24199005350385E-03 
2353	 1.28081375826584E-02 
2354	 1.50837897258675E-02 
2355	 1.08704741367922E-03 
2356	 6.14446940750023E-03 
2357	 1.10975536938355E-02 
2358	 8.14710731605731E-03 
2359	 2.47587825799712E-02 
2360	 2.79153386635012E-02 
2361	 2.30790178546394E-02 
2362	 3.19628257258972E-02 
2363	 0.026362947015232 
2364	 1.72200475077907E-02 
2365	 1.90116972857091E-02 
2366	 8.50511381333607E-03 
2367	 2.10607263814017E-03 
2368	 7.98676420959573E-03 
2369	 1.23501200509805E-02 
2370	 2.48954443088517E-02 
2371	 2.75782233572694E-02 
2372	 1.44992465926321E-02 
2373	 0.010287130654202 
2374	 1.21524710290877E-02 
2375	 1.64546998121873E-02 
2376	 3.51395959257635E-02 
2377	 4.06128847966536E-02 
2378	 2.88849901582935E-02 
2379	 3.46323408893838E-02 
2380	 1.73939797222998E-02 
2381	 1.22221972565788E-03 
2382	 1.62798913039788E-02 
2383	 1.83542939117185E-03 
2384	-1.15733395728625E-02 
2385	-1.38352599462154E-02 
2386	-2.15978999784131E-02 
2387	-9.38565865822822E-03 
2388	 6.02777318840704E-04 
2389	 2.30947518914351E-02 
2390	 3.82342662420544E-02 
2391	 1.81547131218573E-02 
2392	 2.05875921422532E-02 
2393	 6.40362922172815E-03 
2394	-3.09846475312323E-02 
2395	-1.73375601146191E-02 
2396	-4.86140480257033E-03 
2397	-1.79376290921485E-02 
2398	-6.57229325929992E-03 
2399	-0.0102130448209 
2400	-4.92349170719144E-02 
2401	-1.98852122144869E-02 
2402	 2.24807350174134E-02 
2403	 2.14765438798069E-03 
2404	 1.96113802715466E-02 
2405	 4.07157020313111E-02 
2406	 3.34772596585942E-02 
2407	 4.93177392318789E-02 
2408	 6.34536438708061E-02 
2409	 3.02278433436579E-02 
2410	-2.60143111986058E-03 
2411	 0.016286410762982 
2412	 4.63133816830215E-02 
2413	 0.101913997535657 
2414	 0.119403267736856 
2415	 0.123969236438219 
2416	 0.147255064676153 
2417	 0.082678828497695 
2418	 3.92551087123103E-02 
2419	 5.60520121353005E-02 
2420	 4.86637941091995E-02 
2421	 1.69643010647202E-02 
2422	 2.44819436386876E-02 
2423	 3.81484553730669E-02 
2424	-1.57660282972713E-02 
2425	-2.95495647472858E-03 
2426	 3.34832087499181E-02 
2427	 1.55669931169003E-03 
2428	-1.57841146116755E-02 
2429	 9.90166850014384E-03 
2430	 3.80921329203569E-02 
2431	 6.31659130220676E-02 
2432	 0.110532776082514 
2433	 0.048622387032889 
2434	-9.42919991371612E-02 
2435	-0.10942023488397 
2436	-9.41752074564065E-02 
2437	-5.24884975579866E-02 
2438	 6.34608428409979E-02 
2439	 7.97049809976791E-02 
2440	 0.038713004176224 
2441	-1.71937376086622E-02 
2442	-3.84335015596339E-02 
2443	-2.37058681225954E-02 
2444	-1.51153553720574E-02 
2445	 0.106410151993015 
2446	 0.225937527360399 
2447	 0.237575794268157 
2448	 0.210336405831537 
2449	 7.98954429931352E-02 
2450	 5.33767424135861E-02 
2451	-3.33087988913182E-02 
2452	 0.123963762412696 
2453	 8.67508688780776E-02 
2454	 7.81161154353638E-03 
2455	 0.127405683506939 
2456	-1.84106664979145E-02 
2457	-7.94916416316416E-02 
2458	-2.13683042127882E-02 
2459	-0.167021979287967 
2460	-0.154317877493028 
2461	-3.75301639920928E-02 
2462	-0.147927809638829 
2463	-0.175831068573705 
2464	-0.159771843098926 
2465	-0.376076491258891 
2466	-0.446278848197338 
2467	-0.256524466767472 
2468	 0.064581429496452 
2469	 0.400180798369848 
2470	 2.31406072367543 
2471	 0.652729750130641 
2472	-1.1197823226973 
2473	-0.422555928388862 
2474	-0.145102014694557 
2475	 0.126460820131791 
2476	 0.488414141322514 
2477	 0.358558900493876 
2478	 0.145099391204945 
2479	 0.185269286250457 
2480	-0.50469420151927 
2481	-1.21183445133551 
2482	-0.494047356109362 
2483	-0.166772372585382 
2484	 0.299559845295101 
2485	 2.20819133830694 
2486	-1.74853104758466 
2487	-0.243902878464601 
2488	-0.307667928140984 
2489	-0.503679573064847 
2490	-8.63874233265521 
2491	 5.41518786513189 
2492	 7.2869419831341 
2493	 0.962560587186206 
2494	 0.225572944488002 
2495	-0.100362023772727 
2496	-0.372934086247872 
2497	-1.07705784899747 
2498	-2.05041148525567 
2499	-19.2467412441675 
2500	-1.76529937933681 
