Wavelength	rt0711a200009.asd
350	 0.140600427717764 
351	 0.142786605299366 
352	 0.144772166191316 
353	 0.146492784352465 
354	 0.148169073770639 
355	 0.150237672293347 
356	 0.152556261806818 
357	 0.154774524974387 
358	 0.156617286316361 
359	 0.158404997312257 
360	 0.160276359198684 
361	 0.162361144627534 
362	 0.164649742764291 
363	 0.165928940875606 
364	 0.166944075096459 
365	 0.168372335336376 
366	 0.170436167312847 
367	 0.172035845899556 
368	 0.173726735690882 
369	 0.176059748472844 
370	 0.177963991784529 
371	 0.179761511044187 
372	 0.181635479329143 
373	 0.183602649808607 
374	 0.185000206821439 
375	 0.186097955708244 
376	 0.187228231637621 
377	 0.188647724328067 
378	 0.190235121096652 
379	 0.191819566866671 
380	 0.193277906261914 
381	 0.194637335546657 
382	 0.19638912562622 
383	 0.197979703792351 
384	 0.198553628993392 
385	 0.198917865219586 
386	 0.199243119306872 
387	 0.199713962009041 
388	 0.20055110830557 
389	 0.201244563039072 
390	 0.201729119665133 
391	 0.202224664073028 
392	 0.203489608770878 
393	 0.203888233224342 
394	 0.203587224088376 
395	 0.203309627087618 
396	 0.202586150664229 
397	 0.201851878859152 
398	 0.201224044855619 
399	 0.200518033189131 
400	 0.199998844723974 
401	 0.19957626687461 
402	 0.199189182493471 
403	 0.199006853244584 
404	 0.198645655366177 
405	 0.198196463850649 
406	 0.197811743762226 
407	 0.196896138742985 
408	 0.195878183723623 
409	 0.194956904055041 
410	 0.194043965220517 
411	 0.193333766536011 
412	 0.192551360914646 
413	 0.19155556682523 
414	 0.190716585180045 
415	 0.189841427851266 
416	 0.188912822781945 
417	 0.188007404007086 
418	 0.187338890315989 
419	 0.186636847085447 
420	 0.185866066907201 
421	 0.185270539262672 
422	 0.184775525820689 
423	 0.184239486931001 
424	 0.183714848049169 
425	 0.183808025563804 
426	 0.184291069867412 
427	 0.184810692830892 
428	 0.185058287192884 
429	 0.185581227740893 
430	 0.186062050861697 
431	 0.186336420772088 
432	 0.186516912698029 
433	 0.186725204153092 
434	 0.187044541779566 
435	 0.187500186014153 
436	 0.188063014631542 
437	 0.188300155034274 
438	 0.188229155333991 
439	 0.18809454317928 
440	 0.187676130574444 
441	 0.187179946455257 
442	 0.186740192003942 
443	 0.186324360353906 
444	 0.185882914553441 
445	 0.18527257326281 
446	 0.184418529095412 
447	 0.183556988300667 
448	 0.182710778818041 
449	 0.181913504033755 
450	 0.181201738134599 
451	 0.180601193726704 
452	 0.179995694481542 
453	 0.179284718934294 
454	 0.178434616342831 
455	 0.177561542597489 
456	 0.17673695739605 
457	 0.176000235694182 
458	 0.175338478631737 
459	 0.174662109178035 
460	 0.173894994507547 
461	 0.172998890406442 
462	 0.172297374732488 
463	 0.171690168725524 
464	 0.171034716426566 
465	 0.17033799279508 
466	 0.169582876145912 
467	 0.168848366785656 
468	 0.168228217151661 
469	 0.167562363991117 
470	 0.166928988400787 
471	 0.166308435839145 
472	 0.165525825965714 
473	 0.164858429720915 
474	 0.164389230972316 
475	 0.164053371548477 
476	 0.163496538093788 
477	 0.162920437138324 
478	 0.162488263740045 
479	 0.162280701548496 
480	 0.161848057058414 
481	 0.161492649773603 
482	 0.161402734808099 
483	 0.161323764268059 
484	 0.16145717007177 
485	 0.161592962360065 
486	 0.161444231734836 
487	 0.161144191825835 
488	 0.161001402982237 
489	 0.161113898109974 
490	 0.161365469734659 
491	 0.161773273315158 
492	 0.162089287018685 
493	 0.162163170717467 
494	 0.162196174817996 
495	 0.162401586634322 
496	 0.162702876908833 
497	 0.162907880139215 
498	 0.163312360728526 
499	 0.163650199632144 
500	 0.163812323511731 
501	 0.164014741374823 
502	 0.164147905473753 
503	 0.164172565266965 
504	 0.16413761946405 
505	 0.164349446767704 
506	 0.164602696516806 
507	 0.164766313151857 
508	 0.164796819173617 
509	 0.164845338502246 
510	 0.165026175804185 
511	 0.165352737519019 
512	 0.165647230189675 
513	 0.165882651414482 
514	 0.166275190456628 
515	 0.167055709708975 
516	 0.167727049083159 
517	 0.168328410561942 
518	 0.168915224786445 
519	 0.169499905183639 
520	 0.170386681134343 
521	 0.171487590509261 
522	 0.172644183949356 
523	 0.173732136223408 
524	 0.17526312626077 
525	 0.177191969140998 
526	 0.17906973266063 
527	 0.180744940465452 
528	 0.182507715512553 
529	 0.184594235487129 
530	 0.187035984056539 
531	 0.189691146988431 
532	 0.192482939026411 
533	 0.195349677449028 
534	 0.198222485114744 
535	 0.20135336421757 
536	 0.204802094366951 
537	 0.208378155011761 
538	 0.212107662661336 
539	 0.215926993272444 
540	 0.219758352309589 
541	 0.223538900577115 
542	 0.227395595374598 
543	 0.231275989915475 
544	 0.235045526692939 
545	 0.23881555789495 
546	 0.242511588034621 
547	 0.246078973202284 
548	 0.249553576531537 
549	 0.252877900373358 
550	 0.25608713278185 
551	 0.259231981841545 
552	 0.262196666840353 
553	 0.265049349368144 
554	 0.267881298104241 
555	 0.270777103661275 
556	 0.273738596980904 
557	 0.276773321617222 
558	 0.2798080835038 
559	 0.282624485872323 
560	 0.285479446089731 
561	 0.288447875633788 
562	 0.29150399222619 
563	 0.294664108592872 
564	 0.297926279221065 
565	 0.301195386321115 
566	 0.304201241220272 
567	 0.307298670134313 
568	 0.310405976977994 
569	 0.313288241974107 
570	 0.315905833964064 
571	 0.318233060275136 
572	 0.320377631202345 
573	 0.322571673901774 
574	 0.324593327725741 
575	 0.32647180603098 
576	 0.328282471166403 
577	 0.330114766918687 
578	 0.3317456673933 
579	 0.33326615073794 
580	 0.334929871517723 
581	 0.336499801863338 
582	 0.338055374905117 
583	 0.339619555703563 
584	 0.341044871928434 
585	 0.342209641988448 
586	 0.343299128640929 
587	 0.344564809594289 
588	 0.345822848719865 
589	 0.346864220532027 
590	 0.347641250717531 
591	 0.348349898430482 
592	 0.34915715465542 
593	 0.350011270386225 
594	 0.350796707376375 
595	 0.351444436225432 
596	 0.35201586911249 
597	 0.352602442175679 
598	 0.353283716185369 
599	 0.35387322453212 
600	 0.354491268948182 
601	 0.355181522957399 
602	 0.355797498635365 
603	 0.356317365150195 
604	 0.356859954095913 
605	 0.357530977033187 
606	 0.358117172357534 
607	 0.358654589793166 
608	 0.359166932116355 
609	 0.359654588308839 
610	 0.360213724627092 
611	 0.36078819991395 
612	 0.361305520844328 
613	 0.36173099948361 
614	 0.362225233685115 
615	 0.362741483224737 
616	 0.363137159797129 
617	 0.363629076313856 
618	 0.3641131047223 
619	 0.364563438507578 
620	 0.365130486138216 
621	 0.365616195116187 
622	 0.366073549291218 
623	 0.366589672988471 
624	 0.367000407123853 
625	 0.36741845898909 
626	 0.367882829352726 
627	 0.368348957525506 
628	 0.368768138137094 
629	 0.369242731299285 
630	 0.369799176205153 
631	 0.37017409758711 
632	 0.370543445911882 
633	 0.370994745184034 
634	 0.371544513473757 
635	 0.372003063776474 
636	 0.372420254826279 
637	 0.372852784031108 
638	 0.37333778175835 
639	 0.37376964501712 
640	 0.374119135578956 
641	 0.374429557298431 
642	 0.374954852674961 
643	 0.375280564201604 
644	 0.375440462909967 
645	 0.375811647848691 
646	 0.376001723967394 
647	 0.376238473483658 
648	 0.376669087007672 
649	 0.377031387260967 
650	 0.377225976133525 
651	 0.377338402230439 
652	 0.377499798900995 
653	 0.377570906030718 
654	 0.377628601823936 
655	 0.377652156595371 
656	 0.377482280760146 
657	 0.377335270145523 
658	 0.377232068337077 
659	 0.377119511742311 
660	 0.376870586183071 
661	 0.376681829264929 
662	 0.37651266804553 
663	 0.376203760076456 
664	 0.375992020741518 
665	 0.375805294192466 
666	 0.375617349435623 
667	 0.375572201204676 
668	 0.375397339856279 
669	 0.375241360748589 
670	 0.375316960339745 
671	 0.37539937076479 
672	 0.375500883721244 
673	 0.375649313844148 
674	 0.375876430879533 
675	 0.376167780305037 
676	 0.37648293942683 
677	 0.376794417187715 
678	 0.377099785274605 
679	 0.377536293096716 
680	 0.378089741362214 
681	 0.378675346513424 
682	 0.379276272412115 
683	 0.379988903706159 
684	 0.380734656861726 
685	 0.381242538389527 
686	 0.38207373864016 
687	 0.38299044337963 
688	 0.383633837706673 
689	 0.384440209636552 
690	 0.38510494905606 
691	 0.385604561559205 
692	 0.386081693788358 
693	 0.386487067460212 
694	 0.387011055469736 
695	 0.38760060088742 
696	 0.38784092808737 
697	 0.387931745829345 
698	 0.388012060396265 
699	 0.388177268897393 
700	 0.388385770669571 
701	 0.38849127143375 
702	 0.388478827104751 
703	 0.388445184925156 
704	 0.388368183002271 
705	 0.388297490083506 
706	 0.388220949477773 
707	 0.387961224651758 
708	 0.387727657378291 
709	 0.387439514685451 
710	 0.386966085591263 
711	 0.386564423001498 
712	 0.385963616051592 
713	 0.385155023000448 
714	 0.384402602726213 
715	 0.383352319326153 
716	 0.382247753480627 
717	 0.381425518719923 
718	 0.380494750467721 
719	 0.379665175348806 
720	 0.378961353343053 
721	 0.378186045817994 
722	 0.377215852448995 
723	 0.375978840016611 
724	 0.374708793084564 
725	 0.373717964275618 
726	 0.372424460176235 
727	 0.370903138493324 
728	 0.369330498225907 
729	 0.367655881015795 
730	 0.36575642305576 
731	 0.363930910861131 
732	 0.362486566447835 
733	 0.361118188859523 
734	 0.359675486879999 
735	 0.358328257427911 
736	 0.357630555773583 
737	 0.357047468022636 
738	 0.356505137304284 
739	 0.356080160083886 
740	 0.35592246858437 
741	 0.355788121422285 
742	 0.355683645042802 
743	 0.355731865848806 
744	 0.355839524871938 
745	 0.355815849471969 
746	 0.35569445715824 
747	 0.355814092173953 
748	 0.35584878838293 
749	 0.355790932877757 
750	 0.355747092932808 
751	 0.355924473285845 
752	 0.35601390657139 
753	 0.356023582670159 
754	 0.356110736420874 
755	 0.356072625129166 
756	 0.355929878473165 
757	 0.355723484168107 
758	 0.355440369749632 
759	 0.355804780522862 
760	 0.35649139685137 
761	 0.356270619247109 
762	 0.356271610295651 
763	 0.356554432771998 
764	 0.356858047670584 
765	 0.356971396271306 
766	 0.357300068642203 
767	 0.357554985721119 
768	 0.357690212688573 
769	 0.357877064076289 
770	 0.358061380850769 
771	 0.358268071885855 
772	 0.358525759242966 
773	 0.358850809351796 
774	 0.359093246570064 
775	 0.359341698475869 
776	 0.359741305337179 
777	 0.360067028218223 
778	 0.360339030701844 
779	 0.360597867267644 
780	 0.360893222680034 
781	 0.361347735486321 
782	 0.361819385485984 
783	 0.362182693494679 
784	 0.362453179427059 
785	 0.362798644447466 
786	 0.363230102065078 
787	 0.363685645104077 
788	 0.364089449832404 
789	 0.364562231585647 
790	 0.365056165319336 
791	 0.365407176443289 
792	 0.365748787394609 
793	 0.366208968844262 
794	 0.366780641604428 
795	 0.367241448043483 
796	 0.367541549257371 
797	 0.367765899134238 
798	 0.368053449574045 
799	 0.368544129929362 
800	 0.368975102792112 
801	 0.369233935355364 
802	 0.369353100633326 
803	 0.369582853185923 
804	 0.369796648937161 
805	 0.369917379734905 
806	 0.369962556612246 
807	 0.369822760665512 
808	 0.369760504826228 
809	 0.36982997840188 
810	 0.369354131097926 
811	 0.368926044787371 
812	 0.368702875049571 
813	 0.368599177304685 
814	 0.368178110581853 
815	 0.367685856964064 
816	 0.367264488777931 
817	 0.36687609000016 
818	 0.366271740938212 
819	 0.365249237191626 
820	 0.364170009626864 
821	 0.364141472441516 
822	 0.363116169237669 
823	 0.361273307323633 
824	 0.359418082804592 
825	 0.357935832344154 
826	 0.356420545561255 
827	 0.354578966267024 
828	 0.352366592430184 
829	 0.350230632949144 
830	 0.348324041348852 
831	 0.346665508336864 
832	 0.345220432978458 
833	 0.344014896341957 
834	 0.343005673306742 
835	 0.342159982786556 
836	 0.341483337067422 
837	 0.340760741132052 
838	 0.340140068840919 
839	 0.339702001664367 
840	 0.339126352133697 
841	 0.338698574321674 
842	 0.338421110923892 
843	 0.338152642395934 
844	 0.33764909374297 
845	 0.336990897880416 
846	 0.336477908658588 
847	 0.336434180411287 
848	 0.336150870303639 
849	 0.335674812600956 
850	 0.335118441262695 
851	 0.334566960510784 
852	 0.334507393463264 
853	 0.334590388504847 
854	 0.334308537568856 
855	 0.333238545616664 
856	 0.332785709561287 
857	 0.332689782441324 
858	 0.332392544068992 
859	 0.33214964134675 
860	 0.33192885329798 
861	 0.331478813573304 
862	 0.330641136083124 
863	 0.330452345337884 
864	 0.330516868808922 
865	 0.330356500828953 
866	 0.329629304729939 
867	 0.329020503537381 
868	 0.328578033904789 
869	 0.328201746430577 
870	 0.327743265310162 
871	 0.327295968867346 
872	 0.32673456832751 
873	 0.326094806292482 
874	 0.325878843208635 
875	 0.325376495509778 
876	 0.324572116031511 
877	 0.323748404768313 
878	 0.323355946088123 
879	 0.322952496543639 
880	 0.322310281739605 
881	 0.321435299395401 
882	 0.320836166816233 
883	 0.320201081300644 
884	 0.319546300638906 
885	 0.319103721728626 
886	 0.318474424535662 
887	 0.317838556035197 
888	 0.317217378683391 
889	 0.316405414968894 
890	 0.3156140985395 
891	 0.315093864450373 
892	 0.314834955317146 
893	 0.314345471287063 
894	 0.313854567868516 
895	 0.313465809304098 
896	 0.313096142420579 
897	 0.312186133974068 
898	 0.311823161374232 
899	 0.311538471141042 
900	 0.310600170753791 
901	 0.309477472895672 
902	 0.308001178320702 
903	 0.306825387553186 
904	 0.306610281647535 
905	 0.306587363929227 
906	 0.306780773584123 
907	 0.3066755426387 
908	 0.30553206711037 
909	 0.303931745979062 
910	 0.303006920725485 
911	 0.302453345561216 
912	 0.300906718062928 
913	 0.299964251523628 
914	 0.298910590707657 
915	 0.297486052201598 
916	 0.296199072554607 
917	 0.294261780419162 
918	 0.291941357225223 
919	 0.289975273285848 
920	 0.289387354436079 
921	 0.28778904412682 
922	 0.285912108235328 
923	 0.284341855313476 
924	 0.282069286360856 
925	 0.279347945573583 
926	 0.277013544128286 
927	 0.275630208578315 
928	 0.273881881965905 
929	 0.272982371398539 
930	 0.273131884690966 
931	 0.273327089286277 
932	 0.270112753123439 
933	 0.264923071649437 
934	 0.260182201655024 
935	 0.25720978620663 
936	 0.252238516746734 
937	 0.249115964011319 
938	 0.245128396178777 
939	 0.238494233301361 
940	 0.239543021139309 
941	 0.238600955788526 
942	 0.235040885574656 
943	 0.232674880258479 
944	 0.231651405988249 
945	 0.226926807169699 
946	 0.221195747469984 
947	 0.220115154368472 
948	 0.216646359913141 
949	 0.213973937130159 
950	 0.21074328313944 
951	 0.204257696378608 
952	 0.203168757088561 
953	 0.201330650671341 
954	 0.197174315793596 
955	 0.193531433871592 
956	 0.193370210912319 
957	 0.193130531191418 
958	 0.189794926713745 
959	 0.183217496919606 
960	 0.185851511822897 
961	 0.184468734570907 
962	 0.180383399219899 
963	 0.184240750216904 
964	 0.182873314077352 
965	 0.180925757262314 
966	 0.179858923156087 
967	 0.177984430804916 
968	 0.177778654570477 
969	 0.177827361202183 
970	 0.177345688546062 
971	 0.176672700882715 
972	 0.178052076227991 
973	 0.178588179865091 
974	 0.178435922194965 
975	 0.180387406391971 
976	 0.178346323415091 
977	 0.176943504569111 
978	 0.177731581717695 
979	 0.178424657666367 
980	 0.179246773450009 
981	 0.180396276608291 
982	 0.180712969268877 
983	 0.178838049858692 
984	 0.180025036190869 
985	 0.181216608683279 
986	 0.181194622600819 
987	 0.180988865443814 
988	 0.181110299057364 
989	 0.182125796503377 
990	 0.183595582124664 
991	 0.184226920632372 
992	 0.182059989705152 
993	 0.182286917075741 
994	 0.18468117679391 
995	 0.185453529210091 
996	 0.187279709310842 
997	 0.188101841492722 
998	 0.188203798228815 
999	 0.189205511206731 
1000	 0.190526900829832 
1001	 0.195853529041182 
1002	 0.195755191971778 
1003	 0.195957719759831 
1004	 0.196233392118675 
1005	 0.196567477863392 
1006	 0.197002841091224 
1007	 0.197447290344763 
1008	 0.198104591598457 
1009	 0.19837241760501 
1010	 0.199131683782928 
1011	 0.200004861895483 
1012	 0.201128961628346 
1013	 0.20245839170911 
1014	 0.203809903698022 
1015	 0.205329995208371 
1016	 0.206875111106835 
1017	 0.208542141866735 
1018	 0.210209907233148 
1019	 0.211835033102098 
1020	 0.21358994754667 
1021	 0.215615339678374 
1022	 0.217333050872504 
1023	 0.218823993555659 
1024	 0.219946083967607 
1025	 0.22025742997892 
1026	 0.220285349346713 
1027	 0.220525286389741 
1028	 0.22049241540885 
1029	 0.220713339797129 
1030	 0.221138785340026 
1031	 0.221454628441364 
1032	 0.221815225617787 
1033	 0.222100805984961 
1034	 0.222242955731258 
1035	 0.22252756926268 
1036	 0.222933599875707 
1037	 0.223178956836135 
1038	 0.22321962397222 
1039	 0.223702099516458 
1040	 0.223795960678542 
1041	 0.22403761594492 
1042	 0.224711400693492 
1043	 0.225702893986654 
1044	 0.226621123191824 
1045	 0.227931031204827 
1046	 0.228944854451742 
1047	 0.229601698736026 
1048	 0.230823759060977 
1049	 0.232431152827891 
1050	 0.233722702727605 
1051	 0.235505549502503 
1052	 0.236659375106738 
1053	 0.237146946913643 
1054	 0.237826779620336 
1055	 0.238445505818914 
1056	 0.238883440496651 
1057	 0.23922891450214 
1058	 0.239524191350516 
1059	 0.23981207544723 
1060	 0.23992047386608 
1061	 0.240095992638602 
1062	 0.240468595363678 
1063	 0.240502999805508 
1064	 0.240501632070685 
1065	 0.240116660206723 
1066	 0.239069587782376 
1067	 0.238627157868786 
1068	 0.238038427561294 
1069	 0.237791565673054 
1070	 0.238067323468984 
1071	 0.238339947350653 
1072	 0.238928772018184 
1073	 0.239232349173965 
1074	 0.239446410550916 
1075	 0.239643402041185 
1076	 0.239886264037064 
1077	 0.239825281169955 
1078	 0.24022168892919 
1079	 0.241089257001163 
1080	 0.241573708366249 
1081	 0.242044585778541 
1082	 0.242391877522555 
1083	 0.242487723800285 
1084	 0.242731392716846 
1085	 0.243182722404412 
1086	 0.243341077899868 
1087	 0.243550675125344 
1088	 0.243465420565021 
1089	 0.243174873990479 
1090	 0.24236821511471 
1091	 0.241846384097694 
1092	 0.241240817216061 
1093	 0.240370416644843 
1094	 0.23965755138673 
1095	 0.23847787713313 
1096	 0.236328599504198 
1097	 0.235238995850494 
1098	 0.234468575734211 
1099	 0.233492201777868 
1100	 0.233414761909556 
1101	 0.232488119554536 
1102	 0.230061677914648 
1103	 0.229064197821209 
1104	 0.228637720138147 
1105	 0.228064249631088 
1106	 0.228947871916074 
1107	 0.229615834780208 
1108	 0.229509175567786 
1109	 0.229476226771163 
1110	 0.229154051945002 
1111	 0.228038187536034 
1112	 0.227756545548844 
1113	 0.228068550686578 
1114	 0.227532771952908 
1115	 0.227084671128722 
1116	 0.226276694711255 
1117	 0.224090876242027 
1118	 0.222206275976617 
1119	 0.220466765061715 
1120	 0.218331943364697 
1121	 0.216141615061971 
1122	 0.212518877355891 
1123	 0.210221608402687 
1124	 0.208620297314225 
1125	 0.205963123340285 
1126	 0.202245984168839 
1127	 0.195266856821674 
1128	 0.188893018446083 
1129	 0.185895892020895 
1130	 0.185287714595299 
1131	 0.182555674703014 
1132	 0.182478179950016 
1133	 0.179196001041777 
1134	 0.172054523185799 
1135	 0.169106184316681 
1136	 0.168242657618029 
1137	 0.165874971420334 
1138	 0.163984752011832 
1139	 0.161708867338385 
1140	 0.158797346601872 
1141	 0.1558671190448 
1142	 0.15446146312146 
1143	 0.153687390097944 
1144	 0.151715674430324 
1145	 0.149668489439046 
