Wavelength	rt0711a300009.asd
350	 0.111326161320473 
351	 0.113266806435764 
352	 0.115651802103907 
353	 0.117518414693023 
354	 0.118721300434088 
355	 0.120773667846839 
356	 0.122501156340318 
357	 0.12446726334993 
358	 0.127113530034063 
359	 0.128067437764902 
360	 0.129659765665075 
361	 0.132237788496475 
362	 0.134591806793758 
363	 0.135418499219916 
364	 0.136603862789952 
365	 0.138805134283681 
366	 0.140286901214505 
367	 0.141671472905042 
368	 0.143119109004086 
369	 0.144650059042632 
370	 0.146173204949553 
371	 0.147458166887792 
372	 0.148849874993233 
373	 0.150854634450113 
374	 0.152276583686174 
375	 0.153427441121105 
376	 0.154592034198652 
377	 0.155789032543534 
378	 0.156991818136985 
379	 0.158045048390359 
380	 0.158897810946878 
381	 0.159881109819268 
382	 0.160980809374385 
383	 0.161994273010961 
384	 0.162682340461565 
385	 0.163217580136465 
386	 0.163835772869293 
387	 0.164605890795843 
388	 0.165397666046929 
389	 0.165706426436155 
390	 0.16575692217622 
391	 0.165856320263131 
392	 0.166127805877686 
393	 0.16625569372302 
394	 0.166294662748066 
395	 0.166349091349728 
396	 0.165968872051709 
397	 0.165591861201819 
398	 0.165318348623076 
399	 0.164924140109619 
400	 0.164502240774567 
401	 0.164080175732816 
402	 0.163657249509381 
403	 0.163204199949625 
404	 0.162695804012437 
405	 0.162169154693397 
406	 0.161644767594613 
407	 0.160917792525139 
408	 0.160063281479967 
409	 0.159241131039943 
410	 0.158646095579013 
411	 0.1578759150495 
412	 0.157115515813045 
413	 0.15645874179134 
414	 0.155484440510135 
415	 0.154799310926615 
416	 0.154143371175178 
417	 0.153089366878595 
418	 0.152514831901515 
419	 0.151936973366275 
420	 0.151239047834651 
421	 0.150784372855721 
422	 0.150325317435561 
423	 0.149874260309629 
424	 0.149552355065763 
425	 0.149639598078972 
426	 0.149838491560597 
427	 0.150044055459294 
428	 0.150281180678353 
429	 0.150769941542503 
430	 0.151214076951354 
431	 0.151588700914389 
432	 0.152235983160172 
433	 0.152721992252679 
434	 0.153051764966611 
435	 0.153313222345736 
436	 0.153512322680531 
437	 0.153691992623135 
438	 0.15375087278669 
439	 0.153543528083019 
440	 0.153258375604316 
441	 0.152988830494465 
442	 0.152713731778855 
443	 0.152264213826602 
444	 0.151801200625832 
445	 0.151284307035491 
446	 0.150651273896751 
447	 0.149956867262474 
448	 0.149289628261891 
449	 0.148631348446339 
450	 0.147895755066751 
451	 0.147246614016572 
452	 0.146585695824766 
453	 0.14584858106014 
454	 0.145115559391101 
455	 0.144421653211006 
456	 0.143780406629478 
457	 0.14315595971289 
458	 0.1423203498166 
459	 0.1416167018059 
460	 0.141031834838465 
461	 0.140196260650509 
462	 0.13957788182293 
463	 0.138990557714726 
464	 0.138248218796986 
465	 0.137520033260521 
466	 0.13687804151764 
467	 0.136250493543476 
468	 0.135515238333871 
469	 0.134813547953488 
470	 0.134202456925527 
471	 0.133638462661036 
472	 0.132960769052824 
473	 0.132425324420984 
474	 0.131935009457422 
475	 0.131368285409619 
476	 0.130866759666208 
477	 0.130383983353966 
478	 0.129967916428197 
479	 0.129709063453162 
480	 0.129440369284887 
481	 0.129180154590088 
482	 0.128963514336248 
483	 0.12880296751538 
484	 0.128714015190062 
485	 0.128698564527334 
486	 0.128729104289946 
487	 0.128669080238662 
488	 0.128721776543567 
489	 0.128900258485947 
490	 0.129028120049625 
491	 0.129251585412361 
492	 0.129528820268586 
493	 0.129774229456731 
494	 0.129867114310782 
495	 0.130063523904639 
496	 0.130355869729333 
497	 0.130611813430038 
498	 0.130915180461326 
499	 0.131186126552854 
500	 0.131358056828293 
501	 0.13139983832722 
502	 0.131672023261459 
503	 0.131930712135655 
504	 0.131925830849503 
505	 0.132131042601432 
506	 0.132328630040473 
507	 0.132442301972749 
508	 0.132529255480227 
509	 0.132683988877979 
510	 0.132957279251243 
511	 0.133313010389355 
512	 0.133533821975772 
513	 0.133833177628837 
514	 0.134303184592583 
515	 0.134929490542472 
516	 0.135366553717532 
517	 0.135995511535308 
518	 0.136873359496319 
519	 0.137589430965131 
520	 0.138480022191568 
521	 0.139558204870674 
522	 0.14075676999736 
523	 0.141952191914455 
524	 0.143411265567168 
525	 0.145091440046446 
526	 0.146748266616771 
527	 0.148508786873073 
528	 0.15047689614857 
529	 0.152657349937388 
530	 0.154888429694005 
531	 0.157301781854697 
532	 0.15991757216651 
533	 0.162684208593994 
534	 0.165458207894254 
535	 0.168418876163903 
536	 0.171590992626473 
537	 0.174790080225436 
538	 0.178092516614286 
539	 0.181446382235409 
540	 0.184809545129783 
541	 0.188282930914622 
542	 0.191721024667244 
543	 0.195053545455828 
544	 0.198291321199667 
545	 0.201596015085259 
546	 0.204783923678555 
547	 0.207762820410722 
548	 0.210708222997807 
549	 0.213508530415998 
550	 0.216176697005666 
551	 0.218763077084344 
552	 0.221231159920283 
553	 0.223596436871657 
554	 0.225907445242627 
555	 0.22823006650959 
556	 0.230560875161942 
557	 0.232941286969983 
558	 0.235358523752106 
559	 0.237688508816935 
560	 0.240024435391902 
561	 0.242411931932592 
562	 0.244871763753762 
563	 0.247341180465302 
564	 0.249788751094255 
565	 0.252205733121347 
566	 0.254632502919201 
567	 0.256982580314923 
568	 0.259205495775129 
569	 0.26127644531226 
570	 0.263254371440962 
571	 0.265067753658892 
572	 0.266733210814415 
573	 0.268365519885082 
574	 0.269934937385909 
575	 0.271425090107037 
576	 0.272826192927398 
577	 0.274181763644524 
578	 0.275454841677731 
579	 0.276657049174428 
580	 0.277826844905947 
581	 0.27895340639342 
582	 0.280011534977945 
583	 0.280978095575142 
584	 0.281828450374656 
585	 0.282602170273826 
586	 0.283254299700774 
587	 0.283765773450457 
588	 0.284389333369256 
589	 0.285054403322946 
590	 0.285664958849528 
591	 0.286177853622397 
592	 0.28671700136645 
593	 0.287251732129495 
594	 0.287709366668088 
595	 0.288038750793478 
596	 0.288292923645388 
597	 0.288558685802645 
598	 0.288915174216756 
599	 0.289188174093041 
600	 0.289452002062556 
601	 0.289757000797136 
602	 0.290058202990711 
603	 0.290383479932045 
604	 0.290715376001961 
605	 0.291037853897733 
606	 0.291425042729582 
607	 0.29179868854918 
608	 0.292144101556922 
609	 0.292515159551006 
610	 0.292827620363291 
611	 0.293192283076605 
612	 0.293650978991727 
613	 0.29392210803776 
614	 0.294171752524109 
615	 0.294453988582865 
616	 0.294755268590163 
617	 0.29506737741276 
618	 0.295379429155329 
619	 0.295703916054273 
620	 0.296092363908371 
621	 0.296317446211576 
622	 0.296485385251472 
623	 0.296775510203001 
624	 0.297145565918447 
625	 0.297387007001763 
626	 0.297513369122843 
627	 0.297748047486664 
628	 0.298043528614991 
629	 0.298445527223593 
630	 0.298912957875769 
631	 0.299137469398073 
632	 0.299354937059095 
633	 0.299646015840508 
634	 0.300001766312757 
635	 0.300331894836319 
636	 0.300603899473339 
637	 0.300842949495278 
638	 0.301148602573614 
639	 0.301398561224771 
640	 0.301624681700404 
641	 0.30189027307497 
642	 0.302223671308116 
643	 0.302374249141836 
644	 0.302366393919694 
645	 0.302439332300635 
646	 0.302422467346051 
647	 0.302548720149255 
648	 0.302909189598389 
649	 0.303139029129802 
650	 0.303241162862845 
651	 0.303300482604159 
652	 0.303402306565427 
653	 0.303346093643858 
654	 0.30318700204135 
655	 0.302969119568824 
656	 0.302735900246405 
657	 0.302584757524803 
658	 0.302449720274122 
659	 0.302264778067001 
660	 0.302089634338671 
661	 0.301883603220487 
662	 0.301637971658051 
663	 0.301378836407414 
664	 0.301214143612332 
665	 0.301083288125236 
666	 0.300931931210591 
667	 0.300757946168685 
668	 0.300647645347714 
669	 0.300571680833067 
670	 0.300498742825792 
671	 0.300604727378559 
672	 0.300678496933662 
673	 0.300705394265511 
674	 0.300861617480784 
675	 0.301026318483449 
676	 0.301206453652388 
677	 0.301435720063579 
678	 0.301759957802937 
679	 0.302088850507721 
680	 0.30244587445769 
681	 0.302890063225209 
682	 0.3033209503671 
683	 0.303840269626482 
684	 0.30434546418985 
685	 0.304463594441657 
686	 0.30479672090413 
687	 0.305303434505605 
688	 0.305765519371517 
689	 0.306369782174155 
690	 0.306813749093854 
691	 0.306998652149497 
692	 0.306983110575467 
693	 0.307098953948656 
694	 0.307451628135423 
695	 0.307876682969344 
696	 0.30792254961209 
697	 0.307725982337807 
698	 0.307429238583942 
699	 0.307201500707654 
700	 0.307164675509911 
701	 0.307090946951977 
702	 0.306878357285392 
703	 0.306551687153261 
704	 0.306145059355002 
705	 0.305769812523239 
706	 0.30542895272944 
707	 0.304834507129108 
708	 0.304327989547759 
709	 0.30379030727469 
710	 0.302990549327409 
711	 0.302126869271699 
712	 0.301141169435034 
713	 0.299992504277172 
714	 0.298640657330843 
715	 0.297060057029619 
716	 0.295274434441987 
717	 0.293497340194258 
718	 0.291974913561553 
719	 0.290891391889736 
720	 0.290045599366023 
721	 0.288972892126053 
722	 0.287458380645727 
723	 0.28566921441433 
724	 0.283958017969331 
725	 0.282390689850498 
726	 0.280627492164212 
727	 0.278641873775432 
728	 0.276526271271973 
729	 0.274383949102218 
730	 0.272061240245103 
731	 0.269865666859426 
732	 0.268102158289512 
733	 0.266409327102126 
734	 0.264706250889726 
735	 0.263165098292977 
736	 0.262240868800321 
737	 0.261476285439105 
738	 0.260848345155174 
739	 0.260436618766044 
740	 0.260277900495905 
741	 0.260093790525782 
742	 0.259902515404424 
743	 0.259859669678759 
744	 0.259811707348207 
745	 0.259793206805288 
746	 0.259814671858565 
747	 0.259829865329867 
748	 0.259861741548306 
749	 0.259884429621096 
750	 0.259884902155965 
751	 0.25993174561355 
752	 0.259966353761429 
753	 0.259957526942079 
754	 0.259908830206536 
755	 0.259964082994961 
756	 0.259952423184664 
757	 0.259783774869474 
758	 0.259446139885685 
759	 0.258780803372404 
760	 0.25811852307442 
761	 0.258260640466607 
762	 0.258580197056659 
763	 0.258978486016369 
764	 0.259479819162898 
765	 0.260118300809609 
766	 0.260709912940664 
767	 0.261124683951545 
768	 0.261371413226717 
769	 0.261556592188476 
770	 0.261795328113116 
771	 0.262046295274146 
772	 0.262283678536942 
773	 0.26262398343732 
774	 0.263018968375099 
775	 0.263356554490533 
776	 0.263563246471639 
777	 0.263936653516587 
778	 0.264335028935925 
779	 0.264683761062438 
780	 0.265017755308293 
781	 0.265456652160116 
782	 0.265895569358035 
783	 0.266279527976843 
784	 0.266776925777856 
785	 0.267142214697645 
786	 0.267451330525755 
787	 0.267863683003078 
788	 0.268310103796617 
789	 0.268773664005381 
790	 0.269303184073423 
791	 0.269963749607348 
792	 0.270354581987321 
793	 0.270806394420706 
794	 0.271437712441164 
795	 0.271846166260211 
796	 0.272222258907625 
797	 0.272642154021285 
798	 0.273085018150835 
799	 0.273236339296842 
800	 0.273561711849679 
801	 0.274000589758746 
802	 0.2742418952808 
803	 0.274551601312011 
804	 0.274832930824496 
805	 0.275039305938196 
806	 0.275206083103807 
807	 0.275068383068533 
808	 0.274818882803502 
809	 0.274588703885225 
810	 0.274090638781378 
811	 0.273622274940694 
812	 0.27316570584761 
813	 0.272592957621074 
814	 0.27193015374526 
815	 0.271279653849941 
816	 0.270691478931642 
817	 0.270149070822969 
818	 0.269728168069727 
819	 0.269149006893039 
820	 0.268255221210524 
821	 0.267086422890918 
822	 0.265516960689172 
823	 0.263987756756835 
824	 0.262693684088967 
825	 0.260846438674861 
826	 0.258652246514165 
827	 0.256315040213243 
828	 0.254137559232551 
829	 0.251903189738255 
830	 0.249817943704256 
831	 0.248000943051098 
832	 0.246507640387338 
833	 0.245200282849502 
834	 0.244125827865386 
835	 0.243333702294421 
836	 0.242855472844635 
837	 0.241991511846877 
838	 0.241197758626661 
839	 0.240868968655811 
840	 0.240574711858986 
841	 0.240211665710546 
842	 0.239790445891796 
843	 0.239380380225689 
844	 0.239005973206481 
845	 0.238544933189782 
846	 0.238037501244297 
847	 0.237630909378556 
848	 0.237327399921364 
849	 0.236953670845512 
850	 0.236461480109687 
851	 0.235988830234645 
852	 0.2357319050529 
853	 0.235513327252229 
854	 0.235125601187498 
855	 0.234468124347634 
856	 0.234156560225134 
857	 0.233982955501024 
858	 0.233642489175674 
859	 0.233405728664563 
860	 0.233113928990618 
861	 0.232694504867501 
862	 0.232207774286104 
863	 0.232216658442382 
864	 0.232059271415067 
865	 0.231532439041094 
866	 0.23095501718723 
867	 0.230422345227803 
868	 0.229983561606745 
869	 0.229591306600893 
870	 0.229111596374482 
871	 0.228742773918721 
872	 0.228295643597075 
873	 0.22766481939636 
874	 0.227101141827731 
875	 0.226749855721217 
876	 0.226287843374989 
877	 0.225482767495539 
878	 0.224990344359285 
879	 0.224404702660299 
880	 0.223868841019938 
881	 0.223630685914874 
882	 0.223011151430107 
883	 0.222230082205085 
884	 0.221498111908062 
885	 0.220955078852334 
886	 0.220600952624197 
887	 0.220028441525771 
888	 0.219249339766164 
889	 0.218758646135784 
890	 0.218195210504574 
891	 0.21768761610942 
892	 0.217274714449281 
893	 0.216683259685774 
894	 0.21580352010163 
895	 0.214992714986476 
896	 0.21444901283535 
897	 0.213383794409242 
898	 0.213141490095283 
899	 0.213040033670675 
900	 0.212168028982321 
901	 0.2114383031261 
902	 0.211096394969072 
903	 0.210775895360718 
904	 0.210059986597587 
905	 0.209561562600311 
906	 0.209148536824885 
907	 0.208585135287237 
908	 0.20766952615232 
909	 0.206881850253985 
910	 0.2060753013717 
911	 0.205156120399789 
912	 0.204194303665857 
913	 0.203763998494924 
914	 0.202760002438965 
915	 0.201264560569594 
916	 0.20071486318219 
917	 0.199451904696277 
918	 0.198252288429826 
919	 0.197404411917631 
920	 0.196118504553585 
921	 0.194741568956458 
922	 0.19357857686209 
923	 0.192667933412418 
924	 0.191549805303719 
925	 0.189315011112195 
926	 0.187153902351682 
927	 0.186281488149668 
928	 0.1853554177841 
929	 0.183252905775597 
930	 0.181302877898855 
931	 0.181456205313119 
932	 0.178714514270996 
933	 0.175290120104422 
934	 0.171327453533035 
935	 0.167226481927531 
936	 0.167565561559325 
937	 0.168048912308536 
938	 0.165677840195833 
939	 0.160767272423044 
940	 0.16330981085362 
941	 0.162026588440554 
942	 0.158047193744128 
943	 0.157722997273825 
944	 0.157122703776533 
945	 0.155511790008101 
946	 0.152753190857185 
947	 0.149813002583228 
948	 0.151452685162499 
949	 0.148601374173134 
950	 0.142851826583437 
951	 0.141690033704948 
952	 0.140245083710044 
953	 0.138565074654603 
954	 0.137259076116777 
955	 0.136831213858234 
956	 0.13624430480345 
957	 0.134424316712021 
958	 0.131618444913362 
959	 0.129167938538766 
960	 0.129251582573653 
961	 0.129261708023309 
962	 0.129128791732406 
963	 0.130234882714855 
964	 0.128069794542062 
965	 0.126184804735935 
966	 0.126376600068753 
967	 0.1280139864582 
968	 0.127143752876447 
969	 0.125895945471011 
970	 0.125692232069097 
971	 0.12658772351959 
972	 0.127580985574364 
973	 0.126689187059861 
974	 0.125121874082814 
975	 0.12650420737527 
976	 0.127244628077363 
977	 0.126912473405285 
978	 0.125991644225993 
979	 0.125545685837611 
980	 0.127332454778526 
981	 0.128803490770873 
982	 0.129056927196413 
983	 0.128999141346435 
984	 0.128838584996961 
985	 0.1286680428287 
986	 0.128937929594077 
987	 0.130007654466317 
988	 0.129542937913975 
989	 0.129906086419001 
990	 0.130987414376187 
991	 0.130813751725728 
992	 0.130627088657827 
993	 0.130408063957996 
994	 0.13025699340254 
995	 0.130655196394888 
996	 0.133644847728563 
997	 0.135087517445671 
998	 0.13458040408282 
999	 0.134412993698712 
1000	 0.135485135646299 
1001	 0.134685336745682 
1002	 0.134829401477411 
1003	 0.135512907098593 
1004	 0.136746073061164 
1005	 0.13757193427515 
1006	 0.138420823160681 
1007	 0.139387495298597 
1008	 0.139802516749065 
1009	 0.140247610455338 
1010	 0.14093086869865 
1011	 0.141370340093378 
1012	 0.141897817803697 
1013	 0.142698006163708 
1014	 0.143515658848796 
1015	 0.14453793317422 
1016	 0.145385944941002 
1017	 0.146144124355284 
1018	 0.146943055491291 
1019	 0.14773112437532 
1020	 0.148392975304146 
1021	 0.148855806483163 
1022	 0.149894601713285 
1023	 0.150584443788815 
1024	 0.151060523110857 
1025	 0.151518878269566 
1026	 0.152231983644991 
1027	 0.152975255706631 
1028	 0.153746181678432 
1029	 0.154529542224784 
1030	 0.155506781282376 
1031	 0.156238128508287 
1032	 0.156780105682473 
1033	 0.157478616986404 
1034	 0.15821681851202 
1035	 0.158886803519712 
1036	 0.159488694560467 
1037	 0.16020837718861 
1038	 0.160711271084329 
1039	 0.161728827009954 
1040	 0.162784982257767 
1041	 0.163817166686381 
1042	 0.164461127787809 
1043	 0.16483676625827 
1044	 0.165372275459429 
1045	 0.165666308306112 
1046	 0.166144512184427 
1047	 0.16688190519355 
1048	 0.167435259751954 
1049	 0.168009418711825 
1050	 0.168343497506096 
1051	 0.168341260283266 
1052	 0.16865084133746 
1053	 0.168871582242146 
1054	 0.169232822377233 
1055	 0.170091050302729 
1056	 0.170642599463901 
1057	 0.171075315808547 
1058	 0.171351620965199 
1059	 0.171671817404625 
1060	 0.17179869433774 
1061	 0.172160165396671 
1062	 0.172758129999617 
1063	 0.173032538701254 
1064	 0.1733691212081 
1065	 0.173416785479801 
1066	 0.17296613197416 
1067	 0.172866414648017 
1068	 0.172747436046174 
1069	 0.172719136814707 
1070	 0.173175896999257 
1071	 0.173145364763664 
1072	 0.172846971354206 
1073	 0.172473187168715 
1074	 0.172190083695822 
1075	 0.171592463496281 
1076	 0.171393090203799 
1077	 0.171664678211059 
1078	 0.171383015912151 
1079	 0.170856151841733 
1080	 0.170508220782591 
1081	 0.16993214784718 
1082	 0.169543068919475 
1083	 0.169439031207708 
1084	 0.169221019538317 
1085	 0.169022354105898 
1086	 0.168651431663282 
1087	 0.168245734771746 
1088	 0.167699729740351 
1089	 0.166581149712404 
1090	 0.166136365857658 
1091	 0.165604998019475 
1092	 0.165160210204465 
1093	 0.164707713916511 
1094	 0.164472702649196 
1095	 0.163853908452626 
1096	 0.16304654265862 
1097	 0.162259184355763 
1098	 0.161054806619964 
1099	 0.160375904655365 
1100	 0.160231757100319 
1101	 0.159461516798962 
1102	 0.158469254167941 
1103	 0.157785564263396 
1104	 0.156843067756978 
1105	 0.155768629691015 
1106	 0.155906435134698 
1107	 0.156190815651716 
1108	 0.154926198386082 
1109	 0.153761471084608 
1110	 0.15290392177355 
1111	 0.15082738692051 
1112	 0.150282256501453 
1113	 0.152235271805489 
1114	 0.152300913805502 
1115	 0.151952062918536 
1116	 0.151203583232784 
1117	 0.147991188307472 
1118	 0.146575452855651 
1119	 0.147991426792729 
1120	 0.147131016604387 
1121	 0.147162536183438 
1122	 0.142456588417869 
1123	 0.139088913796844 
1124	 0.137919285957393 
1125	 0.134862418843296 
1126	 0.13559030893808 
1127	 0.135093554194148 
1128	 0.129624337143522 
1129	 0.128663089067174 
1130	 0.132914988786428 
1131	 0.130548847685191 
1132	 0.125887795715545 
1133	 0.123123300801705 
1134	 0.118261674575941 
1135	 0.11608930737357 
1136	 0.116147860560224 
1137	 0.115330964430191 
1138	 0.11550777479824 
1139	 0.113201311793638 
1140	 0.109904514911884 
1141	 0.108519385059467 
1142	 0.105066249653759 
1143	 0.101760637961737 
1144	 0.102341622650034 
1145	 0.102009080623654 
1146	 0.0994820274123 
1147	 9.72815493102079E-02 
1148	 9.34983325128729E-02 
1149	 8.91848394233483E-02 
1150	 8.71067319495663E-02 
1151	 8.76215803542974E-02 
1152	 8.69371496946394E-02 
1153	 8.62042165788109E-02 
1154	 8.53007316131566E-02 
1155	 0.084561758703768 
1156	 8.36431361880567E-02 
1157	 8.19937496432084E-02 
1158	 8.21835263855076E-02 
1159	 8.22479844216366E-02 
1160	 8.15384439004027E-02 
1161	 8.16016563066807E-02 
1162	 8.11196473162869E-02 
1163	 8.00297051053983E-02 
1164	 0.08016372294275 
1165	 8.07288809357196E-02 
1166	 0.080676244754704 
1167	 8.06499656840577E-02 
1168	 8.02624999057734E-02 
1169	 7.94477402237517E-02 
1170	 7.95796639575979E-02 
1171	 0.079633479307902 
1172	 8.00511708291942E-02 
1173	 8.00092524729346E-02 
1174	 7.98573389864308E-02 
1175	 7.97807323865117E-02 
1176	 7.93580585030929E-02 
1177	 7.94767903710863E-02 
1178	 7.99696531974611E-02 
1179	 7.97088060653287E-02 
1180	 7.90558369196623E-02 
1181	 7.89754874838204E-02 
1182	 7.90417356768838E-02 
1183	 7.87250403167537E-02 
1184	 7.86722603299672E-02 
1185	 7.88719097456773E-02 
1186	 7.87289898255901E-02 
1187	 7.85788130909323E-02 
1188	 7.86415415334456E-02 
1189	 7.84517441313072E-02 
1190	 7.81927706336558E-02 
1191	 7.81020505380283E-02 
1192	 7.80390524224619E-02 
1193	 7.80993880386489E-02 
1194	 7.82109636142326E-02 
1195	 7.82179814806684E-02 
1196	 7.82701136933767E-02 
1197	 7.82093934003288E-02 
1198	 7.80879120126853E-02 
1199	 7.81192278502593E-02 
1200	 7.80274784171054E-02 
1201	 7.80625070360492E-02 
1202	 7.83502483649174E-02 
1203	 7.84386154209465E-02 
1204	 7.83099733263961E-02 
1205	 7.84278383664332E-02 
1206	 7.85836131057183E-02 
1207	 7.86566340998282E-02 
1208	 7.88906302402393E-02 
1209	 7.91172964138994E-02 
1210	 7.92998838487108E-02 
1211	 7.93063719757784E-02 
1212	 7.91368208347476E-02 
1213	 7.90829332894235E-02 
1214	 7.92158936950146E-02 
1215	 7.94306952841644E-02 
1216	 7.95775311026058E-02 
1217	 7.97471284690903E-02 
1218	 8.01735475825223E-02 
1219	 8.02669401067096E-02 
1220	 8.00982782224988E-02 
1221	 8.01604306835724E-02 
1222	 8.02826731821661E-02 
1223	 8.03392134909258E-02 
1224	 0.080507404165651 
1225	 0.080868746519701 
1226	 8.10352397014609E-02 
1227	 8.08340116135288E-02 
1228	 8.06918853321002E-02 
1229	 8.08118897020398E-02 
1230	 8.10554695833248E-02 
1231	 8.13664644928244E-02 
1232	 8.15927967130906E-02 
1233	 8.15932546841974E-02 
1234	 8.16639786446063E-02 
1235	 8.17851110878448E-02 
1236	 8.18620310798517E-02 
1237	 8.19292336888269E-02 
1238	 8.21558140761161E-02 
1239	 8.22335591458908E-02 
1240	 8.21002704267648E-02 
1241	 8.22959192548382E-02 
1242	 8.24567914116122E-02 
1243	 8.25916771567664E-02 
1244	 8.30490702836556E-02 
1245	 8.32307804398311E-02 
1246	 0.083276972591867 
1247	 8.36042374915306E-02 
1248	 8.37648378667626E-02 
1249	 8.37844141614609E-02 
1250	 0.083909151181693 
1251	 8.39765320282878E-02 
1252	 8.38334749836136E-02 
1253	 8.36165666012001E-02 
1254	 8.39182933661366E-02 
1255	 0.084456958843702 
1256	 0.084559680925048 
1257	 0.084391105031387 
1258	 8.44461060351399E-02 
1259	 8.43062334364087E-02 
1260	 8.42959235488207E-02 
1261	 8.46292798824397E-02 
1262	 8.46931570582025E-02 
1263	 8.46459177835782E-02 
1264	 8.44515691625502E-02 
1265	 8.43025142716532E-02 
1266	 8.44807571157784E-02 
1267	 8.45902602140856E-02 
1268	 8.41910392567626E-02 
1269	 8.39488394350711E-02 
1270	 8.40633140488656E-02 
1271	 8.39764838709733E-02 
1272	 0.083986271021168 
1273	 8.39774474642446E-02 
1274	 8.36649089271169E-02 
1275	 8.35109325766724E-02 
1276	 8.33504004491357E-02 
1277	 8.32122341362761E-02 
1278	 8.30248564220041E-02 
1279	 8.26647558290115E-02 
1280	 8.24731401658941E-02 
1281	 8.23010851752506E-02 
1282	 8.21465853309201E-02 
1283	 8.18439464603965E-02 
1284	 8.15761344515095E-02 
1285	 8.13056421731319E-02 
1286	 8.07821564554885E-02 
1287	 8.04367181160868E-02 
1288	 0.080344455232361 
1289	 8.00489675112915E-02 
1290	 7.95961621511738E-02 
1291	 7.93686930329722E-02 
1292	 0.079147491006911 
1293	 7.85617289474058E-02 
1294	 7.82384499208767E-02 
1295	 7.79632461803835E-02 
1296	 7.73590333976025E-02 
1297	 7.68974388572589E-02 
1298	 7.63947753103227E-02 
1299	 7.57017517589502E-02 
1300	 7.50143805701157E-02 
1301	 7.43252406172223E-02 
1302	 7.37661244039385E-02 
1303	 7.33060428050763E-02 
1304	 7.28778109090477E-02 
1305	 7.26237374844443E-02 
1306	 7.20692262872252E-02 
1307	 7.11214174978477E-02 
1308	 7.06265808396616E-02 
1309	 7.04556724919274E-02 
1310	 6.95272182585138E-02 
1311	 6.81614092682205E-02 
1312	 6.74977848252805E-02 
1313	 0.066735987122216 
1314	 6.59759411676785E-02 
1315	 6.59848523436666E-02 
1316	 6.55682755572121E-02 
1317	 6.45204514404651E-02 
1318	 6.36360703892907E-02 
1319	 6.29783630088809E-02 
1320	 6.23648445977444E-02 
1321	 0.061643950462819 
1322	 6.07451651560719E-02 
1323	 6.00927004065694E-02 
1324	 5.95665482635531E-02 
1325	 5.89830337626808E-02 
1326	 5.84380700385481E-02 
1327	 5.78073658230462E-02 
1328	 5.70193135014521E-02 
1329	 5.60670019581579E-02 
1330	 5.56775504285172E-02 
1331	 5.56816254893295E-02 
1332	 5.51372083632675E-02 
1333	 5.45136181637772E-02 
1334	 5.39695984346629E-02 
1335	 5.33072231347104E-02 
1336	 5.23753318854365E-02 
1337	 5.20487561812552E-02 
1338	 5.20770501028105E-02 
1339	 0.051966293827969 
1340	 5.22183695173854E-02 
1341	 5.21107610425728E-02 
1342	 5.19435399388945E-02 
1343	 5.14981469956881E-02 
1344	 4.99523308784674E-02 
1345	 4.94300282738501E-02 
1346	 4.95516329341913E-02 
1347	 0.049486534380874 
1348	 0.051655434349394 
1349	 5.27761203685593E-02 
1350	 5.01972846905037E-02 
1351	 5.03289195737793E-02 
1352	 5.59212716864914E-02 
1353	 5.78035107733932E-02 
1354	 6.43120128264864E-02 
1355	 5.84920862668331E-02 
1356	 5.68144795390466E-02 
1357	 7.92408522875251E-02 
1358	 0.078708959525462 
1359	 9.55546532014138E-02 
1360	 0.118046753665995 
1361	 0.12203240927177 
1362	 0.222110677255287 
1363	 0.277837296847927 
1364	 0.295158790637587 
1365	 0.31464803359374 
1366	 0.264656468562391 
1367	 0.307993921255832 
1368	 0.225616577754486 
1369	-0.139328996968762 
1370	-0.100008337885219 
1371	 0.163360241332805 
1372	 0.178294294763675 
1373	 0.207086603192595 
1374	 0.311403565157019 
1375	 0.356124119281104 
1376	 0.298085539931438 
1377	 0.324724275284352 
1378	 0.375884765483573 
1379	 0.217467938574344 
1380	 9.30558511573513E-02 
1381	 0.27801816785726 
1382	 0.333416134984358 
1383	 0.15966677035695 
1384	 0.076766452912819 
1385	 0.105913188891581 
1386	 0.133492325400241 
1387	 0.093512549759156 
1388	 6.65016636837915E-02 
1389	 0.108618838220914 
1390	 0.136663848264424 
1391	 0.114447818123175 
1392	 0.181779410266246 
1393	 5.09876893413513E-02 
1394	-0.210500654339185 
1395	-0.54035311869326 
1396	-0.557188687137141 
1397	 8.32765194400666E-02 
1398	 0.257135516726813 
1399	 0.168554953314649 
1400	 1.01287220319031E-02 
1401	 9.85928358251419E-02 
1402	 0.245802007067562 
1403	 0.195786863492554 
1404	 0.147411161994443 
1405	 0.169739591393116 
1406	 0.104766830123605 
1407	 3.05144266916414E-02 
1408	 6.53002701656927E-02 
1409	 7.50172545738499E-02 
1410	 1.55845760613412E-02 
1411	-2.19317263234134E-02 
1412	-1.76983171211892E-02 
1413	 1.30344394185268E-02 
1414	 3.80455614187659E-02 
1415	 1.57069137745025E-02 
1416	 1.34962569122248E-03 
1417	 2.29551598620327E-02 
1418	 2.93468799123992E-02 
1419	 2.25016369495431E-02 
1420	 4.42681049925112E-02 
1421	 4.58775704254169E-02 
1422	 2.04092123353818E-02 
1423	 7.49050400945196E-03 
1424	 2.3217602575945E-03 
1425	 4.33312699673553E-03 
1426	 3.90610951520661E-03 
1427	 3.56079188631507E-03 
1428	 1.32285529380676E-02 
1429	 1.51187786356856E-02 
1430	 6.60623402761101E-03 
1431	 6.99381119179412E-03 
1432	 1.56761489005148E-02 
1433	 1.65314272510064E-02 
1434	 1.37210228929214E-02 
1435	 1.47660545421284E-02 
1436	 1.52096807099562E-02 
1437	 1.20437183859669E-02 
1438	 1.50097632909622E-02 
1439	 2.17817312996239E-02 
1440	 2.29623122934752E-02 
1441	 2.11667816227078E-02 
1442	 2.21393475391659E-02 
1443	 2.24355816101929E-02 
1444	 2.00956349865328E-02 
1445	 1.84141073660248E-02 
1446	 1.81409401319106E-02 
1447	 1.65576678099516E-02 
1448	 1.58863952752902E-02 
1449	 1.63491982568474E-02 
1450	 1.61768260008984E-02 
1451	 1.60991131642642E-02 
1452	 1.58292238946076E-02 
1453	 1.57427347752372E-02 
1454	 1.62154523923116E-02 
1455	 1.74581063965156E-02 
1456	 1.69134737798226E-02 
1457	 1.53554768096351E-02 
1458	 1.59995693729041E-02 
1459	 1.73509179810504E-02 
1460	 1.70617185709353E-02 
1461	 1.71674294717997E-02 
1462	 1.73854428767755E-02 
1463	 1.62805071081305E-02 
1464	 1.50291496521987E-02 
1465	 1.40906993982687E-02 
1466	 1.46355105978838E-02 
1467	 1.48660469651778E-02 
1468	 1.47872770700277E-02 
1469	 1.70315712123036E-02 
1470	 1.80198299241338E-02 
1471	 1.65972751209877E-02 
1472	 1.65261398363925E-02 
1473	 1.85569484423899E-02 
1474	 1.85730247322676E-02 
1475	 1.62720922185021E-02 
1476	 1.63240451725699E-02 
1477	 1.77868021806549E-02 
1478	 1.76299772943793E-02 
1479	 1.75688125037631E-02 
1480	 1.72884931654383E-02 
1481	 1.54273932924819E-02 
1482	 1.51709565186194E-02 
1483	 1.63880881726519E-02 
1484	 1.66737534956022E-02 
1485	 1.67032474738432E-02 
1486	 1.68441328870438E-02 
1487	 1.69253264705321E-02 
1488	 1.67150037622766E-02 
1489	 1.60912400779367E-02 
1490	 1.64203369980188E-02 
1491	 1.73029962033046E-02 
1492	 1.73736286736191E-02 
1493	 1.73538944437847E-02 
1494	 1.76531048953134E-02 
1495	 1.78229964796876E-02 
1496	 1.77025878069446E-02 
1497	 1.77703175399581E-02 
1498	 1.79269859258479E-02 
1499	 1.76065568884418E-02 
1500	 1.75437504853817E-02 
1501	 1.78550327447709E-02 
1502	 1.81128173339667E-02 
1503	 1.84891116789258E-02 
1504	 1.85870371225336E-02 
1505	 1.84394935795377E-02 
1506	 1.87023773526832E-02 
1507	 1.90654143339652E-02 
1508	 1.87744512661486E-02 
1509	 1.88325596579166E-02 
1510	 1.92752446383359E-02 
1511	 1.89586909284437E-02 
1512	 0.018726972355625 
1513	 1.89707470169426E-02 
1514	 1.88876639059872E-02 
1515	 1.90759452292572E-02 
1516	 1.96204659242274E-02 
1517	 1.97267298134382E-02 
1518	 1.96604255480768E-02 
1519	 1.97323614431085E-02 
1520	 1.95946603721896E-02 
1521	 1.94042165971831E-02 
1522	 1.95900021215635E-02 
1523	 1.98630408929985E-02 
1524	 2.00341351115848E-02 
1525	 2.02948975682042E-02 
1526	 0.020413071013248 
1527	 2.04023776432583E-02 
1528	 0.020528899246625 
1529	 2.05350895280758E-02 
1530	 2.04815817645205E-02 
1531	 2.07428966048444E-02 
1532	 2.09961375820411E-02 
1533	 2.09324268162453E-02 
1534	 2.09224412121114E-02 
1535	 2.08992605669984E-02 
1536	 0.020717259491201 
1537	 2.10750116991022E-02 
1538	 2.17516897827653E-02 
1539	 2.19066460592125E-02 
1540	 2.17842851578546E-02 
1541	 0.021880165895689 
1542	 2.21398893901233E-02 
1543	 2.23484321336003E-02 
1544	 0.022556788811778 
1545	 2.25271592736761E-02 
1546	 2.23642996001211E-02 
1547	 2.24759248658778E-02 
1548	 2.27292003333283E-02 
1549	 2.28919266773231E-02 
1550	 2.27614441170732E-02 
1551	 2.26745068144968E-02 
1552	 2.29062329552005E-02 
1553	 0.023194394532356 
1554	 2.33200852555396E-02 
1555	 2.32774993939599E-02 
1556	 2.33681703275791E-02 
1557	 2.37736081136253E-02 
1558	 2.40888971780261E-02 
1559	 2.39390040655091E-02 
1560	 2.37297298467579E-02 
1561	 0.023723162592308 
1562	 2.37270473215247E-02 
1563	 2.38379605038811E-02 
1564	 2.41925641869966E-02 
1565	 2.44332765390967E-02 
1566	 2.43280383857064E-02 
1567	 2.42932200836923E-02 
1568	 2.45361772856557E-02 
1569	 2.47503017088305E-02 
1570	 2.45837176860885E-02 
1571	 2.45687791436891E-02 
1572	 2.49161449064894E-02 
1573	 2.48748415074965E-02 
1574	 2.49478765371553E-02 
1575	 2.53151596506044E-02 
1576	 2.53093771589778E-02 
1577	 2.54115260733696E-02 
1578	 2.58322031490335E-02 
1579	 2.63006914347784E-02 
1580	 2.66258155387877E-02 
1581	 2.63648008251242E-02 
1582	 2.60975048087758E-02 
1583	 2.62552993135529E-02 
1584	 2.63512347988478E-02 
1585	 2.64348030241486E-02 
1586	 2.64402512860582E-02 
1587	 2.64187158978405E-02 
1588	 2.65006270211354E-02 
1589	 2.65761492164158E-02 
1590	 0.026879429267836 
1591	 2.70889916122093E-02 
1592	 2.69575765938753E-02 
1593	 2.70990250035497E-02 
1594	 2.74816171736434E-02 
1595	 2.76555235543421E-02 
1596	 2.77382018751696E-02 
1597	 2.78085692599219E-02 
1598	 2.77863377207506E-02 
1599	 2.75591350796444E-02 
1600	 2.73577314578224E-02 
1601	 2.78078214575376E-02 
1602	 2.83653035604668E-02 
1603	 2.82393086211697E-02 
1604	 2.81857452606207E-02 
1605	 2.82345375394538E-02 
1606	 2.79725719398795E-02 
1607	 2.81596116377125E-02 
1608	 2.85239237001484E-02 
1609	 2.84953787784595E-02 
1610	 2.87055045967486E-02 
1611	 2.90577846103639E-02 
1612	 2.90018722485277E-02 
1613	 2.90481639897309E-02 
1614	 2.92108030913612E-02 
1615	 2.90924195769393E-02 
1616	 2.91158882277516E-02 
1617	 2.90706890546023E-02 
1618	 2.87591338547903E-02 
1619	 2.88333094472019E-02 
1620	 2.91842279882334E-02 
1621	 2.92967006497985E-02 
1622	 0.029218810526536 
1623	 2.91976361250087E-02 
1624	 2.93705787211737E-02 
1625	 2.96790160658625E-02 
1626	 2.99220147855216E-02 
1627	 3.00549593432459E-02 
1628	 2.99624531209238E-02 
1629	 2.96725651211888E-02 
1630	 2.98489821821227E-02 
1631	 3.00170551971184E-02 
1632	 0.029539497032961 
1633	 2.95329842428389E-02 
1634	 2.99381171712831E-02 
1635	 2.97554903320567E-02 
1636	 2.97120877312145E-02 
1637	 3.00242333488205E-02 
1638	 2.98834320483457E-02 
1639	 0.029814915137858 
1640	 3.01687904667116E-02 
1641	 3.04165973831059E-02 
1642	 3.03447397416219E-02 
1643	 2.98887711855184E-02 
1644	 2.98618709598078E-02 
1645	 3.04026450810631E-02 
1646	 0.030425304788263 
1647	 3.04786975459958E-02 
1648	 3.07486721470385E-02 
1649	 3.04898171889342E-02 
1650	 3.02428514861894E-02 
1651	 3.01737067278605E-02 
1652	 3.02690862645059E-02 
1653	 3.05983435535162E-02 
1654	 3.06428908113616E-02 
1655	 3.08293848263036E-02 
1656	 3.08693581119571E-02 
1657	 3.04660494392075E-02 
1658	 3.04793805818902E-02 
1659	 3.07765574395404E-02 
1660	 0.030919576739292 
1661	 3.12005888207248E-02 
1662	 3.12161309621105E-02 
1663	 3.10062948736613E-02 
1664	 3.10458591547823E-02 
1665	 0.031100442021157 
1666	 3.09224858002308E-02 
1667	 3.06647185535823E-02 
1668	 3.03973079301027E-02 
1669	 3.06567912408709E-02 
1670	 3.11011910745508E-02 
1671	 3.09903223468196E-02 
1672	 0.030917464805608 
1673	 0.03105441589119 
1674	 3.11080120573167E-02 
1675	 3.12236323672685E-02 
1676	 3.13833949075441E-02 
1677	 3.12053915010654E-02 
1678	 0.031077093860646 
1679	 3.11740994438635E-02 
1680	 0.030919379970356 
1681	 3.10406608428986E-02 
1682	 0.031445697413734 
1683	 3.13274744645024E-02 
1684	 0.031579327469112 
1685	 3.17579552274596E-02 
1686	 3.08741251221735E-02 
1687	 3.05788288881313E-02 
1688	 3.10380053358953E-02 
1689	 3.09187381180262E-02 
1690	 3.12031121814794E-02 
1691	 3.17744074730308E-02 
1692	 3.15510158706148E-02 
1693	 3.15552839515007E-02 
1694	 3.18417087927972E-02 
1695	 3.14247011540367E-02 
1696	 3.10123779950008E-02 
1697	 3.10499474887696E-02 
1698	 3.08716031658734E-02 
1699	 3.09471568496074E-02 
1700	 3.14486571161935E-02 
1701	 3.11534333637479E-02 
1702	 3.04944338454142E-02 
1703	 3.06061331010179E-02 
1704	 3.07565673136773E-02 
1705	 3.08685555931626E-02 
1706	 3.16166986524674E-02 
1707	 3.16999895753954E-02 
1708	 3.09790427930238E-02 
1709	 3.09528307978649E-02 
1710	 3.09768095718012E-02 
1711	 3.04929479794142E-02 
1712	 3.07055554661479E-02 
1713	 3.04734583559394E-02 
1714	 3.03650921350518E-02 
1715	 3.10228199663432E-02 
1716	 3.12634564607691E-02 
1717	 3.10095132776518E-02 
1718	 3.02990614118241E-02 
1719	 2.99216993817398E-02 
1720	 0.029677981270843 
1721	 2.95579180688418E-02 
1722	 3.01832401390979E-02 
1723	 3.01353381715534E-02 
1724	 2.93985027292251E-02 
1725	 2.89923839371117E-02 
1726	 2.88323032238211E-02 
1727	 2.90024904112128E-02 
1728	 2.95000043077122E-02 
1729	 3.02055359130066E-02 
1730	 3.05863870912127E-02 
1731	 3.01509473551678E-02 
1732	 0.02933298151165 
1733	 2.87598405553577E-02 
1734	 2.86930181725502E-02 
1735	 2.86471473591543E-02 
1736	 2.88162971820352E-02 
1737	 2.92304344634428E-02 
1738	 2.88726980493263E-02 
1739	 2.82593601790865E-02 
1740	 2.78319737382656E-02 
1741	 2.76186291092089E-02 
1742	 2.76683607738634E-02 
1743	 2.81953659036731E-02 
1744	 2.92565850682542E-02 
1745	 2.87999855714221E-02 
1746	 2.78838021894183E-02 
1747	 0.027999323743728 
1748	 2.85156317002067E-02 
1749	 2.84698891844056E-02 
1750	 2.85442154592747E-02 
1751	 2.83892084410585E-02 
1752	 2.76273329706374E-02 
1753	 2.73930274427937E-02 
1754	 2.75491788923759E-02 
1755	 2.73640672960677E-02 
1756	 2.68715068566446E-02 
1757	 2.66285829191664E-02 
1758	 2.69591104063104E-02 
1759	 2.70807427972077E-02 
1760	 2.66124493722139E-02 
1761	 2.63207430635027E-02 
1762	 2.62214953587489E-02 
1763	 2.60043030642255E-02 
1764	 2.60871631053488E-02 
1765	 2.62166125796292E-02 
1766	 2.60079809204823E-02 
1767	 2.62896355629964E-02 
1768	 2.67055192133293E-02 
1769	 2.64175585249055E-02 
1770	 2.62707545930196E-02 
1771	 2.61546546906628E-02 
1772	 2.59425318276341E-02 
1773	 2.66253113088815E-02 
1774	 2.68054115023614E-02 
1775	 2.54250067709056E-02 
1776	 2.53929016775419E-02 
1777	 0.025854959281023 
1778	 2.60049457777835E-02 
1779	 2.74480090853772E-02 
1780	 2.74954592977246E-02 
1781	 2.55285509676928E-02 
1782	 2.55329653565759E-02 
1783	 2.68695804545555E-02 
1784	 2.65665673836708E-02 
1785	 2.56787695248803E-02 
1786	 2.55061912386817E-02 
1787	 2.41871284990063E-02 
1788	 2.46861597956542E-02 
1789	 2.80763939742258E-02 
1790	 0.028107685722598 
1791	 2.88164184609001E-02 
1792	 2.79286388031039E-02 
1793	 2.55926428315853E-02 
1794	 2.41869226803038E-02 
1795	 2.15224573290033E-02 
1796	 2.34524172664944E-02 
1797	 2.87831886498412E-02 
1798	 3.21128954027788E-02 
1799	 3.79048600870306E-02 
1800	 0.03152903697102 
1801	 3.01519781847387E-02 
1802	 2.84587297131748E-02 
1803	 3.09309092002738E-02 
1804	 5.05826495218771E-02 
1805	 6.15477489817248E-02 
1806	 7.41201494058247E-02 
1807	 7.76612668367938E-02 
1808	 4.14194387838811E-02 
1809	 3.17474014045383E-02 
1810	 0.031675448514009 
1811	 3.74389380034257E-02 
1812	 0.096453430320166 
1813	 0.124859935639163 
1814	 0.133420272835154 
1815	 0.143645241180774 
1816	 0.110346948719887 
1817	 0.212208294710002 
1818	 0.243464007225782 
1819	 0.323732394161011 
1820	 0.365932357602537 
1821	 0.416049045935054 
1822	 0.330705430240071 
1823	-0.140410629508708 
1824	-0.191316424011201 
1825	-4.14856445197505E-02 
1826	 3.51069170208778E-02 
1827	 0.666155213574874 
1828	 1.05577967333738 
1829	 14.499627664822 
1830	 15.3095483487846 
1831	 0.641395550412616 
1832	 0.917062081167175 
1833	 2.76772076964324 
1834	 5.63277873591634 
1835	 1.61607998408767 
1836	 1.47053139689516 
1837	 1.43223321549839 
1838	 1.94973893327863 
1839	-1.56525641224263 
1840	 0.145392823958178 
1841	 1.22252049009624 
1842	 20.2708715182842 
1843	 355.945026853402 
1844	-0.559821533238392 
1845	-0.14629038688886 
1846	-1.31023723423071 
1847	-1.6473382922096 
1848	 0.447520042884065 
1849	-0.242420409682964 
1850	-0.136521701282781 
1851	 0.164877132679662 
1852	-3.40504367603549E-02 
1853	 0.72019867804487 
1854	 0.861994716212219 
1855	 0.551066345667073 
1856	 0.455592906792767 
1857	 7.6465863878874E-03 
1858	 0.164080585497957 
1859	 0.590276117030199 
1860	 1.43071441516442 
1861	 1.59118760405152 
1862	 4.06629704794381 
1863	 2.73632450182857 
1864	 0.780478994086186 
1865	 0.838026613472028 
1866	 2.81690018060747 
1867	 2.79682527065645 
1868	-23.025931294547 
1869	-1.85149418264719 
1870	-0.230846459498051 
1871	 0.128023542893244 
1872	-0.438481148589482 
1873	-0.720600909032669 
1874	-2.49848725189848 
1875	-1.56688440629112 
1876	-1.22943401996627 
1877	-0.101090939537296 
1878	 0.483764562403408 
1879	-56.8006941639462 
1880	-2.56428778491397 
1881	 2.98759232157017E-02 
1882	 3.10339194891254 
1883	-2.2590421432432 
1884	-11.4985447098747 
1885	 0.881860152839246 
1886	 0.929818009291989 
1887	 0.868130511117295 
1888	 1.19842866234826 
1889	 1.4366768162861 
1890	 0.568693975579872 
1891	 2.27327001026429 
1892	-3.84388556302144 
1893	-1.37162924595273 
1894	-1.80942928367054 
1895	-2.32718061766812 
1896	 2.68757521304737 
1897	 0.709296345227689 
1898	 3.24583700609926 
1899	 4.77556486249257E-02 
1900	 0.273578047669625 
1901	 0.893887508132201 
1902	 1.29247540907909 
1903	-22.0747218069782 
1904	 4.25103218123581E-02 
1905	 0.181176656097405 
1906	 0.468961030886884 
1907	 0.264410843034024 
1908	 6.80421896687323E-02 
1909	-0.620536973168232 
1910	-1.744506399897 
1911	-2.187830355396 
1912	-9.58281548347343 
1913	 5.22317292199293 
1914	 0.320824896770368 
1915	 4.09811494124743E-02 
1916	 0.369360347096943 
1917	 168.316522970456 
1918	-1.53949078406064 
1919	-2.3457574848513 
1920	 67.0838853894896 
1921	-0.446422374905153 
1922	-1.42697110111401 
1923	 2.41922940419622 
1924	 14.5633001587539 
1925	 14.9913189161015 
1926	 3.0724114017843 
1927	 6.15871717499231E-02 
1928	-9.39790541962322 
1929	-4.11002367308829 
1930	-1.44427421895107 
1931	-0.967240694040489 
1932	-0.866409415456886 
1933	-0.301132921325683 
1934	-0.112449333298493 
1935	-5.05969560725078E-02 
1936	 2.13873959638744E-02 
1937	-3.87108795236461E-02 
1938	-0.104138126920296 
1939	-9.78517624641832E-02 
1940	-6.55063925422069E-02 
1941	-5.21969443323628E-02 
1942	-0.045648154093058 
1943	-7.54489042498916E-03 
1944	-2.33024137963696E-02 
1945	-2.55139971488535E-02 
1946	 4.98658339383253E-03 
1947	-4.09644094787513E-03 
1948	-0.011215616846386 
1949	-2.08051407388008E-03 
1950	 1.25477050847372E-02 
1951	 2.31351746312243E-02 
1952	 1.91290224881554E-02 
1953	 1.10342205688174E-02 
1954	 1.18262986555205E-03 
1955	-1.85384058495761E-02 
1956	-2.51211778502454E-02 
1957	-2.85369873190328E-03 
1958	 0.019125330993233 
1959	 3.05109554266241E-02 
1960	 3.20439262140815E-02 
1961	 2.79866973977248E-02 
1962	 2.02215249043648E-02 
1963	 1.22568086861514E-02 
1964	 1.00848332934037E-02 
1965	 7.95262870618278E-03 
1966	 6.8593401928632E-03 
1967	 5.19092478429562E-03 
1968	 8.06246396240608E-03 
1969	 1.16628612372265E-02 
1970	 1.26235121344961E-02 
1971	 1.25823702367823E-02 
1972	 1.32477584933029E-02 
1973	 1.24995007799992E-02 
1974	 1.10924359511181E-02 
1975	 1.16367875677518E-02 
1976	 1.13249343499175E-02 
1977	 9.80311734490494E-03 
1978	 9.51514292356155E-03 
1979	 9.93042210493967E-03 
1980	 1.15036397672388E-02 
1981	 1.13914206214403E-02 
1982	 9.69353540072719E-03 
1983	 9.57444388937374E-03 
1984	 8.9354194672953E-03 
1985	 8.33299334978935E-03 
1986	 9.84046694714775E-03 
1987	 1.03357337149351E-02 
1988	 8.73416045585214E-03 
1989	 7.66508163399911E-03 
1990	 7.68159703107013E-03 
1991	 7.60209636485953E-03 
1992	 8.20957590694252E-03 
1993	 8.31756031249561E-03 
1994	 8.3308710344103E-03 
1995	 7.59643953821333E-03 
1996	 7.70351311323471E-03 
1997	 7.88761871799458E-03 
1998	 9.32134226879307E-03 
1999	 1.16480435378786E-02 
2000	 0.011489219609018 
2001	 1.03453612363827E-02 
2002	 1.01302284818448E-02 
2003	 5.75117556881766E-03 
2004	 2.34224215500494E-03 
2005	 6.0044027808437E-03 
2006	 7.48721277441253E-03 
2007	 9.72923157889121E-03 
2008	 1.70419509056625E-02 
2009	 1.92469163427074E-02 
2010	 1.53252587318487E-02 
2011	 1.37444535829275E-02 
2012	 1.22890698879665E-02 
2013	 1.05696982986586E-02 
2014	 7.84907221810983E-03 
2015	 9.31835764162841E-03 
2016	 1.04656524302337E-02 
2017	 9.27754794553212E-03 
2018	 1.06176109236459E-02 
2019	 1.28121423520874E-02 
2020	 1.43854021358258E-02 
2021	 1.45368120157073E-02 
2022	 1.21914326294237E-02 
2023	 1.00780837658463E-02 
2024	 9.65794560928671E-03 
2025	 9.57064758585746E-03 
2026	 9.90534114953553E-03 
2027	 1.15421480168619E-02 
2028	 1.26366487994006E-02 
2029	 1.21883733624551E-02 
2030	 1.16709507350023E-02 
2031	 1.06212861687318E-02 
2032	 9.16373999259952E-03 
2033	 9.13134030982916E-03 
2034	 1.02725921317905E-02 
2035	 1.10690904142198E-02 
2036	 1.12648212839677E-02 
2037	 1.11050832914409E-02 
2038	 1.02990407462565E-02 
2039	 1.05080750972822E-02 
2040	 1.21208778060935E-02 
2041	 0.01271512908416 
2042	 1.32702417756135E-02 
2043	 1.37369612244458E-02 
2044	 0.014075212785844 
2045	 1.28650478825394E-02 
2046	 1.24358694840754E-02 
2047	 1.27220516773873E-02 
2048	 1.22025858803271E-02 
2049	 1.25313416652389E-02 
2050	 1.33081905795953E-02 
2051	 1.24141275521556E-02 
2052	 1.13049162906449E-02 
2053	 1.09691598873954E-02 
2054	 1.05029836661564E-02 
2055	 1.10659994921976E-02 
2056	 1.14626811805132E-02 
2057	 1.20886880851242E-02 
2058	 1.23435219957776E-02 
2059	 1.23881863330157E-02 
2060	 1.26756433764643E-02 
2061	 1.30761965383947E-02 
2062	 1.34661056483401E-02 
2063	 1.30998106725275E-02 
2064	 1.38509237416286E-02 
2065	 1.43750754786104E-02 
2066	 0.01332962117419 
2067	 1.26648705089194E-02 
2068	 1.30959795201648E-02 
2069	 1.36129575299006E-02 
2070	 1.42438313986236E-02 
2071	 1.47776769371741E-02 
2072	 1.43360341632357E-02 
2073	 0.014228447825725 
2074	 1.29101229199643E-02 
2075	 0.013181843221845 
2076	 1.52998255206509E-02 
2077	 1.58560057990422E-02 
2078	 1.61393644384249E-02 
2079	 1.58045020806027E-02 
2080	 1.47517374169302E-02 
2081	 1.33890259635721E-02 
2082	 0.012305547688427 
2083	 1.27430069931524E-02 
2084	 1.35070225341123E-02 
2085	 1.29263715038183E-02 
2086	 1.33477802089795E-02 
2087	 1.45650171429904E-02 
2088	 1.43574304607002E-02 
2089	 1.43532207713829E-02 
2090	 1.45813114948848E-02 
2091	 1.39691171430052E-02 
2092	 1.34755182749386E-02 
2093	 1.35375487762309E-02 
2094	 0.013216769659874 
2095	 1.18537979741427E-02 
2096	 1.17500129106094E-02 
2097	 1.23963475447814E-02 
2098	 1.31262427716502E-02 
2099	 1.51864106275759E-02 
2100	 1.52437454382767E-02 
2101	 1.43731910811697E-02 
2102	 0.01344352127722 
2103	 1.19217227987747E-02 
2104	 1.18402707547419E-02 
2105	 1.30901692699204E-02 
2106	 1.42805445445063E-02 
2107	 1.38866461862515E-02 
2108	 1.28053113247797E-02 
2109	 1.31373666432486E-02 
2110	 1.33875836503096E-02 
2111	 1.34979108696343E-02 
2112	 1.41040318384172E-02 
2113	 1.43877144603622E-02 
2114	 1.29830494275307E-02 
2115	 1.31180587325553E-02 
2116	 0.015121587651037 
2117	 1.59004069100116E-02 
2118	 1.62556847041011E-02 
2119	 1.65170556091095E-02 
2120	 0.016855361604706 
2121	 1.59894236464547E-02 
2122	 1.52755952481305E-02 
2123	 1.46509365611836E-02 
2124	 1.31591920592114E-02 
2125	 1.25487633893059E-02 
2126	 1.33461786920131E-02 
2127	 1.43199597625922E-02 
2128	 1.47379460062862E-02 
2129	 1.48084382436117E-02 
2130	 1.45086681998145E-02 
2131	 0.014489208079071 
2132	 1.53768602190101E-02 
2133	 0.016366799100626 
2134	 1.68761105378498E-02 
2135	 1.68097559111036E-02 
2136	 0.016621538108122 
2137	 1.62330222933956E-02 
2138	 1.61874126038425E-02 
2139	 1.58017041237229E-02 
2140	 0.015937939799276 
2141	 1.73507340610174E-02 
2142	 1.70254035804334E-02 
2143	 1.56729447095403E-02 
2144	 1.44890211804584E-02 
2145	 1.49883036928713E-02 
2146	 1.46363691116477E-02 
2147	 1.44512906269514E-02 
2148	 1.58984236797482E-02 
2149	 0.015260856315294 
2150	 1.43788512299379E-02 
2151	 1.46694407461854E-02 
2152	 1.51624866856518E-02 
2153	 1.55010242414784E-02 
2154	 1.57323864644055E-02 
2155	 1.67049390016849E-02 
2156	 1.67616065798382E-02 
2157	 1.64458773257977E-02 
2158	 1.47258400402473E-02 
2159	 1.48442004680581E-02 
2160	 1.57615134141672E-02 
2161	 1.61917069848845E-02 
2162	 1.77891371983614E-02 
2163	 1.83537589869323E-02 
2164	 1.73222082644678E-02 
2165	 0.017224477490596 
2166	 1.80152195583992E-02 
2167	 1.78496886677318E-02 
2168	 1.73392644255978E-02 
2169	 0.017253951089174 
2170	 0.01715191337193 
2171	 1.59191838369151E-02 
2172	 1.60557144670906E-02 
2173	 1.56035804653767E-02 
2174	 1.54993834938869E-02 
2175	 1.60352502542074E-02 
2176	 1.45270398787334E-02 
2177	 1.44271208852807E-02 
2178	 1.42481787415317E-02 
2179	 1.23371652858774E-02 
2180	 0.013170200529581 
2181	 1.47440668143753E-02 
2182	 1.68313917077776E-02 
2183	 1.88694517248838E-02 
2184	 1.82719945488786E-02 
2185	 1.59294331248494E-02 
2186	 1.47946573539026E-02 
2187	 1.15694685877744E-02 
2188	 1.20926204291155E-02 
2189	 1.65404698428214E-02 
2190	 1.81195855566721E-02 
2191	 2.03273026919935E-02 
2192	 0.020391310782524 
2193	 0.016657956071015 
2194	 0.016274123580801 
2195	 1.76095446612444E-02 
2196	 1.80708757106034E-02 
2197	 2.03955302853389E-02 
2198	 2.05024264410465E-02 
2199	 1.88876460998094E-02 
2200	 1.62739125170166E-02 
2201	 0.013517481325662 
2202	 0.013837037653813 
2203	 1.61422468593546E-02 
2204	 1.63650654849477E-02 
2205	 1.62007995260158E-02 
2206	 1.68236515434681E-02 
2207	 1.60676450323965E-02 
2208	 1.58098877563873E-02 
2209	 1.69010578841371E-02 
2210	 1.71410599529106E-02 
2211	 1.66057155475459E-02 
2212	 1.52627427898718E-02 
2213	 1.40491955088049E-02 
2214	 1.42882707531193E-02 
2215	 1.50763778579199E-02 
2216	 1.54328409231088E-02 
2217	 1.50546190421598E-02 
2218	 1.36174901517186E-02 
2219	 1.36109140864826E-02 
2220	 1.35149483525912E-02 
2221	 1.40170892230417E-02 
2222	 1.60413131315479E-02 
2223	 1.68548870745176E-02 
2224	 1.69096120788202E-02 
2225	 1.77832670236499E-02 
2226	 1.95872880053368E-02 
2227	 0.019981393263474 
2228	 1.94387673023371E-02 
2229	 1.89976209614739E-02 
2230	 1.77105933564853E-02 
2231	 1.67741718821195E-02 
2232	 1.60677514260611E-02 
2233	 1.63968136741428E-02 
2234	 1.72356741002992E-02 
2235	 1.79712073863603E-02 
2236	 1.84034779795837E-02 
2237	 1.69416155488037E-02 
2238	 1.57494908472848E-02 
2239	 1.37910700138987E-02 
2240	 1.17154486252259E-02 
2241	 1.31865028746724E-02 
2242	 0.014713051919636 
2243	 0.014428033779856 
2244	 1.71284427705244E-02 
2245	 1.99529584691763E-02 
2246	 2.00570902860384E-02 
2247	 1.98692500473626E-02 
2248	 1.85248908639709E-02 
2249	 1.57944865629532E-02 
2250	 1.35489556945479E-02 
2251	 1.47926639611926E-02 
2252	 1.69377320762098E-02 
2253	 0.01692478566892 
2254	 1.74642287660306E-02 
2255	 1.55778092576378E-02 
2256	 1.31174645561601E-02 
2257	 1.52324841661076E-02 
2258	 1.60123059401314E-02 
2259	 1.43343343602264E-02 
2260	 1.36480042006458E-02 
2261	 1.14081467880449E-02 
2262	 1.25198179495249E-02 
2263	 1.66774083710003E-02 
2264	 1.72701588450386E-02 
2265	 1.90500467789189E-02 
2266	 1.84510706909475E-02 
2267	 1.18747677579089E-02 
2268	 0.011662384824145 
2269	 1.52255956211082E-02 
2270	 1.55217344811205E-02 
2271	 1.80291362272395E-02 
2272	 1.83994848549652E-02 
2273	 0.015248062695207 
2274	 1.43171440230752E-02 
2275	 1.28172531986293E-02 
2276	 1.18203048416484E-02 
2277	 1.43850176991258E-02 
2278	 1.33955797227546E-02 
2279	 8.21027964984627E-03 
2280	 7.4228438740103E-03 
2281	 7.73795669675394E-03 
2282	 6.41003304087184E-03 
2283	 0.007012834982341 
2284	 9.79790770621243E-03 
2285	 1.25894016131309E-02 
2286	 1.19697015454787E-02 
2287	 1.37555755663236E-02 
2288	 1.66650403341937E-02 
2289	 1.88643633892753E-02 
2290	 2.17484057997836E-02 
2291	 1.83327991660697E-02 
2292	 1.56662333492583E-02 
2293	 0.012086175196588 
2294	 6.39827867336554E-03 
2295	 8.29571781558341E-03 
2296	 1.42068994945873E-02 
2297	 1.52725519844197E-02 
2298	 1.39146233504667E-02 
2299	 1.43268809347305E-02 
2300	 1.15226693249579E-02 
2301	 1.18445796473035E-02 
2302	 0.013047997740176 
2303	 9.46691825830237E-03 
2304	 1.01347989125234E-02 
2305	 1.41186058364984E-02 
2306	 1.61502799672975E-02 
2307	 1.77300866642561E-02 
2308	 1.77154895483798E-02 
2309	 0.01234796902735 
2310	 8.46195357719441E-03 
2311	 8.0305810905812E-03 
2312	 9.70087600369449E-03 
2313	 1.25320327166022E-02 
2314	 0.010269447501314 
2315	 1.15160120277349E-02 
2316	 1.47245920392578E-02 
2317	 1.30447700732484E-02 
2318	 1.31357513764356E-02 
2319	 1.15619572183911E-02 
2320	 8.34197841615129E-03 
2321	 8.18529244765576E-03 
2322	 1.15251574565785E-02 
2323	 1.41083605870862E-02 
2324	 1.24641414145388E-02 
2325	 0.012191810984489 
2326	 0.011377960182236 
2327	 8.08826633393432E-03 
2328	 8.63747595420553E-03 
2329	 6.6659384958506E-03 
2330	 1.60481203433211E-03 
2331	 6.20086589363002E-03 
2332	 1.02171436407604E-02 
2333	 7.7249423931881E-03 
2334	 9.03410161031202E-03 
2335	 9.98652430791041E-03 
2336	 1.01292275777009E-02 
2337	 8.71382011560055E-03 
2338	 7.71782839953075E-03 
2339	 1.16338052481463E-02 
2340	 6.69764212634828E-03 
2341	 4.08643581162151E-03 
2342	 1.60177649172002E-02 
2343	 0.016134361316986 
2344	 0.009167036493916 
2345	 1.25089653644915E-02 
2346	 7.29235531047955E-03 
2347	-1.61906217281356E-03 
2348	-7.27522036167901E-04 
2349	-3.01062171584306E-03 
2350	-5.87789866758536E-03 
2351	-2.49788625546723E-03 
2352	 6.5918146246624E-03 
2353	 1.76152116983557E-02 
2354	 1.33224686189854E-02 
2355	 2.22553574470943E-03 
2356	-5.74625863148874E-04 
2357	-8.75964015938858E-03 
2358	-1.43322212233589E-02 
2359	-1.04621993744995E-02 
2360	-9.03398158570629E-03 
2361	-4.45066195331311E-03 
2362	 6.03394468082241E-03 
2363	 9.66336974973767E-03 
2364	 9.3410604972923E-03 
2365	 0.016342423496169 
2366	 3.05443494457732E-02 
2367	 4.33233333524367E-02 
2368	 4.13418039091501E-02 
2369	 3.82055518956961E-02 
2370	 3.47020966096728E-02 
2371	 1.72307071849899E-02 
2372	 3.24732985511759E-03 
2373	-8.86620835085354E-03 
2374	-1.46314057930309E-02 
2375	-1.11959667462295E-03 
2376	 8.24153057723904E-03 
2377	-0.002680601725734 
2378	-2.23208973984035E-02 
2379	-3.36304630998552E-02 
2380	-3.91566693867975E-02 
2381	-5.25483940340489E-02 
2382	-5.93824274380057E-02 
2383	-4.74034215866508E-02 
2384	-3.69856398204624E-02 
2385	-2.01684432827204E-02 
2386	-8.60176602065912E-03 
2387	-2.25511065066093E-02 
2388	-4.68311798188747E-02 
2389	-5.83719161154067E-02 
2390	-1.80195162269974E-02 
2391	 6.35996293851696E-03 
2392	 5.80715891758883E-03 
2393	 3.98052141646346E-02 
2394	 3.43671948959184E-02 
2395	 7.4082101317814E-03 
2396	 6.49008623615136E-03 
2397	 1.43538086468442E-02 
2398	 4.14047587241007E-02 
2399	 7.79629619807052E-02 
2400	 9.09027561594498E-02 
2401	 6.19152552073468E-02 
2402	 4.22915144796381E-03 
2403	-3.33033762082061E-02 
2404	-3.16428194290244E-02 
2405	-3.24671434884692E-02 
2406	-3.03735034774456E-02 
2407	-1.13944344753671E-03 
2408	-2.89390968642499E-03 
2409	-0.009544876636786 
2410	 2.39365941551605E-02 
2411	-2.89732194642041E-02 
2412	-0.096354572228839 
2413	-1.86329956663534E-02 
2414	 5.75542141871362E-03 
2415	 5.82798371414876E-02 
2416	 0.155831812723216 
2417	 7.67046912771642E-02 
2418	 1.12655010346767E-02 
2419	 1.02672617255622E-02 
2420	 2.08989504119078E-02 
2421	 2.16564314313879E-02 
2422	 3.19615911724474E-02 
2423	 4.50816948090474E-02 
2424	 1.41192772913855E-02 
2425	 0.028208147960282 
2426	 2.38006680536203E-02 
2427	-7.84181121965852E-02 
2428	-0.150911159731014 
2429	-0.133006278915009 
2430	-0.118328252600303 
2431	-0.109356667664624 
2432	-0.149957157339862 
2433	-0.197460372222244 
2434	-0.198729583732023 
2435	-0.127434465610217 
2436	 1.36983160599665E-02 
2437	 3.15411870818926E-02 
2438	-2.54165178431864E-02 
2439	-7.46215277700106E-02 
2440	-9.55054464759131E-02 
2441	-7.05769047196362E-02 
2442	-0.111042994220015 
2443	-8.50765176864482E-02 
2444	-0.140299066409131 
2445	-0.284565002451701 
2446	-0.283190634823205 
2447	-0.40091681992838 
2448	-0.596100009463496 
2449	-0.907847950623191 
2450	-1.03649178426429 
2451	-1.13265466102193 
2452	-0.535562337116818 
2453	-0.190598279624864 
2454	-0.155135878584856 
2455	 0.141584522361862 
2456	 0.223566140289209 
2457	 5.63391842906405E-02 
2458	 0.157625844316674 
2459	 0.247830741212382 
2460	 0.126068690082889 
2461	 0.192317753676071 
2462	 0.166001436990783 
2463	-0.141118378486915 
2464	-4.69427414419903E-03 
2465	 0.114406831770989 
2466	 0.149336562551899 
2467	 0.18477989947561 
2468	-4.35905881511965E-02 
2469	-0.28002491893052 
2470	-0.285950736667672 
2471	-0.624151251209096 
2472	-1.25027440188188 
2473	-1.60886918753195 
2474	-2.5932949224465 
2475	-1.48673747490892 
2476	-0.361080503136401 
2477	-0.548162020083378 
2478	-0.786650212606034 
2479	-0.355448816447945 
2480	-0.298160762397654 
2481	 0.609978165460892 
2482	 1.96045635971231 
2483	-2.16978694004954 
2484	 4.22113493408437 
2485	-17.6751021465963 
2486	-2.50063695797478 
2487	 4.72984948805564 
2488	-2.60403539807892 
2489	-0.537602098894914 
2490	 0.288862079387982 
2491	 1.42701028357948 
2492	 2.16130274573754 
2493	 0.571551285472375 
2494	 1.18621974282431 
2495	 0.288861416688908 
2496	 0.497291123304079 
2497	-0.344695470291383 
2498	 0.484065857106994 
2499	 0.968844325217445 
2500	-13.3662365712818 
