Wavelength	rt0711a00003.asd
350	 0.157276312589927 
351	 0.15776282774993 
352	 0.158923063627968 
353	 0.16028209822997 
354	 0.161342883261095 
355	 0.161896368416443 
356	 0.163505407767946 
357	 0.164967986832138 
358	 0.165130000587138 
359	 0.166919613470667 
360	 0.168070036141276 
361	 0.168388620785578 
362	 0.169156431396606 
363	 0.170281123218013 
364	 0.17146891944127 
365	 0.172379589183142 
366	 0.172639145012688 
367	 0.173349025304831 
368	 0.174363988642719 
369	 0.175317296478223 
370	 0.176405141329793 
371	 0.177280482449687 
372	 0.178018602165838 
373	 0.17889299369681 
374	 0.179546102279341 
375	 0.180111089445506 
376	 0.180717082938295 
377	 0.181411255880537 
378	 0.181912515183804 
379	 0.182753556833601 
380	 0.184054158362758 
381	 0.184059854148058 
382	 0.184583145574753 
383	 0.185389609553549 
384	 0.185504907193114 
385	 0.1862936691901 
386	 0.18712226548443 
387	 0.187574550187201 
388	 0.187700218117898 
389	 0.188441587556762 
390	 0.189086085567448 
391	 0.189155655964342 
392	 0.189545245049527 
393	 0.189676693412195 
394	 0.189906239117368 
395	 0.19062187342842 
396	 0.190580114372232 
397	 0.190499572021521 
398	 0.190791973064477 
399	 0.191449299685807 
400	 0.19150240142985 
401	 0.191484643651742 
402	 0.191754197626953 
403	 0.191752436561076 
404	 0.191674085494636 
405	 0.191652841216832 
406	 0.191762826909361 
407	 0.191870773134178 
408	 0.191744257663657 
409	 0.19158239451414 
410	 0.191942006524191 
411	 0.191796723599706 
412	 0.191693986974199 
413	 0.191983238362077 
414	 0.191851831382476 
415	 0.191726002378335 
416	 0.191711433392896 
417	 0.191767425549621 
418	 0.191766412351898 
419	 0.191832187976492 
420	 0.191936890490277 
421	 0.191885755248949 
422	 0.192073236568753 
423	 0.192202685912075 
424	 0.192108415990072 
425	 0.192386446633485 
426	 0.192710743498988 
427	 0.193052597062106 
428	 0.193506502346666 
429	 0.194001781401055 
430	 0.194475243767226 
431	 0.194904817622873 
432	 0.195318056002176 
433	 0.195802738564407 
434	 0.196332804515195 
435	 0.196824710705723 
436	 0.197098783182608 
437	 0.197380886239801 
438	 0.197726676214852 
439	 0.198066747813479 
440	 0.198173263133031 
441	 0.198245980594282 
442	 0.19840625887212 
443	 0.19859428238034 
444	 0.198701471622234 
445	 0.19869181610185 
446	 0.198611614277618 
447	 0.198716943262523 
448	 0.198749208019343 
449	 0.198678006350309 
450	 0.198643467585837 
451	 0.198583347862047 
452	 0.198493395890687 
453	 0.198394454608236 
454	 0.198348261407087 
455	 0.198245324767224 
456	 0.198173689594275 
457	 0.198224358818553 
458	 0.198112084980849 
459	 0.197980355074214 
460	 0.197881542639499 
461	 0.197757324920165 
462	 0.197650226728473 
463	 0.19756268144662 
464	 0.197468199432765 
465	 0.197270752767926 
466	 0.197162823325036 
467	 0.197122424470417 
468	 0.197027541181508 
469	 0.196902159747808 
470	 0.196808655749357 
471	 0.196777121317775 
472	 0.196790718856825 
473	 0.196715178442035 
474	 0.196576781061145 
475	 0.196466803753848 
476	 0.196529156176707 
477	 0.196634959969587 
478	 0.196640524772468 
479	 0.196447506990844 
480	 0.196512156967134 
481	 0.196637597367556 
482	 0.19664419361392 
483	 0.196552397548288 
484	 0.196650505670863 
485	 0.196875438383239 
486	 0.197059483671305 
487	 0.197306558257517 
488	 0.197588346771873 
489	 0.197859936597182 
490	 0.198075010985489 
491	 0.198325605047191 
492	 0.198680564065292 
493	 0.199097806562168 
494	 0.199234964658715 
495	 0.199564205046785 
496	 0.199980608058046 
497	 0.20014421150731 
498	 0.200420083193916 
499	 0.20077331135537 
500	 0.201154788249298 
501	 0.201563050336334 
502	 0.201891490210221 
503	 0.202159349562461 
504	 0.202432875365193 
505	 0.202796954257575 
506	 0.203081157651897 
507	 0.203253750997882 
508	 0.203408376556276 
509	 0.203692723380935 
510	 0.204045231000318 
511	 0.204385436294362 
512	 0.204678441068166 
513	 0.205004643548606 
514	 0.205356293941293 
515	 0.205712770738175 
516	 0.206255383650719 
517	 0.20686849324757 
518	 0.207489652221115 
519	 0.208160872801036 
520	 0.208834340711538 
521	 0.209562511370017 
522	 0.210391033337149 
523	 0.211243143748144 
524	 0.21214491589487 
525	 0.213106851146393 
526	 0.214141908485067 
527	 0.2153999248703 
528	 0.216712862006832 
529	 0.217974393436822 
530	 0.219291925730576 
531	 0.220659959289132 
532	 0.222139897588974 
533	 0.223773145168668 
534	 0.225398744088628 
535	 0.227101989348279 
536	 0.228887952828617 
537	 0.230645452704137 
538	 0.232545650728679 
539	 0.234519315816555 
540	 0.236471456675447 
541	 0.238437453057391 
542	 0.240375184224555 
543	 0.242272591799209 
544	 0.244145788888826 
545	 0.245994402710663 
546	 0.247833794530985 
547	 0.249659331472203 
548	 0.251436213308182 
549	 0.253100142699087 
550	 0.254714049859158 
551	 0.256365543305831 
552	 0.257966118297871 
553	 0.259477196502094 
554	 0.260935002504633 
555	 0.262442424200962 
556	 0.263808890285204 
557	 0.265158878141967 
558	 0.266612812030523 
559	 0.268080497613376 
560	 0.269496900707106 
561	 0.270900551175692 
562	 0.272396329685093 
563	 0.273927259226982 
564	 0.27543963455866 
565	 0.276927797099986 
566	 0.278489812194816 
567	 0.280007149703088 
568	 0.281450241637928 
569	 0.282815905547986 
570	 0.284079847417537 
571	 0.285227436222435 
572	 0.286231841104801 
573	 0.287055578759836 
574	 0.287924728951422 
575	 0.288806709174248 
576	 0.289607254215244 
577	 0.290264822669579 
578	 0.290952482743402 
579	 0.291624481907707 
580	 0.292125680407862 
581	 0.292677061194984 
582	 0.293162902577084 
583	 0.293536840906571 
584	 0.293945631304317 
585	 0.294377406313193 
586	 0.29485674573786 
587	 0.295404383150435 
588	 0.29594595774921 
589	 0.296479513221845 
590	 0.29692609765959 
591	 0.297172564033228 
592	 0.297364219849185 
593	 0.29758118709806 
594	 0.297808425283209 
595	 0.297818059780807 
596	 0.297752891723991 
597	 0.297681661257032 
598	 0.297620580341628 
599	 0.297506984162986 
600	 0.297368311261035 
601	 0.297272198419306 
602	 0.297334555432415 
603	 0.297477337196984 
604	 0.297650312560505 
605	 0.297823446406955 
606	 0.29802532362634 
607	 0.298263533165465 
608	 0.298548508017231 
609	 0.29888650309987 
610	 0.29911814070771 
611	 0.299301862312104 
612	 0.299509938761473 
613	 0.299693511961569 
614	 0.299925017189706 
615	 0.30021871071673 
616	 0.300538757634315 
617	 0.300787507617383 
618	 0.301047700924503 
619	 0.30132582673752 
620	 0.301460760625061 
621	 0.301635582465531 
622	 0.301868423514727 
623	 0.302129876427693 
624	 0.302451997026802 
625	 0.302730103458127 
626	 0.302992550046257 
627	 0.30338104696085 
628	 0.303632537464587 
629	 0.303778369867117 
630	 0.303882234690349 
631	 0.30388855052937 
632	 0.304090467386892 
633	 0.304388858413492 
634	 0.304534008108623 
635	 0.304760422140505 
636	 0.30497219457729 
637	 0.305125300006699 
638	 0.305293294368714 
639	 0.305471904932277 
640	 0.305653125710908 
641	 0.305829460647894 
642	 0.306012940121708 
643	 0.306232477909192 
644	 0.306455800026276 
645	 0.306611007999329 
646	 0.30688762804885 
647	 0.307110745326018 
648	 0.307156202479994 
649	 0.307165602363675 
650	 0.307194418340703 
651	 0.307175229528655 
652	 0.307012011227718 
653	 0.306805510707544 
654	 0.306525796205264 
655	 0.306187119464099 
656	 0.305920311039637 
657	 0.305555569223639 
658	 0.305086081212609 
659	 0.304571309302398 
660	 0.304216085548064 
661	 0.303911595272462 
662	 0.303591257471137 
663	 0.303234906303184 
664	 0.30296396973207 
665	 0.302701197799837 
666	 0.302403266065705 
667	 0.302135553684434 
668	 0.301941977654791 
669	 0.301823098124166 
670	 0.301749750508974 
671	 0.30163817215113 
672	 0.301605350553253 
673	 0.301654426013065 
674	 0.301684205206222 
675	 0.301861972800704 
676	 0.302103553410192 
677	 0.302324971238227 
678	 0.302551407045315 
679	 0.302896487317736 
680	 0.303338908597808 
681	 0.303800816036881 
682	 0.304321862198989 
683	 0.304834756811162 
684	 0.305407584361422 
685	 0.306372575074339 
686	 0.307355620577458 
687	 0.308114373679435 
688	 0.308554583486674 
689	 0.308915356758088 
690	 0.309278215369838 
691	 0.309646016176962 
692	 0.309964363042779 
693	 0.310167023985942 
694	 0.309974871486595 
695	 0.309504549197876 
696	 0.309460125212654 
697	 0.309375792556788 
698	 0.309212129981861 
699	 0.309017135054696 
700	 0.308657325117403 
701	 0.308129951192958 
702	 0.307511928230572 
703	 0.30690896733964 
704	 0.306252481130068 
705	 0.305499937368504 
706	 0.304659115638154 
707	 0.303788953176567 
708	 0.302893910849542 
709	 0.301867634012735 
710	 0.300612050101934 
711	 0.29931809393381 
712	 0.298062031188988 
713	 0.296847129947549 
714	 0.295586655818002 
715	 0.294623063421882 
716	 0.293644750246672 
717	 0.292261951783843 
718	 0.290423391787994 
719	 0.288091512598315 
720	 0.285853108353168 
721	 0.283929347378582 
722	 0.282480707356004 
723	 0.280811356292227 
724	 0.278773001048032 
725	 0.276618716036053 
726	 0.274253116144092 
727	 0.271580132802267 
728	 0.268626954789393 
729	 0.265693680303817 
730	 0.262261512058868 
731	 0.258693106895433 
732	 0.25556425468029 
733	 0.252986969134424 
734	 0.25088899078896 
735	 0.249130337259861 
736	 0.247459227914052 
737	 0.246122905817555 
738	 0.245103108864028 
739	 0.244320551331418 
740	 0.243636979866743 
741	 0.243234836213249 
742	 0.242982122070597 
743	 0.242621695000309 
744	 0.242387011740797 
745	 0.242356318980159 
746	 0.242411880917555 
747	 0.242202231936075 
748	 0.2421816167056 
749	 0.24220051199862 
750	 0.242080459268566 
751	 0.242074124672909 
752	 0.242064343405083 
753	 0.242049359338724 
754	 0.242083396840501 
755	 0.242089271895635 
756	 0.242329216115695 
757	 0.242909167992897 
758	 0.243876545346284 
759	 0.244906361256917 
760	 0.245926990050517 
761	 0.24650082099489 
762	 0.246532277745574 
763	 0.245948592875525 
764	 0.24512550011839 
765	 0.24447321658131 
766	 0.244129332096743 
767	 0.24398244177659 
768	 0.243958382601465 
769	 0.244018944586742 
770	 0.244166042787377 
771	 0.244400209386156 
772	 0.244708085158952 
773	 0.245052545560666 
774	 0.245357662253204 
775	 0.245644145107618 
776	 0.245990791525989 
777	 0.24649702483252 
778	 0.246961086734819 
779	 0.247364633620049 
780	 0.247891746210143 
781	 0.248466654268459 
782	 0.248989664474874 
783	 0.249461612560462 
784	 0.250119764210731 
785	 0.250822701227036 
786	 0.251604255053241 
787	 0.252483521213075 
788	 0.253141961903179 
789	 0.253687195992481 
790	 0.254187233576163 
791	 0.254676259239288 
792	 0.2552802870208 
793	 0.255880717592264 
794	 0.256444947357086 
795	 0.257126241001194 
796	 0.257762890999531 
797	 0.258333802278389 
798	 0.258862291777878 
799	 0.259299051443971 
800	 0.259744308460806 
801	 0.260193863361557 
802	 0.260575075021974 
803	 0.26078751937775 
804	 0.260862827089413 
805	 0.260929910874286 
806	 0.261184142002499 
807	 0.261280704077985 
808	 0.261367616237054 
809	 0.261582090462209 
810	 0.261793477897101 
811	 0.261925285292684 
812	 0.261939304223553 
813	 0.261793971525491 
814	 0.261346882193803 
815	 0.260801967431696 
816	 0.260146019873017 
817	 0.25919823021824 
818	 0.258082133316877 
819	 0.257280902703057 
820	 0.256599833159113 
821	 0.255031867295105 
822	 0.25300419313303 
823	 0.251032480506601 
824	 0.249353348931529 
825	 0.247401835182657 
826	 0.244917248976353 
827	 0.242194579908905 
828	 0.239781203469825 
829	 0.237054632578179 
830	 0.234564259902578 
831	 0.232459867725912 
832	 0.230599014376277 
833	 0.229042093857396 
834	 0.227644368243678 
835	 0.226430650323485 
836	 0.22568005089501 
837	 0.224854076585444 
838	 0.224108770863804 
839	 0.223573282619694 
840	 0.222890607897316 
841	 0.222280610553307 
842	 0.221738524491478 
843	 0.221226725819959 
844	 0.220955015781827 
845	 0.220555590896093 
846	 0.220019735749502 
847	 0.219584402909103 
848	 0.219131672181097 
849	 0.21873314041063 
850	 0.218446962892338 
851	 0.218265150045126 
852	 0.217648028955555 
853	 0.217015282618841 
854	 0.216705600791681 
855	 0.216394636829546 
856	 0.2162043085808 
857	 0.21600372647459 
858	 0.2156745929381 
859	 0.215377576276509 
860	 0.21500109288691 
861	 0.214629970501051 
862	 0.214386662836329 
863	 0.214007343680915 
864	 0.213610297313113 
865	 0.213211743593732 
866	 0.212747638518144 
867	 0.212582190118522 
868	 0.212284211117504 
869	 0.211776585818289 
870	 0.211556011749743 
871	 0.211130331094975 
872	 0.210528902998982 
873	 0.209941346822198 
874	 0.20965299464502 
875	 0.209237701575516 
876	 0.208737020687965 
877	 0.208260537892106 
878	 0.207552555695119 
879	 0.207146994680138 
880	 0.206895901433582 
881	 0.206384093840467 
882	 0.20577091237608 
883	 0.20525124247099 
884	 0.204848605033613 
885	 0.204440513500603 
886	 0.203887013167001 
887	 0.203517367587666 
888	 0.203352984108951 
889	 0.203031768586301 
890	 0.202687548248688 
891	 0.202597846057654 
892	 0.202803870736646 
893	 0.202860469795057 
894	 0.20268374153605 
895	 0.202403892141821 
896	 0.202166014227606 
897	 0.201897193417548 
898	 0.201348396625546 
899	 0.200916747401985 
900	 0.200898767009287 
901	 0.200515112847502 
902	 0.200033005627143 
903	 0.199573905702178 
904	 0.199190869528399 
905	 0.198945279128606 
906	 0.19843592484357 
907	 0.197553707262802 
908	 0.196611731108861 
909	 0.19694677736842 
910	 0.196761844826713 
911	 0.195906634129256 
912	 0.195785138395052 
913	 0.195193737569118 
914	 0.19404457035323 
915	 0.192583130553398 
916	 0.191252224401817 
917	 0.190559817306511 
918	 0.189838624967689 
919	 0.188919706939513 
920	 0.188492021584321 
921	 0.187377319576634 
922	 0.186279958678358 
923	 0.185838572813256 
924	 0.185773743483514 
925	 0.185449898391414 
926	 0.18507616294326 
927	 0.184822285466451 
928	 0.183592166786903 
929	 0.183512735357299 
930	 0.183958217037904 
931	 0.182911693925136 
932	 0.181562387775327 
933	 0.177557303658568 
934	 0.175564652537134 
935	 0.179257081163926 
936	 0.176451981482616 
937	 0.17560109111187 
938	 0.17731527420073 
939	 0.179102851540592 
940	 0.178074849820177 
941	 0.176951871788013 
942	 0.176298490473561 
943	 0.175467819958204 
944	 0.173768742200316 
945	 0.173411574863261 
946	 0.173588201453057 
947	 0.172401964232827 
948	 0.174016191289692 
949	 0.173273836650145 
950	 0.171128029651251 
951	 0.171779997674318 
952	 0.172210803760327 
953	 0.170992661444177 
954	 0.169243279119513 
955	 0.169329768666246 
956	 0.170376120396539 
957	 0.170377740260732 
958	 0.169561094388999 
959	 0.169469711382829 
960	 0.168587293463048 
961	 0.168192319172118 
962	 0.167889339696441 
963	 0.166516542613048 
964	 0.167363304078551 
965	 0.167814677807811 
966	 0.167099388894224 
967	 0.166361341255886 
968	 0.167284669277912 
969	 0.166891894338739 
970	 0.16536663660868 
971	 0.165615364283796 
972	 0.166430838778276 
973	 0.166131833315803 
974	 0.164921006845736 
975	 0.16469704100267 
976	 0.164508119033659 
977	 0.165824046896999 
978	 0.166740001251924 
979	 0.163745645102195 
980	 0.164875365345192 
981	 0.165413049507263 
982	 0.1641264207589 
983	 0.163655559657286 
984	 0.164397499657515 
985	 0.163800925488909 
986	 0.162594116872327 
987	 0.16368360649044 
988	 0.164120439813318 
989	 0.164713162566252 
990	 0.16527435364645 
991	 0.164822430584189 
992	 0.163756449620813 
993	 0.164153590118062 
994	 0.164708159155247 
995	 0.16281947322473 
996	 0.163566299464396 
997	 0.164129255814761 
998	 0.163341641251359 
999	 0.162265501457953 
1000	 0.16554430249118 
1001	 5.61147981697967E-02 
1002	 5.54879437346558E-02 
1003	 5.49587055680084E-02 
1004	 0.051965830694146 
1005	 5.11138750939074E-02 
1006	 0.052621498517128 
1007	 5.21973093362267E-02 
1008	 5.18081868024576E-02 
1009	 5.10079272180144E-02 
1010	 4.92164467949538E-02 
1011	 4.86602725268806E-02 
1012	 4.78169404072768E-02 
1013	 4.73751202048169E-02 
1014	 4.71690145594222E-02 
1015	 4.74805178865677E-02 
1016	 4.74837452467286E-02 
1017	 4.77454650677143E-02 
1018	 4.76095816459804E-02 
1019	 4.71409892453786E-02 
1020	 4.70069848320698E-02 
1021	 4.67849409541315E-02 
1022	 4.66232467345621E-02 
1023	 0.046411069753323 
1024	 4.67318112015776E-02 
1025	 0.0475064768924 
1026	 0.048461468436513 
1027	 5.00637335560808E-02 
1028	 5.30717518767009E-02 
1029	 5.45461093567384E-02 
1030	 5.59105062339618E-02 
1031	 5.68750427165144E-02 
1032	 5.69603914437061E-02 
1033	 5.73675324747148E-02 
1034	 5.75076880563008E-02 
1035	 5.79094435710245E-02 
1036	 5.84674529043851E-02 
1037	 5.89297994265252E-02 
1038	 5.93897875829186E-02 
1039	 6.00639691118439E-02 
1040	 0.060543005128007 
1041	 6.17064158594542E-02 
1042	 6.30665724219622E-02 
1043	 6.49956121454125E-02 
1044	 6.68102534971705E-02 
1045	 6.89658714090547E-02 
1046	 7.07093783294735E-02 
1047	 7.27193951827853E-02 
1048	 7.39469038702459E-02 
1049	 7.50443582657101E-02 
1050	 7.53429963079116E-02 
1051	 7.49056377392293E-02 
1052	 7.41982132911321E-02 
1053	 7.24838563701781E-02 
1054	 7.11650936751208E-02 
1055	 6.96561774444341E-02 
1056	 6.82945841726422E-02 
1057	 6.70306596305114E-02 
1058	 0.065907660081763 
1059	 6.48661202232665E-02 
1060	 6.36481124064568E-02 
1061	 0.063125687991108 
1062	 0.062811936375089 
1063	 6.30328735284048E-02 
1064	 6.42102555990547E-02 
1065	 6.47703748793309E-02 
1066	 6.55131423729476E-02 
1067	 6.60542109581646E-02 
1068	 0.065834590746164 
1069	 6.64311042054118E-02 
1070	 6.77151929348636E-02 
1071	 6.86436229806177E-02 
1072	 7.03411282211867E-02 
1073	 7.10410603250912E-02 
1074	 7.15585025716804E-02 
1075	 7.14169936930208E-02 
1076	 7.16737275121944E-02 
1077	 7.15947102343487E-02 
1078	 7.21191156465591E-02 
1079	 7.28911040075303E-02 
1080	 7.39046812888649E-02 
1081	 7.54181187826698E-02 
1082	 7.66374757841509E-02 
1083	 7.84711983411615E-02 
1084	 7.93341523882305E-02 
1085	 7.99434851383406E-02 
1086	 7.99294267397132E-02 
1087	 7.86791817336582E-02 
1088	 7.77695272250842E-02 
1089	 0.076710239399745 
1090	 7.50873509028465E-02 
1091	 7.43420518612335E-02 
1092	 7.39197590598169E-02 
1093	 7.37511795749561E-02 
1094	 0.074103900575666 
1095	 7.44317099923654E-02 
1096	 7.50883984026041E-02 
1097	 7.56786613539519E-02 
1098	 0.077065016944615 
1099	 7.71455068407178E-02 
1100	 7.65602515766452E-02 
1101	 7.56483504210545E-02 
1102	 7.32813530128206E-02 
1103	 7.14314423393914E-02 
1104	 6.91755820716403E-02 
1105	 6.79958460197347E-02 
1106	 6.58441750431433E-02 
1107	 6.42453838606313E-02 
1108	 6.37082650372627E-02 
1109	 6.37145844158275E-02 
1110	 6.35116596889876E-02 
1111	 6.46163093995463E-02 
1112	 6.47502025756994E-02 
1113	 6.38945987131622E-02 
1114	 6.31422642828407E-02 
1115	 6.23177609145872E-02 
1116	 6.13412064776348E-02 
1117	 5.90435832587336E-02 
1118	 5.77650188087338E-02 
1119	 5.81699938735809E-02 
1120	 5.72003283917223E-02 
1121	 5.51148193615022E-02 
1122	 5.58092953925009E-02 
1123	 5.51322863059878E-02 
1124	 5.33214015766735E-02 
1125	 5.47561973615157E-02 
1126	 5.82478931239796E-02 
1127	 0.059501921662227 
1128	 0.059435400021028 
1129	 5.96627237676963E-02 
1130	 5.82078080084971E-02 
1131	 5.88039163724143E-02 
