Wavelength	rt0711a00000.asd
350	 6.21482802075312E-02 
351	 6.32275454465455E-02 
352	 6.43847380830365E-02 
353	 6.55352079222885E-02 
354	 6.65074608415836E-02 
355	 6.65450078550503E-02 
356	 6.73701334984285E-02 
357	 6.86974442174714E-02 
358	 6.97952088369535E-02 
359	 7.11428407800635E-02 
360	 0.071601252096748 
361	 7.16129132337102E-02 
362	 7.25596468522261E-02 
363	 7.36646213844088E-02 
364	 7.43932214448045E-02 
365	 7.47592725575611E-02 
366	 7.55221766415153E-02 
367	 7.63287845369161E-02 
368	 7.70539608421392E-02 
369	 0.077760521180326 
370	 7.90415193757081E-02 
371	 7.98255432248134E-02 
372	 8.02699861755779E-02 
373	 8.11359744280315E-02 
374	 8.14930509938505E-02 
375	 8.21098897093899E-02 
376	 8.30818377746366E-02 
377	 8.33952039361994E-02 
378	 8.36627420536236E-02 
379	 8.43113059737949E-02 
380	 0.085355958234911 
381	 8.57373620543015E-02 
382	 8.61880617720888E-02 
383	 8.66893187664437E-02 
384	 8.69307895347051E-02 
385	 8.72304095694249E-02 
386	 8.76261867624066E-02 
387	 8.81092520306027E-02 
388	 8.86392915039416E-02 
389	 8.90176880854899E-02 
390	 8.90181884610971E-02 
391	 8.87715239094772E-02 
392	 8.92340890144522E-02 
393	 8.95554534718594E-02 
394	 8.95945072071965E-02 
395	 8.95035446932426E-02 
396	 8.93914765519158E-02 
397	 8.90089441174645E-02 
398	 8.86323041305624E-02 
399	 8.89112164794642E-02 
400	 8.86790047035869E-02 
401	 8.84460171547247E-02 
402	 8.84939322847419E-02 
403	 8.79676870001102E-02 
404	 8.77385347947325E-02 
405	 0.087640657296959 
406	 8.72490765041343E-02 
407	 8.70512599030315E-02 
408	 8.67011096317857E-02 
409	 0.086231999010606 
410	 8.60586497774379E-02 
411	 8.56312891603964E-02 
412	 0.085210205862295 
413	 8.49696438844968E-02 
414	 8.45260976391757E-02 
415	 8.40621236044567E-02 
416	 8.37403798694768E-02 
417	 8.36172079073012E-02 
418	 8.31495548182282E-02 
419	 0.082845554448144 
420	 8.27236526241113E-02 
421	 8.22294717741602E-02 
422	 8.20632036964702E-02 
423	 8.20075971675556E-02 
424	 0.081828539361732 
425	 8.17768731973823E-02 
426	 8.18740645525086E-02 
427	 8.20732660626443E-02 
428	 0.082302346463265 
429	 8.26595309977261E-02 
430	 8.28730750910456E-02 
431	 8.29629250787301E-02 
432	 8.33150053817658E-02 
433	 8.37166505613415E-02 
434	 0.083972352016646 
435	 8.40513882954764E-02 
436	 8.43944457592703E-02 
437	 8.46130424101158E-02 
438	 8.46460792257756E-02 
439	 8.46196889610124E-02 
440	 8.45700176634207E-02 
441	 0.084484874090244 
442	 8.43388911313801E-02 
443	 8.40938776553017E-02 
444	 0.083944714556659 
445	 8.37846582165556E-02 
446	 8.34892717299964E-02 
447	 0.083209291696499 
448	 8.29189300840105E-02 
449	 8.26112455419427E-02 
450	 8.22941158003498E-02 
451	 8.19617655464014E-02 
452	 8.16786568376192E-02 
453	 8.14300779491687E-02 
454	 8.10126893465571E-02 
455	 8.06974461399723E-02 
456	 8.04297669036129E-02 
457	 8.00781949262344E-02 
458	 7.97897727101575E-02 
459	 7.94610425192126E-02 
460	 7.90687990990192E-02 
461	 7.86852046169493E-02 
462	 7.83569206140603E-02 
463	 7.80432402646427E-02 
464	 7.76924948913641E-02 
465	 7.72605680195938E-02 
466	 7.69729065028065E-02 
467	 7.67235291765293E-02 
468	 7.62947699005162E-02 
469	 7.60100909266003E-02 
470	 7.57096997999449E-02 
471	 0.075359430111458 
472	 7.51507862789609E-02 
473	 7.48603949941545E-02 
474	 7.45541112543442E-02 
475	 7.43246740722311E-02 
476	 7.40720492632597E-02 
477	 0.073909785494524 
478	 7.37850769305883E-02 
479	 7.35544917078829E-02 
480	 7.34175349685019E-02 
481	 7.34343055302554E-02 
482	 7.35130297755232E-02 
483	 7.32742713209006E-02 
484	 7.32876893303394E-02 
485	 7.34237772162955E-02 
486	 7.33808194020286E-02 
487	 7.34585159134345E-02 
488	 7.35749159165148E-02 
489	 7.36790781285614E-02 
490	 7.37744857214324E-02 
491	 7.39527477067487E-02 
492	 7.41725106438315E-02 
493	 7.43806111119165E-02 
494	 7.45645782220916E-02 
495	 7.48156925609847E-02 
496	 7.50634058367153E-02 
497	 7.51916291383239E-02 
498	 7.54572043282012E-02 
499	 7.57004019935366E-02 
500	 7.58611742371631E-02 
501	 7.60984665145397E-02 
502	 7.63005435964275E-02 
503	 7.64415231261911E-02 
504	 7.65482271061719E-02 
505	 7.67462276599532E-02 
506	 7.69470662107011E-02 
507	 7.70998351095997E-02 
508	 7.72019770867407E-02 
509	 7.74475665880702E-02 
510	 7.76902623191546E-02 
511	 7.78379910099147E-02 
512	 7.80489743160841E-02 
513	 7.83457392618358E-02 
514	 7.87392091357157E-02 
515	 7.92011759926369E-02 
516	 7.95495184575556E-02 
517	 8.00143825010503E-02 
518	 8.06212271938941E-02 
519	 8.11055729733525E-02 
520	 8.17037338935669E-02 
521	 0.082427626209552 
522	 8.32400252123069E-02 
523	 8.41080358667258E-02 
524	 0.085042812603064 
525	 8.60578119144338E-02 
526	 8.71718416273666E-02 
527	 8.84261154155619E-02 
528	 8.96798616096253E-02 
529	 9.09206988246872E-02 
530	 0.092456494561578 
531	 9.40077171832694E-02 
532	 0.095641950625796 
533	 9.74853603297386E-02 
534	 9.92632975373227E-02 
535	 0.101119114838022 
536	 0.103133366594204 
537	 0.105272837150499 
538	 0.107410689430171 
539	 0.10960468610834 
540	 0.111889918264904 
541	 0.114079371530861 
542	 0.116243833869845 
543	 0.118417205568529 
544	 0.12060576022548 
545	 0.122685496230296 
546	 0.124720870794053 
547	 0.126752689461338 
548	 0.128742532925892 
549	 0.130573617730086 
550	 0.132305117582787 
551	 0.13404351243093 
552	 0.135720248706572 
553	 0.137305056622803 
554	 0.138843227911504 
555	 0.140448734344712 
556	 0.141981442004336 
557	 0.143506704577045 
558	 0.145092042491798 
559	 0.14671147261837 
560	 0.148309343870625 
561	 0.149896850634722 
562	 0.151530047863487 
563	 0.153128150536375 
564	 0.154753750048191 
565	 0.156406515456443 
566	 0.157934166589195 
567	 0.159460048955402 
568	 0.160947104702511 
569	 0.162309916658352 
570	 0.163553875936609 
571	 0.164775406793469 
572	 0.165935616927635 
573	 0.166852763949092 
574	 0.167820627350172 
575	 0.168818366784059 
576	 0.169758956957087 
577	 0.170626693014936 
578	 0.171409058598779 
579	 0.17215887640442 
580	 0.172953456108174 
581	 0.173672023597637 
582	 0.174343594132539 
583	 0.17500366245798 
584	 0.17566810266455 
585	 0.176183523539825 
586	 0.176635956435376 
587	 0.177171002894245 
588	 0.177682839646151 
589	 0.178116490056267 
590	 0.178483692517534 
591	 0.178885002184276 
592	 0.179182402722358 
593	 0.179460943544086 
594	 0.179772367666229 
595	 0.179957355852155 
596	 0.180073444353393 
597	 0.180160628446568 
598	 0.180248262926136 
599	 0.180344485475537 
600	 0.180458891171255 
601	 0.180605772520737 
602	 0.18081056915612 
603	 0.181040659556805 
604	 0.181263524026481 
605	 0.181463080485027 
606	 0.181691062379437 
607	 0.182018522306541 
608	 0.182407835876886 
609	 0.182709675785494 
610	 0.182927576819746 
611	 0.183144518058285 
612	 0.183406451754807 
613	 0.183585589380739 
614	 0.183776725220264 
615	 0.184037191987239 
616	 0.184370612826419 
617	 0.18454967431646 
618	 0.184773822381134 
619	 0.185113217977821 
620	 0.185352698567009 
621	 0.185547464709066 
622	 0.185769865187016 
623	 0.186060042099285 
624	 0.186253213529374 
625	 0.186446372842293 
626	 0.186674257189761 
627	 0.186904272877751 
628	 0.187200588299812 
629	 0.187453146152448 
630	 0.187602133181808 
631	 0.187781357989765 
632	 0.188060689458722 
633	 0.188371210400135 
634	 0.188588102962511 
635	 0.188761229901736 
636	 0.188956228514217 
637	 0.189193807588895 
638	 0.189433796072257 
639	 0.18960753709487 
640	 0.189746557992327 
641	 0.189904023256786 
642	 0.19007264057882 
643	 0.190307594946121 
644	 0.19051235093549 
645	 0.190489484845848 
646	 0.190567168037597 
647	 0.190686233510743 
648	 0.190766273732238 
649	 0.19084775053577 
650	 0.190959069495099 
651	 0.191022102729887 
652	 0.19094433172633 
653	 0.190855534922345 
654	 0.190686400201493 
655	 0.190411960218362 
656	 0.190130865621766 
657	 0.18978658691732 
658	 0.189454914988771 
659	 0.189181738210376 
660	 0.188901307513385 
661	 0.188590760111427 
662	 0.188242309618251 
663	 0.187872851556546 
664	 0.187558170801032 
665	 0.187250006161004 
666	 0.186958975830602 
667	 0.186851814397286 
668	 0.18659262280186 
669	 0.186382439696609 
670	 0.186467939925208 
671	 0.186366192442375 
672	 0.186289617434967 
673	 0.18631444969401 
674	 0.18636797573837 
675	 0.186604866233796 
676	 0.186885043201536 
677	 0.187108629819749 
678	 0.187407982958127 
679	 0.18780776490413 
680	 0.188263192913482 
681	 0.188710384079942 
682	 0.18922117291677 
683	 0.189839888514029 
684	 0.190525607180987 
685	 0.191188602946143 
686	 0.191826267076302 
687	 0.192499578903304 
688	 0.193209684915573 
689	 0.193829175822492 
690	 0.194368478546194 
691	 0.194859047899678 
692	 0.195332098969067 
693	 0.195600733829386 
694	 0.195789428578411 
695	 0.195994308530733 
696	 0.196209837842488 
697	 0.19622775682968 
698	 0.196155453731096 
699	 0.196131831120672 
700	 0.195915801707473 
701	 0.195690598160413 
702	 0.195513018575344 
703	 0.195303148083741 
704	 0.194900135340579 
705	 0.194378467753255 
706	 0.193843314933863 
707	 0.1933665366837 
708	 0.19272910056514 
709	 0.191951085248201 
710	 0.191122329765701 
711	 0.19016801868991 
712	 0.189087093292047 
713	 0.187908390313602 
714	 0.186656565960535 
715	 0.185347649357625 
716	 0.183893608859212 
717	 0.182306869630339 
718	 0.180705192264932 
719	 0.179051595022587 
720	 0.177612023517962 
721	 0.176331369169988 
722	 0.174705299262747 
723	 0.172923129299225 
724	 0.171185168280671 
725	 0.169139441229296 
726	 0.167066168976464 
727	 0.16488531003527 
728	 0.162473717194024 
729	 0.159695702601221 
730	 0.156788716708633 
731	 0.154052880594655 
732	 0.15161927644218 
733	 0.149346827871491 
734	 0.147431263321547 
735	 0.14590305761633 
736	 0.144518308501684 
737	 0.143368801837934 
738	 0.142566577725755 
739	 0.142127247442052 
740	 0.141698953388911 
741	 0.141522358794745 
742	 0.141446061470506 
743	 0.141183800287763 
744	 0.141168322447092 
745	 0.141221895460089 
746	 0.141197924390475 
747	 0.141076872604481 
748	 0.141103577240995 
749	 0.141158839246378 
750	 0.141120664694967 
751	 0.141198970803498 
752	 0.141228518491423 
753	 0.141176587387095 
754	 0.141110931953143 
755	 0.141243326932951 
756	 0.141336724555941 
757	 0.141302907431033 
758	 0.141324037913209 
759	 0.141569189040714 
760	 0.141932951952203 
761	 0.141964034701724 
762	 0.142032610798379 
763	 0.142104732765492 
764	 0.14225981519609 
765	 0.142534130324539 
766	 0.142711993285815 
767	 0.142886646347259 
768	 0.143110900859538 
769	 0.143385126887674 
770	 0.143592223046273 
771	 0.143878419993607 
772	 0.144312936207001 
773	 0.144618513015422 
774	 0.14490181363694 
775	 0.145237460231025 
776	 0.145664644413178 
777	 0.146062151011711 
778	 0.146402313626925 
779	 0.146784410263288 
780	 0.147401827497573 
781	 0.147868024231994 
782	 0.148324944966668 
783	 0.148880724277905 
784	 0.14933764433543 
785	 0.14986213581573 
786	 0.15044767811076 
787	 0.151028122860011 
788	 0.151595254904025 
789	 0.152104735821503 
790	 0.152599439058334 
791	 0.153184167926497 
792	 0.153751887275849 
793	 0.154349570598329 
794	 0.154943689280046 
795	 0.155320571933544 
796	 0.155825864412862 
797	 0.156377505924101 
798	 0.156832914496244 
799	 0.157225495562117 
800	 0.157586662354468 
801	 0.157989765584067 
802	 0.158476685014401 
803	 0.158713589746433 
804	 0.158812805132473 
805	 0.158885199620268 
806	 0.15898286781223 
807	 0.159061739835969 
808	 0.158972553521737 
809	 0.15868972085571 
810	 0.158558744373674 
811	 0.158205692525919 
812	 0.157733702814497 
813	 0.157385374716255 
814	 0.156929048292459 
815	 0.156360699284038 
816	 0.155771503333628 
817	 0.155245100531188 
818	 0.154311123092301 
819	 0.153357233058045 
820	 0.152468087652944 
821	 0.151302931596568 
822	 0.149598456309276 
823	 0.147690057251519 
824	 0.145898456557829 
825	 0.143908274731776 
826	 0.141595164630606 
827	 0.139018513052836 
828	 0.136443950519711 
829	 0.133735161965612 
830	 0.131379332898166 
831	 0.129423819105914 
832	 0.127628569904705 
833	 0.126114618490833 
834	 0.124775415015611 
835	 0.123643519102253 
836	 0.122970264072586 
837	 0.122262666867017 
838	 0.121614350366209 
839	 0.121114343836435 
840	 0.120469668528107 
841	 0.120014071020129 
842	 0.119543198111104 
843	 0.118850800671852 
844	 0.118712934505841 
845	 0.118335917411117 
846	 0.117669679344445 
847	 0.117202120753962 
848	 0.116918389807134 
849	 0.116500070242936 
850	 0.115896820274137 
851	 0.115438232124422 
852	 0.115213056644715 
853	 0.114891109665707 
854	 0.114324067307251 
855	 0.113930636380309 
856	 0.113492470839678 
857	 0.11316325343548 
858	 0.113040802503421 
859	 0.112694696634263 
860	 0.112307449685038 
861	 0.111942697168236 
862	 0.1115668716005 
863	 0.110955108662604 
864	 0.110623966152989 
865	 0.110550042217841 
866	 0.110185431937724 
867	 0.109503448043133 
868	 0.108855605107964 
869	 0.108418667168043 
870	 0.108066903409707 
871	 0.107585550455494 
872	 0.107009587778782 
873	 0.106427830249002 
874	 0.105897253427745 
875	 0.105415048414352 
876	 0.104956959829888 
877	 0.104425376514337 
878	 0.103465084209599 
879	 0.10286158648448 
880	 0.1024628997467 
881	 0.101779025895841 
882	 0.101297811377284 
883	 0.100697923492471 
884	 0.100025113684328 
885	 9.95687738420501E-02 
886	 9.89486710223097E-02 
887	 9.83784943512037E-02 
888	 9.78199706914227E-02 
889	 9.69362826328201E-02 
890	 9.63860579929637E-02 
891	 9.62124205979478E-02 
892	 0.096072285942948 
893	 9.51472625817038E-02 
894	 9.47818174410304E-02 
895	 9.42338603823496E-02 
896	 9.29883231785153E-02 
897	 9.31542706625917E-02 
898	 9.28075211311475E-02 
899	 9.22530797313749E-02 
900	 9.20985708190365E-02 
901	 9.10422803094111E-02 
902	 9.04044812616952E-02 
903	 9.01440481939612E-02 
904	 8.96687835809542E-02 
905	 8.85414890991148E-02 
906	 8.80536056514215E-02 
907	 8.78157548669015E-02 
908	 0.086531893584824 
909	 0.086262661183732 
910	 8.55961050138704E-02 
911	 8.44126652938898E-02 
912	 8.38806480515321E-02 
913	 8.30931398151428E-02 
914	 0.082066720668141 
915	 8.07807051461214E-02 
916	 7.91297398060068E-02 
917	 7.81107578704401E-02 
918	 7.74645515961536E-02 
919	 7.67874641973129E-02 
920	 7.57977547974247E-02 
921	 7.40555451785417E-02 
922	 7.23696724734361E-02 
923	 7.11945382839112E-02 
924	 6.97155563659319E-02 
925	 6.88934064959704E-02 
926	 6.82892854265535E-02 
927	 6.72483733109513E-02 
928	 6.59555497753666E-02 
929	 6.56673373216914E-02 
930	 6.57196328034495E-02 
931	 0.064354702727999 
932	 6.19886352687818E-02 
933	 5.85967501700944E-02 
934	 0.056102571714144 
935	 5.60018894889211E-02 
936	 5.54101222775752E-02 
937	 5.45960797778526E-02 
938	 5.38990950674282E-02 
939	 5.33269493814281E-02 
940	 5.14225126121383E-02 
941	 5.04083130611948E-02 
942	 5.10070908639341E-02 
943	 5.20365785302458E-02 
944	 4.67510937290035E-02 
945	 4.47277942760124E-02 
946	 4.63665066628538E-02 
947	 4.59900475480399E-02 
948	 4.46593569509997E-02 
949	 4.28751907933533E-02 
950	 4.16117060836838E-02 
951	 4.16308831989614E-02 
952	 4.12717698869022E-02 
953	 4.00966395533418E-02 
954	 3.85420679469936E-02 
955	 3.77312353703895E-02 
956	 3.96934822569419E-02 
957	 4.07463157420933E-02 
958	 3.89188889748449E-02 
959	 3.50045956530376E-02 
960	 3.62062558629185E-02 
961	 3.70796548231469E-02 
962	 3.64012232526926E-02 
963	 3.66433962552859E-02 
964	 3.65031087253207E-02 
965	 3.60941507351291E-02 
966	 3.57948259241826E-02 
967	 3.59009614955016E-02 
968	 3.52910781520817E-02 
969	 3.49402149528849E-02 
970	 3.50093048566891E-02 
971	 3.49401548779681E-02 
972	 3.60345173312254E-02 
973	 3.61276524083171E-02 
974	 3.49424207133563E-02 
975	 3.44040852231745E-02 
976	 3.52467618030219E-02 
977	 0.035654102029667 
978	 3.48927064580909E-02 
979	 3.38115426003779E-02 
980	 3.48641648596611E-02 
981	 3.55536896678274E-02 
982	 3.49108345289109E-02 
983	 3.39671010067477E-02 
984	 3.50804337913734E-02 
985	 3.50687082840475E-02 
986	 3.42958074568542E-02 
987	 3.56863774129414E-02 
988	 3.59202486515585E-02 
989	 3.61238611013147E-02 
990	 0.03619497189347 
991	 3.52448877939208E-02 
992	 3.54957952290413E-02 
993	 3.63770554351711E-02 
994	 3.63741153108007E-02 
995	 3.44657742571984E-02 
996	 3.49690127356634E-02 
997	 3.61604294734517E-02 
998	 3.66608563311298E-02 
999	 3.61893747647933E-02 
1000	 3.71592039302251E-02 
1001	 3.54650491022705E-02 
1002	 3.52739146221296E-02 
1003	 3.52435967189337E-02 
1004	 3.48022483136479E-02 
1005	 3.47641734634293E-02 
1006	 3.50447229928928E-02 
1007	 3.53075707755822E-02 
1008	 3.57588193165678E-02 
1009	 3.60888884923713E-02 
1010	 3.65015426145538E-02 
1011	 3.69358214077033E-02 
1012	 3.69967076705378E-02 
1013	 3.71943270620174E-02 
1014	 3.73802007074707E-02 
1015	 3.74733135115074E-02 
1016	 3.77108425919741E-02 
1017	 3.81153090418919E-02 
1018	 3.83418947185758E-02 
1019	 3.84662327446279E-02 
1020	 3.87692003783887E-02 
1021	 3.91509158603735E-02 
1022	 3.93714352335331E-02 
1023	 3.98798338841332E-02 
1024	 0.040425430963749 
1025	 4.06252018286762E-02 
1026	 4.07516564652344E-02 
1027	 4.08903242424637E-02 
1028	 0.040759858814805 
1029	 4.10117091845936E-02 
1030	 4.14260563014175E-02 
1031	 4.19023764958012E-02 
1032	 4.26411229370527E-02 
1033	 4.31887125199617E-02 
1034	 4.37063625109454E-02 
1035	 4.42163330014433E-02 
1036	 4.47406919247136E-02 
1037	 0.045194829024366 
1038	 4.56151162169547E-02 
1039	 4.59328217791212E-02 
1040	 4.66710067446691E-02 
1041	 4.68924012518751E-02 
1042	 4.72729469314279E-02 
1043	 4.78626110259756E-02 
1044	 4.80852154165759E-02 
1045	 4.79482013573872E-02 
1046	 4.81034765950617E-02 
1047	 4.81019413934494E-02 
1048	 4.84027074281408E-02 
1049	 4.90840532778878E-02 
1050	 4.94748907809296E-02 
1051	 4.98926443651079E-02 
1052	 5.02554712925105E-02 
1053	 0.050350828876646 
1054	 5.06534351297917E-02 
1055	 5.12001031890834E-02 
1056	 5.15584464559592E-02 
1057	 0.051872036990741 
1058	 5.22115932887557E-02 
1059	 5.24469506682729E-02 
1060	 5.23989550811035E-02 
1061	 5.27517679565007E-02 
1062	 5.34368032992882E-02 
1063	 5.36955638533995E-02 
1064	 5.40423585906425E-02 
1065	 5.41210918445753E-02 
1066	 5.36173467981133E-02 
1067	 5.35269495666079E-02 
1068	 5.34756538113291E-02 
1069	 5.35790230464184E-02 
1070	 5.42017519707855E-02 
1071	 5.43118949522051E-02 
1072	 5.41086852947529E-02 
1073	 5.41155767264023E-02 
1074	 5.39350964353265E-02 
1075	 5.33060054207661E-02 
1076	 5.32000690641592E-02 
1077	 5.35191200661837E-02 
1078	 5.33401724727086E-02 
1079	 5.30593064742668E-02 
1080	 5.27956505817929E-02 
1081	 5.21436036031943E-02 
1082	 5.19121825775471E-02 
1083	 5.20446851226605E-02 
1084	 5.19586219950945E-02 
1085	 5.18090347738944E-02 
1086	 5.17723021250464E-02 
1087	 5.20695084010841E-02 
1088	 5.18576083292066E-02 
1089	 5.13612352255586E-02 
1090	 5.09111737438104E-02 
1091	 5.05377102125344E-02 
1092	 4.97528899799016E-02 
1093	 0.049307612793669 
1094	 4.93609337699623E-02 
1095	 4.90400258145928E-02 
1096	 4.83933434290416E-02 
1097	 4.79120325198039E-02 
1098	 4.75276341157667E-02 
1099	 4.70290760099786E-02 
1100	 4.63230629932078E-02 
1101	 4.59296175968755E-02 
1102	 4.55959922770542E-02 
1103	 4.53992011711061E-02 
1104	 4.55511908059606E-02 
1105	 4.56866806436621E-02 
1106	 4.55106709761132E-02 
1107	 4.52399430990397E-02 
1108	 4.50946690697621E-02 
1109	 4.46653924726358E-02 
1110	 4.45654136545588E-02 
1111	 0.045005002310228 
1112	 4.49657251372204E-02 
1113	 4.46791484432811E-02 
1114	 4.45503913391738E-02 
1115	 4.40276552698921E-02 
1116	 4.38555143860973E-02 
1117	 4.47026631459249E-02 
1118	 0.044649263638963 
1119	 4.32531058279636E-02 
1120	 4.30143754943205E-02 
1121	 4.28434505039065E-02 
1122	 4.31924776784122E-02 
1123	 4.49514512447197E-02 
1124	 4.50698195985436E-02 
1125	 4.19182978861661E-02 
1126	 3.83085294462088E-02 
1127	 3.54940501952476E-02 
1128	 3.66256167493224E-02 
1129	 3.62395898363724E-02 
1130	 3.68380497838958E-02 
1131	 3.67471072455537E-02 
1132	 0.03614964446887 
1133	 3.54081053401529E-02 
1134	 3.54659357486647E-02 
1135	 3.49526247431442E-02 
1136	 3.30927982009193E-02 
1137	 0.032772123774065 
1138	 3.36471133270833E-02 
1139	 3.29849452192431E-02 
1140	 3.27084260342232E-02 
1141	 3.24939997195953E-02 
1142	 3.04897178162157E-02 
1143	 3.02415343235631E-02 
1144	 3.08812852793027E-02 
1145	 2.96540629997705E-02 
1146	 0.029358744559527 
1147	 2.98252213825583E-02 
1148	 0.029061538723754 
1149	 2.80823408826041E-02 
1150	 2.74907449343315E-02 
1151	 2.65521312204381E-02 
1152	 2.63702206337523E-02 
1153	 2.71531304239932E-02 
1154	 2.69847538392063E-02 
1155	 0.026878412004979 
1156	 2.61219255123354E-02 
1157	 0.025398248778983 
1158	 2.54042003679825E-02 
1159	 2.58520404962859E-02 
1160	 0.026122648447774 
1161	 2.59804046580089E-02 
1162	 2.57002603420019E-02 
1163	 2.53214039213049E-02 
1164	 0.025020638016592 
1165	 2.51277421870238E-02 
1166	 2.49499570316495E-02 
1167	 0.024641241668081 
1168	 2.45531358579449E-02 
1169	 2.43637308210726E-02 
1170	 2.44305846836469E-02 
1171	 2.44502045340656E-02 
1172	 2.45594316284704E-02 
1173	 2.45530369374477E-02 
1174	 2.45542866043237E-02 
1175	 2.44191847500905E-02 
1176	 0.02416100984636 
1177	 2.40035380728254E-02 
1178	 2.39327406503213E-02 
1179	 2.38815840290628E-02 
1180	 2.36926603649811E-02 
1181	 2.36486278594099E-02 
1182	 2.39898659662341E-02 
1183	 2.41010322837987E-02 
1184	 2.38526445198541E-02 
1185	 2.37000077041873E-02 
1186	 2.32949617804754E-02 
1187	 0.022932865882515 
1188	 2.32157596804334E-02 
1189	 2.33014753131239E-02 
1190	 2.30834678909381E-02 
1191	 2.29958435829041E-02 
1192	 2.29812377171327E-02 
1193	 0.02289412756616 
1194	 2.31138498906806E-02 
1195	 2.32727100632365E-02 
1196	 2.31476922812926E-02 
1197	 2.29988840342386E-02 
1198	 2.27594629069169E-02 
1199	 2.26644414099213E-02 
1200	 2.26772549395324E-02 
1201	 2.26375810583806E-02 
1202	 2.27351835014634E-02 
1203	 2.28642982551139E-02 
1204	 2.28593185720228E-02 
1205	 2.27608393614139E-02 
1206	 2.26939117038101E-02 
1207	 2.27407837913221E-02 
1208	 2.27807012535718E-02 
1209	 2.28506001221625E-02 
1210	 2.29389847562654E-02 
1211	 2.28143303575202E-02 
1212	 2.27881961420363E-02 
1213	 2.28138352542075E-02 
1214	 2.27571465941911E-02 
1215	 2.25895931148083E-02 
1216	 2.26103722181668E-02 
1217	 2.25041809129844E-02 
1218	 2.24163642867977E-02 
1219	 2.26780442460309E-02 
1220	 2.26804607684627E-02 
1221	 2.25027986021922E-02 
1222	 2.26082019346799E-02 
1223	 2.27167896130108E-02 
1224	 0.022641879902732 
1225	 2.26584938526272E-02 
1226	 2.27709457223247E-02 
1227	 0.022750512466555 
1228	 2.26418281415559E-02 
1229	 2.26033508444819E-02 
1230	 2.26596810684799E-02 
1231	 2.26856450249278E-02 
1232	 2.26996000753184E-02 
1233	 2.28391970226957E-02 
1234	 2.28583954010707E-02 
1235	 2.28837147417383E-02 
1236	 2.28201420490522E-02 
1237	 2.28265750439441E-02 
1238	 2.28861337106105E-02 
1239	 2.29299671275795E-02 
1240	 2.27968297158494E-02 
1241	 2.26876915128262E-02 
1242	 0.022867408504148 
1243	 0.022853207353194 
1244	 2.28116092112376E-02 
1245	 2.29154754214687E-02 
1246	 0.022729054285119 
1247	 2.27058273817731E-02 
1248	 2.30350717571579E-02 
1249	 2.29840544597684E-02 
1250	 2.28466144603426E-02 
1251	 2.30423689617869E-02 
1252	 2.31324355038677E-02 
1253	 2.31201441688047E-02 
1254	 2.30583812864737E-02 
1255	 2.29019575106555E-02 
1256	 2.29379741658419E-02 
1257	 0.023078586446434 
1258	 2.30836797681866E-02 
1259	 2.30958735942465E-02 
1260	 2.32501732789769E-02 
1261	 2.35420178348435E-02 
1262	 2.34783913505188E-02 
1263	 2.33980905401025E-02 
1264	 2.32543264920864E-02 
1265	 2.30679367793695E-02 
1266	 2.28431828500693E-02 
1267	 2.28553541645947E-02 
1268	 2.31134294846168E-02 
1269	 2.32510541290255E-02 
1270	 2.30151379156768E-02 
1271	 2.29426685268887E-02 
1272	 2.31941851427864E-02 
1273	 2.31330842332517E-02 
1274	 2.29651267312675E-02 
1275	 2.30635876480928E-02 
1276	 2.30249714864002E-02 
1277	 2.28245305741254E-02 
1278	 2.28508444018094E-02 
1279	 0.022952733616604 
1280	 2.29115997287467E-02 
1281	 2.27594763445664E-02 
1282	 2.23711243362783E-02 
1283	 2.23548541586658E-02 
1284	 2.25270629311897E-02 
1285	 2.24301596361352E-02 
1286	 2.24481291024997E-02 
1287	 2.24855940876357E-02 
1288	 2.22127354706567E-02 
1289	 2.20555095415994E-02 
1290	 2.21428856942816E-02 
1291	 2.21591384779468E-02 
1292	 2.19153518095004E-02 
1293	 2.17313404461581E-02 
1294	 2.16369574029808E-02 
1295	 2.16640681862245E-02 
1296	 2.16722625827164E-02 
1297	 2.14834474260879E-02 
1298	 2.13065948229927E-02 
1299	 2.13851057219845E-02 
1300	 2.15275907836217E-02 
1301	 2.15916744476436E-02 
1302	 2.16236488002409E-02 
1303	 2.14410935597651E-02 
1304	 2.13779900092828E-02 
1305	 2.15030805578199E-02 
1306	 0.021375448171074 
1307	 2.12793537504012E-02 
1308	 0.021244133918777 
1309	 2.09233136382989E-02 
1310	 0.020647495350559 
1311	 2.06442305743237E-02 
1312	 2.06804010182336E-02 
1313	 2.04876543161674E-02 
1314	 2.04111245397711E-02 
1315	 2.07659436944831E-02 
1316	 2.07810689930667E-02 
1317	 2.05155830606565E-02 
1318	 2.02372974178992E-02 
1319	 1.98195297460808E-02 
1320	 0.019537532106627 
1321	 1.89871569786405E-02 
1322	 1.89036968787455E-02 
1323	 1.91876351048069E-02 
1324	 1.92272385041814E-02 
1325	 1.93419792149357E-02 
1326	 0.019440747909398 
1327	 1.91793163297436E-02 
1328	 1.89965575603095E-02 
1329	 1.91967848211852E-02 
1330	 1.92056682788841E-02 
1331	 1.87700131849123E-02 
1332	 1.85538081000762E-02 
1333	 1.86077336619603E-02 
1334	 1.83513598934818E-02 
1335	 1.79794502395635E-02 
1336	 1.81550246111535E-02 
1337	 0.018360595020331 
1338	 1.79064325281425E-02 
1339	 1.78057588885469E-02 
1340	 1.89190856566176E-02 
1341	 0.019037328438903 
1342	 1.75519168173202E-02 
1343	 1.71933109879797E-02 
1344	 1.80078447175834E-02 
1345	 1.80032407125765E-02 
1346	 1.76134584923181E-02 
1347	 1.76630337311816E-02 
1348	 1.70016557055467E-02 
1349	 1.68599723091971E-02 
1350	 1.83478793262866E-02 
1351	 1.99672891201239E-02 
1352	 2.42233471955586E-02 
1353	 2.78422929666908E-02 
1354	 2.41848990172099E-02 
1355	 3.43882695400218E-02 
1356	 6.03602570009204E-02 
1357	 6.03629496365375E-02 
1358	 4.33781200266068E-02 
1359	 3.69425278194283E-02 
1360	 4.87735866182887E-02 
1361	 7.95740464636581E-02 
1362	 8.33254502660286E-02 
1363	 0.13863658454713 
1364	 0.145139771576554 
1365	 4.40739716011275E-02 
1366	 8.01150989822634E-02 
1367	 0.121741752850307 
1368	 0.10631197144658 
1369	 0.036125167365128 
1370	 6.53148698255853E-02 
1371	 0.107997736216382 
1372	 0.105829603354453 
1373	 0.198950485875427 
1374	 0.178032917668265 
1375	-6.27202923358963E-02 
1376	-0.153125400504669 
1377	-0.166073545634354 
1378	-5.91842645243592E-02 
1379	 0.263667582299245 
1380	 0.321457586478924 
1381	 0.37793868574363 
1382	 0.330438363346981 
1383	-0.152598660674444 
1384	-0.238903935330358 
1385	 6.28003324530385E-02 
1386	 8.19691658019289E-02 
1387	 7.64627376374268E-02 
1388	 0.100283472167711 
1389	 0.012555322868178 
1390	 0.031203939041972 
1391	 0.195545237103714 
1392	 0.463098122232685 
1393	 0.349833700446864 
1394	 0.111755962238706 
1395	-3.46618262996458E-02 
1396	-0.166868245715812 
1397	-0.155961383388688 
1398	-9.11380231455026E-02 
1399	-9.30676196253565E-03 
1400	 8.96667834314427E-02 
1401	 8.68179340198168E-02 
1402	 1.76448483554432E-02 
1403	-9.04137108351807E-02 
1404	-0.111389638225188 
1405	-7.29181049128913E-02 
1406	 4.17988653201517E-02 
1407	 4.97720661318918E-02 
1408	 1.85344864612792E-02 
1409	 4.66829546567639E-02 
1410	 9.08819589649299E-02 
1411	 9.35410041600539E-02 
1412	 0.10095824653546 
1413	 9.34338537345018E-02 
1414	 7.14920412183895E-02 
1415	 3.72365550572406E-02 
1416	-4.62062928455224E-03 
1417	-8.34681749623684E-03 
1418	-1.80521932124824E-02 
1419	-1.15085124924208E-02 
1420	 0.023594525787356 
1421	 3.09047136597174E-02 
1422	 3.23357532015224E-02 
1423	 2.46590103023829E-02 
1424	 4.01723190477737E-03 
1425	 2.81656021780618E-03 
1426	 4.60408749887027E-03 
1427	 5.47754064581162E-03 
1428	 1.76871800554282E-02 
1429	 1.99428909587203E-02 
1430	 1.40633699033459E-02 
1431	 1.06626874911579E-02 
1432	 2.43391137154508E-03 
1433	 1.71385926800431E-03 
1434	 9.46097095368172E-03 
1435	 9.85205990746319E-03 
1436	 9.8871748672802E-03 
1437	 9.49073415326276E-03 
1438	 1.10761149427375E-02 
1439	 7.45628389657636E-03 
1440	 7.32314664535194E-03 
1441	 1.20744341218107E-02 
1442	 1.16199203725258E-02 
1443	 1.15746120321234E-02 
1444	 1.23944297485544E-02 
1445	 1.07918597246122E-02 
1446	 1.00191430932117E-02 
1447	 1.10740455371568E-02 
1448	 1.11976028316155E-02 
1449	 1.06961047422721E-02 
1450	 1.01527348136506E-02 
1451	 9.15227937111305E-03 
1452	 1.03119280880369E-02 
1453	 1.25658412898387E-02 
1454	 1.27987995939148E-02 
1455	 1.23373846085185E-02 
1456	 1.16256796655028E-02 
1457	 9.84969357172871E-03 
1458	 9.62059357528667E-03 
1459	 9.78637998639651E-03 
1460	 9.94150949142705E-03 
1461	 0.011205889695267 
1462	 1.10027926752947E-02 
1463	 9.47462480896445E-03 
1464	 9.31665457435119E-03 
1465	 9.39889317979187E-03 
1466	 9.30620460475121E-03 
1467	 0.009722188871858 
1468	 1.02907193161494E-02 
1469	 1.10170974760638E-02 
1470	 1.07881996794962E-02 
1471	 1.00329855511499E-02 
1472	 1.06094054987268E-02 
1473	 1.17266153886733E-02 
1474	 1.09610935877391E-02 
1475	 9.83372333168532E-03 
1476	 1.01524711331401E-02 
1477	 9.54391173170478E-03 
1478	 9.36115448570082E-03 
1479	 1.10711708436878E-02 
1480	 1.15764821062671E-02 
1481	 1.10229046933655E-02 
1482	 1.05381977990231E-02 
1483	 9.94901293585123E-03 
1484	 9.94719711873349E-03 
1485	 1.00190941578112E-02 
1486	 9.86810484137607E-03 
1487	 9.88346908254054E-03 
1488	 1.01425027100604E-02 
1489	 1.04102148228124E-02 
1490	 1.02220035227669E-02 
1491	 1.01556870711914E-02 
1492	 1.01417556549011E-02 
1493	 9.63810987357045E-03 
1494	 9.49054010802725E-03 
1495	 9.64291322847784E-03 
1496	 9.82408662699383E-03 
1497	 1.02953550251416E-02 
1498	 1.02732585317998E-02 
1499	 9.84236114060918E-03 
1500	 9.89771221544906E-03 
1501	 1.00417234592971E-02 
1502	 9.9921498676207E-03 
1503	 1.02376536265939E-02 
1504	 0.010320729630706 
1505	 1.00715789360327E-02 
1506	 9.83644501462475E-03 
1507	 9.7437457161399E-03 
1508	 9.66452591519339E-03 
1509	 9.91674805829994E-03 
1510	 1.00986907732143E-02 
1511	 1.00489137338217E-02 
1512	 1.02934598307248E-02 
1513	 1.05167285104976E-02 
1514	 0.010379751587858 
1515	 1.01822896275882E-02 
1516	 1.02102548763049E-02 
1517	 1.02504114776226E-02 
1518	 0.010247845610075 
1519	 1.03586032395816E-02 
1520	 1.04554133369411E-02 
1521	 1.04339679605709E-02 
1522	 1.03057143745985E-02 
1523	 1.03117406548485E-02 
1524	 1.04225416478589E-02 
1525	 1.05242119970991E-02 
1526	 1.06179123476988E-02 
1527	 1.06242155286495E-02 
1528	 1.07062343438253E-02 
1529	 0.010676603968416 
1530	 1.04638435205875E-02 
1531	 1.05150121666378E-02 
1532	 1.07217225768386E-02 
1533	 1.07852392945234E-02 
1534	 1.07922486642017E-02 
1535	 1.07438927719459E-02 
1536	 1.07893948092369E-02 
1537	 1.10639826169682E-02 
1538	 1.11829962991949E-02 
1539	 1.10055419899997E-02 
1540	 1.08567291819325E-02 
1541	 1.08320104162024E-02 
1542	 1.08696451368934E-02 
1543	 1.10982875554813E-02 
1544	 1.12552224701127E-02 
1545	 1.10287092112168E-02 
1546	 0.011048417405682 
1547	 1.14783851207401E-02 
1548	 1.14491927426865E-02 
1549	 1.11899759127053E-02 
1550	 1.13640737039236E-02 
1551	 1.14615175172392E-02 
1552	 1.13375030124488E-02 
1553	 1.13154807752313E-02 
1554	 1.12983381671436E-02 
1555	 1.12848136234061E-02 
1556	 1.14332730893177E-02 
1557	 1.17167631743921E-02 
1558	 1.17929178272822E-02 
1559	 1.15447143442379E-02 
1560	 1.15167461513652E-02 
1561	 1.16798408653106E-02 
1562	 1.15363587970873E-02 
1563	 0.011377441759178 
1564	 1.13866068405905E-02 
1565	 1.16188650517434E-02 
1566	 1.18269623295958E-02 
1567	 1.16384373992777E-02 
1568	 1.15656293832244E-02 
1569	 1.15069651491197E-02 
1570	 1.13414400367321E-02 
1571	 1.15837335280484E-02 
1572	 1.17107488607043E-02 
1573	 1.15670692743998E-02 
1574	 1.17547420116872E-02 
1575	 1.19214443507709E-02 
1576	 1.18732847815085E-02 
1577	 1.19481763446762E-02 
1578	 1.19530321503725E-02 
1579	 1.18442772563234E-02 
1580	 1.17647815507009E-02 
1581	 1.16547888591174E-02 
1582	 0.011676376998775 
1583	 1.17614586266171E-02 
1584	 1.18634121552647E-02 
1585	 1.19729267832185E-02 
1586	 1.17464614890158E-02 
1587	 1.16998815475878E-02 
1588	 1.20912967731191E-02 
1589	 1.20641312035544E-02 
1590	 1.18481753810968E-02 
1591	 1.18479732528715E-02 
1592	 1.18427564968594E-02 
1593	 1.19896165868198E-02 
1594	 0.012033167441446 
1595	 1.21162352140052E-02 
1596	 1.22685006762395E-02 
1597	 1.21176033190902E-02 
1598	 1.22292723966366E-02 
1599	 1.24597688728254E-02 
1600	 0.012336796803692 
1601	 0.012296535346219 
1602	 1.24936669035406E-02 
1603	 1.24954662448298E-02 
1604	 1.22877701551967E-02 
1605	 1.24106078191567E-02 
1606	 0.012628189177724 
1607	 1.26520174152325E-02 
1608	 1.27838121478886E-02 
1609	 1.27499344214371E-02 
1610	 0.012512101304259 
1611	 1.24343181720956E-02 
1612	 1.24257032846427E-02 
1613	 1.23390931618163E-02 
1614	 1.23237048192113E-02 
1615	 1.23930590767633E-02 
1616	 1.22641905268158E-02 
1617	 1.21384514976796E-02 
1618	 1.23380953471347E-02 
1619	 1.26704235144929E-02 
1620	 1.26724849622796E-02 
1621	 1.24643018259421E-02 
1622	 1.24458488155528E-02 
1623	 1.22845771591491E-02 
1624	 1.21562718273707E-02 
1625	 1.23898958287802E-02 
1626	 0.01245029309936 
1627	 1.21718147912081E-02 
1628	 1.21549665041065E-02 
1629	 1.23828875387443E-02 
1630	 1.22740472197015E-02 
1631	 1.21770185784027E-02 
1632	 1.23098046846628E-02 
1633	 1.23222305070135E-02 
1634	 0.012523010160619 
1635	 1.29213617036483E-02 
1636	 1.26981367529668E-02 
1637	 1.22368600409298E-02 
1638	 1.23067642164752E-02 
1639	 1.24289760370555E-02 
1640	 1.25282390846883E-02 
1641	 1.27856745856575E-02 
1642	 1.27467584368304E-02 
1643	 1.23014226610668E-02 
1644	 1.23595607173709E-02 
1645	 1.28580949495869E-02 
1646	 1.26770018132705E-02 
1647	 1.23549068862529E-02 
1648	 0.012593609214143 
1649	 1.27045517783251E-02 
1650	 1.25153470090023E-02 
1651	 1.26058998968703E-02 
1652	 1.28071026913833E-02 
1653	 1.27695954005541E-02 
1654	 1.26622126894729E-02 
1655	 1.24838664805768E-02 
1656	 1.25391224323965E-02 
1657	 1.26434991417236E-02 
1658	 1.26310264242128E-02 
1659	 1.28215851402308E-02 
1660	 1.27908185625999E-02 
1661	 0.012436807499379 
1662	 1.23686913729026E-02 
1663	 0.012381395532247 
1664	 0.012514743107715 
1665	 1.27990299906075E-02 
1666	 1.28175364561419E-02 
1667	 0.012875037561844 
1668	 1.26794329173889E-02 
1669	 1.27051016478504E-02 
1670	 1.27786041379624E-02 
1671	 1.27003344443158E-02 
1672	 1.30307842513322E-02 
1673	 1.32636606472481E-02 
1674	 1.29257319307416E-02 
1675	 1.26302501937228E-02 
1676	 1.26663726045273E-02 
1677	 1.27194457983257E-02 
1678	 1.28599725153522E-02 
1679	 1.29481216043274E-02 
1680	 0.012754819051447 
1681	 0.012515416990519 
1682	 1.24185465891486E-02 
1683	 1.26427850681048E-02 
1684	 1.29460903366738E-02 
1685	 1.28385218314143E-02 
1686	 1.26853852039349E-02 
1687	 1.29972978239071E-02 
1688	 1.30980526672823E-02 
1689	 1.28850680340723E-02 
1690	 1.28380949036559E-02 
1691	 1.26145906837884E-02 
1692	 0.012484687468772 
1693	 1.28461685320335E-02 
1694	 1.32775026883442E-02 
1695	 1.31454208110353E-02 
1696	 1.26602455470342E-02 
1697	 1.25682854459793E-02 
1698	 1.26860574627653E-02 
1699	 1.28522384108509E-02 
1700	 1.30704145577637E-02 
1701	 1.30116687499165E-02 
1702	 1.26803396621531E-02 
1703	 1.24944484994814E-02 
1704	 1.26455152552374E-02 
1705	 0.012710058744653 
1706	 1.25663363621648E-02 
1707	 1.25456101791799E-02 
1708	 1.27519626629327E-02 
1709	 1.28130543507411E-02 
1710	 1.26741709474941E-02 
1711	 1.26020680472264E-02 
1712	 1.25472201675783E-02 
1713	 1.27059599953716E-02 
1714	 0.012765388543817 
1715	 1.29600568682956E-02 
1716	 1.28549886292073E-02 
1717	 1.25643207031164E-02 
1718	 1.26407929151288E-02 
1719	 1.23263188821464E-02 
1720	 1.19820030413816E-02 
1721	 0.012458263557884 
1722	 1.30036717670508E-02 
1723	 1.30943045388102E-02 
1724	 1.30015851093253E-02 
1725	 1.26657849938868E-02 
1726	 1.23357547562381E-02 
1727	 1.23235239967626E-02 
1728	 0.012503623297546 
1729	 1.28610900620225E-02 
1730	 1.26509294831155E-02 
1731	 1.20694320551275E-02 
1732	 1.22677854201908E-02 
1733	 0.012244543679667 
1734	 1.19747781166183E-02 
1735	 1.24053373796604E-02 
1736	 1.25570273653744E-02 
1737	 1.23207799660009E-02 
1738	 1.23489400312155E-02 
1739	 1.22928910951324E-02 
1740	 1.20919027037371E-02 
1741	 1.19740592158661E-02 
1742	 0.011838409324462 
1743	 1.18441857789714E-02 
1744	 0.011896575404799 
1745	 1.19815176090248E-02 
1746	 1.20899150717193E-02 
1747	 1.20079718180663E-02 
1748	 1.15468397774906E-02 
1749	 1.16206340220367E-02 
1750	 1.22083616168293E-02 
1751	 1.21030580695625E-02 
1752	 1.16185363002896E-02 
1753	 1.16255765684656E-02 
1754	 1.16465905496265E-02 
1755	 1.16391643188424E-02 
1756	 0.01204752306715 
1757	 1.12759807904479E-02 
1758	 1.07117921444629E-02 
1759	 1.09534303389959E-02 
1760	 1.15507533645897E-02 
1761	 1.19225018322961E-02 
1762	 1.19608051626453E-02 
1763	 1.14161796756028E-02 
1764	 1.08863053706931E-02 
1765	 1.12306739919161E-02 
1766	 1.16993444769915E-02 
1767	 1.20282376238007E-02 
1768	 1.21647459882388E-02 
1769	 1.16718806397786E-02 
1770	 1.17833803413805E-02 
1771	 1.16865135657509E-02 
1772	 1.09506255879488E-02 
1773	 1.09502063705417E-02 
1774	 0.010627921540439 
1775	 1.12332593377096E-02 
1776	 1.14639145612615E-02 
1777	 1.09172605386682E-02 
1778	 1.10801434969018E-02 
1779	 1.16332729700679E-02 
1780	 1.13967743813034E-02 
1781	 1.10328475433638E-02 
1782	 0.011099994712552 
1783	 1.08248180263351E-02 
1784	 1.12959305535825E-02 
1785	 1.36287819757103E-02 
1786	 0.013333171733062 
1787	 1.07931246760702E-02 
1788	 0.010057459383083 
1789	 8.30268467863527E-03 
1790	 1.08119778218782E-02 
1791	 1.31221462398954E-02 
1792	 1.18744277056929E-02 
1793	 0.011127644832347 
1794	 0.010701992173279 
1795	 9.64931402187934E-03 
1796	 9.99173148538723E-03 
1797	 1.02030596647806E-02 
1798	 7.51785569613256E-03 
1799	 4.51070429286817E-03 
1800	 1.28595571939863E-02 
1801	 0.01610788829784 
1802	 0.015612263606205 
1803	 1.73649700313433E-02 
1804	 0.016140109221671 
1805	 1.22589975700657E-02 
1806	 6.53690019804709E-03 
1807	 2.70428568081605E-03 
1808	-1.32826112335266E-02 
1809	-1.24572117758466E-02 
1810	 2.58955827862796E-02 
1811	 4.42990669864045E-02 
1812	 6.67352488148983E-02 
1813	 7.80028699095992E-02 
1814	 4.48987474613595E-02 
1815	 3.67767239740203E-02 
1816	 4.32789493152955E-02 
1817	 6.36583004711192E-02 
1818	-9.52323971519906E-03 
1819	-0.206555537813156 
1820	-0.450909978035566 
1821	-0.357874968556212 
1822	-0.313187488005084 
1823	 6.61618782335753E-02 
1824	 0.213783587319465 
1825	 0.182069715815134 
1826	 0.147674948172152 
1827	 5.05442461748315E-02 
1828	-0.032314059315214 
1829	-0.154845145383305 
1830	-0.442728884863245 
1831	-0.706092534692696 
1832	-0.736124436518212 
1833	-0.60731475441411 
1834	-0.841751525581798 
1835	 0.412733683540178 
1836	 0.359562077262109 
1837	 9.1382647406091 
1838	-5.15814412873248 
1839	-2.5550706749585 
1840	-3.0097592438785 
1841	-3.27830752965518 
1842	-4.82912769527551 
1843	-8.23799677742705 
1844	 3.36356177822588 
1845	 1.29568747784369 
1846	-0.565121282211104 
1847	-2.95316568185615E-02 
1848	-0.652145278571161 
1849	-1.07952481545177 
1850	-1.06070607044349 
1851	-1.25303047535651 
1852	 5.16111118955616 
1853	-3.45034376193628E-02 
1854	-0.269618503013888 
1855	-0.448431607405958 
1856	-0.400639665009139 
1857	-0.209906051334206 
1858	-0.151306972665028 
1859	 0.22543950930465 
1860	 0.903732221588286 
1861	-1.46106886514102 
1862	-1.62493317508076 
1863	-7.1943076803023 
1864	-0.318171574186962 
1865	 0.299929817755375 
1866	 0.858570174564432 
1867	 1.0278063248621 
1868	 1.0159094979256 
1869	 0.881918346652164 
1870	 0.488013713236027 
1871	 0.777745852856119 
1872	 1.01226235066764 
1873	 0.300277090491396 
1874	 2.02577088708163 
1875	 3.61859861949159 
1876	 3.65395080013286 
1877	 0.5125893325998 
1878	 0.484433477246761 
1879	 5.48272032550473E-02 
1880	-3.35028422600113 
1881	-0.226532150873754 
1882	-0.727526899964471 
1883	-0.608703719050531 
1884	 0.708157719732691 
1885	 0.617763996221114 
1886	 0.664313241507716 
1887	 0.939705759566121 
1888	 0.640971784719096 
1889	 0.695635778663599 
1890	 6.27900381918498 
1891	 6.25099426417542 
1892	 0.717287170351006 
1893	 2.12939793552677E-02 
1894	-0.403144866899952 
1895	-0.424181028994705 
1896	-0.35543857272653 
1897	-0.713758444642663 
1898	-1.32298326827889 
1899	-2.1018595880005 
1900	-3.98025487062358 
1901	 1.42576201010927 
1902	 1.5279558792043 
1903	-0.699627763504848 
1904	-0.443909582499081 
1905	-2.05187160227539 
1906	-2.08852680063695 
1907	-2.82479870061157 
1908	 11.2585118971389 
1909	 0.19986581792291 
1910	 0.624282482291986 
1911	 0.548857393165723 
1912	 0.239474900057266 
1913	 0.249511228519882 
1914	-4.69547615962811 
1915	-1.118951932984 
1916	-0.538062977519001 
1917	-0.473232184410386 
1918	-4.54604094037413 
1919	 0.888686147201337 
1920	 0.484310561080678 
1921	 0.347532156220979 
1922	 0.589564773204068 
1923	 1.45344499221091 
1924	 6.09171316026974 
1925	-7.51252296560174 
1926	-6.58222834318634 
1927	-41.4794536223549 
1928	-0.99623981984432 
1929	-0.174547640868515 
1930	 0.445639715923629 
1931	 0.98651050532742 
1932	 0.660813766752691 
1933	 0.161891575534395 
1934	 0.129745706791549 
1935	 0.110348281918356 
1936	 7.17304582591741E-02 
1937	 0.132451771397866 
1938	 0.111938486662833 
1939	 6.52834339974806E-02 
1940	-2.11515946620744E-02 
1941	-3.40847133503383E-02 
1942	-3.02387740574596E-02 
1943	-0.043644952886864 
1944	-2.68449817449636E-02 
1945	 8.28187376980767E-03 
1946	 1.89137434632875E-02 
1947	 2.39227392130793E-02 
1948	 0.018104030835118 
1949	 1.45722361546518E-02 
1950	 1.21209055836117E-02 
1951	 3.70490212999488E-04 
1952	-2.27713803608586E-04 
1953	 4.80776324046919E-03 
1954	 8.5994388988202E-03 
1955	 6.04038761657428E-03 
1956	 3.02261086947753E-03 
1957	 1.89752176247284E-03 
1958	 1.94625622357573E-03 
1959	 2.73678310011147E-03 
1960	 7.46041886855707E-03 
1961	 1.11547357535911E-02 
1962	 9.14756612685103E-03 
1963	 5.16037636119993E-03 
1964	 7.72150743365395E-03 
1965	 1.21224194390283E-02 
1966	 1.13861920152343E-02 
1967	 8.51393129694988E-03 
1968	 8.02305614152641E-03 
1969	 8.49277493088305E-03 
1970	 6.87898122983524E-03 
1971	 7.68547456022441E-03 
1972	 8.62413547932461E-03 
1973	 6.43803427202168E-03 
1974	 0.004989525607772 
1975	 5.13057058025343E-03 
1976	 4.76072086940804E-03 
1977	 6.07073762268688E-03 
1978	 7.73052871488531E-03 
1979	 8.2127431133927E-03 
1980	 7.80161267325922E-03 
1981	 8.9968981130377E-03 
1982	 9.89464335013023E-03 
1983	 8.90887931850516E-03 
1984	 8.78451956861002E-03 
1985	 8.92666442634421E-03 
1986	 7.97787995051834E-03 
1987	 7.61100391650717E-03 
1988	 8.68674803846114E-03 
1989	 8.88203107864483E-03 
1990	 7.79570562313714E-03 
1991	 8.2711608911732E-03 
1992	 8.42583340257243E-03 
1993	 7.21869496583253E-03 
1994	 6.76468254224448E-03 
1995	 7.39098052629083E-03 
1996	 6.97682900886894E-03 
1997	 5.55700606427183E-03 
1998	 5.76792048357682E-03 
1999	 6.94309761145442E-03 
2000	 6.83244759946386E-03 
2001	 5.56038658274693E-03 
2002	 6.67205008362303E-03 
2003	 7.69831028621247E-03 
2004	 8.59814708889675E-03 
2005	 1.09196784833576E-02 
2006	 1.05482681544977E-02 
2007	 1.03242801944699E-02 
2008	 8.73679223547123E-03 
2009	 7.50764851824416E-03 
2010	 7.70493017788481E-03 
2011	 6.64915863458999E-03 
2012	 2.89983584715967E-03 
2013	 3.95738400826441E-03 
2014	 5.34856719807428E-03 
2015	 5.46817457080006E-03 
2016	 8.84861609923841E-03 
2017	 1.03648126410016E-02 
2018	 9.82499202387897E-03 
2019	 9.32742936336021E-03 
2020	 7.24858020708471E-03 
2021	 5.55876612174962E-03 
2022	 5.55874739633269E-03 
2023	 6.22746004006816E-03 
2024	 6.50798950102929E-03 
2025	 7.31000516024813E-03 
2026	 7.41343344017985E-03 
2027	 6.88599577870256E-03 
2028	 7.00451541205789E-03 
2029	 7.04168101797654E-03 
2030	 7.38172103228366E-03 
2031	 7.78055848036389E-03 
2032	 7.25938186125943E-03 
2033	 7.06291324907285E-03 
2034	 7.37661473231366E-03 
2035	 7.61449683623111E-03 
2036	 8.19568145004654E-03 
2037	 8.04842835940506E-03 
2038	 7.62716005186611E-03 
2039	 7.68958643882292E-03 
2040	 7.43849790116924E-03 
2041	 7.66837894699244E-03 
2042	 9.21001817368285E-03 
2043	 9.49724259005906E-03 
2044	 9.15869539140468E-03 
2045	 8.86333619156415E-03 
2046	 8.95628211061509E-03 
2047	 8.54662509418033E-03 
2048	 8.10460538754732E-03 
2049	 8.11297933985639E-03 
2050	 7.0019672179675E-03 
2051	 6.56885920015132E-03 
2052	 6.77843999553495E-03 
2053	 6.46719854003801E-03 
2054	 6.50035772223785E-03 
2055	 5.54164655611219E-03 
2056	 5.51141075645581E-03 
2057	 6.34267060251752E-03 
2058	 6.36080418386226E-03 
2059	 6.27245509501022E-03 
2060	 6.69628976598136E-03 
2061	 6.68172293950269E-03 
2062	 7.28171304340138E-03 
2063	 8.58768437812888E-03 
2064	 8.01531470413827E-03 
2065	 7.18194152123248E-03 
2066	 7.54388544238707E-03 
2067	 6.88907350894526E-03 
2068	 6.65612897230503E-03 
2069	 8.89753306734442E-03 
2070	 9.1716151793023E-03 
2071	 8.24395688512495E-03 
2072	 9.19315108638117E-03 
2073	 9.36253846041704E-03 
2074	 8.39110135500902E-03 
2075	 8.02810617526242E-03 
2076	 7.73515239584311E-03 
2077	 7.89238062366005E-03 
2078	 8.99242432988081E-03 
2079	 8.42611772978992E-03 
2080	 7.06536313036924E-03 
2081	 6.88362792389893E-03 
2082	 6.23283173026438E-03 
2083	 4.96732629906802E-03 
2084	 6.38766177191509E-03 
2085	 8.44014170758306E-03 
2086	 8.34964176583456E-03 
2087	 8.21603355205219E-03 
2088	 7.89177426946851E-03 
2089	 6.59061699923391E-03 
2090	 6.82713102261235E-03 
2091	 7.96797641678423E-03 
2092	 7.98106124990157E-03 
2093	 7.43614732161228E-03 
2094	 7.70805909628206E-03 
2095	 7.75753665327531E-03 
2096	 7.52957041606371E-03 
2097	 7.82091038377938E-03 
2098	 7.97740562445055E-03 
2099	 7.50016103061492E-03 
2100	 7.53369555497719E-03 
2101	 7.99678558508105E-03 
2102	 8.40677691012415E-03 
2103	 8.69333097923244E-03 
2104	 8.79692988884466E-03 
2105	 9.15271716033375E-03 
2106	 9.28832905737728E-03 
2107	 9.59319263458367E-03 
2108	 9.76953987668129E-03 
2109	 9.01787207965118E-03 
2110	 7.90561795481629E-03 
2111	 7.07303472634544E-03 
2112	 6.47366317773448E-03 
2113	 6.18261399772947E-03 
2114	 6.67395904277557E-03 
2115	 7.24860457867243E-03 
2116	 8.22867493867522E-03 
2117	 8.53376575082949E-03 
2118	 8.58003443868917E-03 
2119	 9.14283679529529E-03 
2120	 9.65253888103438E-03 
2121	 9.94540932698273E-03 
2122	 1.07771051963829E-02 
2123	 1.11179274449186E-02 
2124	 1.06525523264104E-02 
2125	 0.010773936166523 
2126	 1.07215238747986E-02 
2127	 1.00226704173076E-02 
2128	 9.72832181764393E-03 
2129	 9.27493614048548E-03 
2130	 8.93850345380231E-03 
2131	 9.3776630218864E-03 
2132	 8.75109439505624E-03 
2133	 8.19005688832239E-03 
2134	 8.23608297032498E-03 
2135	 8.2234389923957E-03 
2136	 8.25425947265859E-03 
2137	 9.56563607772282E-03 
2138	 9.42259720915177E-03 
2139	 7.74252054869466E-03 
2140	 7.56090314512458E-03 
2141	 7.75325764953208E-03 
2142	 7.68083620099264E-03 
2143	 7.66393263353326E-03 
2144	 8.8395521170053E-03 
2145	 9.6154109732224E-03 
2146	 9.30360160167555E-03 
2147	 0.008580113630282 
2148	 7.84163177737264E-03 
2149	 7.54487994586742E-03 
2150	 7.68704572343262E-03 
2151	 9.23618045530371E-03 
2152	 1.09471191576483E-02 
2153	 1.05363516385394E-02 
2154	 9.09075422117325E-03 
2155	 8.29117600236867E-03 
2156	 7.14982319483209E-03 
2157	 6.67178780657457E-03 
2158	 7.25843379223394E-03 
2159	 7.65795999479359E-03 
2160	 8.36081013273267E-03 
2161	 8.53899227071071E-03 
2162	 8.71761893420592E-03 
2163	 8.45921355083608E-03 
2164	 7.10372039530779E-03 
2165	 6.90083736674035E-03 
2166	 7.27241712008323E-03 
2167	 7.50324955206493E-03 
2168	 0.008296328270317 
2169	 8.71140063083532E-03 
2170	 8.59792487821989E-03 
2171	 9.24851038459787E-03 
2172	 9.90895558615312E-03 
2173	 9.86460419167497E-03 
2174	 9.95754819420454E-03 
2175	 9.48222807850034E-03 
2176	 8.50707027501292E-03 
2177	 8.15062196374922E-03 
2178	 8.17685083225615E-03 
2179	 7.74791793235742E-03 
2180	 7.08493333375269E-03 
2181	 7.66044537669855E-03 
2182	 8.7373165977402E-03 
2183	 8.95692349725531E-03 
2184	 9.20063121881152E-03 
2185	 9.24136457845201E-03 
2186	 9.86993783295865E-03 
2187	 1.12690968079017E-02 
2188	 1.10890732218135E-02 
2189	 1.01452949651866E-02 
2190	 9.7664559392749E-03 
2191	 7.80580092532499E-03 
2192	 6.78811862222316E-03 
2193	 7.73059548297611E-03 
2194	 7.74377365770965E-03 
2195	 6.46800811904882E-03 
2196	 6.16265300053901E-03 
2197	 6.1689649477814E-03 
2198	 7.16742588469222E-03 
2199	 1.01123089938211E-02 
2200	 1.07896370708047E-02 
2201	 1.02164950397765E-02 
2202	 9.74543001343711E-03 
2203	 7.90461230483582E-03 
2204	 7.84287467753136E-03 
2205	 1.16351281274505E-02 
2206	 1.33484936088994E-02 
2207	 1.20053051479156E-02 
2208	 1.06855399665631E-02 
2209	 8.09806641435265E-03 
2210	 6.21775508641705E-03 
2211	 6.69286798957493E-03 
2212	 7.65170206240123E-03 
2213	 8.0013280370621E-03 
2214	 7.98714321679404E-03 
2215	 8.9797625007765E-03 
2216	 9.63357734538817E-03 
2217	 9.91925061532683E-03 
2218	 1.08434095663239E-02 
2219	 1.06899012408532E-02 
2220	 8.26575962204195E-03 
2221	 8.41304481124282E-03 
2222	 1.10016799222241E-02 
2223	 1.06196637318682E-02 
2224	 9.00402081378838E-03 
2225	 8.94405614741799E-03 
2226	 7.19124472176365E-03 
2227	 6.69783472020896E-03 
2228	 9.69932622631292E-03 
2229	 1.03418798166689E-02 
2230	 8.65391922736458E-03 
2231	 8.30350326397861E-03 
2232	 8.30425512439451E-03 
2233	 8.17968098745192E-03 
2234	 8.33464790011603E-03 
2235	 9.3697986940743E-03 
2236	 8.55751427741301E-03 
2237	 6.81015476042076E-03 
2238	 7.98899072148652E-03 
2239	 9.37848420748676E-03 
2240	 9.90189849819176E-03 
2241	 1.09630863149727E-02 
2242	 0.010717818679671 
2243	 9.28481132792779E-03 
2244	 9.70037185592105E-03 
2245	 9.65543792477854E-03 
2246	 6.77487812754521E-03 
2247	 5.4596275135451E-03 
2248	 5.79969310271991E-03 
2249	 4.91533721821648E-03 
2250	 4.93803409644462E-03 
2251	 6.06619740314741E-03 
2252	 6.43920766460826E-03 
2253	 7.44791514716158E-03 
2254	 1.02693701245473E-02 
2255	 1.19720869069979E-02 
2256	 1.01934340867767E-02 
2257	 8.27644066580912E-03 
2258	 7.78816418788299E-03 
2259	 7.43362612195196E-03 
2260	 6.43442434500532E-03 
2261	 5.78915111141521E-03 
2262	 5.52624209123753E-03 
2263	 4.37200066357411E-03 
2264	 3.9699809225425E-03 
2265	 4.73210583033475E-03 
2266	 5.67281784263986E-03 
2267	 7.76760005691027E-03 
2268	 7.80720425497888E-03 
2269	 5.96521955049142E-03 
2270	 6.87067886677516E-03 
2271	 7.8726659702478E-03 
2272	 8.28131027076218E-03 
2273	 1.23554860968693E-02 
2274	 1.25326940001287E-02 
2275	 7.55274594051704E-03 
2276	 7.31568077912107E-03 
2277	 8.72367583627455E-03 
2278	 8.12785249939544E-03 
2279	 9.52614464532201E-03 
2280	 1.02403416184995E-02 
2281	 8.94479521645863E-03 
2282	 6.69085838031967E-03 
2283	 7.41603348485053E-03 
2284	 7.22029391145582E-03 
2285	 4.30882447170619E-03 
2286	 3.70192287555421E-03 
2287	 4.61255096590206E-03 
2288	 4.75464243641447E-03 
2289	 5.57685551149296E-03 
2290	 7.36783667252599E-03 
2291	 0.010639486738216 
2292	 1.11677561518289E-02 
2293	 1.08923596423837E-02 
2294	 1.36174803500342E-02 
2295	 1.39965709082618E-02 
2296	 1.36613596157991E-02 
2297	 1.36042107232469E-02 
2298	 1.05203628404371E-02 
2299	 1.12420139321167E-02 
2300	 1.27786731169633E-02 
2301	 6.31427417208693E-03 
2302	 3.36628517462834E-03 
2303	 3.82074209531915E-03 
2304	 1.33711177308877E-03 
2305	 4.85498675820879E-03 
2306	 9.99322159407146E-03 
2307	 1.09189666289067E-02 
2308	 8.92510006248361E-03 
2309	 9.30456879975308E-03 
2310	 1.28077191993332E-02 
2311	 1.27040960169276E-02 
2312	 1.25947121614688E-02 
2313	 1.12074645680206E-02 
2314	 6.86954927299784E-03 
2315	 4.13820325818118E-03 
2316	 2.91204491852909E-03 
2317	 4.06010025422178E-03 
2318	 4.76995725613891E-03 
2319	 2.03955592259459E-03 
2320	 5.3696426503325E-03 
2321	 1.00315160446763E-02 
2322	 6.81881283181574E-03 
2323	 8.00044939227458E-03 
2324	 1.12651442947994E-02 
2325	 1.10401408984941E-02 
2326	 1.54131802365987E-02 
2327	 0.019578454841596 
2328	 2.09665412725958E-02 
2329	 2.16334001680409E-02 
2330	 1.99417465769813E-02 
2331	 0.016717267669921 
2332	 1.18774661093901E-02 
2333	 7.32468687637144E-03 
2334	-5.17102752643204E-04 
2335	-6.66507272496979E-03 
2336	-6.55085813248862E-03 
2337	-9.05802825162429E-03 
2338	-6.35379507048516E-03 
2339	 3.35066161771426E-03 
2340	 7.57284568167253E-03 
2341	 8.8754257268902E-03 
2342	 1.08052714612149E-02 
2343	 1.44457161789669E-02 
2344	 1.41878298793723E-02 
2345	 1.39981794643271E-02 
2346	 1.99285410088447E-02 
2347	 1.12660814992381E-02 
2348	 3.56687997585861E-03 
2349	 7.40978319666825E-03 
2350	 1.91646475055453E-03 
2351	 1.37481100582228E-03 
2352	 4.57306579668385E-03 
2353	 4.93258456270535E-03 
2354	 5.73101114981865E-03 
2355	 4.14673038102063E-04 
2356	 5.48680698447162E-03 
2357	 1.27988255759834E-02 
2358	 1.20304914564613E-02 
2359	 1.69426943145158E-02 
2360	 0.013748399188318 
2361	 1.98544887018327E-03 
2362	 1.76435493279691E-03 
2363	 3.23275300285844E-03 
2364	-3.59007614554665E-03 
2365	-1.76545108144513E-03 
2366	 5.2054867198139E-03 
2367	 0.011392303126403 
2368	 2.13314185443809E-02 
2369	 2.36676552798408E-02 
2370	 8.92238512995992E-03 
2371	-1.38866900792713E-02 
2372	-2.79457073514889E-02 
2373	-3.27630057161809E-02 
2374	-2.96891109564996E-02 
2375	-0.017723339232159 
2376	-1.05098913215072E-02 
2377	-1.22700985557574E-02 
2378	-1.22285038271901E-02 
2379	-8.77934434224729E-03 
2380	-9.67658442102256E-03 
2381	-0.011330247714571 
2382	-8.25719113053499E-03 
2383	-7.11682352410663E-03 
2384	-7.82669168416016E-03 
2385	-2.33808289814273E-02 
2386	-3.60861009230604E-02 
2387	-1.71617066562881E-02 
2388	-5.04282155831106E-03 
2389	 1.42347618321084E-03 
2390	 2.14590856567603E-02 
2391	 1.57957126476862E-02 
2392	-5.05045057625454E-03 
2393	 7.44150061408972E-03 
2394	 1.33264110654679E-02 
2395	-1.09984262410452E-03 
2396	 1.38149258527195E-02 
2397	 3.13507791275899E-02 
2398	 0.011513919142958 
2399	 1.11801277926509E-02 
2400	 0.027389662757211 
2401	 1.88251079132192E-02 
2402	 1.77134856534055E-02 
2403	 1.30298490983372E-02 
2404	-8.09952366520154E-03 
2405	-3.52838971779118E-02 
2406	-2.57375162136551E-02 
2407	 0.023471276938607 
2408	 0.034885430088713 
2409	 3.90380298049329E-02 
2410	 6.37304865270269E-02 
2411	 3.67061465535657E-02 
2412	-8.75855114657321E-03 
2413	-1.98760264403675E-02 
2414	-3.44847265454478E-02 
2415	-4.82016150624522E-02 
2416	-3.47220532440438E-02 
2417	 1.24655074066106E-02 
2418	 2.95473377655718E-03 
2419	-4.68279465791327E-02 
2420	-8.74125203367015E-02 
2421	-0.179494021707439 
2422	-0.195944906644108 
2423	-0.112334308253532 
2424	-2.85488053967375E-02 
2425	 2.91908869152184E-02 
2426	-1.14850328748525E-02 
2427	-6.64261848181183E-02 
2428	-0.107366953170524 
2429	-0.108768096326106 
2430	 3.09179062042174E-03 
2431	 2.78979480556063E-02 
2432	-2.49162264518513E-04 
2433	-4.50102802843147E-03 
2434	-0.090888816538025 
2435	-7.16851491789062E-02 
2436	 6.39490829584268E-03 
2437	 0.033455362501524 
2438	-2.95312172351666E-02 
2439	-8.66919194673133E-02 
2440	-9.81881164818447E-02 
2441	-0.147617945588958 
2442	-0.13634339607338 
2443	-0.144062551022462 
2444	-0.218404475559727 
2445	-0.184404540642644 
2446	-0.159492080209091 
2447	-4.51325733157718E-02 
2448	 2.33512375579535E-02 
2449	 0.106577686650398 
2450	 0.144061437449731 
2451	 6.82168452689938E-02 
2452	-6.70210063398438E-02 
2453	-0.359600213501004 
2454	-0.403238062176492 
2455	-0.232147367661098 
2456	-0.252251448541935 
2457	-0.261067322430572 
2458	-0.176865794092915 
2459	-7.04651862196698E-02 
2460	-4.80303993788237E-02 
2461	 5.07507742395748E-02 
2462	-1.57405187993132E-03 
2463	-0.358881528799329 
2464	-0.379458979334294 
2465	-0.130169373947393 
2466	 0.111621978128008 
2467	 0.373756565386631 
2468	 0.316646801777775 
2469	-0.197313369779529 
2470	-1.59021007240315 
2471	-5.19417508719515 
2472	-2.09867222250254 
2473	-0.591170617867702 
2474	-0.565723676699882 
2475	-0.619716862612711 
2476	-0.464835427959099 
2477	-0.960525220158609 
2478	-0.802222930701631 
2479	-0.436717325944432 
2480	-1.05744058572217 
2481	-4.87367534004011E-02 
2482	 0.738641496215651 
2483	 0.556986272841993 
2484	 0.532249211214977 
2485	 0.599694913205418 
2486	-0.28478293020325 
2487	-0.485800716754261 
2488	-0.240734357647386 
2489	-1.12886998437062 
2490	-7.62234056984881 
2491	 1.15630952995768 
2492	 1.67865668227061 
2493	 1.89812592925493 
2494	 1.36011290446304 
2495	 0.871517070165183 
2496	 0.738165651082069 
2497	-0.296966426860967 
2498	-1.0493068544943 
2499	-3.81790718578727 
2500	 0.450199980996475 
