Wavelength	rt0711a300008.asd
350	 0.111648635736305 
351	 0.113655623925852 
352	 0.115224537904356 
353	 0.116760321536149 
354	 0.118526465407519 
355	 0.120145511123435 
356	 0.121722872103224 
357	 0.123588585976381 
358	 0.125887798200965 
359	 0.12779850333068 
360	 0.129359473037974 
361	 0.131106404850609 
362	 0.13361316017903 
363	 0.134617271942481 
364	 0.135565358190939 
365	 0.137390298753959 
366	 0.139604961533476 
367	 0.141141594883627 
368	 0.142431816169507 
369	 0.144051495794687 
370	 0.145481402798737 
371	 0.146880021199297 
372	 0.148418927264646 
373	 0.150171422358309 
374	 0.151315944539592 
375	 0.152448270620891 
376	 0.153794384037048 
377	 0.154885375481663 
378	 0.15619454470081 
379	 0.157619247627678 
380	 0.158872064141339 
381	 0.15950934303507 
382	 0.160465326471034 
383	 0.1615459659873 
384	 0.16209806964043 
385	 0.162461805572376 
386	 0.163134220024056 
387	 0.164083565845158 
388	 0.164707653924298 
389	 0.165049207924874 
390	 0.165199752167386 
391	 0.165251701347637 
392	 0.165213505065442 
393	 0.165293066595476 
394	 0.16531097633222 
395	 0.165045928524922 
396	 0.164853941375615 
397	 0.164593374497898 
398	 0.164275353636163 
399	 0.164038932994307 
400	 0.163341375271211 
401	 0.162758220814641 
402	 0.162610065643062 
403	 0.162344932076036 
404	 0.161873761027646 
405	 0.161214078553522 
406	 0.160455613828608 
407	 0.159707725342172 
408	 0.158961997389517 
409	 0.158201011346256 
410	 0.157410971201784 
411	 0.156670558581604 
412	 0.155899009466192 
413	 0.155051790587273 
414	 0.154241535022704 
415	 0.153390197992855 
416	 0.152508819661504 
417	 0.151662430963036 
418	 0.151025397991609 
419	 0.150307581583036 
420	 0.149551808892471 
421	 0.149167506758778 
422	 0.148693662782987 
423	 0.148200192943153 
424	 0.147883966771863 
425	 0.147992005459542 
426	 0.148121809204906 
427	 0.148245659813437 
428	 0.148519008758748 
429	 0.148960292166196 
430	 0.149421120548701 
431	 0.14986607064105 
432	 0.150412244974939 
433	 0.15091101809782 
434	 0.151263923923354 
435	 0.151465707242346 
436	 0.151736222142832 
437	 0.151874207625852 
438	 0.151875317355936 
439	 0.151820689686728 
440	 0.151505807759324 
441	 0.151155463965825 
442	 0.150867236229401 
443	 0.150491797508279 
444	 0.149956059324155 
445	 0.149301409772499 
446	 0.148618027176082 
447	 0.148020500991128 
448	 0.147362641603712 
449	 0.146652352108246 
450	 0.146000383159029 
451	 0.145273099711503 
452	 0.144575517192996 
453	 0.143932649726169 
454	 0.143134855790077 
455	 0.142405947931552 
456	 0.141726342247271 
457	 0.141009546345776 
458	 0.140312062220817 
459	 0.139666638976475 
460	 0.139008841718219 
461	 0.138195538319771 
462	 0.137443399036657 
463	 0.136813741989832 
464	 0.136251946013792 
465	 0.135484455209589 
466	 0.134765564120828 
467	 0.13407818568744 
468	 0.133303888936286 
469	 0.132634534333309 
470	 0.132058350478138 
471	 0.131522233022437 
472	 0.130950770226035 
473	 0.13027045216913 
474	 0.12966405108252 
475	 0.129257450173783 
476	 0.128730144474664 
477	 0.128240890674035 
478	 0.127888317623061 
479	 0.127691106878448 
480	 0.127327153210872 
481	 0.127007990509485 
482	 0.126855081193472 
483	 0.126654667473582 
484	 0.12655327057977 
485	 0.12656401306785 
486	 0.126625954101486 
487	 0.126576687980032 
488	 0.126601749895346 
489	 0.126718049687428 
490	 0.126775171212981 
491	 0.127049243854111 
492	 0.127323346633965 
493	 0.12742973584054 
494	 0.127580062833717 
495	 0.127886375913309 
496	 0.128199730466296 
497	 0.128298627378748 
498	 0.128630909953673 
499	 0.128916400245484 
500	 0.12900450520824 
501	 0.129052473625511 
502	 0.129184292376039 
503	 0.129339820013687 
504	 0.129452036094926 
505	 0.129689334682718 
506	 0.12990227191947 
507	 0.130046727276459 
508	 0.130173040055857 
509	 0.130333789765944 
510	 0.130515171491392 
511	 0.130725826921417 
512	 0.131068830181437 
513	 0.131405421839546 
514	 0.13179188920612 
515	 0.132327350672688 
516	 0.132770944939717 
517	 0.133355710375122 
518	 0.13415436286434 
519	 0.134995688384373 
520	 0.135912288850736 
521	 0.136890351958457 
522	 0.13794953168792 
523	 0.139208444103879 
524	 0.140638688314586 
525	 0.142206221515591 
526	 0.143882295066974 
527	 0.145708236532533 
528	 0.147697422530307 
529	 0.149820884079965 
530	 0.151989086828714 
531	 0.154319679154612 
532	 0.156886927223665 
533	 0.159689553079729 
534	 0.162480168834154 
535	 0.165399922345966 
536	 0.168500266546012 
537	 0.171687777143785 
538	 0.174956410041856 
539	 0.178336994755232 
540	 0.18182124646522 
541	 0.185259514786336 
542	 0.188697275905767 
543	 0.192090526482915 
544	 0.195370369915297 
545	 0.198668548339719 
546	 0.201921531444297 
547	 0.205051743197864 
548	 0.20800925867824 
549	 0.210829574312515 
550	 0.213541751588192 
551	 0.216171999498443 
552	 0.218689357836732 
553	 0.221133121869765 
554	 0.223544451900976 
555	 0.225945736022641 
556	 0.228320060597439 
557	 0.230717473886781 
558	 0.233153167462561 
559	 0.235570366374452 
560	 0.237976891948784 
561	 0.240428996677108 
562	 0.243008642036665 
563	 0.245552599368264 
564	 0.24810489623395 
565	 0.25067522396202 
566	 0.253169931241266 
567	 0.255550927886934 
568	 0.257828990895698 
569	 0.260022240903282 
570	 0.262084541511686 
571	 0.263957001145078 
572	 0.265684998556169 
573	 0.267419979217565 
574	 0.269120492208356 
575	 0.270718590771302 
576	 0.272172138022661 
577	 0.273588238201897 
578	 0.274878181787046 
579	 0.276122640071393 
580	 0.27746677726639 
581	 0.278614854107305 
582	 0.279650648720695 
583	 0.28064452293795 
584	 0.281546356371712 
585	 0.28238461186305 
586	 0.283099435599816 
587	 0.283650520997627 
588	 0.284229143634939 
589	 0.284917080950219 
590	 0.285615410075827 
591	 0.28611203130796 
592	 0.286664121543006 
593	 0.287253107576695 
594	 0.287780265897786 
595	 0.28812506757164 
596	 0.288462610576635 
597	 0.288835166770897 
598	 0.289197578863972 
599	 0.28949600014576 
600	 0.289788112746162 
601	 0.290118796181977 
602	 0.290490852306474 
603	 0.290812869815773 
604	 0.291141073778401 
605	 0.291545733806081 
606	 0.291897671235487 
607	 0.292302208623499 
608	 0.292732134896252 
609	 0.293022452954946 
610	 0.293403693726942 
611	 0.293828442380637 
612	 0.294217019285241 
613	 0.294586161076397 
614	 0.294826911303804 
615	 0.295056966297597 
616	 0.295476826022139 
617	 0.295804317729496 
618	 0.296072309400279 
619	 0.296351848911552 
620	 0.296715357652576 
621	 0.296972731274585 
622	 0.297231854150485 
623	 0.297623384760589 
624	 0.29789597541102 
625	 0.298106590507867 
626	 0.298306968039 
627	 0.298530535305433 
628	 0.29877319721473 
629	 0.299140799417835 
630	 0.299640806241055 
631	 0.299989321976983 
632	 0.300224753719951 
633	 0.300459785604642 
634	 0.300825999587034 
635	 0.301239077284887 
636	 0.301544359155255 
637	 0.301738421273371 
638	 0.302040079366676 
639	 0.302347114156745 
640	 0.302600544595408 
641	 0.302788678372108 
642	 0.303069489987803 
643	 0.303232119739459 
644	 0.303274536335768 
645	 0.303358358577607 
646	 0.303323189880338 
647	 0.303424529163851 
648	 0.303766822022404 
649	 0.303964106021796 
650	 0.304052969144909 
651	 0.304128926125116 
652	 0.30427341469094 
653	 0.304257621621619 
654	 0.304166067848842 
655	 0.304028210608047 
656	 0.30380027809663 
657	 0.303695860884399 
658	 0.303548720750115 
659	 0.303229187229502 
660	 0.302958794102031 
661	 0.302803359962058 
662	 0.30265594456483 
663	 0.302335754639165 
664	 0.302111772563661 
665	 0.301967441613418 
666	 0.301840922944917 
667	 0.301661060508785 
668	 0.301517012000832 
669	 0.301459496426962 
670	 0.301502286657495 
671	 0.301557906966314 
672	 0.301583477817767 
673	 0.301617045530727 
674	 0.301763455883789 
675	 0.301961150498013 
676	 0.302157955144894 
677	 0.302364054062457 
678	 0.302757486883287 
679	 0.303056304447854 
680	 0.303355870807992 
681	 0.303871953273355 
682	 0.304338169685297 
683	 0.304837206687005 
684	 0.305305346894935 
685	 0.305469847211253 
686	 0.305792535503503 
687	 0.306270485803423 
688	 0.306772705054744 
689	 0.307533253622423 
690	 0.307945964215477 
691	 0.308034571398385 
692	 0.308186522862968 
693	 0.308308631864542 
694	 0.308685791844464 
695	 0.309246356817247 
696	 0.309371730308934 
697	 0.309216942993855 
698	 0.308922332322781 
699	 0.308664115488983 
700	 0.308617951109492 
701	 0.30857953438638 
702	 0.308443529726432 
703	 0.308208478255908 
704	 0.30785159573254 
705	 0.307509883768204 
706	 0.307202810146298 
707	 0.306608729995916 
708	 0.306091367454418 
709	 0.30559309446958 
710	 0.304927639646143 
711	 0.304174884322093 
712	 0.303243923084521 
713	 0.302096967733242 
714	 0.300728564678489 
715	 0.299106415593097 
716	 0.29732772802785 
717	 0.295645197571903 
718	 0.294090271528681 
719	 0.292974954360477 
720	 0.292236668961403 
721	 0.29144412879544 
722	 0.289989213325809 
723	 0.28814914718118 
724	 0.28645028893276 
725	 0.285158915177566 
726	 0.283581293502277 
727	 0.281679725038732 
728	 0.279612353327272 
729	 0.277510466804128 
730	 0.275380916229452 
731	 0.273473687780714 
732	 0.271949271873508 
733	 0.270437838907635 
734	 0.268898085140555 
735	 0.267498537844657 
736	 0.266633435575526 
737	 0.265947269268601 
738	 0.265435816098849 
739	 0.265137649925865 
740	 0.264925738216176 
741	 0.264808513713754 
742	 0.26474517050329 
743	 0.264682245346452 
744	 0.264688827937243 
745	 0.264666860799286 
746	 0.264615180716242 
747	 0.264681313877646 
748	 0.264695628491716 
749	 0.264657269129538 
750	 0.264638158537345 
751	 0.264808103215104 
752	 0.264873613543439 
753	 0.26481557991118 
754	 0.264778461307234 
755	 0.264846960340219 
756	 0.264828819734906 
757	 0.264623716758722 
758	 0.264201609194164 
759	 0.263407825769926 
760	 0.262619246097812 
761	 0.262717413125009 
762	 0.262843933045581 
763	 0.263341599092998 
764	 0.264043355602751 
765	 0.264699717767305 
766	 0.265368373999894 
767	 0.265821225572297 
768	 0.266053708937045 
769	 0.266243043198439 
770	 0.266512858759124 
771	 0.266772795535054 
772	 0.266978579621714 
773	 0.267346164940906 
774	 0.267754207645909 
775	 0.268101505249238 
776	 0.268341481909401 
777	 0.268664199797138 
778	 0.269015782424913 
779	 0.269356875627667 
780	 0.269687989672006 
781	 0.270102974222338 
782	 0.27048518507383 
783	 0.270779026124708 
784	 0.271152249885473 
785	 0.2715412022321 
786	 0.271939612718872 
787	 0.272342500289904 
788	 0.272663771191501 
789	 0.273045684622032 
790	 0.273597313308358 
791	 0.274334015031275 
792	 0.274692479514091 
793	 0.275077745458484 
794	 0.275651556960394 
795	 0.275942310773486 
796	 0.276290348069997 
797	 0.276722358318307 
798	 0.277153283487008 
799	 0.277385366427974 
800	 0.277620449497254 
801	 0.277931716869337 
802	 0.278293344304845 
803	 0.27857290299817 
804	 0.278803402872511 
805	 0.278987227817448 
806	 0.279076967631577 
807	 0.279064874968709 
808	 0.278949310631483 
809	 0.278680061123422 
810	 0.278041598436972 
811	 0.277563345286118 
812	 0.277179200725007 
813	 0.276585809904666 
814	 0.27572444136768 
815	 0.274994860496603 
816	 0.274555002592752 
817	 0.27425022521005 
818	 0.273781429890034 
819	 0.273241449782499 
820	 0.272571783594414 
821	 0.271476488969011 
822	 0.26996543027805 
823	 0.268510691882456 
824	 0.267319611431366 
825	 0.26563010055207 
826	 0.263690613940519 
827	 0.261529585491686 
828	 0.259295007445631 
829	 0.257307814287935 
830	 0.255477778020792 
831	 0.253835703832679 
832	 0.252529913546686 
833	 0.251387858380566 
834	 0.250428182074348 
835	 0.249697146368171 
836	 0.249252708545674 
837	 0.248574935312803 
838	 0.247962388236151 
839	 0.247660981238243 
840	 0.247294031038628 
841	 0.246970521836384 
842	 0.246712538750119 
843	 0.246450206657564 
844	 0.24579213595731 
845	 0.245367908677425 
846	 0.245210028398532 
847	 0.244921105986802 
848	 0.244533657983179 
849	 0.244138824595316 
850	 0.243767378157202 
851	 0.243359780596893 
852	 0.243115536834027 
853	 0.242800390092881 
854	 0.242347548762554 
855	 0.242220838394203 
856	 0.241973305048421 
857	 0.241616011926968 
858	 0.24126593285227 
859	 0.240914812670916 
860	 0.240722172868237 
861	 0.240448784712923 
862	 0.239829562071744 
863	 0.239780213519251 
864	 0.239556809447342 
865	 0.239034974246317 
866	 0.238731459234296 
867	 0.238459333455236 
868	 0.238091297579166 
869	 0.23763202378543 
870	 0.237246682184666 
871	 0.237011177147853 
872	 0.236514838646373 
873	 0.235668136144977 
874	 0.235312328137375 
875	 0.235027964157974 
876	 0.234530822177187 
877	 0.23378686887894 
878	 0.233509833312013 
879	 0.232985620353122 
880	 0.232359200055331 
881	 0.232051117971941 
882	 0.231485820405243 
883	 0.23088854928998 
884	 0.230350526753457 
885	 0.229825369276015 
886	 0.229300614129269 
887	 0.228782382008612 
888	 0.228249457011434 
889	 0.227654390013919 
890	 0.227016251663619 
891	 0.226502636945948 
892	 0.226145829129103 
893	 0.225684193550405 
894	 0.225036780008643 
895	 0.224233059307399 
896	 0.223350027607598 
897	 0.222421150626758 
898	 0.221974514101147 
899	 0.221777607962898 
900	 0.221421075603107 
901	 0.221014836354883 
902	 0.220729017033854 
903	 0.220243844657306 
904	 0.21928659983187 
905	 0.218702392347407 
906	 0.218855374171344 
907	 0.218766410773136 
908	 0.217014141072534 
909	 0.216471804979077 
910	 0.215902625253913 
911	 0.214878780608015 
912	 0.214042104901453 
913	 0.21350648058298 
914	 0.212378012478861 
915	 0.210926026714584 
916	 0.210617688367215 
917	 0.209640466599578 
918	 0.208653806385431 
919	 0.207901578310615 
920	 0.206638973430229 
921	 0.205884218049838 
922	 0.204850700906098 
923	 0.203133865229649 
924	 0.201858280439165 
925	 0.199964933312877 
926	 0.198269756939532 
927	 0.197494474670723 
928	 0.195883933040103 
929	 0.193044807587741 
930	 0.190862465016211 
931	 0.191643780721729 
932	 0.189873442990097 
933	 0.185246575643294 
934	 0.180989578939677 
935	 0.180138049428648 
936	 0.177262002274301 
937	 0.177155641680019 
938	 0.176272835568235 
939	 0.171438323100033 
940	 0.170857826943234 
941	 0.170705391139597 
942	 0.16917581255835 
943	 0.166312602465679 
944	 0.166157453083099 
945	 0.164993146671004 
946	 0.162316611602241 
947	 0.159857639721112 
948	 0.157291476429256 
949	 0.15466716872728 
950	 0.151632666823196 
951	 0.148340983341699 
952	 0.149215379865516 
953	 0.146400616724584 
954	 0.142443770976129 
955	 0.14516212340246 
956	 0.143265684133566 
957	 0.141154881700883 
958	 0.139851238363175 
959	 0.13757618961585 
960	 0.138136935381038 
961	 0.137441100355224 
962	 0.135537719805166 
963	 0.135447922288709 
964	 0.13495163099242 
965	 0.134494440350869 
966	 0.133769288815943 
967	 0.132308832678375 
968	 0.134177339554171 
969	 0.13472872360497 
970	 0.133294616540531 
971	 0.133139635716776 
972	 0.134222165186639 
973	 0.134435247954005 
974	 0.133905656782844 
975	 0.134788082224857 
976	 0.134902000937022 
977	 0.134248339494684 
978	 0.133267498760106 
979	 0.132666294893642 
980	 0.134157468657701 
981	 0.135585489066105 
982	 0.13605809527126 
983	 0.136203357295275 
984	 0.136595400022675 
985	 0.137066700278457 
986	 0.137283564001606 
987	 0.13702615331246 
988	 0.137201681031586 
989	 0.13787990912963 
990	 0.138804385517524 
991	 0.139473833519276 
992	 0.139029996370924 
993	 0.138627981641178 
994	 0.139064865475174 
995	 0.140390274343055 
996	 0.141222151627466 
997	 0.141056342408171 
998	 0.141137993556255 
999	 0.143047194191541 
1000	 0.144705153860748 
1001	 0.132798620939275 
1002	 0.133302246459796 
1003	 0.133824272615237 
1004	 0.134282829518306 
1005	 0.134970582887288 
1006	 0.135827457536107 
1007	 0.136605966834795 
1008	 0.137705304446551 
1009	 0.138379365694841 
1010	 0.138942873939656 
1011	 0.139687631898942 
1012	 0.140098932417649 
1013	 0.140840770788661 
1014	 0.141579094297624 
1015	 0.14251183233417 
1016	 0.14320979628242 
1017	 0.14379377074338 
1018	 0.14444388087033 
1019	 0.14493922346723 
1020	 0.145530686118323 
1021	 0.146128558183447 
1022	 0.147117081257793 
1023	 0.147669992435195 
1024	 0.148527606368516 
1025	 0.149417855106372 
1026	 0.149978902829255 
1027	 0.150758186092819 
1028	 0.15154184887328 
1029	 0.152410014125148 
1030	 0.153501156212176 
1031	 0.154312535270537 
1032	 0.155048836833945 
1033	 0.155814703053976 
1034	 0.15642934533361 
1035	 0.157063678208606 
1036	 0.157729587890836 
1037	 0.158406288952506 
1038	 0.158916233395061 
1039	 0.159679567525695 
1040	 0.160608313379628 
1041	 0.16121047886819 
1042	 0.161761520585677 
1043	 0.162146287870584 
1044	 0.162702111613683 
1045	 0.163145948317242 
1046	 0.163807616080239 
1047	 0.164824337126616 
1048	 0.165437911537124 
1049	 0.165941033887414 
1050	 0.166396334325023 
1051	 0.166540816933104 
1052	 0.166928193448735 
1053	 0.167544272917089 
1054	 0.167943874697677 
1055	 0.168310842863953 
1056	 0.168644297788074 
1057	 0.168907161755017 
1058	 0.168987838562873 
1059	 0.169191657134625 
1060	 0.169413536034695 
1061	 0.16967890399859 
1062	 0.169973540705222 
1063	 0.170234307316468 
1064	 0.170678141516591 
1065	 0.170798029912146 
1066	 0.170749988178094 
1067	 0.170646157349889 
1068	 0.170126035505266 
1069	 0.169985159555819 
1070	 0.1700846000082 
1071	 0.170054197917126 
1072	 0.170227852564194 
1073	 0.170213851821034 
1074	 0.170193612284607 
1075	 0.17002488181608 
1076	 0.169863835268654 
1077	 0.169803653493605 
1078	 0.169489437374279 
1079	 0.168851874414153 
1080	 0.168523403341667 
1081	 0.168253546314404 
1082	 0.167907885730128 
1083	 0.167804977893788 
1084	 0.167436721931008 
1085	 0.166687620930005 
1086	 0.166155261108232 
1087	 0.165648725537881 
1088	 0.165108716223016 
1089	 0.164295847180181 
1090	 0.16433802159777 
1091	 0.163793364113915 
1092	 0.162930179487282 
1093	 0.162449053461424 
1094	 0.162143813642445 
1095	 0.161429513398705 
1096	 0.160694234936875 
1097	 0.160109158645139 
1098	 0.159160805914362 
1099	 0.158528058886386 
1100	 0.158309228242462 
1101	 0.15782750553321 
1102	 0.157447407880975 
1103	 0.156750163993657 
1104	 0.155199204969912 
1105	 0.154905686994783 
1106	 0.155120310204395 
1107	 0.154174202928965 
1108	 0.154303797450576 
1109	 0.153992979167251 
1110	 0.153367147006411 
1111	 0.152059573451852 
1112	 0.151336663758938 
1113	 0.150322454965657 
1114	 0.149707369812346 
1115	 0.149532267170053 
1116	 0.148782773108181 
1117	 0.148562848034885 
1118	 0.147839037888532 
1119	 0.146109196295381 
1120	 0.144536424756126 
1121	 0.14308501619365 
1122	 0.140264418532096 
1123	 0.138339742583124 
1124	 0.138284249617396 
1125	 0.13568140369869 
1126	 0.132901046911846 
1127	 0.132186990491755 
1128	 0.129759098779135 
1129	 0.12810351353768 
1130	 0.128994923558023 
1131	 0.126425696145309 
1132	 0.121874228277057 
1133	 0.119198914849089 
1134	 0.116061951244471 
1135	 0.11420036695008 
1136	 0.113697159356224 
1137	 0.11184171074171 
1138	 0.109408568594761 
1139	 0.107918986610565 
1140	 0.104856417384314 
1141	 0.102806811142143 
1142	 0.102274014701244 
1143	 9.98581261030156E-02 
1144	 9.81363873486798E-02 
1145	 9.78247526620404E-02 
