Wavelength	rt0711a200004.asd
350	 0.102275892028209 
351	 0.104319659035053 
352	 0.106373766590222 
353	 0.107861820766443 
354	 0.108773852048846 
355	 0.110077496833486 
356	 0.111937523539571 
357	 0.114086584988322 
358	 0.11608131565726 
359	 0.117512807471352 
360	 0.119226615073131 
361	 0.121356015967447 
362	 0.123437886413807 
363	 0.124587713493288 
364	 0.125849269557049 
365	 0.127650080707081 
366	 0.129168575892522 
367	 0.130426815218405 
368	 0.131911405470294 
369	 0.133813948053794 
370	 0.134779964610182 
371	 0.136214978032979 
372	 0.138022947558356 
373	 0.139318280569844 
374	 0.140785641208202 
375	 0.141942768530476 
376	 0.142895030609226 
377	 0.144657512300479 
378	 0.145808364574033 
379	 0.146898025473667 
380	 0.148365681862208 
381	 0.148762908406381 
382	 0.149545170292312 
383	 0.150588654799582 
384	 0.151121622641963 
385	 0.151733172463567 
386	 0.152195644819223 
387	 0.152654208429133 
388	 0.15367784597767 
389	 0.154317714467344 
390	 0.154392404949727 
391	 0.154163563224449 
392	 0.154534162799122 
393	 0.154443443088871 
394	 0.154065105082114 
395	 0.153921257162628 
396	 0.153711238661443 
397	 0.153468611814573 
398	 0.153118716239475 
399	 0.15250652859282 
400	 0.152062870808301 
401	 0.151675540797958 
402	 0.151208446323409 
403	 0.150683111335456 
404	 0.150083317922592 
405	 0.14949705520326 
406	 0.148962281099109 
407	 0.147994739540625 
408	 0.147155904457347 
409	 0.146501466144747 
410	 0.145559188499376 
411	 0.144667718440438 
412	 0.143857422813055 
413	 0.14306404918929 
414	 0.142133423737005 
415	 0.141235438191028 
416	 0.140316795293991 
417	 0.139317194249971 
418	 0.138739971432563 
419	 0.138025418614407 
420	 0.137132697071639 
421	 0.13663000493342 
422	 0.136127991017598 
423	 0.135690475604191 
424	 0.135412265983681 
425	 0.135196083434867 
426	 0.135276947547849 
427	 0.13549985586008 
428	 0.135604494652201 
429	 0.136081803994061 
430	 0.136535591868699 
431	 0.136846030035334 
432	 0.13730976319174 
433	 0.137799313819201 
434	 0.138124175499845 
435	 0.138234106649435 
436	 0.138538242649009 
437	 0.138615647038007 
438	 0.138488846865644 
439	 0.138389343505771 
440	 0.138051927651498 
441	 0.137629416204608 
442	 0.137223448684713 
443	 0.136799043459728 
444	 0.136242614305567 
445	 0.135589224358816 
446	 0.134909323598169 
447	 0.134210623244074 
448	 0.133521036039978 
449	 0.132812013233706 
450	 0.132023729260359 
451	 0.131281380621323 
452	 0.13061175637417 
453	 0.129951274213124 
454	 0.129071905614841 
455	 0.128383560769834 
456	 0.127760815176948 
457	 0.126963832765966 
458	 0.126280498280192 
459	 0.125560736379832 
460	 0.124774565455329 
461	 0.124036952375689 
462	 0.123400298344547 
463	 0.122757754980703 
464	 0.122040719550737 
465	 0.121387464207281 
466	 0.120692100018367 
467	 0.119943596609557 
468	 0.119196493160905 
469	 0.118623970645128 
470	 0.118035129957283 
471	 0.117368014106062 
472	 0.116778661335402 
473	 0.116202654652902 
474	 0.115658155987971 
475	 0.115159034559453 
476	 0.114639880264125 
477	 0.114144528238481 
478	 0.113729501135176 
479	 0.11343849102274 
480	 0.113098246893495 
481	 0.112870030598617 
482	 0.112792818757707 
483	 0.112564584064028 
484	 0.112389689073251 
485	 0.112301559467818 
486	 0.112259188849396 
487	 0.112159554456141 
488	 0.112229317024877 
489	 0.112440496173343 
490	 0.112521718904371 
491	 0.112667606447948 
492	 0.112830729921842 
493	 0.112957567502772 
494	 0.11309399619966 
495	 0.113321120716378 
496	 0.113563794959844 
497	 0.113697119097728 
498	 0.113926128187008 
499	 0.114154583324478 
500	 0.114299407207584 
501	 0.114342612084471 
502	 0.114468324068198 
503	 0.114608038183988 
504	 0.114668587230212 
505	 0.114776502961886 
506	 0.114915019615878 
507	 0.115041329929777 
508	 0.115103244118552 
509	 0.115184265267356 
510	 0.115343298118337 
511	 0.115594360164607 
512	 0.115870178096628 
513	 0.116180401731059 
514	 0.116504590155285 
515	 0.116830605597719 
516	 0.11727711189025 
517	 0.117875699963283 
518	 0.118574265577212 
519	 0.119238681799356 
520	 0.120057008706735 
521	 0.120974222038649 
522	 0.121941024814827 
523	 0.123096919843585 
524	 0.124405763007629 
525	 0.125838657495694 
526	 0.127379638185358 
527	 0.129063858457801 
528	 0.130879336904047 
529	 0.132810858556427 
530	 0.134863130615009 
531	 0.137108466346417 
532	 0.139542464574017 
533	 0.142111316437269 
534	 0.144745229055181 
535	 0.14754783079042 
536	 0.150543563504312 
537	 0.153642328344224 
538	 0.156819869294592 
539	 0.160109424419167 
540	 0.163517838121148 
541	 0.166946326540679 
542	 0.17027389971186 
543	 0.173516418526723 
544	 0.176787871888025 
545	 0.180098563982524 
546	 0.183305697090188 
547	 0.186336265644785 
548	 0.189288254360799 
549	 0.192166534123821 
550	 0.194925132521839 
551	 0.197527126203614 
552	 0.200065659232563 
553	 0.202546145252996 
554	 0.204969141853465 
555	 0.207322309272428 
556	 0.209729514924391 
557	 0.212189723524338 
558	 0.214655897485035 
559	 0.217140019534259 
560	 0.219628476057207 
561	 0.222156565399994 
562	 0.224794588316422 
563	 0.22745953650275 
564	 0.230111841340419 
565	 0.232764699192448 
566	 0.235553467767899 
567	 0.238104806240621 
568	 0.240485517229185 
569	 0.24287063204149 
570	 0.245040938291419 
571	 0.247090868940501 
572	 0.24903770089513 
573	 0.250799755116035 
574	 0.252558433672729 
575	 0.254239759363526 
576	 0.255767690932608 
577	 0.257304084758065 
578	 0.258701327652105 
579	 0.260057005110094 
580	 0.261563300293596 
581	 0.262772879794309 
582	 0.263865534684125 
583	 0.264995353472424 
584	 0.266128310536898 
585	 0.267123616957031 
586	 0.267943100563768 
587	 0.268636541190508 
588	 0.269419453973202 
589	 0.270227175504931 
590	 0.270975447804169 
591	 0.271643788731085 
592	 0.272352233263769 
593	 0.272988661454647 
594	 0.27347639752217 
595	 0.274054623326172 
596	 0.274541330090089 
597	 0.274969747458323 
598	 0.275472511061766 
599	 0.275889574648159 
600	 0.276271715787023 
601	 0.276676692624923 
602	 0.277130434607754 
603	 0.277615864545976 
604	 0.278073256073864 
605	 0.27845954581969 
606	 0.278894747380607 
607	 0.279340070171897 
608	 0.279769071724154 
609	 0.280175246852764 
610	 0.280578391393113 
611	 0.280992724535747 
612	 0.281416697585651 
613	 0.281808142514442 
614	 0.282159636431296 
615	 0.282508195693612 
616	 0.282899569686547 
617	 0.283247799368443 
618	 0.283552674534177 
619	 0.283868265974572 
620	 0.284316442021771 
621	 0.284735756096255 
622	 0.285033230576911 
623	 0.285218017144173 
624	 0.285658058549993 
625	 0.28604969304295 
626	 0.286321536444821 
627	 0.286641507725206 
628	 0.286930764111794 
629	 0.287327669112648 
630	 0.287865986245714 
631	 0.28820868919557 
632	 0.288506652709186 
633	 0.288845482701478 
634	 0.289262929694916 
635	 0.289643206915544 
636	 0.289947193266468 
637	 0.29023828022389 
638	 0.290720138250926 
639	 0.291046462967916 
640	 0.291247011485899 
641	 0.291468408619256 
642	 0.291847101505665 
643	 0.292099518968177 
644	 0.292231763177283 
645	 0.292471869536233 
646	 0.292549056332672 
647	 0.292702139893794 
648	 0.293054366537675 
649	 0.293270132747848 
650	 0.2934229110259 
651	 0.293534694757656 
652	 0.293607176636337 
653	 0.293603699837987 
654	 0.293577706075941 
655	 0.293500693673301 
656	 0.293250735871457 
657	 0.293111581625488 
658	 0.292972192731151 
659	 0.292727366160141 
660	 0.292565672317405 
661	 0.292474688332266 
662	 0.292315546587332 
663	 0.291920485539847 
664	 0.291688625200444 
665	 0.291501867255919 
666	 0.291273346089276 
667	 0.291099052557233 
668	 0.290981825948813 
669	 0.290909909986617 
670	 0.290871355332339 
671	 0.290901220482955 
672	 0.290900558309406 
673	 0.290914744181657 
674	 0.291115960379432 
675	 0.291340956552711 
676	 0.291583630908363 
677	 0.291863975043044 
678	 0.292189616725756 
679	 0.292528138146477 
680	 0.292907235150996 
681	 0.293376476134363 
682	 0.293919452508 
683	 0.294537159059017 
684	 0.295122850456595 
685	 0.295463426415133 
686	 0.29594089570379 
687	 0.2965962446969 
688	 0.297276265608827 
689	 0.297850315280094 
690	 0.298329520650552 
691	 0.298726699383678 
692	 0.299062218073578 
693	 0.299342541754294 
694	 0.299715938586796 
695	 0.300172148621334 
696	 0.300484820820494 
697	 0.300544240615784 
698	 0.300436425324966 
699	 0.300329602752585 
700	 0.300400690794711 
701	 0.300407637566394 
702	 0.300316758450618 
703	 0.300264387155478 
704	 0.300036393915259 
705	 0.299785971068648 
706	 0.299595671195287 
707	 0.299260638236616 
708	 0.298875895137867 
709	 0.298472289277323 
710	 0.298044241228202 
711	 0.297539683841337 
712	 0.296807254160063 
713	 0.295884774733328 
714	 0.294980296398798 
715	 0.293883979015651 
716	 0.29264583033019 
717	 0.291464540067701 
718	 0.290432684524526 
719	 0.289466097518911 
720	 0.288690108829022 
721	 0.288039954965942 
722	 0.286961540331766 
723	 0.285583771733126 
724	 0.284228967316631 
725	 0.283056106039366 
726	 0.281761017773476 
727	 0.280275395386841 
728	 0.278634473773414 
729	 0.27692649106217 
730	 0.275022123277896 
731	 0.273258288692506 
732	 0.271954469469591 
733	 0.270564801040665 
734	 0.269154314041413 
735	 0.267949717583527 
736	 0.26731508397876 
737	 0.266707090645612 
738	 0.266161392346561 
739	 0.265815749563609 
740	 0.265625175126449 
741	 0.265542265732439 
742	 0.265520232355312 
743	 0.265508794106702 
744	 0.265424753433654 
745	 0.265326021624997 
746	 0.26528299008481 
747	 0.265358275317526 
748	 0.265394804361639 
749	 0.26536910848076 
750	 0.265324306061755 
751	 0.26539789978635 
752	 0.265378000127783 
753	 0.265323524163525 
754	 0.265417905767434 
755	 0.265543003012376 
756	 0.265515798017055 
757	 0.265316987634482 
758	 0.2651233843096 
759	 0.26469450220893 
760	 0.264155267243004 
761	 0.264110466097836 
762	 0.264303827154468 
763	 0.26461086506761 
764	 0.265015080624239 
765	 0.26551588153791 
766	 0.265962678079471 
767	 0.266274830306025 
768	 0.266466765642447 
769	 0.266619599152442 
770	 0.266898697471978 
771	 0.267143673112442 
772	 0.267259134164362 
773	 0.267514288942523 
774	 0.267766248676282 
775	 0.268023664054743 
776	 0.268336340930977 
777	 0.268591212028726 
778	 0.268777332192085 
779	 0.269002599681163 
780	 0.269460089455269 
781	 0.269808202854309 
782	 0.270087364213465 
783	 0.270397798780881 
784	 0.270818729768341 
785	 0.271119014500856 
786	 0.271410889741429 
787	 0.271853595751377 
788	 0.272157570313972 
789	 0.272464952412471 
790	 0.272880689177596 
791	 0.27342444622598 
792	 0.273694769452978 
793	 0.27405508734141 
794	 0.274634467606163 
795	 0.275001978129792 
796	 0.275273042441751 
797	 0.275505232312286 
798	 0.275761146614775 
799	 0.276134752254023 
800	 0.276358995934373 
801	 0.276515933515663 
802	 0.276845340481343 
803	 0.277113544164553 
804	 0.277303013008885 
805	 0.277439008276624 
806	 0.277563422240042 
807	 0.27744635843281 
808	 0.277239808851955 
809	 0.277066192490759 
810	 0.276756754023066 
811	 0.276494827353287 
812	 0.276222621206922 
813	 0.275793604154465 
814	 0.275204639333412 
815	 0.274509032425812 
816	 0.273932239866231 
817	 0.273716219213911 
818	 0.273500879380516 
819	 0.272914986598214 
820	 0.271998719587005 
821	 0.271288709560851 
822	 0.270106869741966 
823	 0.268708595638177 
824	 0.267419770838161 
825	 0.265999477078043 
826	 0.264282682324198 
827	 0.26242952349072 
828	 0.260734504150051 
829	 0.258703301596066 
830	 0.256773547572966 
831	 0.255222709084453 
832	 0.254140996160178 
833	 0.253154435244581 
834	 0.252243846978528 
835	 0.251482765876845 
836	 0.25100156591163 
837	 0.250424483542687 
838	 0.249839460152907 
839	 0.249403040750465 
840	 0.249171428453971 
841	 0.248983814144839 
842	 0.248682669954314 
843	 0.24817659751084 
844	 0.247600326567269 
845	 0.24717181171857 
846	 0.246950627669946 
847	 0.246830539276386 
848	 0.24638306183841 
849	 0.24601858410052 
850	 0.245801734510938 
851	 0.245267208505332 
852	 0.245141119788448 
853	 0.245051808772524 
854	 0.244639600125571 
855	 0.244065985188693 
856	 0.243772365947808 
857	 0.243567968586883 
858	 0.243210155869858 
859	 0.242992121917998 
860	 0.242756368936013 
861	 0.242430508672414 
862	 0.242038746024608 
863	 0.241891295467783 
864	 0.241700942899891 
865	 0.241341379563246 
866	 0.240894868427872 
867	 0.240472615489184 
868	 0.240091200057286 
869	 0.239725439876794 
870	 0.239328639229424 
871	 0.239047433727496 
872	 0.238632900638806 
873	 0.237985340633773 
874	 0.237505628795459 
875	 0.237258556075405 
876	 0.236895648251055 
877	 0.236169053631888 
878	 0.235697592320734 
879	 0.235109148594584 
880	 0.234552891572768 
881	 0.234278886199045 
882	 0.233656301857012 
883	 0.23290779190547 
884	 0.232311990177319 
885	 0.232068875937291 
886	 0.2317748770494 
887	 0.23122634437376 
888	 0.230563176004547 
889	 0.230226509224854 
890	 0.229644366692714 
891	 0.229095744081348 
892	 0.228732744770699 
893	 0.228198589477405 
894	 0.227630785165777 
895	 0.227093463496151 
896	 0.226551580470485 
897	 0.225705164608165 
898	 0.225360103804266 
899	 0.22482457778057 
900	 0.22363441073886 
901	 0.223927766307782 
902	 0.223487078001379 
903	 0.222500092229771 
904	 0.221909249861358 
905	 0.221190811032409 
906	 0.221337107758067 
907	 0.221560939755322 
908	 0.220141601077348 
909	 0.21893878948261 
910	 0.218205838338686 
911	 0.217720149165672 
912	 0.216989106004923 
913	 0.215924832731896 
914	 0.214789923344299 
915	 0.213663444088106 
916	 0.212411442342966 
917	 0.211915431417229 
918	 0.210646180643136 
919	 0.208774741200791 
920	 0.208965703719772 
921	 0.207977765336765 
922	 0.206081156228173 
923	 0.204186880798964 
924	 0.20305628244147 
925	 0.201669296974508 
926	 0.199802848435993 
927	 0.197673984716487 
928	 0.196109334707541 
929	 0.194934225323643 
930	 0.193911351231206 
931	 0.192744009589833 
932	 0.191767010962875 
933	 0.188440607967482 
934	 0.183531540505969 
935	 0.179850295026833 
936	 0.177697544105849 
937	 0.176387307316588 
938	 0.174149608131598 
939	 0.170457032054199 
940	 0.170248375345567 
941	 0.169669224501702 
942	 0.168045464900335 
943	 0.166152496530471 
944	 0.162864190576133 
945	 0.159922642849291 
946	 0.157579979317906 
947	 0.155181811774284 
948	 0.153955557931563 
949	 0.151690153132831 
950	 0.148089651906606 
951	 0.144320553172443 
952	 0.140538628426245 
953	 0.138100040178822 
954	 0.137723522218037 
955	 0.138631648175343 
956	 0.134760433143112 
957	 0.132705193541725 
958	 0.13194984086868 
959	 0.127877690716103 
960	 0.130670268345257 
961	 0.12986851042183 
962	 0.125640545029382 
963	 0.125882919641001 
964	 0.125930423013884 
965	 0.125210612438528 
966	 0.124248226373202 
967	 0.123999271338214 
968	 0.124158426737851 
969	 0.124441669075608 
970	 0.124468358565866 
971	 0.123962736018488 
972	 0.124184671785584 
973	 0.124071363678528 
974	 0.123811813382669 
975	 0.124653143269121 
976	 0.124090829374261 
977	 0.122616989581913 
978	 0.122086764027179 
979	 0.124202127456811 
980	 0.123939157284957 
981	 0.124560598033133 
982	 0.126105275439867 
983	 0.125789877025523 
984	 0.125746302367301 
985	 0.125797693276138 
986	 0.125882075263346 
987	 0.126203053311026 
988	 0.126920867496905 
989	 0.128407325185279 
990	 0.129772120597908 
991	 0.129537108194932 
992	 0.128449982217763 
993	 0.128999975282263 
994	 0.130127952842184 
995	 0.129275603168514 
996	 0.13152705086751 
997	 0.132375540543649 
998	 0.132495369900658 
999	 0.134927625111144 
1000	 0.134642826215683 
1001	 0.136859573671778 
1002	 0.137653387258129 
1003	 0.138457255628612 
1004	 0.139467885045615 
1005	 0.140470148113714 
1006	 0.141610044777592 
1007	 0.142552904498823 
1008	 0.143629524744568 
1009	 0.144440713732187 
1010	 0.145030808091134 
1011	 0.145820458982227 
1012	 0.146408841803394 
1013	 0.147416448476694 
1014	 0.148477405289023 
1015	 0.149673438652353 
1016	 0.15090599470707 
1017	 0.152440109745718 
1018	 0.153696931045614 
1019	 0.155024958534962 
1020	 0.156158924414503 
1021	 0.157201797122425 
1022	 0.157906382370156 
1023	 0.158564970983014 
1024	 0.15939039282663 
1025	 0.160245452704282 
1026	 0.161291585977356 
1027	 0.162371162602704 
1028	 0.163605499666283 
1029	 0.164709475765397 
1030	 0.165825442945341 
1031	 0.166918934443147 
1032	 0.16813239030869 
1033	 0.169103792985114 
1034	 0.169842935538191 
1035	 0.170765883736571 
1036	 0.171467051822529 
1037	 0.172451071772702 
1038	 0.173809152198835 
1039	 0.174965132705326 
1040	 0.176548524461927 
1041	 0.177586534352273 
1042	 0.178228476008867 
1043	 0.178504924028863 
1044	 0.178947851443575 
1045	 0.178710857155137 
1046	 0.17932302727311 
1047	 0.180443627206504 
1048	 0.181406877862226 
1049	 0.182855774990251 
1050	 0.183758483520612 
1051	 0.184390245714128 
1052	 0.185062899368814 
1053	 0.185471087877228 
1054	 0.185944393640671 
1055	 0.186534062353077 
1056	 0.18702099428822 
1057	 0.187440085808959 
1058	 0.187812991707517 
1059	 0.188004714998531 
1060	 0.187925215428734 
1061	 0.188226185687253 
1062	 0.188555154608298 
1063	 0.188894628522125 
1064	 0.189607189016806 
1065	 0.189967430999226 
1066	 0.190219412288496 
1067	 0.190238925865619 
1068	 0.189905495786705 
1069	 0.189798685749168 
1070	 0.189539856801347 
1071	 0.189380092871496 
1072	 0.189418622891593 
1073	 0.189580973405978 
1074	 0.189329322941689 
1075	 0.188781114269831 
1076	 0.18855257120497 
1077	 0.188164828426085 
1078	 0.188007388009084 
1079	 0.188396002351899 
1080	 0.188123811198216 
1081	 0.18756364328035 
1082	 0.18704055210711 
1083	 0.185858377469473 
1084	 0.185393764225916 
1085	 0.185793574833961 
1086	 0.185353460507295 
1087	 0.184826999056618 
1088	 0.184203486764391 
1089	 0.182786696324955 
1090	 0.18148085641722 
1091	 0.18081455723028 
1092	 0.180758349773085 
1093	 0.180104553776436 
1094	 0.179623670621209 
1095	 0.178920376094395 
1096	 0.177709311323917 
1097	 0.176780029398408 
1098	 0.175971947576378 
1099	 0.175164173908535 
1100	 0.174383170561018 
1101	 0.173585309560217 
1102	 0.172796211771349 
1103	 0.172019525601238 
1104	 0.171083846818359 
1105	 0.17041636255735 
1106	 0.169778361969859 
1107	 0.168741507342046 
1108	 0.167918086453801 
1109	 0.167157924773962 
1110	 0.16650474529727 
1111	 0.166188989381994 
1112	 0.165805333071373 
1113	 0.165603050282645 
1114	 0.164790912067911 
1115	 0.163330517083722 
1116	 0.162342150600381 
1117	 0.161205450726994 
1118	 0.159712737236982 
1119	 0.158491735935996 
1120	 0.157266058820369 
1121	 0.156223944819358 
1122	 0.153666851562068 
1123	 0.152003562968761 
1124	 0.149955325739911 
1125	 0.144804303950126 
1126	 0.143735267155086 
1127	 0.142648578734202 
1128	 0.13896535189929 
1129	 0.136562070799839 
1130	 0.134676774816891 
1131	 0.13144403930194 
1132	 0.128996465946251 
1133	 0.126040949534848 
1134	 0.121792919527298 
1135	 0.119142837676972 
1136	 0.116193707641832 
1137	 0.114365227912906 
1138	 0.114209663730274 
1139	 0.113049143136759 
1140	 0.108505733472586 
1141	 0.105033858461412 
1142	 0.10147660755802 
1143	 9.84649263165387E-02 
1144	 9.80437741492808E-02 
1145	 0.096954126505813 
1146	 0.09484152449196 
1147	 9.11704345506224E-02 
1148	 8.75785290245943E-02 
1149	 8.54936621170943E-02 
1150	 8.32190617506743E-02 
1151	 8.09161055826688E-02 
1152	 7.96348762963864E-02 
1153	 7.90185818550111E-02 
1154	 7.81523186480893E-02 
1155	 7.77407775320347E-02 
1156	 7.73922518289224E-02 
1157	 7.60542343387595E-02 
1158	 7.55854847866064E-02 
1159	 7.55215082072867E-02 
1160	 7.48988506130074E-02 
1161	 7.49679817883363E-02 
1162	 7.50016658265841E-02 
1163	 7.44526472418239E-02 
1164	 7.41954153238134E-02 
1165	 7.43857814440853E-02 
1166	 7.45196247718268E-02 
1167	 7.41993828681224E-02 
1168	 7.40270028764276E-02 
1169	 7.38696899911123E-02 
1170	 7.35375881245941E-02 
1171	 7.33800809105819E-02 
1172	 7.37868152544488E-02 
1173	 7.36270875143975E-02 
1174	 7.31198500830993E-02 
1175	 7.26567423175327E-02 
1176	 7.26983132516145E-02 
1177	 7.28636613559001E-02 
1178	 7.29140443818403E-02 
1179	 7.28944992905434E-02 
1180	 0.072454938740979 
1181	 7.22245009346513E-02 
1182	 7.25320400236698E-02 
1183	 7.24888992392905E-02 
1184	 7.25311547583553E-02 
1185	 7.26921753558246E-02 
1186	 0.072371692930207 
1187	 0.072108662638045 
1188	 7.20596147380216E-02 
1189	 7.18084210146777E-02 
1190	 7.16238020585517E-02 
1191	 7.17237916215762E-02 
1192	 7.17490311687532E-02 
1193	 7.18405142237828E-02 
1194	 7.17715181639861E-02 
1195	 7.16878750009084E-02 
1196	 7.17277826120299E-02 
1197	 7.17607941294032E-02 
1198	 7.15152035924092E-02 
1199	 7.13035910852801E-02 
1200	 0.071578042533975 
1201	 7.19872826780694E-02 
1202	 7.21251547894731E-02 
1203	 7.22608839707335E-02 
1204	 7.22601625168296E-02 
1205	 7.20537815239006E-02 
1206	 7.20624669345835E-02 
1207	 7.21748041699685E-02 
1208	 7.23292762517254E-02 
1209	 0.072580336896223 
1210	 7.26966842506645E-02 
1211	 7.28576732307645E-02 
1212	 7.29688065607934E-02 
1213	 7.27407100713174E-02 
1214	 7.27295637697295E-02 
1215	 7.28196480496031E-02 
1216	 7.32232375363419E-02 
1217	 7.33473564812091E-02 
1218	 0.073287399223041 
1219	 7.35412008159434E-02 
1220	 7.37978308898924E-02 
1221	 7.38061440472351E-02 
1222	 7.40539414564354E-02 
1223	 7.44435828716918E-02 
1224	 7.45015789321159E-02 
1225	 0.074428896549658 
1226	 0.074661337950557 
1227	 7.48693772509421E-02 
1228	 7.48722651595627E-02 
1229	 7.49062395230524E-02 
1230	 7.49799900640244E-02 
1231	 7.51504632748945E-02 
1232	 7.52036082400223E-02 
1233	 7.52716680755984E-02 
1234	 0.075580072599318 
1235	 0.075748470263487 
1236	 7.56143818845332E-02 
1237	 7.56659048850314E-02 
1238	 7.58583549007691E-02 
1239	 7.60268682233649E-02 
1240	 7.60425718959456E-02 
1241	 7.60660135811132E-02 
1242	 7.64068543174453E-02 
1243	 7.67642917113095E-02 
1244	 7.68982757816687E-02 
1245	 7.71798363816379E-02 
1246	 7.73552358621655E-02 
1247	 7.74051936370901E-02 
1248	 7.76101188062492E-02 
1249	 0.07759426883347 
1250	 0.077558745490185 
1251	 7.76831557338113E-02 
1252	 7.76807927507703E-02 
1253	 7.78772735370996E-02 
1254	 7.80449060154585E-02 
1255	 7.79859181667923E-02 
1256	 7.80763837303978E-02 
1257	 7.82333954065285E-02 
1258	 7.83435831829236E-02 
1259	 7.85954378274051E-02 
1260	 0.078705272738782 
1261	 7.86965318760651E-02 
1262	 7.86593590819108E-02 
1263	 7.86027611447825E-02 
1264	 7.83610097603853E-02 
1265	 7.81964315029482E-02 
1266	 7.84646639343587E-02 
1267	 7.87467729145693E-02 
1268	 7.86924671896409E-02 
1269	 7.86287984976876E-02 
1270	 7.85469460999623E-02 
1271	 7.82752032874236E-02 
1272	 7.82013615580222E-02 
1273	 7.82627501396141E-02 
1274	 7.79008776573558E-02 
1275	 7.75285988373739E-02 
1276	 7.73599810910962E-02 
1277	 7.70876388891156E-02 
1278	 7.69451558489897E-02 
1279	 7.68694820467633E-02 
1280	 7.68838230888989E-02 
1281	 7.68123235445882E-02 
1282	 7.67460484918595E-02 
1283	 7.63974817909511E-02 
1284	 7.57553404462867E-02 
1285	 7.54654508396276E-02 
1286	 7.52972432314156E-02 
1287	 7.48715159022775E-02 
1288	 7.44950859328285E-02 
1289	 7.42098497470179E-02 
1290	 7.37722354227484E-02 
1291	 7.31147408886836E-02 
1292	 7.28183349625557E-02 
1293	 7.26625946536031E-02 
1294	 0.072132049940808 
1295	 7.15708887203198E-02 
1296	 7.12575540549248E-02 
1297	 7.07426448589381E-02 
1298	 7.01805504938348E-02 
1299	 6.98089354306496E-02 
1300	 6.92973043514512E-02 
1301	 6.86117050862974E-02 
1302	 6.78741056525034E-02 
1303	 6.72039246431369E-02 
1304	 6.67839160857078E-02 
1305	 6.63682885300572E-02 
1306	 6.58399667991043E-02 
1307	 6.53822554278101E-02 
1308	 6.46687329766044E-02 
1309	 6.35081101400256E-02 
1310	 6.28186421466298E-02 
1311	 6.22934296233868E-02 
1312	 6.16433679077199E-02 
1313	 6.12695275683361E-02 
1314	 6.08212581986537E-02 
1315	 6.01634384359837E-02 
1316	 5.94935122684696E-02 
1317	 5.89695825472118E-02 
1318	 5.83536960348131E-02 
1319	 5.75191411913277E-02 
1320	 5.67977597414174E-02 
1321	 5.60534140766361E-02 
1322	 5.55366043172747E-02 
1323	 0.055194195715613 
1324	 5.44795542266158E-02 
1325	 5.33948501015652E-02 
1326	 5.26577770447957E-02 
1327	 5.20679293862417E-02 
1328	 5.16451976976742E-02 
1329	 5.16142564347544E-02 
1330	 5.11929338644934E-02 
1331	 5.03069624757865E-02 
1332	 4.93832053251175E-02 
1333	 4.87496157047392E-02 
1334	 4.84825861647281E-02 
1335	 4.79911857524911E-02 
1336	 4.74923282664068E-02 
1337	 4.69301030310871E-02 
1338	 4.60822971442654E-02 
1339	 4.57732743083579E-02 
1340	 4.57781464570381E-02 
1341	 4.52259641401671E-02 
1342	 4.49006070973627E-02 
1343	 4.47792140234342E-02 
1344	 4.35081109682464E-02 
1345	 4.34174654529898E-02 
1346	 4.58124828111924E-02 
1347	 0.046473922759962 
1348	 4.65034849192863E-02 
1349	 4.74589442984614E-02 
1350	 4.66192809089263E-02 
1351	 0.046950454155352 
1352	 5.23156602037631E-02 
1353	 5.54709250016773E-02 
1354	 5.75530860882149E-02 
1355	 5.41986922747218E-02 
1356	 0.045017709849072 
1357	 3.93861449265571E-02 
1358	 0.070877893020383 
1359	 0.115203947247447 
1360	 0.155922659866026 
1361	 0.231584187466834 
1362	 0.27278196009825 
1363	 0.196259930230578 
1364	 0.161834492055342 
1365	 0.259072285780924 
1366	 9.30827711111313E-02 
1367	-7.62423246116357E-02 
1368	-8.29439279349145E-02 
1369	-0.112834086605663 
1370	-5.72700422736601E-02 
1371	 0.350908279313469 
1372	 0.548980701976756 
1373	 0.47299960798341 
1374	 0.499985926231306 
1375	 0.697227264481873 
1376	 0.727078086293308 
1377	 0.420672726329982 
1378	 0.424940211517115 
1379	 0.664642271840142 
1380	 0.675383175708275 
1381	 0.755577264658486 
1382	 0.631153355818655 
1383	-3.69614784274564E-02 
1384	-0.161722275969212 
1385	 5.47013809026854E-02 
1386	 9.90471375114642E-02 
1387	 0.410819462845349 
1388	 0.45468104197743 
1389	 2.87321353717812E-02 
1390	-0.113835294897378 
1391	-0.214543695607984 
1392	-0.100664218293564 
1393	 0.167857298205782 
1394	 0.245429542878285 
1395	 0.254851468002062 
1396	 0.501180583764933 
1397	 0.373311170699129 
1398	 0.191137341078608 
1399	 0.183907996541191 
1400	 0.150415650547225 
1401	 3.42860937294798E-02 
1402	 5.57911843718299E-02 
1403	 0.126703020228377 
1404	 8.13245403810992E-02 
1405	 8.68980160474746E-02 
1406	 0.116891508878395 
1407	 8.79048307860756E-02 
1408	-0.013146490057903 
1409	 0.026641287865354 
1410	 0.127182635957322 
1411	 9.37642747707234E-02 
1412	 5.43340813647724E-02 
1413	 7.06805056486705E-02 
1414	 4.58510673874176E-02 
1415	 2.49299456211171E-02 
1416	 6.53807165175257E-02 
1417	 6.65644989684298E-02 
1418	 2.52289568601388E-02 
1419	 1.27694091185657E-02 
1420	 1.58856266410798E-02 
1421	 1.65437493245592E-02 
1422	 1.78008231115231E-02 
1423	 1.23211261489759E-02 
1424	 1.72373453706874E-03 
1425	 6.23738477053464E-03 
1426	 1.52432830274122E-02 
1427	 1.56077986108121E-02 
1428	 2.24953267062866E-02 
1429	 2.54337337805376E-02 
1430	 1.67112269127841E-02 
1431	 1.43850779045581E-02 
1432	 1.97899873521299E-02 
1433	 2.15486607910481E-02 
1434	 2.06122597062269E-02 
1435	 0.020498955778284 
1436	 2.29669592069034E-02 
1437	 2.05220113969747E-02 
1438	 1.51861509459006E-02 
1439	 1.75693949351567E-02 
1440	 0.02271507605678 
1441	 1.96471738588271E-02 
1442	 1.51396698291634E-02 
1443	 1.61554279206531E-02 
1444	 1.95474004654823E-02 
1445	 1.94922600554315E-02 
1446	 1.54934158469129E-02 
1447	 1.36536223902891E-02 
1448	 1.49706856287906E-02 
1449	 1.49065606155695E-02 
1450	 1.46550090082055E-02 
1451	 1.53851818831646E-02 
1452	 1.37137245357755E-02 
1453	 0.01156858983616 
1454	 1.18040999590697E-02 
1455	 0.014684497556279 
1456	 1.52968451823926E-02 
1457	 1.55117361042095E-02 
1458	 1.52403063827646E-02 
1459	 1.39733060761772E-02 
1460	 1.44385701871629E-02 
1461	 1.59373868032709E-02 
1462	 1.58105601554027E-02 
1463	 1.55334996078091E-02 
1464	 1.59485515299709E-02 
1465	 0.015194634206896 
1466	 1.51965947242467E-02 
1467	 1.74980070229519E-02 
1468	 0.018229314115659 
1469	 1.73963413827859E-02 
1470	 1.68237683501761E-02 
1471	 1.59287295501524E-02 
1472	 1.61057161749693E-02 
1473	 1.64612560026663E-02 
1474	 1.65257440526626E-02 
1475	 1.78048565357118E-02 
1476	 0.017799485991513 
1477	 1.71032152076271E-02 
1478	 1.58539079513805E-02 
1479	 1.30887212829654E-02 
1480	 1.27317492587649E-02 
1481	 0.012908963572126 
1482	 1.30761135575424E-02 
1483	 0.014936850507159 
1484	 1.54358209888831E-02 
1485	 1.49538666200639E-02 
1486	 1.48817827460129E-02 
1487	 0.014469393536293 
1488	 1.47480555229284E-02 
1489	 1.56689035316478E-02 
1490	 1.57454050862336E-02 
1491	 1.56076489987466E-02 
1492	 1.58419977780347E-02 
1493	 1.58398427146351E-02 
1494	 1.58795462769074E-02 
1495	 1.63661757279136E-02 
1496	 1.64821690380397E-02 
1497	 1.60877686552817E-02 
1498	 1.60613570393116E-02 
1499	 0.016361716318846 
1500	 1.64041421500765E-02 
1501	 1.64073004303699E-02 
1502	 0.01642315455784 
1503	 1.61519239991928E-02 
1504	 1.61525013792401E-02 
1505	 1.65383075144317E-02 
1506	 1.65381859549132E-02 
1507	 1.64358136874719E-02 
1508	 1.66234652956463E-02 
1509	 0.016708891148882 
1510	 1.67707301095912E-02 
1511	 1.70251894936621E-02 
1512	 1.72015132421964E-02 
1513	 1.69749940502441E-02 
1514	 1.68702354786913E-02 
1515	 1.71636842864198E-02 
1516	 1.73280272004598E-02 
1517	 1.74717834612001E-02 
1518	 1.76510181602134E-02 
1519	 1.75748759134707E-02 
1520	 1.74676630450129E-02 
1521	 1.75869977531997E-02 
1522	 1.79062303175768E-02 
1523	 1.81290023179018E-02 
1524	 1.79849286080911E-02 
1525	 1.81340487206574E-02 
1526	 1.86561364434498E-02 
1527	 1.87887604151998E-02 
1528	 1.88248817875413E-02 
1529	 1.89630591781747E-02 
1530	 1.89120905755121E-02 
1531	 1.87868144253023E-02 
1532	 1.88874064761214E-02 
1533	 1.92267737829804E-02 
1534	 1.94316847385964E-02 
1535	 1.94063456155759E-02 
1536	 1.95005897099516E-02 
1537	 1.96203926615962E-02 
1538	 0.019427849730093 
1539	 1.94046707233878E-02 
1540	 1.97274362899199E-02 
1541	 1.99418388097576E-02 
1542	 0.020061981769657 
1543	 0.020139720897932 
1544	 2.01659543449642E-02 
1545	 2.03054437895057E-02 
1546	 2.04653791579695E-02 
1547	 2.06003825105859E-02 
1548	 2.08056209955842E-02 
1549	 2.08606078662965E-02 
1550	 2.07668294815429E-02 
1551	 2.07829450901044E-02 
1552	 2.09621740955428E-02 
1553	 2.10599876232664E-02 
1554	 2.09392431136194E-02 
1555	 2.09376482803886E-02 
1556	 2.11426687804715E-02 
1557	 2.13213958824283E-02 
1558	 2.15442492773435E-02 
1559	 2.19278407350002E-02 
1560	 2.21271413466893E-02 
1561	 2.21022629935342E-02 
1562	 2.20549852257618E-02 
1563	 2.19407565709079E-02 
1564	 2.19775755974496E-02 
1565	 2.20906013672834E-02 
1566	 2.21802944914626E-02 
1567	 2.23655950610864E-02 
1568	 2.27220871879876E-02 
1569	 2.30559432067598E-02 
1570	 0.02310689421261 
1571	 2.31104834346295E-02 
1572	 2.30609184033906E-02 
1573	 2.31358366969268E-02 
1574	 2.34000739140429E-02 
1575	 2.34574107452048E-02 
1576	 0.023498397069307 
1577	 2.34448759541119E-02 
1578	 0.023284966169319 
1579	 2.34338384725898E-02 
1580	 2.35546460155122E-02 
1581	 2.35982151030312E-02 
1582	 2.38385094747842E-02 
1583	 2.37942780105577E-02 
1584	 2.35261945664845E-02 
1585	 2.38030814499462E-02 
1586	 2.42916097605158E-02 
1587	 2.42436796186858E-02 
1588	 2.39876223804538E-02 
1589	 2.40267746366956E-02 
1590	 0.024135143022215 
1591	 2.41895618053368E-02 
1592	 2.43445192546026E-02 
1593	 2.45288812944638E-02 
1594	 2.48071358544383E-02 
1595	 2.51482429499624E-02 
1596	 2.54715911986197E-02 
1597	 2.55903469213658E-02 
1598	 2.52047626419982E-02 
1599	 2.49125530662506E-02 
1600	 2.52429886552737E-02 
1601	 2.54294396656898E-02 
1602	 2.52028905187787E-02 
1603	 0.025142975895886 
1604	 2.51458218042833E-02 
1605	 2.51816330696863E-02 
1606	 2.53650085749102E-02 
1607	 2.53428613701253E-02 
1608	 2.54891150733898E-02 
1609	 2.57568211802149E-02 
1610	 2.55491781696782E-02 
1611	 0.025564860829529 
1612	 0.025645954766997 
1613	 2.55385656221372E-02 
1614	 2.58987633440203E-02 
1615	 2.62348840096133E-02 
1616	 0.026130645133108 
1617	 2.60673824196975E-02 
1618	 2.61282124737675E-02 
1619	 2.58206250568464E-02 
1620	 2.58109850029148E-02 
1621	 2.64065031912295E-02 
1622	 2.64851995312987E-02 
1623	 2.62262898858239E-02 
1624	 0.026473445625917 
1625	 2.67724144022058E-02 
1626	 2.65441116488974E-02 
1627	 2.65969788698567E-02 
1628	 2.68497875108651E-02 
1629	 2.66713138906757E-02 
1630	 2.68586236245639E-02 
1631	 2.72151463889221E-02 
1632	 2.71265866641345E-02 
1633	 2.69027741841486E-02 
1634	 2.68460339619111E-02 
1635	 2.70016081662639E-02 
1636	 2.71618343502644E-02 
1637	 2.72319100770608E-02 
1638	 2.72334974038613E-02 
1639	 2.70978163494944E-02 
1640	 2.71571003442631E-02 
1641	 0.027871347332091 
1642	 2.79301646591226E-02 
1643	 0.027371296758401 
1644	 2.78393890968601E-02 
1645	 2.80314541373586E-02 
1646	 2.74735099361278E-02 
1647	 2.74214860236903E-02 
1648	 2.75851169290888E-02 
1649	 0.02759506192282 
1650	 2.77741816220979E-02 
1651	 2.81941097629515E-02 
1652	 2.82561713216105E-02 
1653	 2.78059516234447E-02 
1654	 2.78009448791551E-02 
1655	 2.82765625095249E-02 
1656	 2.82992325153385E-02 
1657	 2.80452511972563E-02 
1658	 2.82357944247354E-02 
1659	 2.84859501023319E-02 
1660	 2.84448153796845E-02 
1661	 2.85512373178828E-02 
1662	 2.86027092710345E-02 
1663	 2.85044613148822E-02 
1664	 2.84965798864235E-02 
1665	 2.85036703733436E-02 
1666	 2.84982838623714E-02 
1667	 2.83346922152403E-02 
1668	 2.84611175091585E-02 
1669	 2.84933714509468E-02 
1670	 2.82447332756429E-02 
1671	 2.82505357730244E-02 
1672	 2.82106692110217E-02 
1673	 2.79965491951987E-02 
1674	 2.79084084073609E-02 
1675	 2.76932405747462E-02 
1676	 2.76493682582884E-02 
1677	 2.79529056425139E-02 
1678	 2.81958765436965E-02 
1679	 2.82366403572478E-02 
1680	 2.77992945628145E-02 
1681	 2.75688566233148E-02 
1682	 0.028102777661463 
1683	 2.83354041578899E-02 
1684	 2.82161982660103E-02 
1685	 0.028283606209469 
1686	 2.79464939941498E-02 
1687	 2.76377443247336E-02 
1688	 2.80650793408818E-02 
1689	 2.83012462274232E-02 
1690	 2.80734276231299E-02 
1691	 2.81373399807242E-02 
1692	 2.82413328771467E-02 
1693	 2.79440778278884E-02 
1694	 2.77656475029426E-02 
1695	 2.78854462672553E-02 
1696	 2.78957635131012E-02 
1697	 2.78060756373479E-02 
1698	 2.78649011948707E-02 
1699	 2.78453822917697E-02 
1700	 2.75650323802716E-02 
1701	 2.76719126629652E-02 
1702	 2.80987059397359E-02 
1703	 2.81038504181358E-02 
1704	 2.79701022938168E-02 
1705	 2.80385817407125E-02 
1706	 2.79535505458504E-02 
1707	 2.76941220937342E-02 
1708	 2.79239569777704E-02 
1709	 2.84066019674256E-02 
1710	 2.80989052785605E-02 
1711	 2.77406279131679E-02 
1712	 2.77663141329943E-02 
1713	 2.75060179553563E-02 
1714	 2.74610564494951E-02 
1715	 0.02763543366719 
1716	 2.75033530197929E-02 
1717	 2.73571572441749E-02 
1718	 2.77855069077942E-02 
1719	 2.79353883211119E-02 
1720	 2.72877446589767E-02 
1721	 2.74919202053353E-02 
1722	 2.78593047078767E-02 
1723	 2.74733649827448E-02 
1724	 2.73034920387559E-02 
1725	 2.69385489040708E-02 
1726	 0.026329185801139 
1727	 2.65703852079316E-02 
1728	 2.69490917461836E-02 
1729	 2.67475638220275E-02 
1730	 2.64902625573851E-02 
1731	 2.63847572401901E-02 
1732	 2.62904271726464E-02 
1733	 2.64532813487873E-02 
1734	 2.68246345521382E-02 
1735	 2.68019580590626E-02 
1736	 2.66264698422437E-02 
1737	 2.63724086170471E-02 
1738	 2.56738925121497E-02 
1739	 2.49719917902312E-02 
1740	 2.52433388878936E-02 
1741	 2.60282111553798E-02 
1742	 2.60248321255619E-02 
1743	 2.59321625542891E-02 
1744	 2.57252963042823E-02 
1745	 2.48081158256895E-02 
1746	 0.025085560037149 
1747	 2.52517662929708E-02 
1748	 2.53829441763793E-02 
1749	 2.54447251578499E-02 
1750	 2.55602802627038E-02 
1751	 2.52950601886833E-02 
1752	 2.43420038427956E-02 
1753	 2.41184112379157E-02 
1754	 2.42426468013068E-02 
1755	 2.42689221616213E-02 
1756	 0.024917914674274 
1757	 2.48594819148331E-02 
1758	 2.45079882224346E-02 
1759	 2.43582715555348E-02 
1760	 0.023753053977943 
1761	 2.33798242077521E-02 
1762	 2.31997733829583E-02 
1763	 2.28343064575487E-02 
1764	 2.28952891671571E-02 
1765	 2.32826615289414E-02 
1766	 0.022981305674556 
1767	 2.29599968091212E-02 
1768	 2.35927943694848E-02 
1769	 2.30593866061856E-02 
1770	 2.33253360566639E-02 
1771	 2.42641125033694E-02 
1772	 2.28030844959973E-02 
1773	 2.19039631472072E-02 
1774	 2.23817636408138E-02 
1775	 2.36917733826081E-02 
1776	 2.38614349163199E-02 
1777	 2.30888994606679E-02 
1778	 2.27612504771968E-02 
1779	 2.15347555926976E-02 
1780	 2.09602166055294E-02 
1781	 0.021460952766476 
1782	 2.19903541831119E-02 
1783	 2.29150249430227E-02 
1784	 2.29733253111854E-02 
1785	 2.31124919503064E-02 
1786	 0.022502367853559 
1787	 0.019397704540637 
1788	 1.98685379548915E-02 
1789	 2.30954325657288E-02 
1790	 2.44009280319229E-02 
1791	 2.52367508270157E-02 
1792	 2.25693049871348E-02 
1793	 2.11532606036923E-02 
1794	 2.18447070589475E-02 
1795	 2.20009901037769E-02 
1796	 2.02304942927695E-02 
1797	 1.78052181227174E-02 
1798	 1.82746379201348E-02 
1799	 1.89090846542254E-02 
1800	 2.52909333179529E-02 
1801	 2.94274267416927E-02 
1802	 2.99703071716814E-02 
1803	 3.26606726576018E-02 
1804	 3.60001382048148E-02 
1805	 4.04699622992852E-02 
1806	 4.75262405035684E-02 
1807	 0.050292910619898 
1808	 4.87253847711214E-02 
1809	 4.62310391403336E-02 
1810	 3.42212043277497E-02 
1811	 0.030007040001888 
1812	 0.025665462225717 
1813	 0.016915667319138 
1814	 1.93718830268143E-03 
1815	 3.38242417883312E-02 
1816	 0.13729958620499 
1817	 0.291658677313524 
1818	 0.207598322769028 
1819	 6.12910323348299E-02 
1820	-3.73558108088835E-02 
1821	 2.39711873807452E-02 
1822	 3.32411642841033E-02 
1823	 4.40697340687959E-02 
1824	 0.132035339365611 
1825	 0.210378791878756 
1826	 0.252413445532292 
1827	 0.606597314935364 
1828	 0.594163148375476 
1829	-11.2993592030666 
1830	-23.7223519329802 
1831	-0.523890051939575 
1832	-0.753204786403685 
1833	 0.840781596330166 
1834	-1.56652744586261 
1835	-2.56323426017699 
1836	-2.71073511664633 
1837	-2.50396595120189 
1838	-3.88129524716062 
1839	 3.7444326356612 
1840	 0.810425002875261 
1841	 2.25787393194661 
1842	 24.7096148877066 
1843	 366.509766522354 
1844	 0.949813927589844 
1845	 0.81147550043499 
1846	 1.02665307634592E-02 
1847	 0.730705050092836 
1848	-1.76753952606982 
1849	-1.59494074418686 
1850	-1.76848095246316 
1851	-1.13403054441835 
1852	-0.87201671017244 
1853	 0.857970067832483 
1854	 0.1876776579144 
1855	-0.672647969887209 
1856	-0.633287452271267 
1857	-0.672794692341118 
1858	-0.709222241647334 
1859	-0.618325918462135 
1860	-0.476572829104147 
1861	-1.06371755107689 
1862	-1.98001679299922 
1863	-0.863113465396985 
1864	-0.668606676454246 
1865	-0.3688049478212 
1866	 2.56022800074873 
1867	 3.42115672908592 
1868	-24.64972658253 
1869	-2.30965694313598 
1870	-1.37687811874637 
1871	 4.52209474274964E-02 
1872	 0.192745169534068 
1873	-3.40881545579976E-02 
1874	-0.3686995174562 
1875	 0.324393391665413 
1876	 0.354727489817998 
1877	-0.211083401978974 
1878	-0.857333298323764 
1879	 76.818315955131 
1880	 3.58873735114707 
1881	 0.470095649599621 
1882	 0.840517868242914 
1883	 0.236348450917031 
1884	-6.98829722890385 
1885	 1.83695738895102 
1886	 1.01131744596535 
1887	 0.476999458474472 
1888	 1.05743428546158 
1889	 1.25454178059249 
1890	-0.748797270366354 
1891	 3.53562220222735E-03 
1892	 2.57459506805203 
1893	-0.52424421628857 
1894	-1.85067838669485 
1895	-1.7180252598155 
1896	 7.26344073788496 
1897	 1.31394179740255 
1898	-8.80141653539582 
1899	 2.1249557776406 
1900	 2.30621383498858 
1901	 2.5878345255565 
1902	 3.03405104793171 
1903	-22.7638421145442 
1904	-0.015532972366664 
1905	 0.13821264182919 
1906	 0.232754091167815 
1907	 0.836902774584345 
1908	 2.94607463971751 
1909	 2.85715137590581 
1910	 1.38728738588913 
1911	 0.413282742816839 
1912	 1.12728905488886 
1913	 0.669029293795318 
1914	-5.16508827154639E-02 
1915	-0.278794294414886 
1916	-4.37527421108788 
1917	-125.335826407331 
1918	 0.348206594266777 
1919	 2.06352127299573 
1920	-186.573555119297 
1921	 1.90672220740992 
1922	 2.6821353611406 
1923	-3.11406456488561 
1924	-12.8782741171284 
1925	-9.01598101826437 
1926	-1.33930631807608 
1927	 9.29148200477118E-02 
1928	-1.90709669896939 
1929	-1.03883224248735 
1930	-0.161047502181853 
1931	 0.107614103692155 
1932	 0.10873733930934 
1933	 8.64259267595751E-02 
1934	 2.98377307844534E-02 
1935	-5.18249990149941E-02 
1936	-0.127010497839702 
1937	-0.180053722513434 
1938	-8.91737027354986E-02 
1939	-4.89972470756207E-02 
1940	-2.12380623256082E-02 
1941	-1.53072372083499E-02 
1942	-0.011328112006759 
1943	-4.72206497620311E-02 
1944	-5.75268642248181E-02 
1945	-5.81873769723728E-02 
1946	-0.036338101495248 
1947	-0.010275369459218 
1948	-9.67356616535412E-03 
1949	 2.81830417948097E-02 
1950	 5.64895989286225E-02 
1951	 0.050537940316687 
1952	 5.40155860446975E-02 
1953	 5.84198277810209E-02 
1954	 3.76328322394742E-02 
1955	 1.48896156164831E-02 
1956	 5.36972764912645E-03 
1957	 1.34402135192672E-03 
1958	 1.5490282534385E-03 
1959	 8.35225679773832E-03 
1960	 0.019673989103394 
1961	 1.62874135014436E-02 
1962	 8.73886083584118E-03 
1963	 4.31339884330514E-03 
1964	 1.34912926259349E-03 
1965	 6.15286105950774E-03 
1966	 8.03661883154386E-03 
1967	 1.11240763661652E-02 
1968	 9.4222676227413E-03 
1969	 8.72358662690618E-03 
1970	 7.18803071317485E-03 
1971	 4.2795549084124E-03 
1972	 4.18650163862535E-03 
1973	 4.56308683171907E-03 
1974	 3.04514425653802E-03 
1975	 4.12496486746501E-03 
1976	 7.15056503617254E-03 
1977	 9.76653962802686E-03 
1978	 1.20827735809647E-02 
1979	 1.26469724303989E-02 
1980	 1.19775001316824E-02 
1981	 1.07032968441844E-02 
1982	 8.92834418108971E-03 
1983	 7.56003814744593E-03 
1984	 7.68085696276719E-03 
1985	 7.16074589025695E-03 
1986	 6.4715383307787E-03 
1987	 6.17841774626682E-03 
1988	 6.80341010036749E-03 
1989	 7.14333873397597E-03 
1990	 6.80288245495516E-03 
1991	 7.76374610348873E-03 
1992	 7.9289333240031E-03 
1993	 7.77542473740353E-03 
1994	 8.43198224864459E-03 
1995	 0.010869493119736 
1996	 1.12528764698642E-02 
1997	 1.11469099635423E-02 
1998	 1.10526801165968E-02 
1999	 6.39657018919062E-03 
2000	 2.52488841301723E-03 
2001	 6.08302357069384E-04 
2002	-1.74748994875978E-03 
2003	-1.02051923588112E-03 
2004	 2.85356434552058E-03 
2005	 2.35519135296555E-03 
2006	-1.1941936443114E-03 
2007	 1.61446783822654E-03 
2008	 1.50376958561063E-03 
2009	 4.50817823728937E-04 
2010	 9.21401308728489E-04 
2011	 2.64920639214119E-03 
2012	 3.43828896444113E-03 
2013	 5.48784717667958E-04 
2014	 2.94507232225315E-03 
2015	 6.70291795173292E-03 
2016	 5.59450529236594E-03 
2017	 7.13723116471396E-03 
2018	 8.24978038840127E-03 
2019	 6.60364876333376E-03 
2020	 8.26491797924009E-03 
2021	 9.68859688318472E-03 
2022	 9.81459662963285E-03 
2023	 9.85039277466439E-03 
2024	 9.86241282010494E-03 
2025	 8.51453352785469E-03 
2026	 8.37653036575999E-03 
2027	 9.14323377859191E-03 
2028	 9.51658131119738E-03 
2029	 9.44751203121317E-03 
2030	 9.30047874563223E-03 
2031	 8.83021750872459E-03 
2032	 8.63732494660089E-03 
2033	 8.96738306021385E-03 
2034	 8.30483881237814E-03 
2035	 7.14929557522104E-03 
2036	 7.2179709165244E-03 
2037	 7.45986360471941E-03 
2038	 7.76427479318048E-03 
2039	 8.17715338237752E-03 
2040	 9.7148812573978E-03 
2041	 9.94949153228377E-03 
2042	 8.74005295530815E-03 
2043	 8.81771203566474E-03 
2044	 9.45988206436481E-03 
2045	 9.79413320242353E-03 
2046	 9.71116512163609E-03 
2047	 9.8831584169366E-03 
2048	 9.17015516765051E-03 
2049	 9.18564450884362E-03 
2050	 9.61841898930856E-03 
2051	 9.22994731757243E-03 
2052	 8.62584630256755E-03 
2053	 7.33497906967428E-03 
2054	 6.81096950267368E-03 
2055	 8.14876551111598E-03 
2056	 8.50580244020549E-03 
2057	 8.97273907894149E-03 
2058	 9.4698381346545E-03 
2059	 9.78437849898315E-03 
2060	 9.46466729611647E-03 
2061	 8.81911112943144E-03 
2062	 9.16806416059492E-03 
2063	 9.00348122553901E-03 
2064	 8.70039566589724E-03 
2065	 9.71228142740936E-03 
2066	 9.79150337202949E-03 
2067	 9.01831693311542E-03 
2068	 9.33138546480136E-03 
2069	 1.04019194107784E-02 
2070	 1.13594249543686E-02 
2071	 1.10812407637905E-02 
2072	 9.8406385969978E-03 
2073	 1.01403823253098E-02 
2074	 1.07816687413953E-02 
2075	 1.08983167653502E-02 
2076	 1.21666810276128E-02 
2077	 1.23848298673676E-02 
2078	 1.07935661812934E-02 
2079	 1.06161553072099E-02 
2080	 1.07796963609593E-02 
2081	 1.16864819518642E-02 
2082	 0.013586442711697 
2083	 1.37207159550403E-02 
2084	 0.013211676115287 
2085	 1.40437712724055E-02 
2086	 1.48801601303959E-02 
2087	 1.50596154201727E-02 
2088	 1.52090541240591E-02 
2089	 1.50259961653917E-02 
2090	 1.38329690486008E-02 
2091	 1.30675790399438E-02 
2092	 1.23754490091685E-02 
2093	 0.011980119606625 
2094	 1.16573002181953E-02 
2095	 1.11164959582971E-02 
2096	 1.09074893604943E-02 
2097	 1.17096723242319E-02 
2098	 1.19002866206935E-02 
2099	 0.011740699714084 
2100	 1.12572490279506E-02 
2101	 1.25855084813141E-02 
2102	 1.28566478834533E-02 
2103	 1.24620696856495E-02 
2104	 1.34622253537579E-02 
2105	 1.27854740710492E-02 
2106	 1.17764485483038E-02 
2107	 0.012396694225463 
2108	 1.21299102807071E-02 
2109	 0.012293665937652 
2110	 1.26670377754662E-02 
2111	 1.19815508275781E-02 
2112	 1.20429574517092E-02 
2113	 1.25718719559416E-02 
2114	 1.44379974192292E-02 
2115	 1.40482063681647E-02 
2116	 1.24063180065268E-02 
2117	 1.21632578146205E-02 
2118	 1.07681483306053E-02 
2119	 0.010051077877219 
2120	 1.06781140819899E-02 
2121	 1.18473763309055E-02 
2122	 1.15838108225483E-02 
2123	 1.09085978651859E-02 
2124	 1.17206484177239E-02 
2125	 1.27429133288804E-02 
2126	 1.24147752968035E-02 
2127	 1.21090582175796E-02 
2128	 1.07103859704789E-02 
2129	 9.40618001578713E-03 
2130	 1.05323498357995E-02 
2131	 0.012142967932325 
2132	 1.29708519194517E-02 
2133	 1.31754713023651E-02 
2134	 1.33238027150397E-02 
2135	 1.22646228361757E-02 
2136	 1.18856546504141E-02 
2137	 1.16079805678367E-02 
2138	 1.18461368432923E-02 
2139	 1.21083826903807E-02 
2140	 1.21602659404778E-02 
2141	 1.32007289575575E-02 
2142	 1.36796722819314E-02 
2143	 1.36748380485174E-02 
2144	 1.30800675912311E-02 
2145	 1.36404723742714E-02 
2146	 1.46321706027105E-02 
2147	 1.49442817439256E-02 
2148	 1.49238045237995E-02 
2149	 1.43471073549658E-02 
2150	 1.40632923948124E-02 
2151	 1.30879282014644E-02 
2152	 1.24433738404236E-02 
2153	 1.36032673171729E-02 
2154	 1.34645289456509E-02 
2155	 1.35306738766385E-02 
2156	 1.45600379375929E-02 
2157	 1.46352591302783E-02 
2158	 0.013175596230518 
2159	 1.29840883712791E-02 
2160	 1.33358119241998E-02 
2161	 1.33283045853704E-02 
2162	 1.37435570621931E-02 
2163	 1.37076308256982E-02 
2164	 0.012554098760406 
2165	 1.32019197386922E-02 
2166	 0.014969604822341 
2167	 1.53112367625142E-02 
2168	 1.69127375843651E-02 
2169	 1.72934524794767E-02 
2170	 0.015704622589385 
2171	 1.43627355695828E-02 
2172	 1.58107208341583E-02 
2173	 1.60384064517984E-02 
2174	 0.015176258526828 
2175	 1.57591079958195E-02 
2176	 1.52373952709233E-02 
2177	 1.45956570692377E-02 
2178	 1.61767276163749E-02 
2179	 1.66856237506966E-02 
2180	 1.50330311165675E-02 
2181	 1.41117082017761E-02 
2182	 1.26894961043547E-02 
2183	 1.08935402295973E-02 
2184	 1.25460096584228E-02 
2185	 1.34719681762531E-02 
2186	 1.35922742896333E-02 
2187	 1.42758193473617E-02 
2188	 1.46537782162058E-02 
2189	 1.30913873691186E-02 
2190	 1.30556951027792E-02 
2191	 0.014303076905787 
2192	 1.47011818871448E-02 
2193	 1.52996058347256E-02 
2194	 1.52498953204689E-02 
2195	 1.50467601618928E-02 
2196	 1.38787519926036E-02 
2197	 1.02560447563667E-02 
2198	 9.32242485668152E-03 
2199	 9.11853325020978E-03 
2200	 9.92555393359295E-03 
2201	 1.03999125549784E-02 
2202	 1.15938072169524E-02 
2203	 1.29608806784603E-02 
2204	 1.21003267370919E-02 
2205	 1.35308499730256E-02 
2206	 1.66141219933938E-02 
2207	 1.64661519516474E-02 
2208	 1.48866204869125E-02 
2209	 1.37591369421144E-02 
2210	 1.18110476499586E-02 
2211	 1.13335489748293E-02 
2212	 1.38786609965859E-02 
2213	 1.51566800693256E-02 
2214	 1.45329249839045E-02 
2215	 1.44447363884064E-02 
2216	 1.43060320142802E-02 
2217	 1.39801244212248E-02 
2218	 1.41229016030961E-02 
2219	 1.41924979168729E-02 
2220	 1.38227009801312E-02 
2221	 1.29568959281786E-02 
2222	 0.012046671350487 
2223	 1.14864131687681E-02 
2224	 1.04077622927005E-02 
2225	 9.85565783437594E-03 
2226	 9.80957687068489E-03 
2227	 9.81516086028536E-03 
2228	 1.01469287107624E-02 
2229	 1.03133044297067E-02 
2230	 1.05184552140808E-02 
2231	 1.06023846969408E-02 
2232	 0.010626529200222 
2233	 1.03255528229255E-02 
2234	 9.55653611012183E-03 
2235	 9.37007050202374E-03 
2236	 1.09153993855006E-02 
2237	 1.17426590771173E-02 
2238	 1.12602896251013E-02 
2239	 1.32946958866062E-02 
2240	 1.31690117408037E-02 
2241	 1.09445461567923E-02 
2242	 1.14067441491283E-02 
2243	 1.15901713148553E-02 
2244	 1.07398480903571E-02 
2245	 1.12895686789844E-02 
2246	 1.16251341921357E-02 
2247	 1.01817055671387E-02 
2248	 1.14432364254754E-02 
2249	 1.34968958355956E-02 
2250	 0.012603667268693 
2251	 1.21629950536073E-02 
2252	 1.37069486267418E-02 
2253	 0.013401477839825 
2254	 1.16364265315778E-02 
2255	 1.45999437368615E-02 
2256	 1.75885737372439E-02 
2257	 1.72914791062816E-02 
2258	 1.79977806951225E-02 
2259	 1.91751976245695E-02 
2260	 1.81467834162445E-02 
2261	 1.18432033110367E-02 
2262	 1.10431439847015E-02 
2263	 1.25439595724838E-02 
2264	 1.25433420027731E-02 
2265	 1.58743348549069E-02 
2266	 1.53981398574161E-02 
2267	 0.010940146206854 
2268	 9.71658783135305E-03 
2269	 7.37686268533265E-03 
2270	 7.4623921234448E-03 
2271	 1.11768061161267E-02 
2272	 1.31910569449741E-02 
2273	 1.64125858690094E-02 
2274	 0.01725748425495 
2275	 1.64969768668079E-02 
2276	 0.015904967303459 
2277	 1.26211410302587E-02 
2278	 1.14106992124843E-02 
2279	 1.23466509615564E-02 
2280	 1.14576553871673E-02 
2281	 9.76830385481662E-03 
2282	 1.01563678815261E-02 
2283	 9.02021998410285E-03 
2284	 7.74570457295574E-03 
2285	 7.54621171006902E-03 
2286	 7.44749294653097E-03 
2287	 8.73551309824795E-03 
2288	 1.18748099456475E-02 
2289	 1.35855935914872E-02 
2290	 1.28202207016488E-02 
2291	 1.07897452678737E-02 
2292	 8.28031611828157E-03 
2293	 7.72940053700617E-03 
2294	 9.40110321648047E-03 
2295	 1.42774733663625E-02 
2296	 1.64585561617267E-02 
2297	 1.44417836156114E-02 
2298	 1.59582321492108E-02 
2299	 0.018308826707434 
2300	 0.018402964792904 
2301	 1.64284848430126E-02 
2302	 1.31703694169177E-02 
2303	 1.08576338325523E-02 
2304	 9.36073877961278E-03 
2305	 1.09810144814368E-02 
2306	 1.31176007083785E-02 
2307	 1.26883606491216E-02 
2308	 0.013567375888803 
2309	 1.37623033821922E-02 
2310	 1.45908191962238E-02 
2311	 0.015502451994159 
2312	 1.07297670117447E-02 
2313	 8.12111657093341E-03 
2314	 1.02150626886713E-02 
2315	 9.56005450293464E-03 
2316	 5.01512881430824E-03 
2317	 2.62230174642789E-03 
2318	 3.51893274322027E-03 
2319	 3.27756588315578E-03 
2320	 4.70211092353947E-03 
2321	 8.31312323751177E-03 
2322	 1.00770672006984E-02 
2323	 6.27562547212898E-03 
2324	 3.27867690866279E-03 
2325	 2.10902219852423E-03 
2326	-2.54960819899945E-03 
2327	-1.28379468370791E-04 
2328	 5.11168486943905E-03 
2329	 2.48468809830609E-03 
2330	 1.91898709461176E-03 
2331	-1.79979938601344E-03 
2332	-6.89951857554441E-03 
2333	-3.04176224187606E-03 
2334	-6.02162424240735E-03 
2335	-7.21345689514635E-03 
2336	-1.92698856504133E-03 
2337	-1.59692854224102E-03 
2338	-1.10822467617816E-03 
2339	 3.93637089993892E-04 
2340	 4.88196678480125E-03 
2341	 8.41223787520399E-03 
2342	 1.11053623153203E-02 
2343	 0.016564995849635 
2344	 1.82061058643202E-02 
2345	 0.019944768259873 
2346	 1.87733251546727E-02 
2347	 9.55138001289894E-03 
2348	 3.08412570256069E-03 
2349	-8.23501234629915E-03 
2350	-2.34570276279278E-02 
2351	-2.91736267333366E-02 
2352	-3.59197355615805E-02 
2353	-0.036923195836854 
2354	-2.26544625848061E-02 
2355	-1.35251334338633E-02 
2356	-1.33371216328449E-02 
2357	-1.20715346406935E-02 
2358	-1.23243288159433E-02 
2359	-1.87977128909848E-02 
2360	-2.15982351388299E-02 
2361	-1.64399180170367E-02 
2362	-1.95145780883222E-02 
2363	-1.47655287866366E-02 
2364	 6.1009018655498E-03 
2365	 5.27089871514249E-03 
2366	-7.2088497303418E-03 
2367	-4.04297334728087E-03 
2368	-5.74993250961499E-03 
2369	-3.47678288400996E-03 
2370	 7.50248236632694E-03 
2371	-2.67350290469122E-03 
2372	-1.94815225792836E-02 
2373	-2.46352948109783E-02 
2374	-2.91696732007779E-02 
2375	-2.31715560259689E-02 
2376	-1.43571909888676E-02 
2377	-1.22151454790728E-02 
2378	-5.7541880215575E-04 
2379	 1.1958345181223E-03 
2380	-2.60372632117212E-05 
2381	-5.01904301714418E-03 
2382	-3.12847303372374E-02 
2383	-4.22043320401747E-02 
2384	-5.19453004722382E-02 
2385	-6.94757840061083E-02 
2386	-6.85873464780924E-02 
2387	-6.14755650903462E-02 
2388	-6.32212427596689E-02 
2389	-3.85422880490994E-02 
2390	-4.34824122656972E-03 
2391	-1.14253462320028E-02 
2392	-0.021151429384941 
2393	-2.11062175671258E-02 
2394	-4.04862298367399E-02 
2395	-7.59906125106922E-02 
2396	-8.20186269422658E-02 
2397	-7.80302621452186E-02 
2398	-9.32843254091521E-02 
2399	-0.04832545332139 
2400	 4.29438640193508E-03 
2401	 1.68129468617088E-03 
2402	-7.43852529519193E-04 
2403	-1.05128604260857E-02 
2404	-1.52286829648368E-02 
2405	-2.51894886052048E-02 
2406	-5.26595926338531E-02 
2407	-3.19054652084658E-02 
2408	-1.36359287625346E-02 
2409	-1.41854202615785E-02 
2410	 5.85820360085505E-02 
2411	 9.66079605353041E-02 
2412	 0.057720754531725 
2413	 5.90270474787287E-02 
2414	-4.05449787965585E-03 
2415	-3.95159809237575E-02 
2416	-6.41570952628492E-02 
2417	-7.45564693188024E-02 
2418	 4.17720646085997E-02 
2419	 1.98590364935459E-02 
2420	-3.73589568801583E-02 
2421	-9.57480935660953E-02 
2422	-0.196548198352495 
2423	-0.199266369630837 
2424	-0.133701141846735 
2425	-3.41778964601896E-02 
2426	-4.49836245950967E-02 
2427	-6.18278483250692E-02 
2428	-3.91735937720317E-02 
2429	-0.121588664011644 
2430	-0.144264097223285 
2431	-8.18241710754339E-02 
2432	-0.125119103420645 
2433	-0.126615667209657 
2434	-4.18437972642502E-02 
2435	-1.90468553611174E-02 
2436	-3.02743935439289E-02 
2437	 7.61368408112819E-02 
2438	 9.37389495713209E-02 
2439	-0.056610937394979 
2440	-0.110187751894049 
2441	-0.207739225730567 
2442	-0.272644082401503 
2443	-0.228261356165553 
2444	-0.196631907693378 
2445	-0.14526432507955 
2446	-0.126868147301157 
2447	 7.34763687078581E-02 
2448	 9.97973530252086E-02 
2449	-0.265165738384062 
2450	-0.374772863527512 
2451	-0.394849013694489 
2452	-0.157856227297658 
2453	 4.83664382816415E-02 
2454	 4.65791128061322E-02 
2455	-0.171110530463547 
2456	-0.331952045367502 
2457	-0.37198311560984 
2458	-0.422172486271642 
2459	-0.529559847422242 
2460	-0.545949353553639 
2461	-0.38069100920211 
2462	-0.345718025918176 
2463	-0.263323165958209 
2464	-0.145169986226993 
2465	-0.186772828717566 
2466	-0.166390143098079 
2467	-0.248281525611166 
2468	-0.296017571116855 
2469	-0.320146593620439 
2470	-0.22012397205 
2471	 0.203554317727427 
2472	 0.741711508694003 
2473	 1.17021388110998 
2474	 0.596081492340551 
2475	-0.200296318746423 
2476	-0.219682911361472 
2477	-0.27313290604346 
2478	-0.556530427476209 
2479	-0.632438965517604 
2480	-0.475436730302965 
2481	-0.770185037224076 
2482	-1.69668792885806 
2483	-7.37760930282524 
2484	 3.80836428017222 
2485	-33.7074837440351 
2486	-4.50360987665262 
2487	-15.9698089555875 
2488	 4.80852884821451 
2489	 1.861267080821 
2490	 0.975027049514089 
2491	 1.34697917263516 
2492	 1.31172254176985 
2493	 0.198547825820906 
2494	 0.137513241751155 
2495	 1.42833309275135 
2496	 3.5492766014024 
2497	-0.600572209627871 
2498	 0.989562073765035 
2499	 0.643518508656673 
2500	-3.97606573140716 
