Wavelength	rt0711a300008.asd
350	 0.111648635736305 
351	 0.113655623925852 
352	 0.115224537904356 
353	 0.116760321536149 
354	 0.118526465407519 
355	 0.120145511123435 
356	 0.121722872103224 
357	 0.123588585976381 
358	 0.125887798200965 
359	 0.12779850333068 
360	 0.129359473037974 
361	 0.131106404850609 
362	 0.13361316017903 
363	 0.134617271942481 
364	 0.135565358190939 
365	 0.137390298753959 
366	 0.139604961533476 
367	 0.141141594883627 
368	 0.142431816169507 
369	 0.144051495794687 
370	 0.145481402798737 
371	 0.146880021199297 
372	 0.148418927264646 
373	 0.150171422358309 
374	 0.151315944539592 
375	 0.152448270620891 
376	 0.153794384037048 
377	 0.154885375481663 
378	 0.15619454470081 
379	 0.157619247627678 
380	 0.158872064141339 
381	 0.15950934303507 
382	 0.160465326471034 
383	 0.1615459659873 
384	 0.16209806964043 
385	 0.162461805572376 
386	 0.163134220024056 
387	 0.164083565845158 
388	 0.164707653924298 
389	 0.165049207924874 
390	 0.165199752167386 
391	 0.165251701347637 
392	 0.165213505065442 
393	 0.165293066595476 
394	 0.16531097633222 
395	 0.165045928524922 
396	 0.164853941375615 
397	 0.164593374497898 
398	 0.164275353636163 
399	 0.164038932994307 
400	 0.163341375271211 
401	 0.162758220814641 
402	 0.162610065643062 
403	 0.162344932076036 
404	 0.161873761027646 
405	 0.161214078553522 
406	 0.160455613828608 
407	 0.159707725342172 
408	 0.158961997389517 
409	 0.158201011346256 
410	 0.157410971201784 
411	 0.156670558581604 
412	 0.155899009466192 
413	 0.155051790587273 
414	 0.154241535022704 
415	 0.153390197992855 
416	 0.152508819661504 
417	 0.151662430963036 
418	 0.151025397991609 
419	 0.150307581583036 
420	 0.149551808892471 
421	 0.149167506758778 
422	 0.148693662782987 
423	 0.148200192943153 
424	 0.147883966771863 
425	 0.147992005459542 
426	 0.148121809204906 
427	 0.148245659813437 
428	 0.148519008758748 
429	 0.148960292166196 
430	 0.149421120548701 
431	 0.14986607064105 
432	 0.150412244974939 
433	 0.15091101809782 
434	 0.151263923923354 
435	 0.151465707242346 
436	 0.151736222142832 
437	 0.151874207625852 
438	 0.151875317355936 
439	 0.151820689686728 
440	 0.151505807759324 
441	 0.151155463965825 
442	 0.150867236229401 
443	 0.150491797508279 
444	 0.149956059324155 
445	 0.149301409772499 
446	 0.148618027176082 
447	 0.148020500991128 
448	 0.147362641603712 
449	 0.146652352108246 
450	 0.146000383159029 
451	 0.145273099711503 
452	 0.144575517192996 
453	 0.143932649726169 
454	 0.143134855790077 
455	 0.142405947931552 
456	 0.141726342247271 
457	 0.141009546345776 
458	 0.140312062220817 
459	 0.139666638976475 
460	 0.139008841718219 
461	 0.138195538319771 
462	 0.137443399036657 
463	 0.136813741989832 
464	 0.136251946013792 
465	 0.135484455209589 
466	 0.134765564120828 
467	 0.13407818568744 
468	 0.133303888936286 
469	 0.132634534333309 
470	 0.132058350478138 
471	 0.131522233022437 
472	 0.130950770226035 
473	 0.13027045216913 
474	 0.12966405108252 
475	 0.129257450173783 
476	 0.128730144474664 
477	 0.128240890674035 
478	 0.127888317623061 
479	 0.127691106878448 
480	 0.127327153210872 
481	 0.127007990509485 
482	 0.126855081193472 
483	 0.126654667473582 
484	 0.12655327057977 
485	 0.12656401306785 
486	 0.126625954101486 
487	 0.126576687980032 
488	 0.126601749895346 
489	 0.126718049687428 
490	 0.126775171212981 
491	 0.127049243854111 
492	 0.127323346633965 
493	 0.12742973584054 
494	 0.127580062833717 
495	 0.127886375913309 
496	 0.128199730466296 
497	 0.128298627378748 
498	 0.128630909953673 
499	 0.128916400245484 
500	 0.12900450520824 
501	 0.129052473625511 
502	 0.129184292376039 
503	 0.129339820013687 
504	 0.129452036094926 
505	 0.129689334682718 
506	 0.12990227191947 
507	 0.130046727276459 
508	 0.130173040055857 
509	 0.130333789765944 
510	 0.130515171491392 
511	 0.130725826921417 
512	 0.131068830181437 
513	 0.131405421839546 
514	 0.13179188920612 
515	 0.132327350672688 
516	 0.132770944939717 
517	 0.133355710375122 
518	 0.13415436286434 
519	 0.134995688384373 
520	 0.135912288850736 
521	 0.136890351958457 
522	 0.13794953168792 
523	 0.139208444103879 
524	 0.140638688314586 
525	 0.142206221515591 
526	 0.143882295066974 
527	 0.145708236532533 
528	 0.147697422530307 
529	 0.149820884079965 
530	 0.151989086828714 
531	 0.154319679154612 
532	 0.156886927223665 
533	 0.159689553079729 
534	 0.162480168834154 
535	 0.165399922345966 
536	 0.168500266546012 
537	 0.171687777143785 
538	 0.174956410041856 
539	 0.178336994755232 
540	 0.18182124646522 
541	 0.185259514786336 
542	 0.188697275905767 
543	 0.192090526482915 
544	 0.195370369915297 
545	 0.198668548339719 
546	 0.201921531444297 
547	 0.205051743197864 
548	 0.20800925867824 
549	 0.210829574312515 
550	 0.213541751588192 
551	 0.216171999498443 
552	 0.218689357836732 
553	 0.221133121869765 
554	 0.223544451900976 
555	 0.225945736022641 
556	 0.228320060597439 
557	 0.230717473886781 
558	 0.233153167462561 
559	 0.235570366374452 
560	 0.237976891948784 
561	 0.240428996677108 
562	 0.243008642036665 
563	 0.245552599368264 
564	 0.24810489623395 
565	 0.25067522396202 
566	 0.253169931241266 
567	 0.255550927886934 
568	 0.257828990895698 
569	 0.260022240903282 
570	 0.262084541511686 
571	 0.263957001145078 
572	 0.265684998556169 
573	 0.267419979217565 
574	 0.269120492208356 
575	 0.270718590771302 
576	 0.272172138022661 
577	 0.273588238201897 
578	 0.274878181787046 
579	 0.276122640071393 
580	 0.27746677726639 
581	 0.278614854107305 
582	 0.279650648720695 
583	 0.28064452293795 
584	 0.281546356371712 
585	 0.28238461186305 
586	 0.283099435599816 
587	 0.283650520997627 
588	 0.284229143634939 
589	 0.284917080950219 
590	 0.285615410075827 
591	 0.28611203130796 
592	 0.286664121543006 
593	 0.287253107576695 
594	 0.287780265897786 
595	 0.28812506757164 
596	 0.288462610576635 
597	 0.288835166770897 
598	 0.289197578863972 
599	 0.28949600014576 
600	 0.289788112746162 
601	 0.290118796181977 
602	 0.290490852306474 
603	 0.290812869815773 
604	 0.291141073778401 
605	 0.291545733806081 
606	 0.291897671235487 
607	 0.292302208623499 
608	 0.292732134896252 
609	 0.293022452954946 
610	 0.293403693726942 
611	 0.293828442380637 
612	 0.294217019285241 
613	 0.294586161076397 
614	 0.294826911303804 
615	 0.295056966297597 
616	 0.295476826022139 
617	 0.295804317729496 
618	 0.296072309400279 
619	 0.296351848911552 
620	 0.296715357652576 
621	 0.296972731274585 
622	 0.297231854150485 
623	 0.297623384760589 
624	 0.29789597541102 
625	 0.298106590507867 
626	 0.298306968039 
627	 0.298530535305433 
628	 0.29877319721473 
629	 0.299140799417835 
630	 0.299640806241055 
631	 0.299989321976983 
632	 0.300224753719951 
633	 0.300459785604642 
634	 0.300825999587034 
635	 0.301239077284887 
636	 0.301544359155255 
637	 0.301738421273371 
638	 0.302040079366676 
639	 0.302347114156745 
640	 0.302600544595408 
641	 0.302788678372108 
642	 0.303069489987803 
643	 0.303232119739459 
644	 0.303274536335768 
645	 0.303358358577607 
646	 0.303323189880338 
647	 0.303424529163851 
648	 0.303766822022404 
649	 0.303964106021796 
650	 0.304052969144909 
651	 0.304128926125116 
652	 0.30427341469094 
653	 0.304257621621619 
654	 0.304166067848842 
655	 0.304028210608047 
656	 0.30380027809663 
657	 0.303695860884399 
658	 0.303548720750115 
659	 0.303229187229502 
660	 0.302958794102031 
661	 0.302803359962058 
662	 0.30265594456483 
663	 0.302335754639165 
664	 0.302111772563661 
665	 0.301967441613418 
666	 0.301840922944917 
667	 0.301661060508785 
668	 0.301517012000832 
669	 0.301459496426962 
670	 0.301502286657495 
671	 0.301557906966314 
672	 0.301583477817767 
673	 0.301617045530727 
674	 0.301763455883789 
675	 0.301961150498013 
676	 0.302157955144894 
677	 0.302364054062457 
678	 0.302757486883287 
679	 0.303056304447854 
680	 0.303355870807992 
681	 0.303871953273355 
682	 0.304338169685297 
683	 0.304837206687005 
684	 0.305305346894935 
685	 0.305469847211253 
686	 0.305792535503503 
687	 0.306270485803423 
688	 0.306772705054744 
689	 0.307533253622423 
690	 0.307945964215477 
691	 0.308034571398385 
692	 0.308186522862968 
693	 0.308308631864542 
694	 0.308685791844464 
695	 0.309246356817247 
696	 0.309371730308934 
697	 0.309216942993855 
698	 0.308922332322781 
699	 0.308664115488983 
700	 0.308617951109492 
701	 0.30857953438638 
702	 0.308443529726432 
703	 0.308208478255908 
704	 0.30785159573254 
705	 0.307509883768204 
706	 0.307202810146298 
707	 0.306608729995916 
708	 0.306091367454418 
709	 0.30559309446958 
710	 0.304927639646143 
711	 0.304174884322093 
712	 0.303243923084521 
713	 0.302096967733242 
714	 0.300728564678489 
715	 0.299106415593097 
716	 0.29732772802785 
717	 0.295645197571903 
718	 0.294090271528681 
719	 0.292974954360477 
720	 0.292236668961403 
721	 0.29144412879544 
722	 0.289989213325809 
723	 0.28814914718118 
724	 0.28645028893276 
725	 0.285158915177566 
726	 0.283581293502277 
727	 0.281679725038732 
728	 0.279612353327272 
729	 0.277510466804128 
730	 0.275380916229452 
731	 0.273473687780714 
732	 0.271949271873508 
733	 0.270437838907635 
734	 0.268898085140555 
735	 0.267498537844657 
736	 0.266633435575526 
737	 0.265947269268601 
738	 0.265435816098849 
739	 0.265137649925865 
740	 0.264925738216176 
741	 0.264808513713754 
742	 0.26474517050329 
743	 0.264682245346452 
744	 0.264688827937243 
745	 0.264666860799286 
746	 0.264615180716242 
747	 0.264681313877646 
748	 0.264695628491716 
749	 0.264657269129538 
750	 0.264638158537345 
751	 0.264808103215104 
752	 0.264873613543439 
753	 0.26481557991118 
754	 0.264778461307234 
755	 0.264846960340219 
756	 0.264828819734906 
757	 0.264623716758722 
758	 0.264201609194164 
759	 0.263407825769926 
760	 0.262619246097812 
761	 0.262717413125009 
762	 0.262843933045581 
763	 0.263341599092998 
764	 0.264043355602751 
765	 0.264699717767305 
766	 0.265368373999894 
767	 0.265821225572297 
768	 0.266053708937045 
769	 0.266243043198439 
770	 0.266512858759124 
771	 0.266772795535054 
772	 0.266978579621714 
773	 0.267346164940906 
774	 0.267754207645909 
775	 0.268101505249238 
776	 0.268341481909401 
777	 0.268664199797138 
778	 0.269015782424913 
779	 0.269356875627667 
780	 0.269687989672006 
781	 0.270102974222338 
782	 0.27048518507383 
783	 0.270779026124708 
784	 0.271152249885473 
785	 0.2715412022321 
786	 0.271939612718872 
787	 0.272342500289904 
788	 0.272663771191501 
789	 0.273045684622032 
790	 0.273597313308358 
791	 0.274334015031275 
792	 0.274692479514091 
793	 0.275077745458484 
794	 0.275651556960394 
795	 0.275942310773486 
796	 0.276290348069997 
797	 0.276722358318307 
798	 0.277153283487008 
799	 0.277385366427974 
800	 0.277620449497254 
801	 0.277931716869337 
802	 0.278293344304845 
803	 0.27857290299817 
804	 0.278803402872511 
805	 0.278987227817448 
806	 0.279076967631577 
807	 0.279064874968709 
808	 0.278949310631483 
809	 0.278680061123422 
810	 0.278041598436972 
811	 0.277563345286118 
812	 0.277179200725007 
813	 0.276585809904666 
814	 0.27572444136768 
815	 0.274994860496603 
816	 0.274555002592752 
817	 0.27425022521005 
818	 0.273781429890034 
819	 0.273241449782499 
820	 0.272571783594414 
821	 0.271476488969011 
822	 0.26996543027805 
823	 0.268510691882456 
824	 0.267319611431366 
825	 0.26563010055207 
826	 0.263690613940519 
827	 0.261529585491686 
828	 0.259295007445631 
829	 0.257307814287935 
830	 0.255477778020792 
831	 0.253835703832679 
832	 0.252529913546686 
833	 0.251387858380566 
834	 0.250428182074348 
835	 0.249697146368171 
836	 0.249252708545674 
837	 0.248574935312803 
838	 0.247962388236151 
839	 0.247660981238243 
840	 0.247294031038628 
841	 0.246970521836384 
842	 0.246712538750119 
843	 0.246450206657564 
844	 0.24579213595731 
845	 0.245367908677425 
846	 0.245210028398532 
847	 0.244921105986802 
848	 0.244533657983179 
849	 0.244138824595316 
850	 0.243767378157202 
851	 0.243359780596893 
852	 0.243115536834027 
853	 0.242800390092881 
854	 0.242347548762554 
855	 0.242220838394203 
856	 0.241973305048421 
857	 0.241616011926968 
858	 0.24126593285227 
859	 0.240914812670916 
860	 0.240722172868237 
861	 0.240448784712923 
862	 0.239829562071744 
863	 0.239780213519251 
864	 0.239556809447342 
865	 0.239034974246317 
866	 0.238731459234296 
867	 0.238459333455236 
868	 0.238091297579166 
869	 0.23763202378543 
870	 0.237246682184666 
871	 0.237011177147853 
872	 0.236514838646373 
873	 0.235668136144977 
874	 0.235312328137375 
875	 0.235027964157974 
876	 0.234530822177187 
877	 0.23378686887894 
878	 0.233509833312013 
879	 0.232985620353122 
880	 0.232359200055331 
881	 0.232051117971941 
882	 0.231485820405243 
883	 0.23088854928998 
884	 0.230350526753457 
885	 0.229825369276015 
886	 0.229300614129269 
887	 0.228782382008612 
888	 0.228249457011434 
889	 0.227654390013919 
890	 0.227016251663619 
891	 0.226502636945948 
892	 0.226145829129103 
893	 0.225684193550405 
894	 0.225036780008643 
895	 0.224233059307399 
896	 0.223350027607598 
897	 0.222421150626758 
898	 0.221974514101147 
899	 0.221777607962898 
900	 0.221421075603107 
901	 0.221014836354883 
902	 0.220729017033854 
903	 0.220243844657306 
904	 0.21928659983187 
905	 0.218702392347407 
906	 0.218855374171344 
907	 0.218766410773136 
908	 0.217014141072534 
909	 0.216471804979077 
910	 0.215902625253913 
911	 0.214878780608015 
912	 0.214042104901453 
913	 0.21350648058298 
914	 0.212378012478861 
915	 0.210926026714584 
916	 0.210617688367215 
917	 0.209640466599578 
918	 0.208653806385431 
919	 0.207901578310615 
920	 0.206638973430229 
921	 0.205884218049838 
922	 0.204850700906098 
923	 0.203133865229649 
924	 0.201858280439165 
925	 0.199964933312877 
926	 0.198269756939532 
927	 0.197494474670723 
928	 0.195883933040103 
929	 0.193044807587741 
930	 0.190862465016211 
931	 0.191643780721729 
932	 0.189873442990097 
933	 0.185246575643294 
934	 0.180989578939677 
935	 0.180138049428648 
936	 0.177262002274301 
937	 0.177155641680019 
938	 0.176272835568235 
939	 0.171438323100033 
940	 0.170857826943234 
941	 0.170705391139597 
942	 0.16917581255835 
943	 0.166312602465679 
944	 0.166157453083099 
945	 0.164993146671004 
946	 0.162316611602241 
947	 0.159857639721112 
948	 0.157291476429256 
949	 0.15466716872728 
950	 0.151632666823196 
951	 0.148340983341699 
952	 0.149215379865516 
953	 0.146400616724584 
954	 0.142443770976129 
955	 0.14516212340246 
956	 0.143265684133566 
957	 0.141154881700883 
958	 0.139851238363175 
959	 0.13757618961585 
960	 0.138136935381038 
961	 0.137441100355224 
962	 0.135537719805166 
963	 0.135447922288709 
964	 0.13495163099242 
965	 0.134494440350869 
966	 0.133769288815943 
967	 0.132308832678375 
968	 0.134177339554171 
969	 0.13472872360497 
970	 0.133294616540531 
971	 0.133139635716776 
972	 0.134222165186639 
973	 0.134435247954005 
974	 0.133905656782844 
975	 0.134788082224857 
976	 0.134902000937022 
977	 0.134248339494684 
978	 0.133267498760106 
979	 0.132666294893642 
980	 0.134157468657701 
981	 0.135585489066105 
982	 0.13605809527126 
983	 0.136203357295275 
984	 0.136595400022675 
985	 0.137066700278457 
986	 0.137283564001606 
987	 0.13702615331246 
988	 0.137201681031586 
989	 0.13787990912963 
990	 0.138804385517524 
991	 0.139473833519276 
992	 0.139029996370924 
993	 0.138627981641178 
994	 0.139064865475174 
995	 0.140390274343055 
996	 0.141222151627466 
997	 0.141056342408171 
998	 0.141137993556255 
999	 0.143047194191541 
1000	 0.144705153860748 
1001	 0.132798620939275 
1002	 0.133302246459796 
1003	 0.133824272615237 
1004	 0.134282829518306 
1005	 0.134970582887288 
1006	 0.135827457536107 
1007	 0.136605966834795 
1008	 0.137705304446551 
1009	 0.138379365694841 
1010	 0.138942873939656 
1011	 0.139687631898942 
1012	 0.140098932417649 
1013	 0.140840770788661 
1014	 0.141579094297624 
1015	 0.14251183233417 
1016	 0.14320979628242 
1017	 0.14379377074338 
1018	 0.14444388087033 
1019	 0.14493922346723 
1020	 0.145530686118323 
1021	 0.146128558183447 
1022	 0.147117081257793 
1023	 0.147669992435195 
1024	 0.148527606368516 
1025	 0.149417855106372 
1026	 0.149978902829255 
1027	 0.150758186092819 
1028	 0.15154184887328 
1029	 0.152410014125148 
1030	 0.153501156212176 
1031	 0.154312535270537 
1032	 0.155048836833945 
1033	 0.155814703053976 
1034	 0.15642934533361 
1035	 0.157063678208606 
1036	 0.157729587890836 
1037	 0.158406288952506 
1038	 0.158916233395061 
1039	 0.159679567525695 
1040	 0.160608313379628 
1041	 0.16121047886819 
1042	 0.161761520585677 
1043	 0.162146287870584 
1044	 0.162702111613683 
1045	 0.163145948317242 
1046	 0.163807616080239 
1047	 0.164824337126616 
1048	 0.165437911537124 
1049	 0.165941033887414 
1050	 0.166396334325023 
1051	 0.166540816933104 
1052	 0.166928193448735 
1053	 0.167544272917089 
1054	 0.167943874697677 
1055	 0.168310842863953 
1056	 0.168644297788074 
1057	 0.168907161755017 
1058	 0.168987838562873 
1059	 0.169191657134625 
1060	 0.169413536034695 
1061	 0.16967890399859 
1062	 0.169973540705222 
1063	 0.170234307316468 
1064	 0.170678141516591 
1065	 0.170798029912146 
1066	 0.170749988178094 
1067	 0.170646157349889 
1068	 0.170126035505266 
1069	 0.169985159555819 
1070	 0.1700846000082 
1071	 0.170054197917126 
1072	 0.170227852564194 
1073	 0.170213851821034 
1074	 0.170193612284607 
1075	 0.17002488181608 
1076	 0.169863835268654 
1077	 0.169803653493605 
1078	 0.169489437374279 
1079	 0.168851874414153 
1080	 0.168523403341667 
1081	 0.168253546314404 
1082	 0.167907885730128 
1083	 0.167804977893788 
1084	 0.167436721931008 
1085	 0.166687620930005 
1086	 0.166155261108232 
1087	 0.165648725537881 
1088	 0.165108716223016 
1089	 0.164295847180181 
1090	 0.16433802159777 
1091	 0.163793364113915 
1092	 0.162930179487282 
1093	 0.162449053461424 
1094	 0.162143813642445 
1095	 0.161429513398705 
1096	 0.160694234936875 
1097	 0.160109158645139 
1098	 0.159160805914362 
1099	 0.158528058886386 
1100	 0.158309228242462 
1101	 0.15782750553321 
1102	 0.157447407880975 
1103	 0.156750163993657 
1104	 0.155199204969912 
1105	 0.154905686994783 
1106	 0.155120310204395 
1107	 0.154174202928965 
1108	 0.154303797450576 
1109	 0.153992979167251 
1110	 0.153367147006411 
1111	 0.152059573451852 
1112	 0.151336663758938 
1113	 0.150322454965657 
1114	 0.149707369812346 
1115	 0.149532267170053 
1116	 0.148782773108181 
1117	 0.148562848034885 
1118	 0.147839037888532 
1119	 0.146109196295381 
1120	 0.144536424756126 
1121	 0.14308501619365 
1122	 0.140264418532096 
1123	 0.138339742583124 
1124	 0.138284249617396 
1125	 0.13568140369869 
1126	 0.132901046911846 
1127	 0.132186990491755 
1128	 0.129759098779135 
1129	 0.12810351353768 
1130	 0.128994923558023 
1131	 0.126425696145309 
1132	 0.121874228277057 
1133	 0.119198914849089 
1134	 0.116061951244471 
1135	 0.11420036695008 
1136	 0.113697159356224 
1137	 0.11184171074171 
1138	 0.109408568594761 
1139	 0.107918986610565 
1140	 0.104856417384314 
1141	 0.102806811142143 
1142	 0.102274014701244 
1143	 9.98581261030156E-02 
1144	 9.81363873486798E-02 
1145	 9.78247526620404E-02 
1146	 0.094444955718567 
1147	 9.09596419080964E-02 
1148	 8.89192317592182E-02 
1149	 8.61095164824231E-02 
1150	 8.45930162591774E-02 
1151	 8.53961752927202E-02 
1152	 8.44176633144857E-02 
1153	 8.27335330102537E-02 
1154	 8.18335097548609E-02 
1155	 8.10816072483604E-02 
1156	 8.01057144450288E-02 
1157	 7.96943202481077E-02 
1158	 7.95112090427558E-02 
1159	 7.90263238691862E-02 
1160	 7.86490114167178E-02 
1161	 7.87446598548856E-02 
1162	 7.87595294380152E-02 
1163	 7.84054152544996E-02 
1164	 7.82110468073958E-02 
1165	 0.078060429456379 
1166	 7.76808233326432E-02 
1167	 7.77906552109501E-02 
1168	 7.82786489454384E-02 
1169	 7.83353589728883E-02 
1170	 7.80071548916586E-02 
1171	 7.77975745538588E-02 
1172	 0.07731942668077 
1173	 7.72021285909511E-02 
1174	 7.71829036117919E-02 
1175	 7.73725843912156E-02 
1176	 7.75905508015288E-02 
1177	 7.73347658037214E-02 
1178	 7.70680943639029E-02 
1179	 7.71444359443328E-02 
1180	 7.70859699143573E-02 
1181	 7.71416922100504E-02 
1182	 7.71849954649634E-02 
1183	 7.68433953586271E-02 
1184	 7.65555173002108E-02 
1185	 0.076435929045931 
1186	 7.64120013463456E-02 
1187	 7.65607861994419E-02 
1188	 0.076517154288003 
1189	 7.62393628928238E-02 
1190	 0.076177700010119 
1191	 7.61292354785363E-02 
1192	 0.076023584238687 
1193	 7.60324617774056E-02 
1194	 7.62844591884507E-02 
1195	 7.59739031733865E-02 
1196	 7.55874922962663E-02 
1197	 0.075975365797779 
1198	 7.60663852779739E-02 
1199	 7.59523285809628E-02 
1200	 7.62215483521311E-02 
1201	 7.61178920123846E-02 
1202	 7.60156671457203E-02 
1203	 7.63746965635055E-02 
1204	 7.64617367194724E-02 
1205	 0.076260306076309 
1206	 7.63793255662345E-02 
1207	 7.66287809175126E-02 
1208	 7.67272631461731E-02 
1209	 7.68583744974464E-02 
1210	 0.076884762229992 
1211	 7.68763190241764E-02 
1212	 7.72487001365649E-02 
1213	 7.74943577017817E-02 
1214	 7.75202997869581E-02 
1215	 7.73464304286697E-02 
1216	 7.73275992701978E-02 
1217	 7.73719888590988E-02 
1218	 7.74834559999014E-02 
1219	 7.77770794168647E-02 
1220	 7.80334549418808E-02 
1221	 7.79770388350619E-02 
1222	 7.80794998110735E-02 
1223	 7.85285977127637E-02 
1224	 7.86326674965924E-02 
1225	 7.84273632606576E-02 
1226	 7.84298678156259E-02 
1227	 7.86407844572844E-02 
1228	 7.88288182945328E-02 
1229	 7.93134237924376E-02 
1230	 7.98573386330115E-02 
1231	 7.96673454158096E-02 
1232	 7.92812608467528E-02 
1233	 7.94510670956463E-02 
1234	 0.079801509872084 
1235	 7.99433485084848E-02 
1236	 8.03425468403426E-02 
1237	 8.05762860024277E-02 
1238	 8.05900357456859E-02 
1239	 8.04850912371885E-02 
1240	 8.06099552923498E-02 
1241	 8.07933255450684E-02 
1242	 8.09436068075461E-02 
1243	 8.09794734525229E-02 
1244	 8.10051386514023E-02 
1245	 0.081167316524386 
1246	 8.13684303870552E-02 
1247	 8.14338998333217E-02 
1248	 8.14781080936479E-02 
1249	 8.17735111512642E-02 
1250	 8.19596799382136E-02 
1251	 0.08195715137341 
1252	 8.20698822159404E-02 
1253	 8.22614520365106E-02 
1254	 8.22931146124826E-02 
1255	 8.21729737025551E-02 
1256	 0.082226057903947 
1257	 8.22903732720893E-02 
1258	 8.22489520588203E-02 
1259	 8.22988940601962E-02 
1260	 8.23927394130356E-02 
1261	 8.23526069030247E-02 
1262	 0.082274258039742 
1263	 8.22571665325892E-02 
1264	 8.22700148535599E-02 
1265	 8.22067338788536E-02 
1266	 8.22397651664321E-02 
1267	 0.082226691283096 
1268	 8.22391128133022E-02 
1269	 8.22947785661417E-02 
1270	 8.21137158525989E-02 
1271	 0.082074329661219 
1272	 0.082210121436525 
1273	 8.19908708526065E-02 
1274	 8.19034457564462E-02 
1275	 8.19792894505023E-02 
1276	 8.18038650629614E-02 
1277	 8.16089598350494E-02 
1278	 8.14029325866558E-02 
1279	 8.11890061302139E-02 
1280	 8.11312720769743E-02 
1281	 8.08741798819041E-02 
1282	 8.05534570649046E-02 
1283	 8.03343264677273E-02 
1284	 0.079983782361117 
1285	 7.96391182138193E-02 
1286	 7.94493733736444E-02 
1287	 7.92369478186534E-02 
1288	 0.078992828868381 
1289	 0.078600598936729 
1290	 7.80874305364862E-02 
1291	 7.78489712723206E-02 
1292	 7.75230040429166E-02 
1293	 7.69355488283357E-02 
1294	 7.65776448892408E-02 
1295	 7.60788801516484E-02 
1296	 7.54883399563123E-02 
1297	 7.52537032156547E-02 
1298	 7.47076605714248E-02 
1299	 7.38858894532787E-02 
1300	 7.34106880466928E-02 
1301	 7.28257229552532E-02 
1302	 7.22432319981156E-02 
1303	 7.18529941844269E-02 
1304	 7.13089289326128E-02 
1305	 7.06690892983761E-02 
1306	 7.01480640446674E-02 
1307	 7.02124864353318E-02 
1308	 6.96858585015287E-02 
1309	 6.84765569350544E-02 
1310	 0.067883553186736 
1311	 6.77616970604947E-02 
1312	 6.68361874971903E-02 
1313	 6.54808921899239E-02 
1314	 6.48071157409726E-02 
1315	 6.39152204026203E-02 
1316	 6.31340458502039E-02 
1317	 6.33738293007953E-02 
1318	 6.29202203302406E-02 
1319	 6.15212371195515E-02 
1320	 0.060587862696701 
1321	 0.059781687723208 
1322	 5.91966682805538E-02 
1323	 5.84888612271308E-02 
1324	 5.80551366230605E-02 
1325	 5.81362716876364E-02 
1326	 5.77757875895315E-02 
1327	 5.66722887785858E-02 
1328	 5.60412468794563E-02 
1329	 5.56030908836215E-02 
1330	 5.48562893290533E-02 
1331	 5.44223950325525E-02 
1332	 5.35841136261419E-02 
1333	 5.23806214291453E-02 
1334	 5.13616952145445E-02 
1335	 5.04375668726569E-02 
1336	 5.00493914183903E-02 
1337	 4.97990393336841E-02 
1338	 4.93004872225832E-02 
1339	 4.91206455545536E-02 
1340	 5.02549955415252E-02 
1341	 4.99177840591598E-02 
1342	 4.80778207607594E-02 
1343	 4.75982589831274E-02 
1344	 0.046768128521085 
1345	 0.046086417932742 
1346	 4.76771819287064E-02 
1347	 4.85096805333307E-02 
1348	 4.69021355804791E-02 
1349	 4.73111975294507E-02 
1350	 5.39110779062002E-02 
1351	 5.68162087724936E-02 
1352	 0.055044639145563 
1353	 5.49052873984707E-02 
1354	 4.07438822920806E-02 
1355	 2.39898479412447E-02 
1356	 4.02072673182383E-02 
1357	 0.101043944955662 
1358	 0.144959802188575 
1359	 0.152654830082187 
1360	 0.145563689284668 
1361	 0.125586439441696 
1362	 0.108908821534641 
1363	 7.91073128444231E-02 
1364	 6.89645488458893E-02 
1365	 9.50345225625187E-02 
1366	 0.128821598380887 
1367	 0.23798527100328 
1368	 0.315832304382962 
1369	 0.180748940070067 
1370	 9.49995113895692E-02 
1371	 4.62172828334737E-02 
1372	 6.77641742975339E-02 
1373	 1.97988545010404E-02 
1374	-1.54485636328306E-02 
1375	 0.111767882778065 
1376	 0.211941953910015 
1377	 0.16803007070802 
1378	 0.147240746527777 
1379	 0.285356333341656 
1380	 0.261291801855412 
1381	-0.13193989632251 
1382	-0.21444876476114 
1383	-0.114967871570532 
1384	-5.49412616816252E-02 
1385	 0.155679159156864 
1386	 0.26649446617133 
1387	 0.361037052377671 
1388	 0.362001464713399 
1389	 0.172167282140169 
1390	 0.188856751619668 
1391	 0.452715336767549 
1392	 0.290536702066688 
1393	-2.20311373999076E-02 
1394	 2.88662930076528E-02 
1395	 0.195025299594394 
1396	-0.11384039187863 
1397	-0.280266939079901 
1398	-0.214010888090149 
1399	-0.117478522952611 
1400	 2.09926198798766E-02 
1401	 9.22333269002727E-02 
1402	 0.162133059066251 
1403	 0.212552534199534 
1404	 0.173170783166115 
1405	 5.31551308130151E-02 
1406	-4.88218179755044E-03 
1407	 6.48759269341957E-02 
1408	 2.13324396185068E-02 
1409	-1.87758580105489E-02 
1410	 0.105542709123733 
1411	 0.118654697923915 
1412	-1.34956608564614E-02 
1413	-1.49600630911846E-02 
1414	 7.29881929487551E-02 
1415	 7.74713333228497E-02 
1416	 4.05203567669169E-02 
1417	 4.50348289142246E-02 
1418	 6.79345991889458E-02 
1419	 5.69405773553984E-02 
1420	 3.69319833185954E-02 
1421	 3.67847224645216E-02 
1422	 3.50069952025113E-02 
1423	 2.85444030115667E-02 
1424	 2.81062116777871E-02 
1425	 2.97322859250515E-02 
1426	 3.09449746321175E-02 
1427	 2.30228424979985E-02 
1428	 7.93762383779713E-03 
1429	 9.56733640601269E-03 
1430	 1.76046931975514E-02 
1431	 1.53382285617575E-02 
1432	 1.43252023265283E-02 
1433	 2.04114281725688E-02 
1434	 2.57817197218692E-02 
1435	 2.29592124462863E-02 
1436	 2.42976232477786E-02 
1437	 2.68111604242725E-02 
1438	 2.15611989822185E-02 
1439	 1.53765458222578E-02 
1440	 1.46527500226268E-02 
1441	 1.75172203623801E-02 
1442	 2.20104510852312E-02 
1443	 1.89133224914385E-02 
1444	 0.017130509334528 
1445	 2.09692848916389E-02 
1446	 1.92580860067062E-02 
1447	 0.015541434144818 
1448	 1.42862734735887E-02 
1449	 1.43201243559016E-02 
1450	 1.58317266049972E-02 
1451	 1.58877082889292E-02 
1452	 1.51192974637666E-02 
1453	 1.72599314010131E-02 
1454	 1.81333819681285E-02 
1455	 1.82473598689222E-02 
1456	 1.76161218071626E-02 
1457	 1.71875537269731E-02 
1458	 1.68127112525083E-02 
1459	 1.53846827061487E-02 
1460	 1.49891094410667E-02 
1461	 1.53390716060711E-02 
1462	 1.57043945224782E-02 
1463	 1.63019864743395E-02 
1464	 1.64972143750608E-02 
1465	 1.70006018084601E-02 
1466	 1.74170108015725E-02 
1467	 1.72666905547617E-02 
1468	 1.70593747868385E-02 
1469	 1.71409077596829E-02 
1470	 1.73017277881886E-02 
1471	 1.69998085938181E-02 
1472	 1.71213880504506E-02 
1473	 1.80195578092146E-02 
1474	 1.78245878690761E-02 
1475	 1.68628538577035E-02 
1476	 1.66394783935632E-02 
1477	 1.61422971697724E-02 
1478	 1.62809712533695E-02 
1479	 1.73372117515212E-02 
1480	 1.76530685892896E-02 
1481	 1.77022846891567E-02 
1482	 1.77909787194357E-02 
1483	 1.80080774081434E-02 
1484	 1.77717389866504E-02 
1485	 1.72116981273488E-02 
1486	 0.016902529609381 
1487	 0.016196885828657 
1488	 0.016183883267193 
1489	 1.66591159187299E-02 
1490	 1.68212364029547E-02 
1491	 1.72562490342429E-02 
1492	 0.017441175379142 
1493	 1.71384655718153E-02 
1494	 1.72828015949449E-02 
1495	 1.79074496384678E-02 
1496	 1.79360223516776E-02 
1497	 1.76819917417621E-02 
1498	 1.76791266640328E-02 
1499	 1.74910433111392E-02 
1500	 1.73825401247686E-02 
1501	 1.75862091952603E-02 
1502	 1.76500693646936E-02 
1503	 1.73965977550281E-02 
1504	 1.75010710166347E-02 
1505	 1.80514176087216E-02 
1506	 1.80089183669416E-02 
1507	 1.79105111427807E-02 
1508	 1.82185360428586E-02 
1509	 1.83095961972288E-02 
1510	 1.85139180795263E-02 
1511	 1.88683119099144E-02 
1512	 1.87288690940802E-02 
1513	 1.85771714135312E-02 
1514	 1.88014039840535E-02 
1515	 1.90370820431723E-02 
1516	 1.91787758274599E-02 
1517	 1.93017679180774E-02 
1518	 1.95479862566735E-02 
1519	 1.94664146634072E-02 
1520	 1.93374442538245E-02 
1521	 1.95902838525607E-02 
1522	 1.96221097233125E-02 
1523	 1.99003687915771E-02 
1524	 2.02373284234413E-02 
1525	 2.00413555677075E-02 
1526	 2.00737295144216E-02 
1527	 0.020115981671743 
1528	 2.00178970970681E-02 
1529	 2.03240697949178E-02 
1530	 2.06012017048729E-02 
1531	 2.06540762897109E-02 
1532	 2.09311872705852E-02 
1533	 0.02125537429096 
1534	 2.11341287289133E-02 
1535	 2.09804067158288E-02 
1536	 2.11659547298425E-02 
1537	 2.12485494884273E-02 
1538	 2.13298456463092E-02 
1539	 0.021656837971198 
1540	 0.021758844088811 
1541	 0.021620156148509 
1542	 2.15865355447072E-02 
1543	 2.17523261314105E-02 
1544	 2.21115922543159E-02 
1545	 2.23112067278996E-02 
1546	 2.22781078324779E-02 
1547	 2.21490863985262E-02 
1548	 2.21177641344647E-02 
1549	 2.25518472429279E-02 
1550	 2.30192853603923E-02 
1551	 0.023061377456568 
1552	 2.32045777149783E-02 
1553	 2.35354142623029E-02 
1554	 2.33907354603748E-02 
1555	 2.29935107844947E-02 
1556	 2.29560767018017E-02 
1557	 2.32403439684092E-02 
1558	 2.36229087378392E-02 
1559	 2.38362229565511E-02 
1560	 2.39436544570022E-02 
1561	 0.023957292223871 
1562	 2.38589158379692E-02 
1563	 2.40928273820857E-02 
1564	 2.45338238633237E-02 
1565	 2.47425649539744E-02 
1566	 2.47993632229079E-02 
1567	 2.48439383604653E-02 
1568	 2.50118332037947E-02 
1569	 2.50800328865463E-02 
1570	 0.024859300774234 
1571	 2.49775776330385E-02 
1572	 2.51139126832055E-02 
1573	 2.48583067781953E-02 
1574	 2.49088678373375E-02 
1575	 0.025154090659169 
1576	 2.51854462115028E-02 
1577	 2.53637768911218E-02 
1578	 2.58107518617304E-02 
1579	 2.58571642472229E-02 
1580	 2.58077400463632E-02 
1581	 2.61478751402297E-02 
1582	 2.62011587525243E-02 
1583	 2.62569641962199E-02 
1584	 2.64907917915506E-02 
1585	 2.63632716649331E-02 
1586	 2.62390601128231E-02 
1587	 0.026414850509968 
1588	 2.66258593765181E-02 
1589	 0.026663407128844 
1590	 2.66876155914031E-02 
1591	 2.67393730715218E-02 
1592	 2.67587612938858E-02 
1593	 2.69074981185255E-02 
1594	 2.69891136256779E-02 
1595	 2.69289907632369E-02 
1596	 2.69722259861865E-02 
1597	 0.027186510994981 
1598	 2.74638424475881E-02 
1599	 2.76564642314123E-02 
1600	 2.78687090850685E-02 
1601	 2.78915120507109E-02 
1602	 0.027804630472658 
1603	 2.80320604079253E-02 
1604	 2.79593789485268E-02 
1605	 2.77021141983259E-02 
1606	 2.79565638769146E-02 
1607	 2.81724202858558E-02 
1608	 0.028109189214878 
1609	 2.81491361680662E-02 
1610	 2.83235545961753E-02 
1611	 2.83792169852492E-02 
1612	 2.82660650687168E-02 
1613	 2.83864822948317E-02 
1614	 2.86792857388188E-02 
1615	 2.87702621329217E-02 
1616	 2.89444573313054E-02 
1617	 2.91120420974694E-02 
1618	 2.89553031024338E-02 
1619	 0.029004273003774 
1620	 2.91396808373661E-02 
1621	 2.89786521650957E-02 
1622	 2.90361846826844E-02 
1623	 2.95071145726246E-02 
1624	 2.98594196771371E-02 
1625	 2.99509317504026E-02 
1626	 3.00943962996371E-02 
1627	 2.98509852330953E-02 
1628	 2.93698709171896E-02 
1629	 2.94643106558669E-02 
1630	 2.97441303800033E-02 
1631	 2.98349383269929E-02 
1632	 2.99449813340668E-02 
1633	 3.01016509000447E-02 
1634	 3.01289028332342E-02 
1635	 2.97939231706087E-02 
1636	 2.95124289513514E-02 
1637	 2.96988066644727E-02 
1638	 2.99016999326625E-02 
1639	 2.97783820147461E-02 
1640	 2.98088010885444E-02 
1641	 3.01613207006575E-02 
1642	 0.030320545282477 
1643	 3.04460559479052E-02 
1644	 3.06424660626239E-02 
1645	 3.03979898856301E-02 
1646	 3.00015117175169E-02 
1647	 3.01110725398742E-02 
1648	 3.03905752848857E-02 
1649	 3.04863875980776E-02 
1650	 3.05492643329101E-02 
1651	 3.05575597750798E-02 
1652	 3.03866990050925E-02 
1653	 3.00685530344347E-02 
1654	 3.01520433407216E-02 
1655	 3.07567511232432E-02 
1656	 3.08521675587935E-02 
1657	 3.06454058383474E-02 
1658	 0.030622933678551 
1659	 0.030545742195999 
1660	 0.030552481646405 
1661	 3.06404567851513E-02 
1662	 3.08308394039443E-02 
1663	 3.11480428356401E-02 
1664	 3.11253526673294E-02 
1665	 3.10128691636026E-02 
1666	 0.031332182945061 
1667	 3.16127744390963E-02 
1668	 3.13723268912822E-02 
1669	 3.13977421586908E-02 
1670	 3.12285963273265E-02 
1671	 3.13036913967979E-02 
1672	 3.13975907369766E-02 
1673	 3.09987953481089E-02 
1674	 3.07935555500387E-02 
1675	 0.031020649450392 
1676	 3.11234769327326E-02 
1677	 3.16886389855564E-02 
1678	 3.22733099805637E-02 
1679	 3.16759611593009E-02 
1680	 3.13718025733733E-02 
1681	 3.18496285154531E-02 
1682	 3.15798717214694E-02 
1683	 0.031155370564542 
1684	 3.16495960952966E-02 
1685	 3.18483565916286E-02 
1686	 3.15983796821523E-02 
1687	 3.19625951008724E-02 
1688	 3.16813851119801E-02 
1689	 0.031010327258972 
1690	 3.15821760892618E-02 
1691	 3.19132909011601E-02 
1692	 3.14919080523175E-02 
1693	 3.12410736215321E-02 
1694	 0.030975941024865 
1695	 3.11866325720734E-02 
1696	 3.13198131939996E-02 
1697	 3.07820949318866E-02 
1698	 3.07783095538945E-02 
1699	 3.09253136408281E-02 
1700	 3.06870308716689E-02 
1701	 3.09590966774186E-02 
1702	 3.14075025814528E-02 
1703	 3.10084956155816E-02 
1704	 3.05903932915685E-02 
1705	 3.11379070226023E-02 
1706	 3.11566106014674E-02 
1707	 3.05634257937215E-02 
1708	 3.09427340997638E-02 
1709	 0.03132263818773 
1710	 3.08524506447903E-02 
1711	 3.05358182375863E-02 
1712	 3.07633418936224E-02 
1713	 3.11575242032842E-02 
1714	 3.10584796690015E-02 
1715	 3.05372660907609E-02 
1716	 3.01132971085489E-02 
1717	 0.030315605297521 
1718	 3.05057077486492E-02 
1719	 3.05874863007351E-02 
1720	 3.07116201069042E-02 
1721	 3.04092317416932E-02 
1722	 2.99993915052359E-02 
1723	 3.04454976332761E-02 
1724	 3.05706675136809E-02 
1725	 3.00214120773062E-02 
1726	 3.02755170666238E-02 
1727	 3.03365263426632E-02 
1728	 2.98279067340046E-02 
1729	 3.02440756123886E-02 
1730	 3.01806547330644E-02 
1731	 2.94206313440341E-02 
1732	 2.99135281519677E-02 
1733	 2.98608516723787E-02 
1734	 2.92686556276926E-02 
1735	 2.96508407063822E-02 
1736	 2.96577887823414E-02 
1737	 2.91805973879546E-02 
1738	 2.89850310659702E-02 
1739	 2.89882985908039E-02 
1740	 2.84444752047004E-02 
1741	 2.81114181331038E-02 
1742	 2.86337441248724E-02 
1743	 2.85274794474849E-02 
1744	 2.81576072251101E-02 
1745	 0.028055007487362 
1746	 2.74125043503351E-02 
1747	 2.72379870315455E-02 
1748	 2.74166595019347E-02 
1749	 2.72303073421229E-02 
1750	 2.68178865778277E-02 
1751	 0.026828398431634 
1752	 2.71567610991704E-02 
1753	 2.70501475915945E-02 
1754	 2.72363225894695E-02 
1755	 2.71125668908446E-02 
1756	 2.59177503609931E-02 
1757	 2.58481870895638E-02 
1758	 0.025899593231944 
1759	 2.56217652001171E-02 
1760	 2.65049819265461E-02 
1761	 2.67834690663763E-02 
1762	 2.64165451714429E-02 
1763	 2.66023547490497E-02 
1764	 2.57296749307587E-02 
1765	 2.47632351876696E-02 
1766	 2.47605287724355E-02 
1767	 2.49070067517138E-02 
1768	 0.025429355490108 
1769	 2.61527633054577E-02 
1770	 2.66573630083664E-02 
1771	 2.58571270361376E-02 
1772	 2.46085800737371E-02 
1773	 2.43064248617772E-02 
1774	 0.023889083332148 
1775	 2.37722404123172E-02 
1776	 2.43595015529985E-02 
1777	 2.54691399525196E-02 
1778	 2.58825068168319E-02 
1779	 2.73003147953695E-02 
1780	 0.02739778576355 
1781	 2.51082650743558E-02 
1782	 0.024657931844992 
1783	 2.50066301243327E-02 
1784	 2.49841190355331E-02 
1785	 2.52017968546324E-02 
1786	 2.62891251279328E-02 
1787	 2.84092685346469E-02 
1788	 2.76836320653894E-02 
1789	 2.62146200312841E-02 
1790	 2.33229499877641E-02 
1791	 2.20230194361938E-02 
1792	 2.58713538694619E-02 
1793	 2.86838051586721E-02 
1794	 0.028301556436087 
1795	 2.55549380102585E-02 
1796	 2.36865481928465E-02 
1797	 2.51010967631596E-02 
1798	 2.95907680482261E-02 
1799	 3.49914922967486E-02 
1800	 3.63551595392311E-02 
1801	 3.53727616548576E-02 
1802	 2.38965741808295E-02 
1803	 2.09733181158268E-02 
1804	 1.88040111510073E-02 
1805	 2.28663686796793E-02 
1806	 6.14898345091345E-02 
1807	 7.90764151746759E-02 
1808	 8.61322577634799E-02 
1809	 8.24449204438372E-02 
1810	 1.94067683807916E-02 
1811	-3.47015191466709E-04 
1812	-7.61417897081087E-03 
1813	 3.92640067234074E-03 
1814	 0.112411860137102 
1815	 0.144535597951837 
1816	 0.15331133011772 
1817	 0.106310437494416 
1818	-2.46524937898971E-02 
1819	-0.136454078843561 
1820	-0.20890085673243 
1821	-1.22650659793347E-02 
1822	 0.219100558459959 
1823	 0.948742624808834 
1824	 1.05194651117593 
1825	 0.149920011875834 
1826	-8.04914157593655E-03 
1827	-0.220847315016302 
1828	-0.418582608842437 
1829	 6.67454992507891 
1830	 12.134308337978 
1831	 0.428447233402097 
1832	 0.776972074983335 
1833	 1.26162858044804 
1834	 3.73384208342673 
1835	 0.916273235116835 
1836	 0.906672778961418 
1837	 1.9553390584704 
1838	 2.89719091411701 
1839	-1.66873587267542 
1840	-0.141547644523819 
1841	 1.48773956038614 
1842	 36.6137402609348 
1843	 668.975464076478 
1844	-0.542362650211208 
1845	 0.22542872764444 
1846	-2.67090409600102 
1847	-3.91100549541233 
1848	 2.91798713060857 
1849	 1.18628173288004 
1850	 0.595430926765939 
1851	 0.571444683741145 
1852	-1.44364533008147 
1853	-15.3911546053007 
1854	-7.45800102810578 
1855	-0.118203586136223 
1856	 9.42700797104632E-03 
1857	 3.84748193402478E-02 
1858	 9.54626663921433E-02 
1859	-0.192297728556654 
1860	-1.31667110886322 
1861	-1.30070251868764 
1862	-1.51521199364452 
1863	-1.30544456053816 
1864	-0.591171507816864 
1865	-0.556474668318969 
1866	-0.414574917762364 
1867	-0.618588880211626 
1868	 10.6726236972916 
1869	 1.13580841602339 
1870	 1.4079422676068 
1871	 3.35151534465404 
1872	 0.653806523477412 
1873	 0.541884350520205 
1874	 2.19044250435496 
1875	 1.45792518383463 
1876	 1.48032265772505 
1877	 2.20838086698306 
1878	 3.61039443008863 
1879	-151.143063122832 
1880	-6.86496881346776 
1881	-2.12172551522275 
1882	-4.10425707580268 
1883	 3.89999363628028 
1884	 31.8119820118597 
1885	-0.203667239244413 
1886	-1.48766727398024E-02 
1887	 0.197893884926151 
1888	 9.31054054680913E-02 
1889	 0.306465019443304 
1890	-1.07695826183891 
1891	-0.684779446241437 
1892	 1.31996360424244 
1893	 0.999249735234631 
1894	-0.067155196270666 
1895	-4.6653988546941 
1896	 8.61178471790491 
1897	 2.01649408676066 
1898	 9.29895917775563 
1899	-0.349429822487272 
1900	 8.70527989690573E-02 
1901	-0.782908812213504 
1902	-0.815494706093386 
1903	 2.17234066848647 
1904	-0.245229862679298 
1905	-0.267529064456626 
1906	-0.359847266825304 
1907	-3.19779873404452E-02 
1908	 7.68939639784334E-02 
1909	-0.168074050260935 
1910	 1.20808871201363 
1911	 2.29274741321255 
1912	 12.8167585825469 
1913	-9.59689548209336 
1914	-2.49973942091494 
1915	-2.14690470141213 
1916	-6.68782224771932 
1917	-329.50117638496 
1918	 2.40968042759064 
1919	 4.08927432466317 
1920	-169.876375417058 
1921	 1.45436451613616 
1922	 1.94259360413149 
1923	-1.9663030000919 
1924	-6.91545317444646 
1925	-9.00084601666593 
1926	-2.77448845914142 
1927	-1.71123629461489 
1928	-5.81727635242177E-02 
1929	 0.583900083136179 
1930	-0.277609778070904 
1931	-0.249840500460843 
1932	-0.370330231965686 
1933	-0.34730124570632 
1934	-0.250062473802926 
1935	-0.174107333542716 
1936	-0.112101850559929 
1937	-0.197653319647357 
1938	-0.215800957627356 
1939	-0.186840715437106 
1940	-0.140507498458507 
1941	-0.138827512606661 
1942	-5.94265792765751E-02 
1943	-1.00966739935221E-02 
1944	-1.48509187514475E-02 
1945	 1.43090914051753E-02 
1946	 7.6585832942617E-03 
1947	-1.15956640162677E-02 
1948	 4.82952884601358E-04 
1949	 0.013349659011218 
1950	 1.09016736065487E-02 
1951	 1.37313339045569E-02 
1952	 1.78772600713817E-02 
1953	 1.87117180901379E-02 
1954	 9.66545972876988E-03 
1955	 1.32202310171464E-02 
1956	 9.38005849405659E-03 
1957	 4.6059109821015E-03 
1958	 4.57282473845849E-03 
1959	-1.05488883578645E-03 
1960	 3.08049821692356E-03 
1961	 3.83942020842536E-03 
1962	-2.96480448306572E-04 
1963	 2.21474454582513E-03 
1964	 2.81994307591443E-03 
1965	-9.90659299960132E-04 
1966	-2.72080188626299E-04 
1967	 1.52526379353393E-03 
1968	 5.00532359867513E-03 
1969	 6.10170371446741E-03 
1970	 8.68053431609114E-03 
1971	 1.13079596110347E-02 
1972	 8.69478358658695E-03 
1973	 6.48503368472728E-03 
1974	 6.80850077740576E-03 
1975	 6.49432907268163E-03 
1976	 8.13521636561296E-03 
1977	 1.00732189889603E-02 
1978	 9.83238745901711E-03 
1979	 9.64941955787934E-03 
1980	 8.8825900414091E-03 
1981	 7.43959945115698E-03 
1982	 6.9756954878913E-03 
1983	 8.14827581776934E-03 
1984	 8.3785772266509E-03 
1985	 7.56968667400822E-03 
1986	 7.38297371504221E-03 
1987	 7.73875612588515E-03 
1988	 7.04282156092453E-03 
1989	 7.19958661876466E-03 
1990	 8.58706548423436E-03 
1991	 7.83319269771392E-03 
1992	 7.61240352525832E-03 
1993	 9.36727846101526E-03 
1994	 9.78437989844299E-03 
1995	 8.99482490584487E-03 
1996	 7.62045070855858E-03 
1997	 6.5700181425993E-03 
1998	 5.81719952016524E-03 
1999	 5.24272865977579E-03 
2000	 4.64314469560428E-03 
2001	 5.69731920119937E-03 
2002	 8.1372245696237E-03 
2003	 9.37227449540933E-03 
2004	 8.53933486510464E-03 
2005	 1.11843595075145E-02 
2006	 1.06580621626037E-02 
2007	 4.63491036401162E-03 
2008	 6.94769345138921E-03 
2009	 7.89317523649605E-03 
2010	 6.81133280050968E-03 
2011	 7.2452016039018E-03 
2012	 1.08599660172565E-02 
2013	 1.15348303313602E-02 
2014	 1.09304153184628E-02 
2015	 1.25290896709912E-02 
2016	 1.01588238899116E-02 
2017	 8.1904331217453E-03 
2018	 6.88721507179385E-03 
2019	 6.0451878641957E-03 
2020	 8.78026098127609E-03 
2021	 1.12282580651069E-02 
2022	 1.09116546635822E-02 
2023	 9.69331990351954E-03 
2024	 9.67938341835307E-03 
2025	 9.37836501469061E-03 
2026	 8.58332349902727E-03 
2027	 7.79404662923769E-03 
2028	 8.41116116418632E-03 
2029	 8.61658298476156E-03 
2030	 8.57458944157522E-03 
2031	 9.73272124226644E-03 
2032	 1.11161554310958E-02 
2033	 1.18251209282943E-02 
2034	 1.17748057446528E-02 
2035	 1.11665700738269E-02 
2036	 1.10033366731241E-02 
2037	 1.08878873589267E-02 
2038	 1.03565115810216E-02 
2039	 1.04340278287607E-02 
2040	 1.20234350249855E-02 
2041	 1.20213438677576E-02 
2042	 0.010847043727718 
2043	 1.06211259182266E-02 
2044	 1.04658769382108E-02 
2045	 9.70001057541218E-03 
2046	 9.66928064666734E-03 
2047	 1.03873486815297E-02 
2048	 0.010674482074805 
2049	 1.07706637684704E-02 
2050	 1.04578964645241E-02 
2051	 9.75803146997922E-03 
2052	 9.98440627094187E-03 
2053	 1.02254639843421E-02 
2054	 1.01225869201617E-02 
2055	 1.13192572119676E-02 
2056	 1.13643813722421E-02 
2057	 9.72827186654513E-03 
2058	 8.99578511563934E-03 
2059	 8.16928977930657E-03 
2060	 7.54463356952525E-03 
2061	 6.59773417979297E-03 
2062	 7.93280500109347E-03 
2063	 8.26841544812969E-03 
2064	 8.46080123209246E-03 
2065	 8.63937456574922E-03 
2066	 8.34103122391949E-03 
2067	 8.93309161428968E-03 
2068	 9.80804650169393E-03 
2069	 1.10401136403035E-02 
2070	 1.16876277972653E-02 
2071	 0.011582371192248 
2072	 1.24906863263768E-02 
2073	 1.24580556690447E-02 
2074	 1.19567696252915E-02 
2075	 1.16731342323624E-02 
2076	 0.010707462023299 
2077	 1.01321295616669E-02 
2078	 9.99423015870427E-03 
2079	 1.00685394246535E-02 
2080	 1.00833756124206E-02 
2081	 0.010461912833623 
2082	 1.18902797203496E-02 
2083	 1.19062241500026E-02 
2084	 1.12014178701053E-02 
2085	 1.15491051967478E-02 
2086	 0.011542448859445 
2087	 1.17454068809042E-02 
2088	 1.24469635586617E-02 
2089	 1.27823918349505E-02 
2090	 1.16859396735711E-02 
2091	 1.09054248361278E-02 
2092	 1.09308042728947E-02 
2093	 1.11194358655909E-02 
2094	 1.13776902164999E-02 
2095	 1.33479360210798E-02 
2096	 1.33883958357823E-02 
2097	 1.12614245118337E-02 
2098	 1.11516054204481E-02 
2099	 1.13964680715176E-02 
2100	 1.18001231836201E-02 
2101	 1.21241924218559E-02 
2102	 0.014450592433123 
2103	 1.61709147526838E-02 
2104	 1.52730875119847E-02 
2105	 1.51664835697082E-02 
2106	 1.60210638582349E-02 
2107	 1.51397654848044E-02 
2108	 1.40547889264859E-02 
2109	 1.49711996184547E-02 
2110	 1.53844561276154E-02 
2111	 1.48047283170745E-02 
2112	 1.54462283760027E-02 
2113	 1.57583891760137E-02 
2114	 0.015320739240043 
2115	 1.50692159880039E-02 
2116	 1.53335065166505E-02 
2117	 1.54148789640258E-02 
2118	 1.49772922993474E-02 
2119	 1.47262362364293E-02 
2120	 1.46058644314877E-02 
2121	 1.50890822417996E-02 
2122	 1.46857703779308E-02 
2123	 1.44987157399177E-02 
2124	 1.55033851396295E-02 
2125	 1.56089202751784E-02 
2126	 1.52386804887584E-02 
2127	 0.015831767504242 
2128	 1.59574628867286E-02 
2129	 1.56347420213969E-02 
2130	 1.63220252602403E-02 
2131	 1.61660310134379E-02 
2132	 0.014891103462351 
2133	 1.46931914239292E-02 
2134	 1.42590139802964E-02 
2135	 0.013534611779651 
2136	 1.31627653693078E-02 
2137	 1.26569839365483E-02 
2138	 1.30550546863948E-02 
2139	 1.44187086805014E-02 
2140	 1.52095918499808E-02 
2141	 1.68414718862974E-02 
2142	 1.73277872457943E-02 
2143	 1.68817986540875E-02 
2144	 1.62720923776302E-02 
2145	 1.56532975986266E-02 
2146	 1.55027452887472E-02 
2147	 1.62877170800442E-02 
2148	 1.67312429365974E-02 
2149	 1.65102724729461E-02 
2150	 1.67114655293238E-02 
2151	 0.016383430364095 
2152	 0.015856427307231 
2153	 0.015552338854474 
2154	 1.47555019543928E-02 
2155	 1.37077556207304E-02 
2156	 0.012226420401071 
2157	 1.19002188961501E-02 
2158	 1.24443813555792E-02 
2159	 1.30477875184221E-02 
2160	 0.014983144040982 
2161	 1.54869461180341E-02 
2162	 0.015124605318916 
2163	 1.51180200038844E-02 
2164	 1.41674870750356E-02 
2165	 1.42022540208965E-02 
2166	 1.56709822574635E-02 
2167	 1.61664907067728E-02 
2168	 1.62719813329902E-02 
2169	 1.63660939541796E-02 
2170	 1.60604502072434E-02 
2171	 1.56945418780597E-02 
2172	 1.53106242408291E-02 
2173	 1.60822361094056E-02 
2174	 1.66478880657808E-02 
2175	 1.54177165734771E-02 
2176	 1.54838555693986E-02 
2177	 1.54693668524073E-02 
2178	 1.37814567217381E-02 
2179	 1.34216006778354E-02 
2180	 1.35483233929127E-02 
2181	 1.35537833318234E-02 
2182	 0.014796395352554 
2183	 1.58177452059364E-02 
2184	 0.016150125655971 
2185	 1.67864987667365E-02 
2186	 1.70763506466091E-02 
2187	 1.78908106989294E-02 
2188	 1.79403843152219E-02 
2189	 1.66267281283351E-02 
2190	 1.60421180533235E-02 
2191	 0.015568259767248 
2192	 1.47690084145797E-02 
2193	 1.47193316211161E-02 
2194	 1.36784532967589E-02 
2195	 1.05674246638024E-02 
2196	 9.80589735240668E-03 
2197	 1.06143526375665E-02 
2198	 9.70201300706945E-03 
2199	 8.31308261811503E-03 
2200	 8.89349871111981E-03 
2201	 9.39829442273198E-03 
2202	 1.06411152406546E-02 
2203	 1.25488838762535E-02 
2204	 1.36111870459989E-02 
2205	 1.49421600042188E-02 
2206	 1.51487083327335E-02 
2207	 1.67468196375551E-02 
2208	 1.92685841612422E-02 
2209	 1.81351215063017E-02 
2210	 1.76998836327757E-02 
2211	 2.00759862775738E-02 
2212	 2.14351596792272E-02 
2213	 1.98992266192095E-02 
2214	 1.80697784978507E-02 
2215	 1.55794091922003E-02 
2216	 0.012330393655894 
2217	 1.12592630432282E-02 
2218	 1.28026130915899E-02 
2219	 1.35456766440727E-02 
2220	 1.49232653052176E-02 
2221	 1.54552188754299E-02 
2222	 1.62758518374869E-02 
2223	 0.016677882719533 
2224	 1.76574122618862E-02 
2225	 1.64858142234859E-02 
2226	 0.011740604609728 
2227	 1.09911687436096E-02 
2228	 1.09274108650162E-02 
2229	 1.02884518409284E-02 
2230	 1.40898216497349E-02 
2231	 0.014696998047456 
2232	 9.75090156807185E-03 
2233	 9.12206018307721E-03 
2234	 1.06276105763744E-02 
2235	 1.12046234830857E-02 
2236	 1.26792169726485E-02 
2237	 1.62105686176761E-02 
2238	 1.58160446993501E-02 
2239	 1.59164492337893E-02 
2240	 1.57338290412394E-02 
2241	 1.28933680894274E-02 
2242	 1.13444914949209E-02 
2243	 9.6406685097726E-03 
2244	 9.28487315569286E-03 
2245	 1.22296900312028E-02 
2246	 1.59172247999021E-02 
2247	 1.79526147954784E-02 
2248	 1.94877242753347E-02 
2249	 1.89074994670283E-02 
2250	 1.54874447666252E-02 
2251	 1.45846311258996E-02 
2252	 1.42107137233167E-02 
2253	 1.42814212758051E-02 
2254	 1.66515286263828E-02 
2255	 1.69107625837316E-02 
2256	 1.57457293500599E-02 
2257	 1.49700232319567E-02 
2258	 1.38236098014349E-02 
2259	 1.29229831440227E-02 
2260	 1.28367528762202E-02 
2261	 1.45135123760509E-02 
2262	 1.48941464524166E-02 
2263	 0.014811029350238 
2264	 1.47640886780424E-02 
2265	 1.44814719048533E-02 
2266	 1.38011887087219E-02 
2267	 1.33334416739477E-02 
2268	 0.012738207937473 
2269	 1.12863520979539E-02 
2270	 1.09217403048255E-02 
2271	 1.04714509037714E-02 
2272	 1.05613653348012E-02 
2273	 1.23099270383272E-02 
2274	 1.24349956354192E-02 
2275	 0.011565443424325 
2276	 1.13758251554525E-02 
2277	 1.07434298947951E-02 
2278	 1.03595713823217E-02 
2279	 1.13632761598887E-02 
2280	 1.20807119412856E-02 
2281	 1.32024528537602E-02 
2282	 1.13089598524307E-02 
2283	 1.05511766030803E-02 
2284	 1.10727432386798E-02 
2285	 1.00051983071749E-02 
2286	 9.29218349911116E-03 
2287	 1.26977315299938E-02 
2288	 1.16788300430298E-02 
2289	 7.70917794989007E-03 
2290	 1.04328855457933E-02 
2291	 1.12891673731322E-02 
2292	 9.82202613690134E-03 
2293	 1.29937899413585E-02 
2294	 1.33255858307121E-02 
2295	 9.60895438377921E-03 
2296	 5.79300208500511E-03 
2297	 3.3417144175126E-03 
2298	 3.41150190262837E-03 
2299	 7.97512838352446E-03 
2300	 1.12996850160066E-02 
2301	 8.47732071056807E-03 
2302	 8.44281367173775E-03 
2303	 1.09769691138108E-02 
2304	 1.04129330018163E-02 
2305	 1.16274192837515E-02 
2306	 1.49265677587468E-02 
2307	 1.21144985169227E-02 
2308	 1.02840925619491E-02 
2309	 1.24597595659005E-02 
2310	 1.17791312526233E-02 
2311	 9.91393068895447E-03 
2312	 8.66787784627151E-03 
2313	 1.07667592411286E-02 
2314	 1.45520695445912E-02 
2315	 1.45408687155783E-02 
2316	 1.43604946527432E-02 
2317	 1.26795465103445E-02 
2318	 8.36424349043536E-03 
2319	 1.40040660562096E-02 
2320	 1.61311450826702E-02 
2321	 1.29026927780943E-02 
2322	 2.00946730725654E-02 
2323	 2.34402180867049E-02 
2324	 2.12489879134488E-02 
2325	 2.23352918300029E-02 
2326	 0.01894104957944 
2327	 5.9950938974448E-03 
2328	 2.58709511930858E-04 
2329	 5.87367233365983E-03 
2330	 7.55085439746247E-03 
2331	 5.84768427979437E-03 
2332	 5.1058332812934E-03 
2333	 2.77689155693903E-03 
2334	 7.30506090503486E-04 
2335	 4.54815843706053E-03 
2336	 6.31260804501903E-03 
2337	 6.61252306598326E-03 
2338	 0.010600087931679 
2339	 1.06594514380249E-02 
2340	 1.25701910649848E-02 
2341	 1.34176392185785E-02 
2342	 5.0160110979666E-03 
2343	-2.18340390671502E-03 
2344	-2.78202935565808E-03 
2345	-9.19835928137694E-03 
2346	-8.28566523288463E-03 
2347	 3.38800994371872E-03 
2348	 5.54645491536672E-03 
2349	 1.87992166183846E-02 
2350	 2.11902777581354E-02 
2351	 6.10589506393046E-03 
2352	 6.88960736642506E-03 
2353	 1.11533436360862E-03 
2354	-4.37710617794202E-03 
2355	-2.88787685088284E-03 
2356	-2.76302194437787E-04 
2357	 6.65257358986234E-03 
2358	 3.51216052760694E-03 
2359	-9.23879353095694E-04 
2360	-3.30090256345688E-03 
2361	 3.18772037234483E-03 
2362	 8.67358249790244E-03 
2363	 2.33209005469881E-03 
2364	 4.96023048019722E-03 
2365	 3.86625388746003E-03 
2366	-7.6460753066859E-04 
2367	 7.8326985200152E-03 
2368	 1.34034056118553E-02 
2369	-1.11804337604188E-03 
2370	-1.29913849676305E-02 
2371	-1.89911598196465E-02 
2372	-3.34239552658325E-02 
2373	-2.15577830583868E-02 
2374	-0.014759959422437 
2375	-4.61099775768362E-02 
2376	-5.22365755470801E-02 
2377	-3.30168387907583E-02 
2378	-3.30164215608485E-02 
2379	-2.76155001833707E-02 
2380	-1.2415040269518E-03 
2381	-2.08354830677848E-03 
2382	-1.87597713171322E-02 
2383	-1.04520159168964E-02 
2384	-8.86779061735169E-03 
2385	-1.40871709395949E-02 
2386	-0.015767689309675 
2387	-4.01247548477989E-03 
2388	 1.72111851865639E-02 
2389	 8.61510645912011E-03 
2390	 1.94141100200845E-03 
2391	 8.99155598505632E-03 
2392	 5.39789928764269E-03 
2393	 9.64947850562915E-03 
2394	 1.4751022413841E-03 
2395	-3.34373596000279E-02 
2396	-3.70707274228174E-02 
2397	-3.89923296777523E-02 
2398	-4.19097935242894E-02 
2399	-9.23774629467261E-03 
2400	-2.21125030737079E-02 
2401	-2.51118725606894E-02 
2402	 1.60507863320674E-02 
2403	-2.34945299728163E-03 
2404	-1.62785992914796E-02 
2405	 9.89886679954521E-04 
2406	-4.37539200672207E-02 
2407	-6.54345679755531E-02 
2408	-1.58086015920534E-02 
2409	-2.03008069874625E-02 
2410	-3.70951298123553E-02 
2411	-1.70005435378261E-02 
2412	-2.84536309923145E-02 
2413	-7.51289218101038E-03 
2414	-3.77215321859282E-02 
2415	-0.105128832345929 
2416	-8.68254274972542E-02 
2417	-0.131213917662014 
2418	-0.118518031873582 
2419	 1.68129777927682E-02 
2420	 0.101547889972911 
2421	 0.106244085410833 
2422	-2.29629357568966E-02 
2423	-9.79296237432692E-02 
2424	-0.100001942285101 
2425	-0.110336975164958 
2426	-3.81254305909924E-02 
2427	 1.46490006402089E-03 
2428	-4.11024933819591E-02 
2429	-0.108162735920944 
2430	-0.139767867809446 
2431	-0.169914957334964 
2432	-0.288243687073428 
2433	-0.285053594379647 
2434	-0.154423640163207 
2435	-0.125647147575509 
2436	-0.080144795616396 
2437	 1.08214168980994E-02 
2438	-1.65728776789615E-02 
2439	-2.07013275304225E-02 
2440	 2.09667480226776E-02 
2441	 4.72367832639959E-02 
2442	 7.04750297207995E-02 
2443	 8.71546799603074E-02 
2444	 0.077696845353663 
2445	 3.86053675436024E-04 
2446	-8.73534823355682E-02 
2447	-3.86619066596329E-02 
2448	-1.39650427651593E-02 
2449	 6.19220549505979E-02 
2450	-1.25408463379874E-02 
2451	-0.417744364698162 
2452	-0.412826083453221 
2453	-0.260213115239695 
2454	 3.60252355522313E-02 
2455	 0.273893835950079 
2456	 0.105224363627804 
2457	-0.129496933643153 
2458	-0.185498428924333 
2459	-0.277154660408035 
2460	-0.157660503822552 
2461	 0.028990214999971 
2462	-9.20872306381721E-02 
2463	-0.365576669418289 
2464	-0.300857621614824 
2465	-0.341498542066669 
2466	-3.76468178176972E-02 
2467	 0.194037905487738 
2468	 0.111150690071512 
2469	-0.107786024610051 
2470	-0.52832388616162 
2471	-0.885344085177464 
2472	-1.69410601034965 
2473	-2.65970542382705 
2474	-1.91803989157353 
2475	-1.18066769002257 
2476	-0.590955885501412 
2477	-0.354392153802521 
2478	 5.20252492039448E-02 
2479	 0.338588569398536 
2480	 0.213491470853087 
2481	-0.184401579413756 
2482	-1.87285825199441 
2483	-22.0947903180485 
2484	 10.6845622510134 
2485	-25.6821751674215 
2486	-2.81714904301787 
2487	-6.96675933386302 
2488	 0.42752994676668 
2489	-0.151842491586847 
2490	-0.367874000339608 
2491	 0.394824080339773 
2492	 0.656991075022683 
2493	-9.63348411868174E-02 
2494	-1.02732284648878 
2495	-2.89486068093928 
2496	-3.67962521984026 
2497	-0.312940679450027 
2498	 0.686446070236852 
2499	 0.895850656246647 
2500	-15.9343699914701 
