Wavelength	rt0711c00001.asd
350	 0.24700129268332 
351	 0.249036788809886 
352	 0.250375273107624 
353	 0.251452911564574 
354	 0.252824864826009 
355	 0.254340932201008 
356	 0.255369596070969 
357	 0.256102822629687 
358	 0.257041454557091 
359	 0.258796155402763 
360	 0.25964910656459 
361	 0.259793816487559 
362	 0.260634270336099 
363	 0.261296941528837 
364	 0.262100293041444 
365	 0.263200212763284 
366	 0.264333764999998 
367	 0.264963965445538 
368	 0.265568495390055 
369	 0.266671841963386 
370	 0.267994395510565 
371	 0.268904909114181 
372	 0.26961555225855 
373	 0.270711881030839 
374	 0.271267090756872 
375	 0.271462659527559 
376	 0.271707286823583 
377	 0.272520337417659 
378	 0.273327311996931 
379	 0.274490132687312 
380	 0.276162813083947 
381	 0.277302906119682 
382	 0.277667331129502 
383	 0.277925995653087 
384	 0.278922627613363 
385	 0.279253565166954 
386	 0.279491002754937 
387	 0.279983983915546 
388	 0.280651065216914 
389	 0.281935327419901 
390	 0.283092619055778 
391	 0.283757731304798 
392	 0.284972819569824 
393	 0.2865301996533 
394	 0.287610275513384 
395	 0.287577380955032 
396	 0.287701199148877 
397	 0.288066627402527 
398	 0.288546459266189 
399	 0.28892642708743 
400	 0.289451877985774 
401	 0.290345835444542 
402	 0.291548682805714 
403	 0.29247313858494 
404	 0.292842691523195 
405	 0.293107483333706 
406	 0.293828905894528 
407	 0.294428131026805 
408	 0.29487128523427 
409	 0.295324098341082 
410	 0.296076936708667 
411	 0.296772555018172 
412	 0.296734413004844 
413	 0.29563270630196 
414	 0.29391019479943 
415	 0.292226685901157 
416	 0.290676910185202 
417	 0.289110741169275 
418	 0.287625485864083 
419	 0.286333768769609 
420	 0.285264175299676 
421	 0.284354314819911 
422	 0.283575630114159 
423	 0.283062302681361 
424	 0.282834501478717 
425	 0.28246078664122 
426	 0.282650873008607 
427	 0.282987710518862 
428	 0.28259186240943 
429	 0.281688187926199 
430	 0.280170323882082 
431	 0.278175422940792 
432	 0.276118210116525 
433	 0.274259664245601 
434	 0.272702196706755 
435	 0.271492884934207 
436	 0.270736919261187 
437	 0.270203945688132 
438	 0.26963231176642 
439	 0.268811519462199 
440	 0.268010734754731 
441	 0.267343206678952 
442	 0.266863024809437 
443	 0.266573604262921 
444	 0.266260685743928 
445	 0.26598788192548 
446	 0.265819083823625 
447	 0.265473310636165 
448	 0.265205848074664 
449	 0.265154784073893 
450	 0.265356661604892 
451	 0.265887907366147 
452	 0.266434205266646 
453	 0.266821257010744 
454	 0.267267446499586 
455	 0.267599457420236 
456	 0.267879492775702 
457	 0.268221410887113 
458	 0.268533432899486 
459	 0.268819811875858 
460	 0.269178304098163 
461	 0.269778988098449 
462	 0.270426343822893 
463	 0.271093829714107 
464	 0.271812695979446 
465	 0.272709193231054 
466	 0.27333951994474 
467	 0.273796966878382 
468	 0.274380588549854 
469	 0.274690948578785 
470	 0.27483693543198 
471	 0.274982664763096 
472	 0.275294188387499 
473	 0.275666616562548 
474	 0.275937241398729 
475	 0.276035882490226 
476	 0.276277078570882 
477	 0.276367082077321 
478	 0.276346956863012 
479	 0.27649258819451 
480	 0.276866637744481 
481	 0.277517942270605 
482	 0.278499011456524 
483	 0.279910487703629 
484	 0.281402168307422 
485	 0.282514228066996 
486	 0.282815186114654 
487	 0.282106212824071 
488	 0.281419742684247 
489	 0.281104586051612 
490	 0.280780311866143 
491	 0.280750328400134 
492	 0.28074334396606 
493	 0.280571433181617 
494	 0.280533830412184 
495	 0.280738333931714 
496	 0.281192586736087 
497	 0.281823204155531 
498	 0.282491796577524 
499	 0.283104701499069 
500	 0.283650445674134 
501	 0.284244144232052 
502	 0.284275826860883 
503	 0.284020345524489 
504	 0.28389114436892 
505	 0.283663547222864 
506	 0.283679362380889 
507	 0.283813241141391 
508	 0.283609502003198 
509	 0.28360600011648 
510	 0.283812415656197 
511	 0.284171770018862 
512	 0.284681807121801 
513	 0.285455414485453 
514	 0.286531615020369 
515	 0.287791984897528 
516	 0.288571275498599 
517	 0.288667615301821 
518	 0.28815689060012 
519	 0.287375778599902 
520	 0.286356841222198 
521	 0.285260501522514 
522	 0.284343602014047 
523	 0.284171924414027 
524	 0.284437009382826 
525	 0.284694672242945 
526	 0.284439272711533 
527	 0.283620695458272 
528	 0.282581876750243 
529	 0.281730562494979 
530	 0.281481505430643 
531	 0.281638950571692 
532	 0.28188401978202 
533	 0.281881612594351 
534	 0.281619985085818 
535	 0.281464959369651 
536	 0.281685325550371 
537	 0.282407644559058 
538	 0.28316391299365 
539	 0.283804434605672 
540	 0.284196009168307 
541	 0.283943789925641 
542	 0.283531006628944 
543	 0.283229039023572 
544	 0.283143078696427 
545	 0.283271059560314 
546	 0.283491124348634 
547	 0.283702986527351 
548	 0.283868194188001 
549	 0.284119611154838 
550	 0.28444905265463 
551	 0.284826409857115 
552	 0.28540264505891 
553	 0.286065292111139 
554	 0.28688498711506 
555	 0.288146412318387 
556	 0.289771385255405 
557	 0.291286151086595 
558	 0.292302330421601 
559	 0.293068702546698 
560	 0.293736587450465 
561	 0.294492099985004 
562	 0.295521063841004 
563	 0.296818478404927 
564	 0.298224306493787 
565	 0.299593556783563 
566	 0.300843407392745 
567	 0.302302976294068 
568	 0.30379318155663 
569	 0.304942677973671 
570	 0.305568959831579 
571	 0.305840716152226 
572	 0.306086219360647 
573	 0.306751627220833 
574	 0.307728534434513 
575	 0.30877462199636 
576	 0.309662668637951 
577	 0.310422675632448 
578	 0.310779739201138 
579	 0.310737113526255 
580	 0.310512825518152 
581	 0.310391189861479 
582	 0.310413008074118 
583	 0.310694369339222 
584	 0.311579515662702 
585	 0.31271149919371 
586	 0.314578270026822 
587	 0.317566898619932 
588	 0.31988891991666 
589	 0.320009671891496 
590	 0.318212987727917 
591	 0.316590349843835 
592	 0.315933521068694 
593	 0.31568799467928 
594	 0.315167436670273 
595	 0.31433948704241 
596	 0.313465389197823 
597	 0.312649135264394 
598	 0.311908450771784 
599	 0.311357369421894 
600	 0.310833873965048 
601	 0.310166014240409 
602	 0.309183697802624 
603	 0.308612964309049 
604	 0.308624473116311 
605	 0.309127461758771 
606	 0.309826750962818 
607	 0.310590722979168 
608	 0.311381331904219 
609	 0.312237142178337 
610	 0.312888604313236 
611	 0.313560781775774 
612	 0.314430967063638 
613	 0.315205098077425 
614	 0.316085402924961 
615	 0.31683500314071 
616	 0.316987867248717 
617	 0.316456175932161 
618	 0.315992442075415 
619	 0.316087527096086 
620	 0.316708407954963 
621	 0.317629870800476 
622	 0.318808539185525 
623	 0.320127077647758 
624	 0.32086076871392 
625	 0.321606441559366 
626	 0.322651518591626 
627	 0.323878715735838 
628	 0.324266202839796 
629	 0.324178598345173 
630	 0.324067215451458 
631	 0.323771254366197 
632	 0.323419773377242 
633	 0.323114174477534 
634	 0.32289399025126 
635	 0.322471793740717 
636	 0.322008601189986 
637	 0.321825015923232 
638	 0.322410379312618 
639	 0.323210456404823 
640	 0.323659332531771 
641	 0.323485106535806 
642	 0.323450850775608 
643	 0.324000976133282 
644	 0.325381979893764 
645	 0.327601384111196 
646	 0.329809374648954 
647	 0.33106704159585 
648	 0.330873959958987 
649	 0.329547959544271 
650	 0.328521760815745 
651	 0.327751795362472 
652	 0.327009163307763 
653	 0.328910132139985 
654	 0.33303933537408 
655	 0.336554568632095 
656	 0.333485405801596 
657	 0.328105251650044 
658	 0.323701071128993 
659	 0.321697960051671 
660	 0.320156358414711 
661	 0.319387732381907 
662	 0.31908854545962 
663	 0.318634059453915 
664	 0.318106142935203 
665	 0.317727547595462 
666	 0.317511966092851 
667	 0.317046465221274 
668	 0.316864027601042 
669	 0.317093991899879 
670	 0.317580570652329 
671	 0.317562868226657 
672	 0.317408218287648 
673	 0.317319591332827 
674	 0.317286782547848 
675	 0.317288970014723 
676	 0.317321214822335 
677	 0.317388702908958 
678	 0.317528292492705 
679	 0.317580602810396 
680	 0.317662949611011 
681	 0.318017092471452 
682	 0.318653815981433 
683	 0.319537014498222 
684	 0.322509707149347 
685	 0.332651067280908 
686	 0.340472791002773 
687	 0.342578637714695 
688	 0.339945424760031 
689	 0.336578273779076 
690	 0.334086106029195 
691	 0.333714702292218 
692	 0.335972466836702 
693	 0.336624595909729 
694	 0.333968808700015 
695	 0.329155633540332 
696	 0.326149324615023 
697	 0.326520152302163 
698	 0.328631488614719 
699	 0.329840230871773 
700	 0.329709375745065 
701	 0.327773342584392 
702	 0.324646071133716 
703	 0.321693410183836 
704	 0.31995554622048 
705	 0.318351919008549 
706	 0.316235639393589 
707	 0.314563772444895 
708	 0.312937896947598 
709	 0.311275131965902 
710	 0.309630879751812 
711	 0.308196238635217 
712	 0.307204240244185 
713	 0.307392083400047 
714	 0.31013075053377 
715	 0.318841484633534 
716	 0.329746089288436 
717	 0.336482610493305 
718	 0.337737409266419 
719	 0.330207581851791 
720	 0.320304646262922 
721	 0.314558669191411 
722	 0.316243603506127 
723	 0.3192203744696 
724	 0.319309510200985 
725	 0.316982519268382 
726	 0.314465777455525 
727	 0.312105090010799 
728	 0.309604858965609 
729	 0.306493383345073 
730	 0.301702874419563 
731	 0.294394871502386 
732	 0.284934437450931 
733	 0.279873930319753 
734	 0.2779761047191 
735	 0.277268108151798 
736	 0.275323046913379 
737	 0.273655738403237 
738	 0.272189238600737 
739	 0.27067597002496 
740	 0.269376586425914 
741	 0.267987835070052 
742	 0.266672637827655 
743	 0.265812430495098 
744	 0.265556410176082 
745	 0.265496586517783 
746	 0.265516714839191 
747	 0.265968894442846 
748	 0.266704962348241 
749	 0.267456622317056 
750	 0.26797258017024 
751	 0.268183538568802 
752	 0.268302416497142 
753	 0.268602402705074 
754	 0.269332592592128 
755	 0.269851890624959 
756	 0.273041746579708 
757	 0.282288832167049 
758	 0.306931250985564 
759	 0.334193312156501 
760	 0.352009541382265 
761	 0.350154595318404 
762	 0.348957261951773 
763	 0.337260072842687 
764	 0.319745339746717 
765	 0.30460849826947 
766	 0.295148407512613 
767	 0.288580725259734 
768	 0.28385749023298 
769	 0.281765132628156 
770	 0.280940728968491 
771	 0.280841592805279 
772	 0.281170975691528 
773	 0.281878689660622 
774	 0.28240454452419 
775	 0.282884764786755 
776	 0.283735433203276 
777	 0.284878246245924 
778	 0.285932726862934 
779	 0.286808272235673 
780	 0.287747821912129 
781	 0.288846331048018 
782	 0.290321403903129 
783	 0.292148171612316 
784	 0.293700744671211 
785	 0.296006308849617 
786	 0.298652779029221 
787	 0.300838191673855 
788	 0.302839169666403 
789	 0.304478179737448 
790	 0.305635508793366 
791	 0.306322179884439 
792	 0.306853992417928 
793	 0.307636261444894 
794	 0.30891324398927 
795	 0.310684644920891 
796	 0.311549323052729 
797	 0.312201132571947 
798	 0.313590462736177 
799	 0.315258889809722 
800	 0.31688042682073 
801	 0.318164650789051 
802	 0.318918960721246 
803	 0.319110104546368 
804	 0.31901800035742 
805	 0.319111503769825 
806	 0.320001189854601 
807	 0.321975604815104 
808	 0.324558295554463 
809	 0.327493386987974 
810	 0.331494111443796 
811	 0.337379264793969 
812	 0.345265906668406 
813	 0.353835108718922 
814	 0.357485566887678 
815	 0.357936789506783 
816	 0.357071316948484 
817	 0.356267066645331 
818	 0.355150720244134 
819	 0.353853921613856 
820	 0.352834969345737 
821	 0.353061847089531 
822	 0.352172969909897 
823	 0.350213262206963 
824	 0.348220552930362 
825	 0.347454501642719 
826	 0.346483726683364 
827	 0.345218685068973 
828	 0.344041581035378 
829	 0.342470120187734 
830	 0.341014025467755 
831	 0.33991814764463 
832	 0.339126972646485 
833	 0.337870077938775 
834	 0.336878209018018 
835	 0.336423983510716 
836	 0.335966666931605 
837	 0.335638472438969 
838	 0.335109153587213 
839	 0.334303207526376 
840	 0.334009669159154 
841	 0.333734407729967 
842	 0.333311864148944 
843	 0.332803436953778 
844	 0.332719459120094 
845	 0.332574138907685 
846	 0.332315034281729 
847	 0.332213711263724 
848	 0.332335812490183 
849	 0.332273086664796 
850	 0.331884245271386 
851	 0.331459751362111 
852	 0.331763188959058 
853	 0.331877282159801 
854	 0.331278785029871 
855	 0.331041861447755 
856	 0.331117314888622 
857	 0.331121447826156 
858	 0.330826057851437 
859	 0.330965001539983 
860	 0.330883706468841 
861	 0.330701826518228 
862	 0.330785118555191 
863	 0.330309974462999 
864	 0.330294399744376 
865	 0.330713240831152 
866	 0.330545195113594 
867	 0.330068790474983 
868	 0.329940633748275 
869	 0.330163015054965 
870	 0.32987269431545 
871	 0.329626647590701 
872	 0.329713486423814 
873	 0.330014234445549 
874	 0.329639236736232 
875	 0.329447449286684 
876	 0.329515138244525 
877	 0.329667239231003 
878	 0.329808445487355 
879	 0.329947099224995 
880	 0.329942770707808 
881	 0.329694992792768 
882	 0.329645280538503 
883	 0.329674468866135 
884	 0.329738005537824 
885	 0.329826242562303 
886	 0.329526277604612 
887	 0.329415898514455 
888	 0.329707385748504 
889	 0.330084242006624 
890	 0.330725876514578 
891	 0.33145041707586 
892	 0.332177693265889 
893	 0.333117910697329 
894	 0.334128666595918 
895	 0.334960290565755 
896	 0.335536223927312 
897	 0.336447063132198 
898	 0.336788324504467 
899	 0.336488234809985 
900	 0.33596989077286 
901	 0.336000542016366 
902	 0.33512538448518 
903	 0.33412184280387 
904	 0.334345264765699 
905	 0.335447467618737 
906	 0.336703327634748 
907	 0.337411752404224 
908	 0.337144413749125 
909	 0.336976673266535 
910	 0.337076807514067 
911	 0.337410702345437 
912	 0.337782148102769 
913	 0.337649227895758 
914	 0.337388274498743 
915	 0.337130482698542 
916	 0.336612309633538 
917	 0.336118012490734 
918	 0.335204952836786 
919	 0.334193603671439 
920	 0.334440966290226 
921	 0.335035525643414 
922	 0.335936628805094 
923	 0.336743089251764 
924	 0.33596721269577 
925	 0.336051378701478 
926	 0.337395609288777 
927	 0.339455773964094 
928	 0.340743461476749 
929	 0.341859998797746 
930	 0.343333492471069 
931	 0.345525838417165 
932	 0.347482448652902 
933	 0.348641682626423 
934	 0.347055109202149 
935	 0.342830858076982 
936	 0.342574921071711 
937	 0.34230280205855 
938	 0.342345887370496 
939	 0.343608213122099 
940	 0.342998953879861 
941	 0.343995457545497 
942	 0.345413749250956 
943	 0.344463409128248 
944	 0.344481663340411 
945	 0.342328833606919 
946	 0.341387020281064 
947	 0.345953076518255 
948	 0.342492842574612 
949	 0.341620227984621 
950	 0.34430422285109 
951	 0.344882608000341 
952	 0.343509636465652 
953	 0.343318603625397 
954	 0.343716747471762 
955	 0.34191997516688 
956	 0.339503551432778 
957	 0.340241578799505 
958	 0.342657571966722 
959	 0.342261805702589 
960	 0.341713734734428 
961	 0.340256054501587 
962	 0.339138635348557 
963	 0.340286629102784 
964	 0.339609861847976 
965	 0.338952866037978 
966	 0.337898110940679 
967	 0.334716194464518 
968	 0.333684882552138 
969	 0.334256673884759 
970	 0.335228598556114 
971	 0.335667718551793 
972	 0.338125217662637 
973	 0.33898121388343 
974	 0.336947231775242 
975	 0.334187644967903 
976	 0.334940016658139 
977	 0.335148649886342 
978	 0.334193927938499 
979	 0.334794225104407 
980	 0.333468074375234 
981	 0.332442633890676 
982	 0.331942787403326 
983	 0.330605462564037 
984	 0.33188057683432 
985	 0.331455283518088 
986	 0.329520173861344 
987	 0.32991732153634 
988	 0.331132781410925 
989	 0.330032109065044 
990	 0.328208094326759 
991	 0.329700881599607 
992	 0.328754538935337 
993	 0.32880078488401 
994	 0.328797763000804 
995	 0.325949113885693 
996	 0.3298420495424 
997	 0.329522931909726 
998	 0.326267282794 
999	 0.32782565676933 
1000	 0.326404800780277 
1001	 0.177406326802688 
1002	 0.177892494538006 
1003	 0.178526492369138 
1004	 0.179079121092443 
1005	 0.179838905208303 
1006	 0.180952800907355 
1007	 0.181963988084318 
1008	 0.18290489348394 
1009	 0.183770803754666 
1010	 0.184489945167655 
1011	 0.185055260617171 
1012	 0.185483285769007 
1013	 0.186468191597838 
1014	 0.18752167247239 
1015	 0.188978413911395 
1016	 0.190180979766084 
1017	 0.191412290587854 
1018	 0.192506119987209 
1019	 0.193219801028294 
1020	 0.194441269661616 
1021	 0.195815176435488 
1022	 0.197597501463403 
1023	 0.199022687129132 
1024	 0.200209893751482 
1025	 0.20162818546026 
1026	 0.202916150706692 
1027	 0.20463087710816 
1028	 0.207088646257439 
1029	 0.208901304416894 
1030	 0.210333379872529 
1031	 0.212186863692576 
1032	 0.213904869017168 
1033	 0.216025897139541 
1034	 0.218760607704371 
1035	 0.221157556517451 
1036	 0.223507172180246 
1037	 0.225878173778565 
1038	 0.228056188905678 
1039	 0.230437786865325 
1040	 0.232942851861219 
1041	 0.235776650406526 
1042	 0.238497478362887 
1043	 0.241171990004824 
1044	 0.244257480023081 
1045	 0.247423504364647 
1046	 0.250879290251656 
1047	 0.255022614720717 
1048	 0.25860400314004 
1049	 0.261615193989539 
1050	 0.265517485969025 
1051	 0.269857087571251 
1052	 0.273972889738342 
1053	 0.278756208567476 
1054	 0.283192194195582 
1055	 0.28663465838684 
1056	 0.290948262829659 
1057	 0.295654073451356 
1058	 0.300899033985762 
1059	 0.30583727753555 
1060	 0.311377365508805 
1061	 0.316197225061844 
1062	 0.320322155352454 
1063	 0.325068404010054 
1064	 0.330016664283227 
1065	 0.3347360886964 
1066	 0.34102563671554 
1067	 0.344551428169301 
1068	 0.346608778008347 
1069	 0.348260583725264 
1070	 0.347655645604283 
1071	 0.347573212786812 
1072	 0.347242191787837 
1073	 0.347253510499239 
1074	 0.347052480533455 
1075	 0.346341659687105 
1076	 0.346625875907357 
1077	 0.347353504915216 
1078	 0.348068733485417 
1079	 0.349465630699837 
1080	 0.350425531178422 
1081	 0.351046457128735 
1082	 0.352032998553656 
1083	 0.353181088501276 
1084	 0.354334478973959 
1085	 0.35534455437504 
1086	 0.356969752839051 
1087	 0.358739279710015 
1088	 0.360876614968091 
1089	 0.363701545758765 
1090	 0.36684488671358 
1091	 0.369749479066749 
1092	 0.372510392803187 
1093	 0.376238935391139 
1094	 0.380070240508277 
1095	 0.384956749458011 
1096	 0.39140073386586 
1097	 0.397337279995637 
1098	 0.403807760918919 
1099	 0.410371072658779 
1100	 0.416606409055039 
1101	 0.424032977219931 
1102	 0.432279441122138 
1103	 0.441050866498695 
1104	 0.450471315801703 
1105	 0.461296437215362 
1106	 0.473377442233578 
1107	 0.486681317186792 
1108	 0.503495853847369 
1109	 0.525616219833911 
1110	 0.546382680374384 
1111	 0.576131051857948 
1112	 0.596308122560644 
1113	 0.611701626834611 
1114	 0.626204830485887 
1115	 0.628242572189879 
1116	 0.635849576516596 
1117	 0.642090881249797 
1118	 0.651550594274199 
1119	 0.663773586599702 
1120	 0.676555699649841 
1121	 0.692122458729002 
1122	 0.705873403354553 
1123	 0.716719364597768 
1124	 0.73644322185415 
1125	 0.752885943676453 
1126	 0.778793666312377 
1127	 0.793843007864694 
1128	 0.801104018945016 
1129	 0.815163856429171 
1130	 0.822732576201988 
1131	 0.839136014168381 
1132	 0.863589533117764 
1133	 0.881952784271528 
1134	 0.896562744541089 
1135	 0.914229053639968 
1136	 0.931755487003852 
1137	 0.948876252136212 
1138	 0.967978011852049 
1139	 0.984875475109893 
1140	 1.00653617298485 
1141	 1.02468257187094 
1142	 1.04822785896176 
1143	 1.07498126297028 
1144	 1.10073236764479 
1145	 1.12382890065751 
1146	 1.14721811209852 
1147	 1.17233119380313 
1148	 1.19672687567044 
1149	 1.2256075724255 
1150	 1.2509003688423 
1151	 1.29320535069177 
1152	 1.27694837090381 
1153	 1.26693558847197 
1154	 1.2108155168733 
1155	 1.11736990036041 
1156	 1.04356582384433 
1157	 0.975150294411133 
1158	 0.900316868555845 
1159	 0.843975528149097 
1160	 0.79564808302371 
1161	 0.750433733216502 
1162	 0.711229556416358 
1163	 0.677899749779193 
1164	 0.648864130935176 
1165	 0.62588353468563 
1166	 0.606139845523239 
1167	 0.588285930189573 
1168	 0.573701935080246 
1169	 0.560232712890894 
1170	 0.548355172496623 
1171	 0.539066996015161 
1172	 0.531993687377829 
1173	 0.525754826087282 
1174	 0.52106282067188 
1175	 0.517283504314747 
1176	 0.51351242399162 
1177	 0.511468275554139 
1178	 0.5100256855293 
1179	 0.508719142494493 
1180	 0.509237019578082 
1181	 0.509530460556227 
1182	 0.50876556773809 
1183	 0.508362386326592 
1184	 0.506707003757193 
1185	 0.504171116685554 
1186	 0.501806476814551 
1187	 0.498658796946668 
1188	 0.495218422058691 
1189	 0.492281288232215 
1190	 0.488530576077108 
1191	 0.485119170611914 
1192	 0.482444409452686 
1193	 0.480208027815104 
1194	 0.4777505412511 
1195	 0.476512174116945 
1196	 0.476202317250296 
1197	 0.476243988171734 
1198	 0.476286996129742 
1199	 0.476428153783132 
1200	 0.476359464968081 
1201	 0.476215578840311 
1202	 0.475750306893352 
1203	 0.474939133558431 
1204	 0.473298527190448 
1205	 0.470782284176938 
1206	 0.468349607487471 
1207	 0.465419644924511 
1208	 0.46251162184275 
1209	 0.459705449720045 
1210	 0.456776491073575 
1211	 0.453683397835661 
1212	 0.45068731599431 
1213	 0.448169123131136 
1214	 0.445622205790228 
1215	 0.443124968143221 
1216	 0.440706276762599 
1217	 0.438230251492514 
1218	 0.435579042503236 
1219	 0.432631210904069 
1220	 0.430251239422815 
1221	 0.427725154023147 
1222	 0.424698357923773 
1223	 0.422079501134566 
1224	 0.419564678129231 
1225	 0.416897921921376 
1226	 0.414274016841715 
1227	 0.412313686639631 
1228	 0.410139428021151 
1229	 0.407944048167645 
1230	 0.406220855313778 
1231	 0.404957468511539 
1232	 0.403455698772832 
1233	 0.40231382213972 
1234	 0.402104052688434 
1235	 0.401857801204701 
1236	 0.401478383213993 
1237	 0.401668892569018 
1238	 0.402345442593236 
1239	 0.40313201488389 
1240	 0.404130621158697 
1241	 0.40528287358472 
1242	 0.406392530578147 
1243	 0.407587982584156 
1244	 0.40895547711586 
1245	 0.410315832575407 
1246	 0.411810886738849 
1247	 0.413542170043512 
1248	 0.415119204092878 
1249	 0.41660017014293 
1250	 0.418586302470627 
1251	 0.420778526751919 
1252	 0.422992936756577 
1253	 0.42573207535119 
1254	 0.42966119832187 
1255	 0.432281369191549 
1256	 0.434606297297787 
1257	 0.437906833739337 
1258	 0.437109629810488 
1259	 0.434088845426331 
1260	 0.430637686464592 
1261	 0.424105072846648 
1262	 0.419380835624694 
1263	 0.414454914951275 
1264	 0.409841942613078 
1265	 0.405425899719519 
1266	 0.400396613217419 
1267	 0.395329283403867 
1268	 0.390306873452943 
1269	 0.384999910417046 
1270	 0.378615425571405 
1271	 0.372193431642001 
1272	 0.36597584743697 
1273	 0.360295958034333 
1274	 0.355369367033455 
1275	 0.350932175719981 
1276	 0.346561244506327 
1277	 0.342926032614213 
1278	 0.339477328075876 
1279	 0.336873537456039 
1280	 0.33486720468959 
1281	 0.3326806993039 
1282	 0.330137441993629 
1283	 0.328381574165236 
1284	 0.327061618423577 
1285	 0.325987583240835 
1286	 0.325138192476992 
1287	 0.324794439850816 
1288	 0.325150253686174 
1289	 0.325305269837915 
1290	 0.325464921521241 
1291	 0.326378659524517 
1292	 0.327791380604463 
1293	 0.328853523840259 
1294	 0.330686169126228 
1295	 0.33335496758495 
1296	 0.335823442132739 
1297	 0.338278209704412 
1298	 0.341508718175441 
1299	 0.344938759422821 
1300	 0.34809914509121 
1301	 0.351855537152873 
1302	 0.356005065982571 
1303	 0.359855292678546 
1304	 0.364078643421819 
1305	 0.369056900372366 
1306	 0.374026586581772 
1307	 0.379077271863516 
1308	 0.384465064035378 
1309	 0.390632275659834 
1310	 0.396190596283659 
1311	 0.401291381615737 
1312	 0.407059420601076 
1313	 0.41337250792491 
1314	 0.418609060101233 
1315	 0.423284705426388 
1316	 0.428463396160905 
1317	 0.435930921171371 
1318	 0.438804361361547 
1319	 0.440963631226305 
1320	 0.439804730272925 
1321	 0.434769082384411 
1322	 0.422704556833402 
1323	 0.413651321430216 
1324	 0.402688650810221 
1325	 0.393606354597559 
1326	 0.384484188537534 
1327	 0.377755808895482 
1328	 0.371037946499043 
1329	 0.365476031027321 
1330	 0.36004505132027 
1331	 0.355305646714668 
1332	 0.35158385173231 
1333	 0.346603219875126 
1334	 0.342793566976931 
1335	 0.338391696268102 
1336	 0.333979522887432 
1337	 0.32859829833827 
1338	 0.322846982191059 
1339	 0.317721472165072 
1340	 0.311135905391106 
1341	 0.304643853504517 
1342	 0.296643055441606 
1343	 0.291229278581849 
1344	 0.286375346556347 
1345	 0.281336840673832 
1346	 0.279671872605064 
1347	 0.276907393984986 
1348	 0.273326446516091 
1349	 0.269147184947015 
1350	 0.268656635072974 
1351	 0.269564820965624 
1352	 0.276376158635245 
1353	 0.279163196227146 
1354	 0.279325893940437 
1355	 0.304587558632948 
1356	 0.308720846409631 
1357	 0.271055247978864 
1358	 0.177724845391484 
1359	 0.2123357983346 
1360	 0.256570704179306 
1361	 0.198053420825576 
1362	 0.191732098525052 
1363	 0.25266070774065 
1364	 0.192799905819636 
1365	 0.105920359021564 
1366	 0.190067200295944 
1367	 0.203053057371235 
1368	 0.159146601853815 
1369	 4.72113565702973E-02 
1370	 5.48559248534416E-02 
1371	 8.86523669194521E-02 
1372	-0.104321338824008 
1373	-0.322125507682208 
1374	-0.343435315790223 
1375	-0.423411789339543 
1376	-0.484788797021293 
1377	-0.355154868577301 
1378	-0.223183516258209 
1379	 7.1220217564424E-03 
1380	-5.53275853951137E-02 
1381	-0.34945636872601 
1382	-0.193307214776275 
1383	-0.199622899581846 
1384	-0.203752109438227 
1385	 0.150434611725319 
1386	 0.335259431506836 
1387	 0.745288432698017 
1388	 0.669416976278267 
1389	-0.187248351308182 
1390	-0.20419975515498 
1391	 7.27662108093106E-02 
1392	 3.23269441932346E-02 
1393	-0.640094962324979 
1394	-0.552876425645115 
1395	 0.139601498876828 
1396	 0.111940594537935 
1397	 9.14874305604406E-02 
1398	 0.307188059621668 
1399	 0.250988442450649 
1400	 6.08960488700484E-02 
1401	 5.26582873341932E-02 
1402	 9.22858304853723E-02 
1403	 0.234512514694651 
1404	 0.17970712975371 
1405	 0.123676585910425 
1406	 0.297514594540456 
1407	 0.278571819982309 
1408	-3.86706966500428E-03 
1409	 3.23676057294755E-02 
1410	 0.271868957470419 
1411	 0.247031666462802 
1412	 0.150908928050125 
1413	 0.15240957279864 
1414	 0.131746525232095 
1415	 0.126231423169177 
1416	 0.155585888480404 
1417	 0.168404077245656 
1418	 0.171405757511118 
1419	 0.164851356960914 
1420	 0.158348069760269 
1421	 0.163781589924773 
1422	 0.16552995198136 
1423	 0.161246509169149 
1424	 0.158892676001585 
1425	 0.165690217375472 
1426	 0.176290412611371 
1427	 0.174614855659583 
1428	 0.175112952523532 
1429	 0.172554387683909 
1430	 0.157026380485164 
1431	 0.150240874160995 
1432	 0.147899213208952 
1433	 0.147613479609507 
1434	 0.152052010079577 
1435	 0.150561292853979 
1436	 0.146496622819663 
1437	 0.14760359173629 
1438	 0.146377772451191 
1439	 0.143363610340349 
1440	 0.141803898699674 
1441	 0.1442727684914 
1442	 0.142647990083263 
1443	 0.136585493786475 
1444	 0.135389679102289 
1445	 0.133339150673505 
1446	 0.132720055167318 
1447	 0.131839178866726 
1448	 0.125812456981798 
1449	 0.124348266488687 
1450	 0.12458569213892 
1451	 0.122598553659379 
1452	 0.122967200527293 
1453	 0.123334787277835 
1454	 0.122042380691147 
1455	 0.119007213147486 
1456	 0.117624600022259 
1457	 0.11653545621305 
1458	 0.115000762776871 
1459	 0.112759747348067 
1460	 0.112087276247399 
1461	 0.113057162550908 
1462	 0.111098998846547 
1463	 0.106893772490982 
1464	 0.106263895414044 
1465	 0.105563456764218 
1466	 0.104131596745417 
1467	 0.105818291562072 
1468	 0.106089917314123 
1469	 0.103606772752549 
1470	 0.102311483778052 
1471	 0.102092042565591 
1472	 0.103310321652854 
1473	 0.105265616959435 
1474	 0.104831111898165 
1475	 0.104809352166422 
1476	 0.105457180225737 
1477	 0.104872186815078 
1478	 0.10388359106261 
1479	 0.104255322799737 
1480	 0.103618789714075 
1481	 0.100909604869651 
1482	 9.98447157413134E-02 
1483	 9.94144562509453E-02 
1484	 9.95093232634519E-02 
1485	 0.100482768263334 
1486	 0.100254660757543 
1487	 0.100098376922163 
1488	 0.099996697576493 
1489	 9.91811546431399E-02 
1490	 9.86487863431052E-02 
1491	 0.098728210238771 
1492	 9.83641467800631E-02 
1493	 9.76741754568275E-02 
1494	 9.71006981977745E-02 
1495	 9.65676936545007E-02 
1496	 9.58419268145413E-02 
1497	 9.48198477913038E-02 
1498	 9.42510372046843E-02 
1499	 0.093723203300402 
1500	 9.30991017329676E-02 
1501	 9.26686799398296E-02 
1502	 9.23935526110498E-02 
1503	 9.22031110145234E-02 
1504	 9.18289425650778E-02 
1505	 9.16865765708561E-02 
1506	 9.10347797928497E-02 
1507	 9.04850921747814E-02 
1508	 9.02518414855957E-02 
1509	 9.01293656354101E-02 
1510	 9.00626225783812E-02 
1511	 8.96246620492797E-02 
1512	 8.91710627258422E-02 
1513	 8.88688383210474E-02 
1514	 8.84623642340954E-02 
1515	 8.80620391002014E-02 
1516	 8.79100500192007E-02 
1517	 8.77425735822839E-02 
1518	 8.72834645412359E-02 
1519	 0.087122475519365 
1520	 8.70140452514842E-02 
1521	 8.66511818018841E-02 
1522	 8.63842655285467E-02 
1523	 8.59798446964605E-02 
1524	 8.54960256803642E-02 
1525	 8.49121094726703E-02 
1526	 8.45682006958919E-02 
1527	 8.47600935999581E-02 
1528	 0.084518202909717 
1529	 8.40752336062176E-02 
1530	 0.083933418720202 
1531	 8.35452299816308E-02 
1532	 8.31710895392156E-02 
1533	 8.31373696085245E-02 
1534	 8.31933021215369E-02 
1535	 8.31555001438506E-02 
1536	 8.26539589151103E-02 
1537	 8.19956403290514E-02 
1538	 8.17709893126526E-02 
1539	 8.16881087951887E-02 
1540	 8.15387078859028E-02 
1541	 8.14750451139287E-02 
1542	 0.081246196810463 
1543	 8.07331028209079E-02 
1544	 8.03612875162622E-02 
1545	 7.99951737286691E-02 
1546	 7.97330074401409E-02 
1547	 7.96938379188971E-02 
1548	 0.079425740878574 
1549	 7.93032810256706E-02 
1550	 7.92855350402274E-02 
1551	 7.90936147775933E-02 
1552	 7.88814064885116E-02 
1553	 7.84889224607862E-02 
1554	 7.80175241508507E-02 
1555	 7.76400928482029E-02 
1556	 7.74210885618198E-02 
1557	 7.74581881294377E-02 
1558	 7.76417750689357E-02 
1559	 0.077446907993391 
1560	 7.69408399434184E-02 
1561	 7.68064831914791E-02 
1562	 7.67097990412129E-02 
1563	 7.62950545768032E-02 
1564	 0.075977574305734 
1565	 7.55882893444247E-02 
1566	 7.50676347970005E-02 
1567	 7.48267319803263E-02 
1568	 7.46430453024363E-02 
1569	 7.44959327219857E-02 
1570	 7.45079008138643E-02 
1571	 0.074286883620738 
1572	 7.38196655120637E-02 
1573	 7.36251738950059E-02 
1574	 7.32182076182906E-02 
1575	 7.23775093737474E-02 
1576	 7.18362536334564E-02 
1577	 7.18744458390487E-02 
1578	 7.18931604682333E-02 
1579	 7.17798111634991E-02 
1580	 7.19895883938841E-02 
1581	 7.19045113135993E-02 
1582	 7.14531797263597E-02 
1583	 7.10547178891627E-02 
1584	 7.08114768364006E-02 
1585	 7.03152212974503E-02 
1586	 6.94240884093958E-02 
1587	 6.92464275431325E-02 
1588	 6.93579737358303E-02 
1589	 6.89483738649442E-02 
1590	 6.87771566623998E-02 
1591	 0.0683897420667 
1592	 6.76727332345285E-02 
1593	 6.75230938364553E-02 
1594	 6.73795648851965E-02 
1595	 6.71042016582926E-02 
1596	 6.70830397690435E-02 
1597	 6.66689627083762E-02 
1598	 6.60232203288526E-02 
1599	 6.58309453955391E-02 
1600	 6.56568747766677E-02 
1601	 0.065358975780429 
1602	 6.52002238682682E-02 
1603	 6.48607372546266E-02 
1604	 6.45769230478535E-02 
1605	 6.44814987480768E-02 
1606	 6.40623926860572E-02 
1607	 6.38217373107593E-02 
1608	 6.36314922722398E-02 
1609	 0.063279810666207 
1610	 6.32851129971998E-02 
1611	 6.31385986975679E-02 
1612	 6.26569797870152E-02 
1613	 6.23433924022352E-02 
1614	 6.23103032816307E-02 
1615	 6.21096322143393E-02 
1616	 6.17943065556964E-02 
1617	 6.17280812940895E-02 
1618	 6.14433261335876E-02 
1619	 6.09412693057226E-02 
1620	 6.09968403320042E-02 
1621	 0.061369818019099 
1622	 6.11574037607302E-02 
1623	 6.06162931583469E-02 
1624	 6.04435374460244E-02 
1625	 6.01158974437548E-02 
1626	 5.97549698202426E-02 
1627	 6.00265739450352E-02 
1628	 6.01352227803391E-02 
1629	 5.97089508204918E-02 
1630	 0.059672789657469 
1631	 6.00329825385878E-02 
1632	 5.98041992558118E-02 
1633	 0.059394228143111 
1634	 5.94483821364518E-02 
1635	 5.93824272945138E-02 
1636	 5.93650006065352E-02 
1637	 5.98242202522334E-02 
1638	 5.98025920407195E-02 
1639	 5.93152704130272E-02 
1640	 5.94666933023489E-02 
1641	 5.95743215324796E-02 
1642	 5.93179000237472E-02 
1643	 0.059543570800438 
1644	 5.99205100253942E-02 
1645	 5.97446870967129E-02 
1646	 0.059881671094174 
1647	 6.07069875609932E-02 
1648	 6.08500437375036E-02 
1649	 6.08128304714331E-02 
1650	 6.17191436736064E-02 
1651	 6.23019539091747E-02 
1652	 6.23642046071306E-02 
1653	 6.29902486150711E-02 
1654	 6.31916251310919E-02 
1655	 6.27097531611426E-02 
1656	 6.29583220490181E-02 
1657	 0.063683320670054 
1658	 6.39590972207922E-02 
1659	 6.43016140398704E-02 
1660	 6.46176432736361E-02 
1661	 0.064607012394126 
1662	 6.47624854155766E-02 
1663	 6.52067717197666E-02 
1664	 6.53822765516644E-02 
1665	 6.52688032349113E-02 
1666	 6.53181563295561E-02 
1667	 6.55534717102611E-02 
1668	 6.52328736087398E-02 
1669	 6.49428067435373E-02 
1670	 6.50389553798481E-02 
1671	 6.53372017615984E-02 
1672	 6.53941114027238E-02 
1673	 6.50883193307241E-02 
1674	 6.49330551130616E-02 
1675	 0.064732672397761 
1676	 6.42057904524267E-02 
1677	 6.43093153021586E-02 
1678	 6.48392790839369E-02 
1679	 6.46221192120002E-02 
1680	 6.42474011106301E-02 
1681	 6.42588115484531E-02 
1682	 6.38763590511105E-02 
1683	 6.32684890269964E-02 
1684	 6.30362160974404E-02 
1685	 0.063092182253775 
1686	 6.29813144319807E-02 
1687	 6.22959950041254E-02 
1688	 6.21013245732524E-02 
1689	 6.22316993196635E-02 
1690	 6.14180035250887E-02 
1691	 6.06574549415696E-02 
1692	 6.04700414698188E-02 
1693	 6.01618856529518E-02 
1694	 5.97372961330818E-02 
1695	 5.95299951687404E-02 
1696	 5.91971540404571E-02 
1697	 5.85638901310291E-02 
1698	 5.80653975733368E-02 
1699	 5.77280065778652E-02 
1700	 5.74304065288073E-02 
1701	 5.72729672504734E-02 
1702	 5.69204787110458E-02 
1703	 5.67508773113367E-02 
1704	 0.057136986765967 
1705	 5.67220215745676E-02 
1706	 5.58455344344884E-02 
1707	 0.056085076425033 
1708	 5.60525043057634E-02 
1709	 5.53439284979479E-02 
1710	 5.54832020331958E-02 
1711	 5.54747459427114E-02 
1712	 5.49395920333044E-02 
1713	 5.49399520886421E-02 
1714	 5.48115829030918E-02 
1715	 5.46438964545072E-02 
1716	 5.41808627598867E-02 
1717	 5.37553093583761E-02 
1718	 5.33596039551594E-02 
1719	 5.36316125946387E-02 
1720	 5.41230706752984E-02 
1721	 5.45469121774882E-02 
1722	 5.45688430939637E-02 
1723	 5.33605050108473E-02 
1724	 5.25289533799722E-02 
1725	 5.25484307307241E-02 
1726	 5.22640852343399E-02 
1727	 5.22734612393895E-02 
1728	 0.052642350719 
1729	 5.22799543793155E-02 
1730	 5.18660020795687E-02 
1731	 5.25201421516351E-02 
1732	 5.24353313973116E-02 
1733	 0.051203914316877 
1734	 0.05073265338181 
1735	 5.06160812996513E-02 
1736	 5.07372664022223E-02 
1737	 5.11540235944067E-02 
1738	 5.10808297474711E-02 
1739	 5.08723441853677E-02 
1740	 5.06473804293926E-02 
1741	 0.050461895100572 
1742	 5.09818704130326E-02 
1743	 5.14004663746635E-02 
1744	 0.050666435494689 
1745	 5.03815466821313E-02 
1746	 5.11016970710634E-02 
1747	 5.09456807319454E-02 
1748	 0.050759342785418 
1749	 0.051057098587553 
1750	 5.11730827819469E-02 
1751	 5.08594258996154E-02 
1752	 5.09587177533394E-02 
1753	 5.07831877060554E-02 
1754	 4.94145562451234E-02 
1755	 4.92222766527952E-02 
1756	 5.01693430570543E-02 
1757	 4.96467934011492E-02 
1758	 4.97324966370755E-02 
1759	 4.97478517304076E-02 
1760	 4.90432420398711E-02 
1761	 4.94048602565083E-02 
1762	 5.01280208209082E-02 
1763	 0.050081052508574 
1764	 5.01410601210018E-02 
1765	 5.06805892541428E-02 
1766	 4.96726263055489E-02 
1767	 4.75801424964804E-02 
1768	 4.80589655118344E-02 
1769	 0.048457140278524 
1770	 4.78171748717206E-02 
1771	 4.82221098945453E-02 
1772	 4.65631822940756E-02 
1773	 4.45876581415698E-02 
1774	 4.50646443129338E-02 
1775	 4.81126151227805E-02 
1776	 4.90438660664467E-02 
1777	 4.90565503303947E-02 
1778	 4.87593253477689E-02 
1779	 4.55595680196291E-02 
1780	 4.50094516349979E-02 
1781	 4.72244550191182E-02 
1782	 4.74688951108412E-02 
1783	 4.82595255556847E-02 
1784	 4.83857797204904E-02 
1785	 4.59922944386911E-02 
1786	 0.04576465751228 
1787	 4.73705406256992E-02 
1788	 4.65427516540154E-02 
1789	 4.48990725124736E-02 
1790	 4.39504006813914E-02 
1791	 4.35878482769336E-02 
1792	 4.60706080066481E-02 
1793	 4.68135401735956E-02 
1794	 4.20867061592504E-02 
1795	 3.79608891635472E-02 
1796	 3.62304655798956E-02 
1797	 3.40001990623277E-02 
1798	 0.03828289090048 
1799	 4.46996503909042E-02 
1800	 4.31862575037825E-02 
1801	 4.03279837414268E-02 
1802	 2.31531872373108E-02 
1803	 1.32078685546597E-02 
1804	 7.50276067173305E-03 
1805	 5.75634465345557E-03 
1806	 3.22206133863043E-02 
1807	 3.81770064909868E-02 
1808	 2.43920184485133E-02 
1809	 0.02011686103806 
1810	-8.72447652831151E-03 
1811	-1.84438961410251E-02 
1812	 2.71664769577791E-02 
1813	 2.08059574362114E-02 
1814	-3.01845268207858E-02 
1815	-0.078034338895187 
1816	-0.186708179132957 
1817	-0.326932100168743 
1818	-0.477059894174366 
1819	-0.159004823149827 
1820	-8.40414710209914E-04 
1821	 0.175863197858613 
1822	 0.199981713117562 
1823	-0.458113002068593 
1824	-1.04173759735949 
1825	-2.04095829972427 
1826	-2.89886012674805 
1827	-7.82278978243422E-02 
1828	 8.78763515433156E-02 
1829	-0.21599756842241 
1830	-0.313133170325129 
1831	 0.176223787208345 
1832	 0.428904205853394 
1833	 0.768521018255424 
1834	 0.99462160349722 
1835	 7.12984227616774E-02 
1836	-0.74810281931979 
1837	-0.498244433881261 
1838	-0.570939403218727 
1839	-0.836756907345346 
1840	-0.893058531066067 
1841	-0.614552730087813 
1842	-0.110556904807557 
1843	-0.306224967771919 
1844	-0.307159576689131 
1845	-0.295376300969909 
1846	 0.629368436335747 
1847	 9.74440449039828 
1848	-1.21454131285954 
1849	-0.85790325683674 
1850	-2.29134891480614 
1851	 12.2099996511961 
1852	-1.86774408006512 
1853	-0.645873222857564 
1854	-0.88849323334465 
1855	-2.43167997338333 
1856	 11.4818424738521 
1857	 1.73578674961986 
1858	 1.25481044409858 
1859	 0.846758806768639 
1860	 0.221167661102453 
1861	 0.178592250729857 
1862	 7.29534185481969E-02 
1863	 1.06745448574132E-02 
1864	 0.397052061507042 
1865	 0.950623902387041 
1866	 1.62505337778181 
1867	 1.3118339825315 
1868	 0.775097667627312 
1869	 0.845981855233589 
1870	 1.09406483575929 
1871	 0.481723741527148 
1872	 0.560428598269896 
1873	 1.14517369262319 
1874	-0.589022538096936 
1875	-0.996750107897336 
1876	-0.979350000665144 
1877	-2.28164855670011 
1878	-6.07604337562385 
1879	-6.32774413797206 
1880	-8.64826129946939 
1881	 2.38286597165534 
1882	-3.80770462254736 
1883	-0.824340400981131 
1884	-0.603169170816383 
1885	-0.683055165636579 
1886	 2.07999994684484 
1887	 20.5959764098112 
1888	 3.18989429895737 
1889	 2.08113650357249 
1890	 1.86789604594937 
1891	 1.64205560884265 
1892	 0.382797738349141 
1893	-5.1778514260053 
1894	-1.99867448029811 
1895	-0.731051164591219 
1896	-0.992782883094748 
1897	-0.138330840698213 
1898	 1.16852166310192 
1899	 1.28710573236182 
1900	 1.44977740312642 
1901	 0.184999475148306 
1902	 0.514448454631402 
1903	 0.944026029132127 
1904	 2.98823882531853 
1905	-16.4457664618513 
1906	-4.30933365252864 
1907	-1.55741151638024 
1908	-1.61218357787735 
1909	-1.7081196234762 
1910	-1.46798428699326 
1911	-2.72853480395525 
1912	-5.89879033725691 
1913	-10.1099577498402 
1914	 1.72554440226812 
1915	-1.29152473857951 
1916	 0.88993801048056 
1917	 0.949436758763249 
1918	-2.89520294132425 
1919	 2.97031681355519 
1920	 1.27190204131691 
1921	 1.0443163446621 
1922	 1.7053427989808 
1923	 2.19640996203889 
1924	 1.36743473313272 
1925	 1.29475916323333 
1926	 1.32530236599713 
1927	 1.09270979908189 
1928	 1.12916933267118 
1929	 1.48978734857724 
1930	 1.95283253049702 
1931	 1.60385489454222 
1932	 1.53234574054437 
1933	 2.03181166273093 
1934	 2.29140085092439 
1935	 2.78699429040392 
1936	 3.29011386401126 
1937	 2.83211131529177 
1938	 2.66794823788626 
1939	 2.63622728707981 
1940	 2.65903207289985 
1941	 2.54943341669464 
1942	 2.508362832202 
1943	 2.45993558007331 
1944	 2.39788487805959 
1945	 2.37789855879537 
1946	 2.40809804322859 
1947	 2.45466954005192 
1948	 2.50916516652523 
1949	 2.52190732974971 
1950	 2.47366016516691 
1951	 2.4121349362957 
1952	 2.36298134384679 
1953	 2.27120809264584 
1954	 2.24937904752927 
1955	 2.25678740662063 
1956	 2.25792202421497 
1957	 2.28590772424476 
1958	 2.15148472930606 
1959	 1.97062573942731 
1960	 1.76473913671508 
1961	 1.54456179150167 
1962	 1.38643198702947 
1963	 1.25414315445991 
1964	 1.14391107252491 
1965	 1.04774864175263 
1966	 0.970530116309746 
1967	 0.902683047206472 
1968	 0.843166901805175 
1969	 0.797109521348358 
1970	 0.756024226584943 
1971	 0.723721978519419 
1972	 0.699663005901371 
1973	 0.673940921269166 
1974	 0.65029471701363 
1975	 0.630314571481117 
1976	 0.607262545885745 
1977	 0.584533539210012 
1978	 0.569884489034035 
1979	 0.55502849456059 
1980	 0.539990502531842 
1981	 0.525769091345878 
1982	 0.51656319552796 
1983	 0.504843170284198 
1984	 0.493026999989714 
1985	 0.482824323876207 
1986	 0.473349345649653 
1987	 0.464629472567199 
1988	 0.456209568304226 
1989	 0.451469498107135 
1990	 0.44856113681198 
1991	 0.445681741506044 
1992	 0.445874893674155 
1993	 0.451153815375115 
1994	 0.457842868168608 
1995	 0.467255852433596 
1996	 0.483127292160621 
1997	 0.502433195760924 
1998	 0.523849983886969 
1999	 0.553326189187972 
2000	 0.592065012077847 
2001	 0.63430801253853 
2002	 0.682004488477677 
2003	 0.731411358328877 
2004	 0.768877520332999 
2005	 0.793963669463527 
2006	 0.805298543540478 
2007	 0.805301327826451 
2008	 0.802826122486159 
2009	 0.794613290808888 
2010	 0.782928980860995 
2011	 0.768443259117462 
2012	 0.751902202040373 
2013	 0.727032062507027 
2014	 0.699942049793623 
2015	 0.672409866657203 
2016	 0.640255751772108 
2017	 0.606091713016777 
2018	 0.569214646701321 
2019	 0.535170337749997 
2020	 0.5043077892092 
2021	 0.473376481714443 
2022	 0.446037624520412 
2023	 0.421887619711715 
2024	 0.401532039821957 
2025	 0.381975592407451 
2026	 0.366205837346715 
2027	 0.353284109624176 
2028	 0.341445354145093 
2029	 0.330311112131669 
2030	 0.320295578521645 
2031	 0.311561653777632 
2032	 0.305196715977149 
2033	 0.300014383623736 
2034	 0.29534385944607 
2035	 0.29277976539352 
2036	 0.290021304259379 
2037	 0.286035095181321 
2038	 0.284079832105049 
2039	 0.282747095253582 
2040	 0.28132195268447 
2041	 0.281255665328442 
2042	 0.283412210612281 
2043	 0.284404157985109 
2044	 0.284843853979586 
2045	 0.287331426422986 
2046	 0.289959508900406 
2047	 0.292349987107226 
2048	 0.298037873082154 
2049	 0.304272215700451 
2050	 0.308393228289502 
2051	 0.314279156944803 
2052	 0.31881709500689 
2053	 0.321443882651836 
2054	 0.325032670856024 
2055	 0.327440533521374 
2056	 0.329671021591893 
2057	 0.333272549757317 
2058	 0.33244262498918 
2059	 0.328374308835452 
2060	 0.325121351573643 
2061	 0.320385476364947 
2062	 0.312128474968328 
2063	 0.307606336028199 
2064	 0.304219819036024 
2065	 0.299097491465541 
2066	 0.293781011769481 
2067	 0.2908168487787 
2068	 0.28747427386303 
2069	 0.283601659528984 
2070	 0.279811369756723 
2071	 0.275684857406659 
2072	 0.272783905837094 
2073	 0.269441166966263 
2074	 0.267623620907191 
2075	 0.264093219606739 
2076	 0.257763411920688 
2077	 0.25477758641473 
2078	 0.253706522494755 
2079	 0.251342953620287 
2080	 0.249355529558275 
2081	 0.248747357130981 
2082	 0.245817215256731 
2083	 0.24282533199428 
2084	 0.24104710263632 
2085	 0.238727662555376 
2086	 0.238120474258369 
2087	 0.236707649918081 
2088	 0.235715585108949 
2089	 0.236384446941433 
2090	 0.233941492367855 
2091	 0.231037318049705 
2092	 0.229460408799489 
2093	 0.228069929245656 
2094	 0.226443717786707 
2095	 0.225723630732835 
2096	 0.224594457957872 
2097	 0.222699108589265 
2098	 0.221787866262661 
2099	 0.221365353591827 
2100	 0.221105204940643 
2101	 0.22192498609616 
2102	 0.220626479352711 
2103	 0.218849008888425 
2104	 0.218614096197722 
2105	 0.2174558671934 
2106	 0.21694114810392 
2107	 0.217378688597575 
2108	 0.216358381358625 
2109	 0.214221766117478 
2110	 0.21302795665319 
2111	 0.212833111037379 
2112	 0.212735502237456 
2113	 0.211829854654912 
2114	 0.211417202331982 
2115	 0.210545048870066 
2116	 0.20794643413807 
2117	 0.206542711612922 
2118	 0.206231722702809 
2119	 0.205472389971881 
2120	 0.204531805248218 
2121	 0.204005484702193 
2122	 0.2025465478497 
2123	 0.201317855849256 
2124	 0.199242894328861 
2125	 0.19627830661365 
2126	 0.194364143484977 
2127	 0.193015422693528 
2128	 0.191158301589636 
2129	 0.190135607115285 
2130	 0.189075809425096 
2131	 0.187466551546932 
2132	 0.186640568280807 
2133	 0.185159903739564 
2134	 0.183396613886529 
2135	 0.180833322987884 
2136	 0.179096906230326 
2137	 0.177908355740692 
2138	 0.176275873604373 
2139	 0.174612850464756 
2140	 0.173190194219987 
2141	 0.171573091695338 
2142	 0.169436611952708 
2143	 0.166949752255779 
2144	 0.165525356688713 
2145	 0.163639062275446 
2146	 0.160877851424838 
2147	 0.158539281527951 
2148	 0.156977394951628 
2149	 0.155397638628701 
2150	 0.15389422100913 
2151	 0.151575701729256 
2152	 0.148377554952969 
2153	 0.146832512580032 
2154	 0.145482119460202 
2155	 0.144056526793906 
2156	 0.143206671580267 
2157	 0.141441827339125 
2158	 0.137655991091571 
2159	 0.134967014083544 
2160	 0.132891575919519 
2161	 0.130823931980078 
2162	 0.128614645779143 
2163	 0.1266292996 
2164	 0.124840539726047 
2165	 0.123562688168024 
2166	 0.123326353064606 
2167	 0.121119755439023 
2168	 0.118305280173461 
2169	 0.115975149260863 
2170	 0.112360648805471 
2171	 0.108988080897548 
2172	 0.107586974899237 
2173	 0.10724170186196 
2174	 0.106630213201823 
2175	 0.106833484361763 
2176	 0.108992484520433 
2177	 0.108965498099262 
2178	 0.106266147949358 
2179	 0.103773256172646 
2180	 0.101118844361139 
2181	 9.83207301665895E-02 
2182	 9.76567612897319E-02 
2183	 9.72205324410922E-02 
2184	 9.40161698563983E-02 
2185	 0.091665663016839 
2186	 9.01049132820721E-02 
2187	 8.90512448325797E-02 
2188	 8.79622783980548E-02 
2189	 8.75423598062371E-02 
2190	 8.69400702823711E-02 
2191	 8.65711109699802E-02 
2192	 8.51096497917791E-02 
2193	 8.28175877898761E-02 
2194	 8.20848583556899E-02 
2195	 8.18781454299741E-02 
2196	 8.10731968461469E-02 
2197	 8.16571638814576E-02 
2198	 8.08943213789014E-02 
2199	 7.81072678465269E-02 
2200	 7.53417291824574E-02 
2201	 7.52134712791185E-02 
2202	 7.61765630884704E-02 
2203	 7.86159596220986E-02 
2204	 7.80617733926506E-02 
2205	 7.40827569352181E-02 
2206	 7.29788418001626E-02 
2207	 7.24229008113409E-02 
2208	 7.11681890924951E-02 
2209	 7.28275658498284E-02 
2210	 7.30283237420266E-02 
2211	 7.00644749371027E-02 
2212	 6.95944321606968E-02 
2213	 7.08475332789814E-02 
2214	 7.20290140590894E-02 
2215	 7.31349525394374E-02 
2216	 7.36763565674556E-02 
2217	 7.34969955206412E-02 
2218	 0.07038158074193 
2219	 6.99383493481664E-02 
2220	 0.07166233621811 
2221	 7.16357855624647E-02 
2222	 7.14537554845825E-02 
2223	 7.09129340997854E-02 
2224	 6.85524054792689E-02 
2225	 6.81871231358503E-02 
2226	 6.97390875909521E-02 
2227	 0.069241807239254 
2228	 6.83373081486408E-02 
2229	 6.78529420114784E-02 
2230	 6.55243003683822E-02 
2231	 6.50765279927568E-02 
2232	 6.71250822972403E-02 
2233	 6.75545164853005E-02 
2234	 6.73833467166612E-02 
2235	 6.75942733969156E-02 
2236	 6.71833158214741E-02 
2237	 6.80932734577463E-02 
2238	 6.93204978712557E-02 
2239	 7.10609117162251E-02 
2240	 7.23020394195181E-02 
2241	 6.80815753951464E-02 
2242	 6.50135711652812E-02 
2243	 6.42554555099409E-02 
2244	 0.06130809114548 
2245	 6.22181709395635E-02 
2246	 6.38269442009991E-02 
2247	 6.24297881312373E-02 
2248	 6.31052923555586E-02 
2249	 6.47960905164266E-02 
2250	 6.62498355232964E-02 
2251	 6.55582375093528E-02 
2252	 6.41642538322249E-02 
2253	 6.42794397295909E-02 
2254	 6.26390033336369E-02 
2255	 6.03567876754123E-02 
2256	 6.08167669544518E-02 
2257	 6.21569181261441E-02 
2258	 6.21738923252192E-02 
2259	 6.55623344209715E-02 
2260	 6.62578489950437E-02 
2261	 6.36336647711242E-02 
2262	 6.30434855229071E-02 
2263	 6.36008923613842E-02 
2264	 6.25682509503914E-02 
2265	 6.19293573869501E-02 
2266	 6.13498418139839E-02 
2267	 5.79568362073769E-02 
2268	 5.72438998730755E-02 
2269	 6.05966779873178E-02 
2270	 5.94494608451013E-02 
2271	 5.50852077200794E-02 
2272	 5.56206551437508E-02 
2273	 5.72069826444839E-02 
2274	 5.61321550888326E-02 
2275	 5.67348267660029E-02 
2276	 5.85733852854492E-02 
2277	 5.79219021325402E-02 
2278	 5.71348721047265E-02 
2279	 6.12718577889568E-02 
2280	 6.12163080312255E-02 
2281	 5.54750268273754E-02 
2282	 5.26705247557942E-02 
2283	 5.35035713418891E-02 
2284	 5.28584846142125E-02 
2285	 5.41092975991569E-02 
2286	 5.40305436409253E-02 
2287	 5.46386325180769E-02 
2288	 5.78439584241014E-02 
2289	 5.79714006798459E-02 
2290	 5.95522094305284E-02 
2291	 6.13833102092175E-02 
2292	 5.70217720492333E-02 
2293	 5.41234209807611E-02 
2294	 5.43097840084251E-02 
2295	 5.61045656543083E-02 
2296	 6.06605169722342E-02 
2297	 6.28844731736756E-02 
2298	 6.27388011501708E-02 
2299	 6.13448350697786E-02 
2300	 5.78498057195441E-02 
2301	 0.057544166737218 
2302	 6.15748303433718E-02 
2303	 6.25479439652079E-02 
2304	 5.80327190934213E-02 
2305	 5.19566422799959E-02 
2306	 4.78710925273418E-02 
2307	 4.75626748406364E-02 
2308	 4.97173684729695E-02 
2309	 5.41174983188621E-02 
2310	 5.94615911521109E-02 
2311	 5.95462012532734E-02 
2312	 6.02592652298736E-02 
2313	 0.063683525149943 
2314	 0.059990058214228 
2315	 5.60283703576486E-02 
2316	 6.16236696276466E-02 
2317	 6.75242780485969E-02 
2318	 6.63163406696019E-02 
2319	 6.60262418181773E-02 
2320	 0.061900133994761 
2321	 5.57337739636346E-02 
2322	 5.31386396241478E-02 
2323	 0.043067403148319 
2324	 3.69355275161386E-02 
2325	 3.63979990220102E-02 
2326	 0.036639503428887 
2327	 0.045216950490885 
2328	 0.051675679072595 
2329	 4.95348494850508E-02 
2330	 4.83884862817241E-02 
2331	 5.40224989918524E-02 
2332	 5.56754333226011E-02 
2333	 5.72031315706107E-02 
2334	 5.90260108855698E-02 
2335	 5.48753775408812E-02 
2336	 5.78611014593811E-02 
2337	 6.25101685367605E-02 
2338	 6.80338931495514E-02 
2339	 7.27595389500805E-02 
2340	 7.39349590006656E-02 
2341	 7.21467106806301E-02 
2342	 5.61461898162603E-02 
2343	 0.049171552577323 
2344	 4.91127256617751E-02 
2345	 4.34114776907642E-02 
2346	 5.30062040387946E-02 
2347	 5.49022198415827E-02 
2348	 3.97465158348979E-02 
2349	 3.82584307210259E-02 
2350	 3.82123522682281E-02 
2351	 4.03216984169757E-02 
2352	 6.16835717383245E-02 
2353	 6.52811388469873E-02 
2354	 5.25517336010808E-02 
2355	 5.22650957257709E-02 
2356	 5.36747456983369E-02 
2357	 5.56361638764307E-02 
2358	 6.43704282776235E-02 
2359	 0.072220017539504 
2360	 6.27747416424174E-02 
2361	 0.052149678301469 
2362	 0.060692422482862 
2363	 5.74323290205964E-02 
2364	 4.79095308948364E-02 
2365	 3.98982265422422E-02 
2366	 1.90387222054827E-02 
2367	 2.41523612561934E-02 
2368	 4.64285886573022E-02 
2369	 5.46525693007216E-02 
2370	 5.55074165513618E-02 
2371	 2.80102733794549E-02 
2372	-1.66388487028962E-03 
2373	 2.63875621689155E-03 
2374	 2.67475526587948E-02 
2375	 5.66274147911088E-02 
2376	 5.39205772713789E-02 
2377	 3.30476470381301E-02 
2378	 2.99414057842519E-02 
2379	 2.82644582194031E-02 
2380	 3.08313297078764E-02 
2381	 3.72536744634248E-02 
2382	 3.04487961862568E-02 
2383	 2.32993396807097E-02 
2384	 5.50641402041029E-02 
2385	 8.57401535383967E-02 
2386	 6.84677041958259E-02 
2387	 6.26789959011784E-02 
2388	 6.46327360422876E-02 
2389	 3.46656355785641E-02 
2390	 3.19157740728353E-02 
2391	 4.60604530813858E-02 
2392	 1.99435427251979E-02 
2393	 1.95745584411698E-02 
2394	 3.09974141543181E-02 
2395	 3.72673093170342E-02 
2396	 5.33154189156728E-02 
2397	 5.42907524573443E-02 
2398	 5.61490806022827E-02 
2399	 4.77196054700631E-02 
2400	 1.97095513376886E-02 
2401	 1.90365392988521E-03 
2402	 3.49097577001355E-02 
2403	 6.18327418039956E-02 
2404	 6.56871527546682E-02 
2405	 8.10899652635643E-02 
2406	 3.36921528503799E-02 
2407	-3.24805332952306E-02 
2408	-2.38978669900097E-02 
2409	 2.00856297020113E-02 
2410	 6.89113121314107E-02 
2411	 0.111419901389759 
2412	 7.28191298395297E-02 
2413	 3.22606967701378E-02 
2414	 7.20640839870612E-02 
2415	 0.137412834410102 
2416	 0.14609647828245 
2417	 0.153727155071803 
2418	 7.06328652542142E-02 
2419	-8.10296761604829E-02 
2420	-1.70375541354823E-02 
2421	 5.37294890330499E-02 
2422	 4.82847345738845E-02 
2423	 0.141984506925815 
2424	 0.160561571670251 
2425	 0.175738889895502 
2426	 0.16376420561392 
2427	 9.31543533356192E-02 
2428	 4.70903329412359E-02 
2429	-9.51933907838122E-03 
2430	-9.23600956169999E-02 
2431	-0.152255090542187 
2432	-0.194735272190992 
2433	-0.297804391990752 
2434	-0.266514173062186 
2435	-0.14285725808566 
2436	-7.75209124496701E-02 
2437	 1.24418219772688E-02 
2438	 0.156356893793275 
2439	 0.159127185335364 
2440	 7.88131836476583E-02 
2441	 2.00656674754457E-02 
2442	-0.048646290085991 
2443	 2.35370837721686E-03 
2444	 1.65709447700763E-02 
2445	-0.120411010142744 
2446	-0.273224613079632 
2447	-0.890733764413473 
2448	-2.22293710940964 
2449	-0.619143858533929 
2450	-0.340069034719801 
2451	-0.294564418356881 
2452	-0.542627747764729 
2453	-0.286625965612851 
2454	-0.335978016895745 
2455	-0.613710626881308 
2456	-0.518930482190803 
2457	-0.767338844979777 
2458	-0.974965248426372 
2459	-0.476581488498657 
2460	-0.179429763438167 
2461	 0.192404359282074 
2462	 0.128383608506174 
2463	-0.187809982313323 
2464	-0.158081952922692 
2465	-8.95846919328851E-02 
2466	 8.06352719493151E-02 
2467	 0.170422706080683 
2468	 0.165195536151538 
2469	-0.289714893227787 
2470	-0.852031078393054 
2471	 1.79890450318266 
2472	 0.851259491691919 
2473	-6.05733268788998E-02 
2474	-1.89331416929271E-02 
2475	-0.216236573955699 
2476	-0.652891611940545 
2477	-7.52724098798058E-02 
2478	 0.285590111616383 
2479	-0.367515349609146 
2480	 0.368093410816136 
2481	 0.896049221623262 
2482	 0.428086912202979 
2483	 0.521894425104437 
2484	-16.2432752033295 
2485	 0.503348350272881 
2486	 19.7678920999492 
2487	 3.63846189907479 
2488	 1.84808263461269 
2489	 2.57966486023326 
2490	 0.231489322566371 
2491	 0.474352707508183 
2492	 2.1774045414877 
2493	 0.304492697900993 
2494	-0.463744310557354 
2495	-1.31788367114735 
2496	-0.363749364008329 
2497	 0.81437199396683 
2498	 0.851423964820897 
2499	 0.367413441148828 
2500	 37.9899198461322 
