Wavelength	rt0711a300004.asd
350	 0.181308431920402 
351	 0.183314912833135 
352	 0.185226557699521 
353	 0.186366219726131 
354	 0.187034022841849 
355	 0.189196599417482 
356	 0.19143371476634 
357	 0.19318870852464 
358	 0.19442473452049 
359	 0.196011607360143 
360	 0.197756505590119 
361	 0.199498360266134 
362	 0.201091230388835 
363	 0.202105464627121 
364	 0.203044177950799 
365	 0.20422227490229 
366	 0.205517735949801 
367	 0.206674034823935 
368	 0.207787038552976 
369	 0.209010379609683 
370	 0.210387092265004 
371	 0.211251912468292 
372	 0.211952144376177 
373	 0.213287212935102 
374	 0.214332582297903 
375	 0.215109297135249 
376	 0.215782622098835 
377	 0.21656812858168 
378	 0.217348593035687 
379	 0.218150199601783 
380	 0.218989354084529 
381	 0.219798139776237 
382	 0.220308401566211 
383	 0.220610978395866 
384	 0.220961445917646 
385	 0.221324411114652 
386	 0.221714312763958 
387	 0.222129686322843 
388	 0.222547128368465 
389	 0.222705723125809 
390	 0.222648469654555 
391	 0.222584546679117 
392	 0.22303115833989 
393	 0.222750617235846 
394	 0.222255135666419 
395	 0.22239803935813 
396	 0.222134752391078 
397	 0.221689208264855 
398	 0.221218199094807 
399	 0.220750874595962 
400	 0.220477850093849 
401	 0.220148733181786 
402	 0.21965825184145 
403	 0.219394529700207 
404	 0.218921268677299 
405	 0.218310492587886 
406	 0.217766554683747 
407	 0.217048926938706 
408	 0.216482856616143 
409	 0.215988482500301 
410	 0.215101036160566 
411	 0.214365249492609 
412	 0.213735847007318 
413	 0.213097356849775 
414	 0.212445266022051 
415	 0.211778617717305 
416	 0.211100219794656 
417	 0.210437186445421 
418	 0.209943536327873 
419	 0.209518923652453 
420	 0.209067098865608 
421	 0.208526218377968 
422	 0.208165404398381 
423	 0.207931425127762 
424	 0.207759500235608 
425	 0.207752786712712 
426	 0.207900852084375 
427	 0.208147273606119 
428	 0.208420838273575 
429	 0.208751232341246 
430	 0.20911381104188 
431	 0.209486629092978 
432	 0.209859103863119 
433	 0.210301556082544 
434	 0.210579867775206 
435	 0.210609107591028 
436	 0.210940651934551 
437	 0.211110919289874 
438	 0.211059412855344 
439	 0.210942993024169 
440	 0.210697720581949 
441	 0.210396095790371 
442	 0.210080417520121 
443	 0.209730624641287 
444	 0.209346346492841 
445	 0.208882746661291 
446	 0.208323435114694 
447	 0.207787695137972 
448	 0.207278700888864 
449	 0.206719409507008 
450	 0.206003828559572 
451	 0.205443544138982 
452	 0.204926922781429 
453	 0.204318803368194 
454	 0.203556732714679 
455	 0.202896226691544 
456	 0.202284345731126 
457	 0.201598058130369 
458	 0.20101343820904 
459	 0.20042689269716 
460	 0.199773500523917 
461	 0.199052183727549 
462	 0.198417304027761 
463	 0.197829844686486 
464	 0.197225014113881 
465	 0.19658889351912 
466	 0.195954733525618 
467	 0.195343976073507 
468	 0.194755227453657 
469	 0.194083912833454 
470	 0.193488496354655 
471	 0.192968991041262 
472	 0.192287997386207 
473	 0.191732428565062 
474	 0.19130761937463 
475	 0.190911631540797 
476	 0.190346134832752 
477	 0.189864472948497 
478	 0.189548044653546 
479	 0.189332188682389 
480	 0.189018613934863 
481	 0.188767698490496 
482	 0.188635938109355 
483	 0.188354089232114 
484	 0.188249564538807 
485	 0.188288035741972 
486	 0.188299266455128 
487	 0.188183751760743 
488	 0.188228048431187 
489	 0.188394335424313 
490	 0.18834155409226 
491	 0.188548464928793 
492	 0.188799769911516 
493	 0.188899410714908 
494	 0.189073205286312 
495	 0.189327605941577 
496	 0.18955266788543 
497	 0.189628882543055 
498	 0.189946406787509 
499	 0.190147828397799 
500	 0.190122527579168 
501	 0.190246045390986 
502	 0.190482058424161 
503	 0.190637831713356 
504	 0.190601665601465 
505	 0.190785405599633 
506	 0.19098048500402 
507	 0.191155077898538 
508	 0.191417308322261 
509	 0.191594821283778 
510	 0.191797620393239 
511	 0.192095219768281 
512	 0.192355415383587 
513	 0.192647037456091 
514	 0.193047940545312 
515	 0.193602806079613 
516	 0.194081982086033 
517	 0.19474868095942 
518	 0.195600232600044 
519	 0.196267698675103 
520	 0.197090324293824 
521	 0.198024900961132 
522	 0.198999164091231 
523	 0.200117840940315 
524	 0.201428828786946 
525	 0.202883450572201 
526	 0.204380755421146 
527	 0.206050102658011 
528	 0.207796771249791 
529	 0.209597659303363 
530	 0.211663332548669 
531	 0.213732570217723 
532	 0.215936796629878 
533	 0.218446286680689 
534	 0.220804610417263 
535	 0.223271705434884 
536	 0.225939986252374 
537	 0.228648958445232 
538	 0.231447842798676 
539	 0.23429003392569 
540	 0.237122106333509 
541	 0.239945881834158 
542	 0.242760349156943 
543	 0.245534176104715 
544	 0.248236275579427 
545	 0.250932520912803 
546	 0.253537121180851 
547	 0.256005045160208 
548	 0.258409802606278 
549	 0.260711390339773 
550	 0.262901692271868 
551	 0.264998050086756 
552	 0.267060981633474 
553	 0.269039409567681 
554	 0.270937195217221 
555	 0.272815756953454 
556	 0.274789330712392 
557	 0.276759788902153 
558	 0.278632021807836 
559	 0.280576962746525 
560	 0.282536921181665 
561	 0.284496264598081 
562	 0.286476143397416 
563	 0.288462856364892 
564	 0.290438226298937 
565	 0.292385017804346 
566	 0.294302304737567 
567	 0.296122895699997 
568	 0.297847413040921 
569	 0.299495626025907 
570	 0.301053556633463 
571	 0.302455382249113 
572	 0.303763650974737 
573	 0.305170856008501 
574	 0.306416724703464 
575	 0.307590077289959 
576	 0.308780444982527 
577	 0.309838852702779 
578	 0.310817650303063 
579	 0.311774283552916 
580	 0.312752835874668 
581	 0.313639869301278 
582	 0.314444442906259 
583	 0.315176261878037 
584	 0.315812091899001 
585	 0.316351371878439 
586	 0.316723873972432 
587	 0.316893455921662 
588	 0.317110708512976 
589	 0.317459243852778 
590	 0.317887203079672 
591	 0.318247579728494 
592	 0.318641153975296 
593	 0.319026754264525 
594	 0.319346843181798 
595	 0.319616256181045 
596	 0.31979278286513 
597	 0.319895105514742 
598	 0.319993156051178 
599	 0.320278822287821 
600	 0.320512249794431 
601	 0.320603983976164 
602	 0.320819348815705 
603	 0.321028913224573 
604	 0.321234133258872 
605	 0.321467390540261 
606	 0.321718290513036 
607	 0.321980620741287 
608	 0.32223047813428 
609	 0.322429244445327 
610	 0.322661185597976 
611	 0.322937933667854 
612	 0.32322940835098 
613	 0.323433957377976 
614	 0.323626154931975 
615	 0.323822997882197 
616	 0.324008917893018 
617	 0.324200476733039 
618	 0.324393024553766 
619	 0.324591080262378 
620	 0.324815252208346 
621	 0.325022411948037 
622	 0.325174894646284 
623	 0.325271330110246 
624	 0.32547638810876 
625	 0.325575571832822 
626	 0.325567624889695 
627	 0.325662620419342 
628	 0.32586880745351 
629	 0.326160376956857 
630	 0.326479483358834 
631	 0.326724518801636 
632	 0.326885635358999 
633	 0.327042042669543 
634	 0.327301971038571 
635	 0.327615716164154 
636	 0.32781743681446 
637	 0.327919068454445 
638	 0.328201255725809 
639	 0.328364457288673 
640	 0.328464007561266 
641	 0.328623789079829 
642	 0.328824957415115 
643	 0.328844102971534 
644	 0.328719381258734 
645	 0.328691669786514 
646	 0.328579416117205 
647	 0.328560660886049 
648	 0.328755736516506 
649	 0.329057724786358 
650	 0.329073058795002 
651	 0.328992339928774 
652	 0.329139885542809 
653	 0.329007796043315 
654	 0.32879914453225 
655	 0.328623192199581 
656	 0.328423445662705 
657	 0.32829380449828 
658	 0.32813386574643 
659	 0.327882960403153 
660	 0.327726095122258 
661	 0.327666748939282 
662	 0.327553168381573 
663	 0.327189681195527 
664	 0.32700014026593 
665	 0.326891607994764 
666	 0.326773735297745 
667	 0.32669263035189 
668	 0.326594439971049 
669	 0.326502445883089 
670	 0.326463057998923 
671	 0.326500655087035 
672	 0.326506534865214 
673	 0.326505017120877 
674	 0.326639318610621 
675	 0.32676274115507 
676	 0.326852635033686 
677	 0.32696634476222 
678	 0.327333225338247 
679	 0.327464446361072 
680	 0.327559351508498 
681	 0.328035697397861 
682	 0.328414678152863 
683	 0.328771128553419 
684	 0.329014942037548 
685	 0.328767400729614 
686	 0.328723363132091 
687	 0.32902682263588 
688	 0.329498379746894 
689	 0.329868671775853 
690	 0.330172147874112 
691	 0.330309826715506 
692	 0.330151429974431 
693	 0.330094125656571 
694	 0.330337862653938 
695	 0.33077733729453 
696	 0.330969389647319 
697	 0.330737314660711 
698	 0.33025808465563 
699	 0.329843486240491 
700	 0.329630225593381 
701	 0.329473257879993 
702	 0.329267790399438 
703	 0.328964622475868 
704	 0.328612984006497 
705	 0.328181563198415 
706	 0.327676047330172 
707	 0.327187470120489 
708	 0.326615849148272 
709	 0.325971959346507 
710	 0.325272636580124 
711	 0.324354034341672 
712	 0.323285541711303 
713	 0.322076161601609 
714	 0.320619399116825 
715	 0.318745695727401 
716	 0.316624043829499 
717	 0.314665667595583 
718	 0.312983016600544 
719	 0.312058999313298 
720	 0.311588440364728 
721	 0.310862230154941 
722	 0.309216048401389 
723	 0.307192654438027 
724	 0.305459807795888 
725	 0.304149938034656 
726	 0.302567302831136 
727	 0.300690531077547 
728	 0.298705618707597 
729	 0.296778659507798 
730	 0.294883065100635 
731	 0.293184453715281 
732	 0.291780408383382 
733	 0.290428665129572 
734	 0.288964815469705 
735	 0.287543765687651 
736	 0.286714844419596 
737	 0.286180364633221 
738	 0.285767077710267 
739	 0.285401242402513 
740	 0.285195864527779 
741	 0.285106129517927 
742	 0.285042843007249 
743	 0.284919790472556 
744	 0.284878669439149 
745	 0.284861229552749 
746	 0.284828640190515 
747	 0.284794855923776 
748	 0.284878699005363 
749	 0.284902189090746 
750	 0.284748339892103 
751	 0.28475528944618 
752	 0.284727301204012 
753	 0.284676682466668 
754	 0.284702840734396 
755	 0.284628843226242 
756	 0.284503673942615 
757	 0.284266328692082 
758	 0.283493682932056 
759	 0.282157452542197 
760	 0.280793243052592 
761	 0.280753985516166 
762	 0.280956502829671 
763	 0.281781591928198 
764	 0.282836337972464 
765	 0.283681515675398 
766	 0.284515135914774 
767	 0.285016655454599 
768	 0.285238137862358 
769	 0.285553133202382 
770	 0.285822808355371 
771	 0.286043160445442 
772	 0.286238487649053 
773	 0.28643959958527 
774	 0.28668831244235 
775	 0.286960725592376 
776	 0.287221476256432 
777	 0.287558180493806 
778	 0.287853850384342 
779	 0.288114425217295 
780	 0.288474865497403 
781	 0.288799401219328 
782	 0.28907684185325 
783	 0.289343965392756 
784	 0.289702112067852 
785	 0.289953402350381 
786	 0.290182136810039 
787	 0.290515341887574 
788	 0.290707692239149 
789	 0.29111211210038 
790	 0.29174766197567 
791	 0.292330556516838 
792	 0.292628133152394 
793	 0.293001371981785 
794	 0.293559700893475 
795	 0.293856904271956 
796	 0.294101493669959 
797	 0.294387366874217 
798	 0.294732818929971 
799	 0.294962580437887 
800	 0.295281081723305 
801	 0.295597843573192 
802	 0.29572741435277 
803	 0.296078580253113 
804	 0.296333433781599 
805	 0.29641742601343 
806	 0.296579669544839 
807	 0.296527816155057 
808	 0.296325516322206 
809	 0.296010193754593 
810	 0.295330338175327 
811	 0.294830005545285 
812	 0.294353589379113 
813	 0.293534633458831 
814	 0.292652043248787 
815	 0.292031713385085 
816	 0.291718801313738 
817	 0.291447765862009 
818	 0.290843630667382 
819	 0.290351710740733 
820	 0.28993651817497 
821	 0.288880032184985 
822	 0.287474676852462 
823	 0.286182296163547 
824	 0.285131884055502 
825	 0.283506828326075 
826	 0.281733450112209 
827	 0.279840144835429 
828	 0.277868615895273 
829	 0.27600799843902 
830	 0.274289368020633 
831	 0.272782744117736 
832	 0.271611247099445 
833	 0.270739143411785 
834	 0.270033908752986 
835	 0.269433412668465 
836	 0.268992194145857 
837	 0.268412301399132 
838	 0.26784908286823 
839	 0.26748853789085 
840	 0.267339962465993 
841	 0.26716226242537 
842	 0.266840184905706 
843	 0.266378867230056 
844	 0.266010799618173 
845	 0.26573324156021 
846	 0.2654743431635 
847	 0.265142110103971 
848	 0.264901440863473 
849	 0.264510703754393 
850	 0.263958733209518 
851	 0.263575659825518 
852	 0.263660181955102 
853	 0.263670649648651 
854	 0.263228815088169 
855	 0.262696053409872 
856	 0.262387499368861 
857	 0.262129682801952 
858	 0.261750481657604 
859	 0.261664170176696 
860	 0.261535932522507 
861	 0.261256096884257 
862	 0.260898903524258 
863	 0.260849210094551 
864	 0.260663518431515 
865	 0.260162026432685 
866	 0.259540531589798 
867	 0.25950144063825 
868	 0.25935046991806 
869	 0.258813230534038 
870	 0.258408745690796 
871	 0.258198967808174 
872	 0.257794075868867 
873	 0.257099577238821 
874	 0.2569055742356 
875	 0.25673730919595 
876	 0.256226387145833 
877	 0.255374607831829 
878	 0.255359365027843 
879	 0.254957391027312 
880	 0.254327206324727 
881	 0.254110353597135 
882	 0.253512689048298 
883	 0.253005239673668 
884	 0.252640020785222 
885	 0.252143543390568 
886	 0.251777657477622 
887	 0.251292318907265 
888	 0.250753981881661 
889	 0.250572145022538 
890	 0.249795839290902 
891	 0.249123487111527 
892	 0.248828511827312 
893	 0.247862234629875 
894	 0.24703030749917 
895	 0.246653406802974 
896	 0.246534201484879 
897	 0.245400251168252 
898	 0.244490666702103 
899	 0.244231963906753 
900	 0.244368688997106 
901	 0.243747991387161 
902	 0.243301321949617 
903	 0.243110226469315 
904	 0.242882958091612 
905	 0.242320789931592 
906	 0.241968992704495 
907	 0.241706779062643 
908	 0.241010357180742 
909	 0.240386105833565 
910	 0.239626341316392 
911	 0.238674412157822 
912	 0.237715239315701 
913	 0.237257977152182 
914	 0.236709567054249 
915	 0.235898501459563 
916	 0.235279543781053 
917	 0.234881210354787 
918	 0.234129898345633 
919	 0.233163449635979 
920	 0.233084424965659 
921	 0.232567937138155 
922	 0.231503893462064 
923	 0.230253588282205 
924	 0.22963776297694 
925	 0.228277947359075 
926	 0.226719709795624 
927	 0.225710169506641 
928	 0.224448719042168 
929	 0.222310199429251 
930	 0.220366534605122 
931	 0.220169704341477 
932	 0.218580352442829 
933	 0.215833142331458 
934	 0.212664271548 
935	 0.210394119982323 
936	 0.210148590727264 
937	 0.210611011247382 
938	 0.210549391666445 
939	 0.209549170313102 
940	 0.209456349121976 
941	 0.208696298598677 
942	 0.206876312029534 
943	 0.204578001535053 
944	 0.20386398801058 
945	 0.203788522703937 
946	 0.203705561679331 
947	 0.203043359763196 
948	 0.199572215686875 
949	 0.197300999204678 
950	 0.196170464285008 
951	 0.194061003547797 
952	 0.194541654672379 
953	 0.194207855379419 
954	 0.192829873175153 
955	 0.192563416565634 
956	 0.193075870515312 
957	 0.193190812029538 
958	 0.191999948228852 
959	 0.189535313028738 
960	 0.189833880581066 
961	 0.189805735607174 
962	 0.189672617102433 
963	 0.191638273528092 
964	 0.190991194636295 
965	 0.189934046825913 
966	 0.189177877532957 
967	 0.188194836989997 
968	 0.189738174104113 
969	 0.190595670916041 
970	 0.190024338234189 
971	 0.189714994481339 
972	 0.18851286085832 
973	 0.18854683907989 
974	 0.189656300100291 
975	 0.189459604412399 
976	 0.189651379625701 
977	 0.189726056282572 
978	 0.189590526785895 
979	 0.189773451755356 
980	 0.191019872231983 
981	 0.192439183822946 
982	 0.192801162142494 
983	 0.191404226744778 
984	 0.191665967716292 
985	 0.192114870376125 
986	 0.192359178746739 
987	 0.192971016367919 
988	 0.191788078931531 
989	 0.192161646045738 
990	 0.194059764746186 
991	 0.19468890851906 
992	 0.193992205066178 
993	 0.193979183190998 
994	 0.19457502310721 
995	 0.194409195302686 
996	 0.194812433901155 
997	 0.195451196790915 
998	 0.195856087133312 
999	 0.1959481906861 
1000	 0.197855019599724 
1001	 0.20035911206672 
1002	 0.20041660050936 
1003	 0.20079827299873 
1004	 0.201588538278535 
1005	 0.202117399637123 
1006	 0.202738282610749 
1007	 0.203144123924821 
1008	 0.203644460018502 
1009	 0.203694229642612 
1010	 0.2038556383033 
1011	 0.204372412332147 
1012	 0.204585633290358 
1013	 0.204946942171991 
1014	 0.20541115115608 
1015	 0.206181074773224 
1016	 0.20656328718698 
1017	 0.206657420502652 
1018	 0.207076569494663 
1019	 0.207395213549544 
1020	 0.207833832663176 
1021	 0.208446887173054 
1022	 0.209447301554853 
1023	 0.210032759746816 
1024	 0.210399186626013 
1025	 0.210823529163452 
1026	 0.211260754377316 
1027	 0.211606989134678 
1028	 0.211879529115283 
1029	 0.212183931154238 
1030	 0.212303559366928 
1031	 0.212709859428167 
1032	 0.213377814250633 
1033	 0.213853340847269 
1034	 0.214494633358069 
1035	 0.214911259863655 
1036	 0.214880817453608 
1037	 0.215213228695566 
1038	 0.215734966867018 
1039	 0.216143244493142 
1040	 0.216842272711474 
1041	 0.217383602677674 
1042	 0.21756967325886 
1043	 0.217318498405021 
1044	 0.217561028811345 
1045	 0.21770523852184 
1046	 0.218058212125319 
1047	 0.218975800073809 
1048	 0.219337191427946 
1049	 0.219382956363606 
1050	 0.219547689195578 
1051	 0.219474795396875 
1052	 0.219618567970196 
1053	 0.220062707660663 
1054	 0.220260670887974 
1055	 0.220177116191996 
1056	 0.220424747389829 
1057	 0.220765521462295 
1058	 0.221127610286281 
1059	 0.221429107298074 
1060	 0.222210299062409 
1061	 0.222185589516417 
1062	 0.221436398901857 
1063	 0.221279303224373 
1064	 0.220875546547716 
1065	 0.220905369625528 
1066	 0.221658439088344 
1067	 0.221880010334694 
1068	 0.221930709594474 
1069	 0.222045744217125 
1070	 0.222241393078589 
1071	 0.222063524829499 
1072	 0.221652785183728 
1073	 0.221309130479367 
1074	 0.220925918828485 
1075	 0.219971310981154 
1076	 0.219911541556069 
1077	 0.220620517455887 
1078	 0.220580672673507 
1079	 0.220642187552673 
1080	 0.220408089777745 
1081	 0.219566219244665 
1082	 0.219062868197602 
1083	 0.218618515424988 
1084	 0.218258213102057 
1085	 0.217964214442714 
1086	 0.21763841709064 
1087	 0.217368064654265 
1088	 0.217127554446034 
1089	 0.217019101748214 
1090	 0.216680906861904 
1091	 0.216298463446053 
1092	 0.215898261443323 
1093	 0.215510871299824 
1094	 0.214857119469777 
1095	 0.214553323348679 
1096	 0.214655159851739 
1097	 0.214279990809967 
1098	 0.2137288250531 
1099	 0.213284488126775 
1100	 0.212705958843609 
1101	 0.212025871958695 
1102	 0.211146813860992 
1103	 0.210648584710278 
1104	 0.21030519072368 
1105	 0.209652169438552 
1106	 0.209730054658753 
1107	 0.209981953155603 
1108	 0.208408027086859 
1109	 0.206910819053913 
1110	 0.206109993501383 
1111	 0.204680554290669 
1112	 0.204218664715517 
1113	 0.206074474580539 
1114	 0.206106446867213 
1115	 0.205403149156823 
1116	 0.204708729494586 
1117	 0.20217714969943 
1118	 0.201126228703691 
1119	 0.202118758170662 
1120	 0.201314358400081 
1121	 0.200712464133322 
1122	 0.199504378193657 
1123	 0.195648975351045 
1124	 0.19064682370022 
1125	 0.190389856343727 
1126	 0.192902567351709 
1127	 0.193792121775718 
1128	 0.191288151348101 
1129	 0.188518120464354 
1130	 0.181875299281827 
1131	 0.181118347392642 
1132	 0.183595267982501 
1133	 0.182837203793284 
1134	 0.183120932314227 
1135	 0.181866705347124 
1136	 0.177324457586454 
1137	 0.175998748711561 
1138	 0.177180467292651 
1139	 0.176021135643968 
1140	 0.17265858878312 
1141	 0.171291069493303 
1142	 0.169309654004745 
1143	 0.166881021686018 
1144	 0.167894932557159 
1145	 0.168066452109274 
1146	 0.164650541715219 
1147	 0.162321044464879 
1148	 0.161950669395607 
1149	 0.161007615590411 
1150	 0.158979504631047 
1151	 0.15727099931811 
1152	 0.156193941698127 
1153	 0.153841030271161 
1154	 0.153215672737596 
1155	 0.154277570329288 
1156	 0.154437716458187 
1157	 0.154264211675299 
1158	 0.154109726183185 
1159	 0.153367959436206 
1160	 0.153394373050154 
1161	 0.153997538480111 
1162	 0.153639068124031 
1163	 0.153362329587163 
1164	 0.153773032274261 
1165	 0.153779208360728 
1166	 0.153654267155791 
1167	 0.153910654830465 
1168	 0.154059578551453 
1169	 0.153798521675776 
1170	 0.153718527470119 
1171	 0.153849128263223 
1172	 0.154232330794308 
1173	 0.154241805052889 
1174	 0.154300265812694 
1175	 0.154214226020095 
1176	 0.154068146965294 
1177	 0.15403114717653 
1178	 0.15400986987288 
1179	 0.154019143939169 
1180	 0.15382844223518 
1181	 0.153348775088753 
1182	 0.153039913148284 
1183	 0.153124830071771 
1184	 0.153083118817138 
1185	 0.152906764779416 
1186	 0.153175553727359 
1187	 0.153399999830698 
1188	 0.153240572725912 
1189	 0.153151185992797 
1190	 0.152798772216013 
1191	 0.152383644469637 
1192	 0.152279994601601 
1193	 0.152433473897983 
1194	 0.152565187504923 
1195	 0.152658956631242 
1196	 0.152590481811046 
1197	 0.15252954611948 
1198	 0.152729117334641 
1199	 0.15274510711782 
1200	 0.152875635090855 
1201	 0.15314485824276 
1202	 0.153185670161961 
1203	 0.153254966421872 
1204	 0.15334067091635 
1205	 0.153221733712759 
1206	 0.15312918311997 
1207	 0.153313196672052 
1208	 0.153779746135173 
1209	 0.154112087511317 
1210	 0.153918090501692 
1211	 0.153870775705661 
1212	 0.154217033740765 
1213	 0.154350585820752 
1214	 0.154377746577261 
1215	 0.154504407408381 
1216	 0.154747285839741 
1217	 0.154823307696201 
1218	 0.154807963455504 
1219	 0.155129966106747 
1220	 0.15552840194217 
1221	 0.155258441835131 
1222	 0.154847845691618 
1223	 0.155065838496816 
1224	 0.155355955887269 
1225	 0.155407997784744 
1226	 0.155681913576085 
1227	 0.156052536773192 
1228	 0.156052973506111 
1229	 0.156001148727618 
1230	 0.156381418462424 
1231	 0.156606875267564 
1232	 0.156444696558708 
1233	 0.156541691008419 
1234	 0.156852262693745 
1235	 0.157025993444163 
1236	 0.157101280096727 
1237	 0.157241487965573 
1238	 0.157474468721575 
1239	 0.157534434848474 
1240	 0.15728475512494 
1241	 0.157307819512532 
1242	 0.157648877971031 
1243	 0.157811011666655 
1244	 0.157823174922251 
1245	 0.158019650502573 
1246	 0.158341576913008 
1247	 0.15835808703762 
1248	 0.158177389591454 
1249	 0.158235638219855 
1250	 0.15827777604648 
1251	 0.158187119771344 
1252	 0.158422070038797 
1253	 0.158658046683709 
1254	 0.158481625473618 
1255	 0.158435313641701 
1256	 0.158391374201731 
1257	 0.158536188175914 
1258	 0.158462652329135 
1259	 0.15810697333659 
1260	 0.158006352141367 
1261	 0.158070550385362 
1262	 0.158098574554699 
1263	 0.15829026346779 
1264	 0.158274252691591 
1265	 0.158261644099425 
1266	 0.158203280790393 
1267	 0.15799207397273 
1268	 0.158046528198353 
1269	 0.157918337429404 
1270	 0.157554678496364 
1271	 0.157733719268872 
1272	 0.157969153835086 
1273	 0.157772117037338 
1274	 0.157780253517401 
1275	 0.157841406851183 
1276	 0.157418090087908 
1277	 0.157375713170177 
1278	 0.157717677240428 
1279	 0.157417363361238 
1280	 0.15700437177281 
1281	 0.156733696864607 
1282	 0.156276884064564 
1283	 0.155977150148414 
1284	 0.1559385381885 
1285	 0.155695874027914 
1286	 0.155348508890258 
1287	 0.155027980811146 
1288	 0.154715019866687 
1289	 0.154362176420098 
1290	 0.154002408604453 
1291	 0.153528886868671 
1292	 0.153187458250096 
1293	 0.152814227069742 
1294	 0.152442793374713 
1295	 0.152162926020594 
1296	 0.151740527336967 
1297	 0.151138128810337 
1298	 0.150692097544156 
1299	 0.150261724363491 
1300	 0.14954071738193 
1301	 0.14892785935131 
1302	 0.148423492242079 
1303	 0.14767439323975 
1304	 0.146821879864742 
1305	 0.146178118843408 
1306	 0.145610522959346 
1307	 0.145079280589001 
1308	 0.144419826753502 
1309	 0.143932148823915 
1310	 0.143294626179369 
1311	 0.142471379063224 
1312	 0.141581042921811 
1313	 0.140604457713462 
1314	 0.139790493363483 
1315	 0.138804232283817 
1316	 0.13796777703104 
1317	 0.137554395075938 
1318	 0.136909734494124 
1319	 0.13605235760905 
1320	 0.135274913103262 
1321	 0.134538914881121 
1322	 0.133832634064569 
1323	 0.13272878443036 
1324	 0.132039066486856 
1325	 0.13141926217125 
1326	 0.130462971487643 
1327	 0.12960944777614 
1328	 0.128443189716336 
1329	 0.127454578560109 
1330	 0.12668839883126 
1331	 0.125545705148729 
1332	 0.124470993907757 
1333	 0.123936665051462 
1334	 0.122934848128114 
1335	 0.12197725425059 
1336	 0.121560955750837 
1337	 0.120853871204493 
1338	 0.119514799059101 
1339	 0.118669375857232 
1340	 0.118010047429596 
1341	 0.117318551651625 
1342	 0.11631915663231 
1343	 0.116118443967868 
1344	 0.117746051630252 
1345	 0.1173083174065 
1346	 0.114606144969113 
1347	 0.114441376217968 
1348	 0.114105269786732 
1349	 0.113438570964297 
1350	 0.12178520074813 
1351	 0.126114832802355 
1352	 0.112221033073053 
1353	 0.109476530293676 
1354	 0.12035697707657 
1355	 0.141284700603857 
1356	 0.160503054437896 
1357	 0.166635294216753 
1358	 0.134005926245903 
1359	 0.11309219287404 
1360	 0.130611526731978 
1361	 0.149949191549179 
1362	 0.149955615704928 
1363	 0.104502825177481 
1364	 8.66637514558355E-02 
1365	 0.236196865985138 
1366	 0.280110987301206 
1367	 0.156593068955143 
1368	 0.230386664122299 
1369	 0.348564615165512 
1370	 0.317520342337582 
1371	 0.409983063712692 
1372	 0.436160936551981 
1373	 0.156871481134796 
1374	 5.44161780779467E-02 
1375	-0.013342446413902 
1376	 0.066763761398266 
1377	 0.342529518088972 
1378	 0.331191736965765 
1379	 0.381643337688392 
1380	 0.345070814482605 
1381	-0.318152459338358 
1382	-0.42486854335781 
1383	 8.59384389621496E-02 
1384	 0.21202344337067 
1385	 0.382399801356249 
1386	 0.462968741413678 
1387	 0.163535373376891 
1388	 0.171578117929895 
1389	 0.502660615643494 
1390	 0.559925042497035 
1391	 0.515377655193189 
1392	 0.713643435510891 
1393	 0.655239692935769 
1394	 0.432578933824216 
1395	 0.395255238708068 
1396	 0.523527581594448 
1397	 0.504550156308105 
1398	 0.53843733658295 
1399	 0.784976508292873 
1400	 0.933363742068211 
1401	 0.751122072221769 
1402	 0.742088047590294 
1403	 0.500475802062462 
1404	 0.205619985077559 
1405	 0.149418092542685 
1406	 4.03117766672293E-02 
1407	-3.32199173298253E-03 
1408	 0.134011315001888 
1409	 0.158256115826384 
1410	 0.106796531067973 
1411	 9.09758917360781E-02 
1412	 0.110012411762695 
1413	 0.119790721456733 
1414	 0.130226089053661 
1415	 0.107050417631323 
1416	 7.27676436107948E-02 
1417	 6.42003989458257E-02 
1418	 4.48871719787856E-02 
1419	 4.49739687784462E-02 
1420	 7.82935093519846E-02 
1421	 0.071396390157712 
1422	 3.59817467256805E-02 
1423	 3.62220110480164E-02 
1424	 4.29175869614937E-02 
1425	 4.46738023632767E-02 
1426	 5.94540735754183E-02 
1427	 6.37026954150192E-02 
1428	 6.02674437776065E-02 
1429	 0.057043461703903 
1430	 5.09399448428883E-02 
1431	 4.97658105356329E-02 
1432	 4.76549653087616E-02 
1433	 4.53794728838131E-02 
1434	 5.02884404798981E-02 
1435	 5.09409894854645E-02 
1436	 4.85611403228757E-02 
1437	 4.18841894516202E-02 
1438	 3.90273547309166E-02 
1439	 3.66380378542739E-02 
1440	 3.72165612111212E-02 
1441	 4.32037533214266E-02 
1442	 4.15982776826592E-02 
1443	 4.04789123410033E-02 
1444	 4.63447459995993E-02 
1445	 4.79043676972099E-02 
1446	 4.80253185456069E-02 
1447	 0.046622248554375 
1448	 4.29609216717613E-02 
1449	 3.92537946274427E-02 
1450	 3.92153006489193E-02 
1451	 4.24992260219345E-02 
1452	 4.10305020679121E-02 
1453	 3.85540130040486E-02 
1454	 3.92812261158496E-02 
1455	 4.12501855748168E-02 
1456	 4.11911972441319E-02 
1457	 4.19911587436489E-02 
1458	 4.21125846854625E-02 
1459	 4.02440533556373E-02 
1460	 3.97911198465315E-02 
1461	 4.11383948559784E-02 
1462	 4.09773016285636E-02 
1463	 3.89869098199875E-02 
1464	 3.87976554777332E-02 
1465	 3.98050901327948E-02 
1466	 0.039775383947094 
1467	 3.98979241024717E-02 
1468	 4.02813859845546E-02 
1469	 0.0403769841996 
1470	 0.040112999152302 
1471	 3.96605014052895E-02 
1472	 4.00445566970522E-02 
1473	 3.98468924015141E-02 
1474	 4.05933696352722E-02 
1475	 4.34210834923171E-02 
1476	 4.39597835002705E-02 
1477	 4.35509289579235E-02 
1478	 4.35565170225989E-02 
1479	 4.24269257831616E-02 
1480	 4.23860931693436E-02 
1481	 0.042934042241864 
1482	 4.36501446190644E-02 
1483	 4.51438785143368E-02 
1484	 4.54040753919703E-02 
1485	 4.50576570312408E-02 
1486	 0.045550853324727 
1487	 4.58839681145128E-02 
1488	 4.58246072298447E-02 
1489	 4.58708937125539E-02 
1490	 0.046435362592374 
1491	 4.68967865870276E-02 
1492	 4.72072848936908E-02 
1493	 4.79472022606808E-02 
1494	 4.85396040640118E-02 
1495	 4.87164941442077E-02 
1496	 4.90068854462349E-02 
1497	 4.95272047213707E-02 
1498	 4.99620135078078E-02 
1499	 5.02549066156467E-02 
1500	 5.06572164434039E-02 
1501	 0.05134322536627 
1502	 5.17962057407736E-02 
1503	 5.20260805138849E-02 
1504	 5.22601836209495E-02 
1505	 5.22704541943154E-02 
1506	 5.25604286747763E-02 
1507	 5.32016169494064E-02 
1508	 5.38620606545765E-02 
1509	 0.054226028882523 
1510	 5.48226884456294E-02 
1511	 5.55661888145319E-02 
1512	 5.58259783010996E-02 
1513	 5.58264424626517E-02 
1514	 5.62911412126159E-02 
1515	 0.05680342889185 
1516	 5.69206525827475E-02 
1517	 5.74422550435425E-02 
1518	 5.79623561164319E-02 
1519	 5.77657748452997E-02 
1520	 5.78529216029246E-02 
1521	 5.85234952322457E-02 
1522	 5.91507889578038E-02 
1523	 5.97042612134683E-02 
1524	 6.01316102065019E-02 
1525	 6.03251690255274E-02 
1526	 0.060744614235073 
1527	 6.12686992073826E-02 
1528	 6.17238388589171E-02 
1529	 6.22586136031764E-02 
1530	 6.24541905689016E-02 
1531	 6.27018862887348E-02 
1532	 6.31692087335519E-02 
1533	 6.34994268140304E-02 
1534	 6.39586427383628E-02 
1535	 6.44718723008609E-02 
1536	 6.50383402710533E-02 
1537	 6.54936645943873E-02 
1538	 6.56912705716763E-02 
1539	 0.066063637993918 
1540	 6.63698430941939E-02 
1541	 6.65110851198897E-02 
1542	 6.69044873544964E-02 
1543	 6.73911216117856E-02 
1544	 0.067717379213662 
1545	 0.067874187434538 
1546	 6.80370344403193E-02 
1547	 6.84341745783919E-02 
1548	 6.89036134085105E-02 
1549	 6.93031354321372E-02 
1550	 6.98043778898503E-02 
1551	 7.03306643010708E-02 
1552	 7.05295867536274E-02 
1553	 7.05848935761304E-02 
1554	 7.10250965907009E-02 
1555	 0.071419043923625 
1556	 7.14874099242982E-02 
1557	 0.071976960583576 
1558	 7.26129597011743E-02 
1559	 7.27656149146454E-02 
1560	 7.29891952060408E-02 
1561	 7.33336354303434E-02 
1562	 7.35279116518429E-02 
1563	 7.39581248602267E-02 
1564	 7.44088758331562E-02 
1565	 7.46305941610733E-02 
1566	 7.49010237746524E-02 
1567	 0.075244819674303 
1568	 7.53836327194213E-02 
1569	 7.52241037077269E-02 
1570	 7.55315410102475E-02 
1571	 7.62185535436489E-02 
1572	 7.63519045413378E-02 
1573	 0.076658133033888 
1574	 7.74727575787177E-02 
1575	 7.76124315902965E-02 
1576	 7.75853490187303E-02 
1577	 7.82283743747163E-02 
1578	 7.84682441855495E-02 
1579	 7.82789930742575E-02 
1580	 0.078706007213548 
1581	 7.90553542255859E-02 
1582	 7.89224702852614E-02 
1583	 7.95485883972736E-02 
1584	 8.03511432411815E-02 
1585	 8.04764032432061E-02 
1586	 8.07425055391212E-02 
1587	 8.10147970539772E-02 
1588	 8.10569940248486E-02 
1589	 8.13569439400035E-02 
1590	 8.18941110764154E-02 
1591	 8.21003272177444E-02 
1592	 8.21875843586534E-02 
1593	 8.24790419236433E-02 
1594	 8.25930137887266E-02 
1595	 8.27150357072656E-02 
1596	 8.29312489321174E-02 
1597	 8.31240459621567E-02 
1598	 8.33982486225479E-02 
1599	 0.083604026660243 
1600	 8.36777125116493E-02 
1601	 8.37952840059509E-02 
1602	 8.39167882664517E-02 
1603	 8.39760843346725E-02 
1604	 0.084213650668867 
1605	 8.45067281670254E-02 
1606	 8.46218301932636E-02 
1607	 8.46798100942094E-02 
1608	 8.47736178976901E-02 
1609	 8.49384645172193E-02 
1610	 8.50555452931764E-02 
1611	 8.54601923694118E-02 
1612	 8.59833177253599E-02 
1613	 8.58406727020523E-02 
1614	 8.58217442719825E-02 
1615	 8.62474167161894E-02 
1616	 8.62179525297179E-02 
1617	 8.63046624852308E-02 
1618	 8.68544439570869E-02 
1619	 8.71804608717533E-02 
1620	 8.75190970595374E-02 
1621	 0.087723075453277 
1622	 0.087550216592036 
1623	 8.73822017696588E-02 
1624	 8.73828951306321E-02 
1625	 8.76352318279509E-02 
1626	 8.77145738860923E-02 
1627	 8.76396820068871E-02 
1628	 8.76355942966781E-02 
1629	 8.76268528911008E-02 
1630	 8.79666832021558E-02 
1631	 8.84614096772723E-02 
1632	 8.87220059933411E-02 
1633	 8.87559318555075E-02 
1634	 8.86755375401249E-02 
1635	 8.87467412026007E-02 
1636	 8.88722349799492E-02 
1637	 8.88810314753048E-02 
1638	 8.90593042131316E-02 
1639	 8.94016275249248E-02 
1640	 8.95528851982491E-02 
1641	 8.97366588254433E-02 
1642	 9.01275502209587E-02 
1643	 9.03051773274275E-02 
1644	 8.99962209613019E-02 
1645	 8.98740570234483E-02 
1646	 9.02527577273416E-02 
1647	 9.02346687120296E-02 
1648	 9.00412386294615E-02 
1649	 9.02681959332109E-02 
1650	 9.05262854903412E-02 
1651	 9.04603565146571E-02 
1652	 9.04738506169059E-02 
1653	 9.11583996622252E-02 
1654	 9.12142295328562E-02 
1655	 9.12588590561727E-02 
1656	 9.15368450135975E-02 
1657	 9.13133545966917E-02 
1658	 9.10357225966274E-02 
1659	 9.11584372842286E-02 
1660	 9.13460908737541E-02 
1661	 9.12971627716604E-02 
1662	 9.13663931578367E-02 
1663	 9.16794957952976E-02 
1664	 9.16195252030366E-02 
1665	 9.12776548359005E-02 
1666	 9.13845115866597E-02 
1667	 9.16931282051459E-02 
1668	 9.16486309058866E-02 
1669	 9.16862244665232E-02 
1670	 0.091228762110054 
1671	 9.11540088194114E-02 
1672	 9.18633691062361E-02 
1673	 9.21565879975418E-02 
1674	 9.21485132574695E-02 
1675	 9.20684656184772E-02 
1676	 9.17844452138271E-02 
1677	 9.18780216789377E-02 
1678	 9.20784604007705E-02 
1679	 9.20722322391759E-02 
1680	 9.22178949284485E-02 
1681	 9.22775601985605E-02 
1682	 9.19979809296156E-02 
1683	 9.19440959700408E-02 
1684	 0.09219696571384 
1685	 9.20110254887404E-02 
1686	 9.14690830617097E-02 
1687	 9.16707385945724E-02 
1688	 9.21940679893709E-02 
1689	 9.18871284376951E-02 
1690	 9.19589101898886E-02 
1691	 9.21767709625676E-02 
1692	 9.17555239810408E-02 
1693	 9.20946485882724E-02 
1694	 9.24357639672116E-02 
1695	 9.21800055041457E-02 
1696	 9.22381344660284E-02 
1697	 0.092119284230694 
1698	 9.18778674918742E-02 
1699	 9.17716721255933E-02 
1700	 9.16115776764216E-02 
1701	 9.16417229508049E-02 
1702	 9.17198641300826E-02 
1703	 0.09200121302574 
1704	 9.22200938806051E-02 
1705	 9.16646323017171E-02 
1706	 9.11134483074174E-02 
1707	 9.12511175899227E-02 
1708	 9.15288089363282E-02 
1709	 9.15458733181549E-02 
1710	 9.12586617841636E-02 
1711	 9.09225295688027E-02 
1712	 9.05934761599468E-02 
1713	 9.11261099437021E-02 
1714	 9.11471657416792E-02 
1715	 9.09407391097081E-02 
1716	 8.97734054416317E-02 
1717	 8.95418622130831E-02 
1718	 9.02675894047343E-02 
1719	 9.07283135144371E-02 
1720	 9.05557564516147E-02 
1721	 0.08967941273071 
1722	 8.90162016393103E-02 
1723	 8.86261888655501E-02 
1724	 8.86947132145222E-02 
1725	 8.95511807974859E-02 
1726	 0.089356540937989 
1727	 8.85488252653288E-02 
1728	 8.83116582804861E-02 
1729	 8.79680351279338E-02 
1730	 8.75864005108218E-02 
1731	 8.76119096986323E-02 
1732	 8.76926144691762E-02 
1733	 8.72665724806236E-02 
1734	 8.67803120970379E-02 
1735	 8.65981337710593E-02 
1736	 8.63250294632349E-02 
1737	 8.57339474972728E-02 
1738	 8.56597135655616E-02 
1739	 8.59024497081144E-02 
1740	 8.55910275524859E-02 
1741	 8.55267267943414E-02 
1742	 8.53106780114391E-02 
1743	 8.45861314319267E-02 
1744	 8.44294815053277E-02 
1745	 8.47748122540317E-02 
1746	 8.43789671123421E-02 
1747	 8.41330082698347E-02 
1748	 8.36913832606856E-02 
1749	 8.34215981653267E-02 
1750	 8.39113966786972E-02 
1751	 0.083612413573506 
1752	 8.25691160551105E-02 
1753	 8.22069552160003E-02 
1754	 8.15717230118054E-02 
1755	 8.10148748247331E-02 
1756	 0.08119046798086 
1757	 8.07124384959455E-02 
1758	 7.99012091317234E-02 
1759	 7.94194394923804E-02 
1760	 8.01319451000644E-02 
1761	 8.08535951714246E-02 
1762	 8.07938643782437E-02 
1763	 8.03371619456397E-02 
1764	 7.85804440906556E-02 
1765	 7.71221265310778E-02 
1766	 7.74475122472713E-02 
1767	 7.80763537600957E-02 
1768	 7.86385579717852E-02 
1769	 7.86108099129818E-02 
1770	 7.75580224513565E-02 
1771	 7.66662095931007E-02 
1772	 0.076226374724416 
1773	 7.59766449195577E-02 
1774	 7.55654330560166E-02 
1775	 7.48123353734662E-02 
1776	 7.46560140269349E-02 
1777	 0.074956561158354 
1778	 7.44694758307832E-02 
1779	 7.35446023889083E-02 
1780	 7.33460729304919E-02 
1781	 7.21085588738616E-02 
1782	 7.25632587471329E-02 
1783	 7.68899989844913E-02 
1784	 7.75145481583727E-02 
1785	 7.58119217062548E-02 
1786	 7.55526877079001E-02 
1787	 7.34309555313263E-02 
1788	 7.26782556115991E-02 
1789	 7.51016615853507E-02 
1790	 7.51434632495575E-02 
1791	 0.072233541727153 
1792	 0.072145121684001 
1793	 0.071672824171998 
1794	 7.18237411133401E-02 
1795	 7.71615286252149E-02 
1796	 7.99981508781119E-02 
1797	 7.80101163701825E-02 
1798	 0.077211110937378 
1799	 7.56823591323558E-02 
1800	 7.63074713308152E-02 
1801	 7.88516386671427E-02 
1802	 0.087103927707037 
1803	 8.75860476409476E-02 
1804	 7.71284744612767E-02 
1805	 7.85498845769552E-02 
1806	 8.56756004907788E-02 
1807	 0.084625611627513 
1808	 9.51656924073605E-02 
1809	 0.10017399260143 
1810	 6.69948816308686E-02 
1811	 6.18181183048088E-02 
1812	 0.101195296350427 
1813	 0.117034235143727 
1814	 0.118887001708563 
1815	 0.151577113787329 
1816	 0.219537632032015 
1817	 0.300986828166943 
1818	 0.303372664885199 
1819	 0.239156964506386 
1820	 3.43373122669944E-02 
1821	 4.89285273087557E-02 
1822	 0.121728540674028 
1823	 0.750886880040136 
1824	 1.07460280283621 
1825	 1.06924001179823 
1826	 0.994214303609903 
1827	 0.350342379762715 
1828	 0.247638426235147 
1829	 4.59670072321989 
1830	 4.31031537838261 
1831	 0.191416582680509 
1832	 0.327571687737753 
1833	-1.99877305065984 
1834	-4.44297503679612 
1835	 0.117365944561239 
1836	 0.43122309625518 
1837	 0.186479828613052 
1838	 0.145338784026807 
1839	-0.561780194251773 
1840	-0.30402135874538 
1841	 0.971208822460407 
1842	 9.67403513961813 
1843	 127.539311742493 
1844	 0.103621322820273 
1845	 0.155570852513887 
1846	-1.91225248385772 
1847	-2.64598257358976 
1848	 1.87928470039028 
1849	 1.0116408314267 
1850	 1.31914077297416 
1851	 0.840760508742425 
1852	 4.02144267533885E-02 
1853	 0.562070501817603 
1854	-0.463389326185444 
1855	-0.164094051588497 
1856	-6.62520459725514E-02 
1857	 7.3621602362132E-03 
1858	-6.93109747840137E-02 
1859	-0.179800435548107 
1860	 1.22720815195311E-02 
1861	 9.22032245569928E-02 
1862	-0.827196242585536 
1863	-0.465985620668644 
1864	 0.355320260101102 
1865	 0.542201700226459 
1866	 1.08025922488233 
1867	 1.22864138558026 
1868	-0.4773113765796 
1869	 0.548041240215829 
1870	 0.964563788687372 
1871	 1.31932585535162 
1872	 0.533506674551271 
1873	-0.237830326347422 
1874	-1.51344420025142 
1875	-0.872383568467308 
1876	-1.20760578286574 
1877	-1.94653639681613 
1878	-3.30361454377718 
1879	 233.63726796081 
1880	 11.7526950025463 
1881	 2.26011227938366 
1882	 3.7273397722525 
1883	-4.12050132124624 
1884	-45.9641070507861 
1885	 1.72873256252188 
1886	 1.09354834330199 
1887	 1.51498634130633 
1888	 1.83657957019316 
1889	 2.43136209439783 
1890	-10.3118533414841 
1891	-8.47222597382159 
1892	 9.81008456046441 
1893	 3.39818141652961 
1894	 4.35415179276609 
1895	 7.66537615626648 
1896	-12.9070836241582 
1897	-4.22855903539272 
1898	-34.2538302946727 
1899	 4.33044505760557 
1900	 3.36569142839054 
1901	 2.68464164795616 
1902	 2.88455756537389 
1903	-44.2059618893589 
1904	-0.688110449624685 
1905	-1.02244474332631 
1906	-1.13446003800453 
1907	-0.92176176723613 
1908	-1.05289932853373 
1909	 0.344441854025972 
1910	 1.76405559149626 
1911	 2.24657182682098 
1912	 5.92186530549143 
1913	-1.60774994407002 
1914	-9.71930879132753E-02 
1915	 0.581662051047475 
1916	 8.74034580357129 
1917	 366.330097647228 
1918	-1.63367683570492 
1919	-1.99643429490246 
1920	 4.80415460091469 
1921	 0.552990719952665 
1922	 1.13822967958106 
1923	-1.43566743974305 
1924	-7.45635219809006 
1925	-8.68669166641047 
1926	-1.29971955497537 
1927	 0.75553051961835 
1928	 5.43411799532879 
1929	 1.53075334288137 
1930	 1.23733275271938 
1931	 0.47180035393574 
1932	 0.169519397156085 
1933	 0.26597454735381 
1934	 0.275945182988376 
1935	 0.23746134099885 
1936	 0.16235174360632 
1937	 0.116617243327425 
1938	 2.97488992062608E-02 
1939	 5.63410772252661E-03 
1940	-1.09252713289064E-02 
1941	 2.05671805524262E-02 
1942	 2.36828158835173E-02 
1943	 0.021299612780381 
1944	-3.02157195553255E-03 
1945	-2.21578090257389E-02 
1946	-1.46715313705329E-02 
1947	-0.017968890520331 
1948	-2.16706843581423E-02 
1949	-2.03888230868805E-02 
1950	-1.30946561857777E-02 
1951	-6.53772216563111E-04 
1952	 1.06194821411084E-02 
1953	 3.61302948252058E-02 
1954	 4.59503242017776E-02 
1955	 0.028997582229683 
1956	 1.41953408261474E-02 
1957	 4.49301444809834E-04 
1958	-5.55016725172981E-03 
1959	 4.95062768942192E-03 
1960	 1.34572886001582E-02 
1961	 2.31452877361057E-02 
1962	 3.23758646871502E-02 
1963	 2.91195299064419E-02 
1964	 2.37724139298225E-02 
1965	 1.98941867477782E-02 
1966	 1.77879491307421E-02 
1967	 1.40333017140633E-02 
1968	 1.51555110929364E-02 
1969	 1.63653546314621E-02 
1970	 1.73234074278051E-02 
1971	 1.98130423838895E-02 
1972	 1.98458862568724E-02 
1973	 1.96278877536469E-02 
1974	 1.99721471152248E-02 
1975	 1.76055970669698E-02 
1976	 1.58688640155672E-02 
1977	 1.69604643292233E-02 
1978	 1.80707317102433E-02 
1979	 0.019173234339028 
1980	 2.10971942571486E-02 
1981	 2.30104699959671E-02 
1982	 2.32901331282012E-02 
1983	 2.25798485200229E-02 
1984	 2.16077012598368E-02 
1985	 2.07815789092243E-02 
1986	 1.95166169735507E-02 
1987	 1.88548752886482E-02 
1988	 1.93562896437191E-02 
1989	 1.95662751677966E-02 
1990	 1.93210302858386E-02 
1991	 1.86408472077527E-02 
1992	 1.82299021976537E-02 
1993	 1.97860084624498E-02 
1994	 2.03213672781357E-02 
1995	 0.02141828838898 
1996	 2.20257373882737E-02 
1997	 2.32776372344254E-02 
1998	 2.22188344750994E-02 
1999	 2.19662526943592E-02 
2000	 2.31809398663899E-02 
2001	 2.19331718500771E-02 
2002	 1.98496423840064E-02 
2003	 1.67442333513789E-02 
2004	 1.73541906697911E-02 
2005	 2.12921012932883E-02 
2006	 2.17257594581467E-02 
2007	 2.16719089242322E-02 
2008	 2.19972961633658E-02 
2009	 2.24121587588589E-02 
2010	 2.31443096425225E-02 
2011	 2.27267790012786E-02 
2012	 2.13239834358399E-02 
2013	 2.17198205334911E-02 
2014	 2.26941396555033E-02 
2015	 2.03319741412873E-02 
2016	 2.24125146737647E-02 
2017	 2.25924096769659E-02 
2018	 2.10435969700899E-02 
2019	 2.25277749378446E-02 
2020	 2.30609631354511E-02 
2021	 2.37098969012029E-02 
2022	 2.31694440008988E-02 
2023	 2.14329694179328E-02 
2024	 2.13494899416243E-02 
2025	 2.11403855119123E-02 
2026	 2.16656003735644E-02 
2027	 2.31026907609901E-02 
2028	 2.50212864951588E-02 
2029	 0.025477494471561 
2030	 2.58017418480636E-02 
2031	 2.53645561675955E-02 
2032	 2.48471523563354E-02 
2033	 2.55312074749276E-02 
2034	 2.63969559144047E-02 
2035	 2.73150874946812E-02 
2036	 2.75585313447152E-02 
2037	 2.78813368768998E-02 
2038	 2.81886546952567E-02 
2039	 2.80802140585657E-02 
2040	 2.78642653929518E-02 
2041	 2.82654832812389E-02 
2042	 2.85874189449227E-02 
2043	 0.028508489156378 
2044	 2.84856105769548E-02 
2045	 2.90342069462964E-02 
2046	 2.96277369565705E-02 
2047	 0.029519917426321 
2048	 3.03562000396963E-02 
2049	 3.16748216504394E-02 
2050	 3.04705307916217E-02 
2051	 2.89798744140124E-02 
2052	 2.94562497202279E-02 
2053	 2.97965764405471E-02 
2054	 2.96552425769322E-02 
2055	 2.95780782933279E-02 
2056	 2.99548158179968E-02 
2057	 0.02956128034613 
2058	 2.95802499974499E-02 
2059	 3.07212801905763E-02 
2060	 3.15855509453301E-02 
2061	 3.20850047013987E-02 
2062	 3.26899322544901E-02 
2063	 3.35519798215922E-02 
2064	 3.43554344331153E-02 
2065	 3.43663420983928E-02 
2066	 0.033425158169576 
2067	 0.032936990731871 
2068	 3.38235253690269E-02 
2069	 3.27288158242689E-02 
2070	 3.05931835916731E-02 
2071	 3.13816443740284E-02 
2072	 3.16111639269103E-02 
2073	 3.18300459207718E-02 
2074	 3.41013807076707E-02 
2075	 3.50928093713669E-02 
2076	 0.034307559026449 
2077	 3.46131436212849E-02 
2078	 3.58100821016703E-02 
2079	 3.63956648801063E-02 
2080	 3.67784647793553E-02 
2081	 3.72656708595575E-02 
2082	 3.68285400906102E-02 
2083	 3.65662939601496E-02 
2084	 3.67325776071478E-02 
2085	 3.69060733737528E-02 
2086	 0.037852527816801 
2087	 3.77766328368606E-02 
2088	 3.75567505739943E-02 
2089	 3.73493483644014E-02 
2090	 3.60799771710506E-02 
2091	 3.65547299156953E-02 
2092	 3.67580783790464E-02 
2093	 3.69119761379055E-02 
2094	 3.71303452824859E-02 
2095	 3.77700856844621E-02 
2096	 3.80411387935876E-02 
2097	 3.79311200607859E-02 
2098	 3.83701393316672E-02 
2099	 3.90642317065254E-02 
2100	 3.97116973862023E-02 
2101	 4.06229160461507E-02 
2102	 4.13354697341997E-02 
2103	 4.21090023740484E-02 
2104	 4.34269802371042E-02 
2105	 4.30101311364455E-02 
2106	 0.043321375359015 
2107	 4.37858752058042E-02 
2108	 0.042260062211275 
2109	 0.042724039203644 
2110	 4.38283203584407E-02 
2111	 4.33598494416473E-02 
2112	 4.35611355504763E-02 
2113	 4.32865181604425E-02 
2114	 4.17646415089194E-02 
2115	 4.14875706676267E-02 
2116	 4.15106112268775E-02 
2117	 4.21824099829767E-02 
2118	 4.48102395014415E-02 
2119	 4.57405298245287E-02 
2120	 4.61496609337665E-02 
2121	 4.63931791222229E-02 
2122	 4.68557062891383E-02 
2123	 4.53797313858587E-02 
2124	 4.45137702811557E-02 
2125	 4.58507485543104E-02 
2126	 4.67516651555413E-02 
2127	 4.70939698516513E-02 
2128	 4.81911835020228E-02 
2129	 4.83720714694436E-02 
2130	 4.77730232062622E-02 
2131	 4.79363169861457E-02 
2132	 4.81166045999445E-02 
2133	 4.77329162516091E-02 
2134	 4.78766802095802E-02 
2135	 4.82957973349182E-02 
2136	 4.85235815781307E-02 
2137	 4.91346928017347E-02 
2138	 4.87520252796087E-02 
2139	 4.71065898177762E-02 
2140	 4.69775910501694E-02 
2141	 4.73486453015726E-02 
2142	 4.74189925668124E-02 
2143	 4.84263288413133E-02 
2144	 4.85037485531486E-02 
2145	 4.83757315188293E-02 
2146	 4.93873386676242E-02 
2147	 4.94885610442317E-02 
2148	 4.90766537703414E-02 
2149	 4.83916385732731E-02 
2150	 0.047061573471914 
2151	 0.047848674233152 
2152	 4.93481174477932E-02 
2153	 5.00970308917521E-02 
2154	 5.16754752081236E-02 
2155	 5.25091398993831E-02 
2156	 5.24099841907285E-02 
2157	 5.24048820719075E-02 
2158	 5.19487070706281E-02 
2159	 5.12518915048819E-02 
2160	 5.00384662061578E-02 
2161	 4.99761632414846E-02 
2162	 5.02116549749359E-02 
2163	 4.95349423394419E-02 
2164	 4.90757417584098E-02 
2165	 4.88384008886164E-02 
2166	 4.79520362107179E-02 
2167	 4.76188241956899E-02 
2168	 4.74378584442556E-02 
2169	 4.80823584098596E-02 
2170	 4.92376136080697E-02 
2171	 5.03175278622825E-02 
2172	 5.11311975233546E-02 
2173	 5.30895332832239E-02 
2174	 5.28004066494226E-02 
2175	 5.14493482635764E-02 
2176	 5.20500765898565E-02 
2177	 5.08817401359032E-02 
2178	 4.96345259086504E-02 
2179	 0.050567208184804 
2180	 4.92148993048711E-02 
2181	 4.85491336955187E-02 
2182	 5.00799143409714E-02 
2183	 5.00877890346322E-02 
2184	 5.01401693081567E-02 
2185	 5.07579851318029E-02 
2186	 5.06348669070948E-02 
2187	 4.88868757715722E-02 
2188	 4.84415079801458E-02 
2189	 4.80410531833029E-02 
2190	 4.87130953793664E-02 
2191	 5.11769294142864E-02 
2192	 5.12099576903713E-02 
2193	 5.06969624113919E-02 
2194	 5.09412725560341E-02 
2195	 4.99256685106179E-02 
2196	 4.89422766491412E-02 
2197	 4.84835694790748E-02 
2198	 4.92427078555295E-02 
2199	 5.01512428230992E-02 
2200	 5.04292868327603E-02 
2201	 5.26952596270773E-02 
2202	 5.26326507222053E-02 
2203	 5.14644358079952E-02 
2204	 5.09185287627997E-02 
2205	 5.01926930439293E-02 
2206	 5.04067688876357E-02 
2207	 5.08960072490233E-02 
2208	 5.10165602699838E-02 
2209	 5.13305447851263E-02 
2210	 0.050876775145389 
2211	 4.86109760079441E-02 
2212	 4.80691489427989E-02 
2213	 4.89901372240398E-02 
2214	 4.89971195033094E-02 
2215	 4.97171203340801E-02 
2216	 5.07576810743576E-02 
2217	 5.11891115050586E-02 
2218	 5.12752089317237E-02 
2219	 0.051064929408833 
2220	 4.96939406549748E-02 
2221	 4.99945249877737E-02 
2222	 5.19277559925032E-02 
2223	 5.27864634021577E-02 
2224	 5.44929344181876E-02 
2225	 5.44631960031071E-02 
2226	 5.16435394999149E-02 
2227	 0.050035852008952 
2228	 4.85808161003647E-02 
2229	 4.79766887890941E-02 
2230	 4.72400695842418E-02 
2231	 0.047826217685979 
2232	 5.10879565106492E-02 
2233	 5.22700569359227E-02 
2234	 5.30297563731391E-02 
2235	 5.40117508521966E-02 
2236	 5.38781870675883E-02 
2237	 5.08200968041772E-02 
2238	 4.82603809449074E-02 
2239	 4.79920874712985E-02 
2240	 4.79429459287667E-02 
2241	 4.70261452577383E-02 
2242	 4.69771457555006E-02 
2243	 4.79806696764254E-02 
2244	 4.89657763309217E-02 
2245	 4.93094330344373E-02 
2246	 4.97776555278554E-02 
2247	 4.94588982488422E-02 
2248	 4.79193887005322E-02 
2249	 4.84140872692528E-02 
2250	 5.08233478074204E-02 
2251	 0.051614712366209 
2252	 5.00551786744581E-02 
2253	 4.95550326262976E-02 
2254	 5.01099447648071E-02 
2255	 4.91685627059875E-02 
2256	 5.05684067392958E-02 
2257	 5.07910315204127E-02 
2258	 4.85393037032984E-02 
2259	 4.95788399177819E-02 
2260	 4.96242644628319E-02 
2261	 0.050600879758444 
2262	 5.08916710733929E-02 
2263	 5.04112169035571E-02 
2264	 4.94295338795128E-02 
2265	 4.81423144947625E-02 
2266	 0.048080698517191 
2267	 4.81639570835008E-02 
2268	 4.74209264298593E-02 
2269	 0.046213337795202 
2270	 4.65313100270081E-02 
2271	 4.79072097560292E-02 
2272	 0.048203233046334 
2273	 4.99537324208265E-02 
2274	 5.04941851487837E-02 
2275	 4.69661480786783E-02 
2276	 4.71402025198457E-02 
2277	 5.19627910465381E-02 
2278	 5.22728854533876E-02 
2279	 0.050476009244041 
2280	 4.98180042186767E-02 
2281	 4.74340696824661E-02 
2282	 0.045850939154771 
2283	 4.28079464803785E-02 
2284	 4.29931671305846E-02 
2285	 4.55976394258094E-02 
2286	 4.47950812727808E-02 
2287	 4.60796587681568E-02 
2288	 4.85429388337509E-02 
2289	 4.85528193576515E-02 
2290	 4.82134366701372E-02 
2291	 4.77694489202102E-02 
2292	 4.66432609980819E-02 
2293	 0.047161458094967 
2294	 4.86145321114625E-02 
2295	 0.047148525286646 
2296	 4.86038633336331E-02 
2297	 4.88348083143851E-02 
2298	 0.04203301111379 
2299	 3.91245047730763E-02 
2300	 4.15676775774008E-02 
2301	 4.13174294331383E-02 
2302	 3.98074994540766E-02 
2303	 3.90492656402321E-02 
2304	 3.74537473872688E-02 
2305	 3.92666928914325E-02 
2306	 4.16670033952433E-02 
2307	 4.06149171221808E-02 
2308	 4.07607180275317E-02 
2309	 0.040015288309051 
2310	 3.81689691085315E-02 
2311	 4.22311783537068E-02 
2312	 4.85703417200729E-02 
2313	 5.20520518005474E-02 
2314	 5.11869657919977E-02 
2315	 5.00086862496825E-02 
2316	 5.22554741282675E-02 
2317	 0.051539024222381 
2318	 5.43875712746437E-02 
2319	 5.74582286516859E-02 
2320	 5.53678937148613E-02 
2321	 0.057517645668781 
2322	 5.66714025182724E-02 
2323	 5.27367686729311E-02 
2324	 5.15786806177504E-02 
2325	 5.08435049974491E-02 
2326	 4.95217824195337E-02 
2327	 4.58184552917573E-02 
2328	 0.041616683728719 
2329	 4.02258230326771E-02 
2330	 4.39562538490953E-02 
2331	 4.60135752997328E-02 
2332	 4.41160315515884E-02 
2333	 4.00701999176523E-02 
2334	 0.028660970717102 
2335	 2.39766068622438E-02 
2336	 2.70113680741516E-02 
2337	 2.89200250991771E-02 
2338	 3.49746324843468E-02 
2339	 3.86801561633871E-02 
2340	 0.039890852080723 
2341	 4.02747955169802E-02 
2342	 3.57879891602738E-02 
2343	 3.27159902156678E-02 
2344	 3.97235074623131E-02 
2345	 4.23307317717353E-02 
2346	 3.64354356469788E-02 
2347	 3.47172804955525E-02 
2348	 2.67040753455157E-02 
2349	 2.52470692648869E-02 
2350	 0.039200458575239 
2351	 4.82475686363868E-02 
2352	 0.047211813409545 
2353	 3.86418707942916E-02 
2354	 3.60694446636888E-02 
2355	 3.56377200003294E-02 
2356	 3.35089984947945E-02 
2357	 0.040810590246096 
2358	 4.16139081345822E-02 
2359	 3.62085143129319E-02 
2360	 3.51445992055505E-02 
2361	 3.56994683914274E-02 
2362	 3.81770028732743E-02 
2363	 3.81298198751858E-02 
2364	 0.040900848611994 
2365	 3.69845457076958E-02 
2366	 1.84242601241549E-02 
2367	 1.00525743526636E-02 
2368	 9.29508325029216E-03 
2369	 1.07173946164224E-02 
2370	 2.21197002356803E-02 
2371	 2.64593731717471E-02 
2372	 1.98282893301069E-02 
2373	 5.23596061453835E-03 
2374	-1.71779570246235E-02 
2375	-3.17747413408179E-02 
2376	-2.36901407911019E-02 
2377	-5.53246661164741E-03 
2378	 3.73063909669773E-03 
2379	 1.61455295894962E-02 
2380	 1.44392548377265E-02 
2381	-2.06306944500901E-02 
2382	-2.66104428771755E-02 
2383	-1.64306008020683E-02 
2384	-2.81825999970156E-02 
2385	 1.58218914105788E-03 
2386	 1.55699747993187E-02 
2387	-5.12305471350205E-03 
2388	 8.04620528044039E-03 
2389	 3.89350866590123E-03 
2390	-2.04582722385717E-02 
2391	-3.00024838998391E-02 
2392	-0.016820707300597 
2393	 8.80836728166409E-03 
2394	 3.96313520470436E-02 
2395	 7.65477485205427E-02 
2396	 8.15402026987909E-02 
2397	 7.10869082536596E-02 
2398	 7.92280992971709E-02 
2399	 5.73176787280049E-02 
2400	 4.73591509805482E-02 
2401	 0.04859736446607 
2402	-1.8877178014933E-03 
2403	-2.87244391481275E-03 
2404	 1.90794221490181E-02 
2405	-5.1161344072861E-03 
2406	-1.22151513669777E-02 
2407	-7.94379129184795E-03 
2408	 1.21753315389834E-02 
2409	 5.34800651176816E-02 
2410	 9.77844310153684E-02 
2411	 0.105973895839909 
2412	 2.76627162411634E-02 
2413	-4.48881224029687E-02 
2414	-3.60994956661892E-02 
2415	-4.70791214033132E-03 
2416	 6.25071446924682E-02 
2417	 0.117479840278981 
2418	 6.21555827832273E-02 
2419	 2.00670990715895E-02 
2420	-7.39419361096551E-03 
2421	-6.76263241648009E-02 
2422	-1.80450017262313E-02 
2423	 6.88879962117622E-02 
2424	 9.37019680200765E-02 
2425	 0.12356641001348 
2426	 0.120003116542161 
2427	 6.40970296614427E-02 
2428	-5.7847519447476E-03 
2429	-4.25902534840969E-02 
2430	-1.20480929522585E-02 
2431	 2.36545420165488E-02 
2432	 9.85394414644268E-02 
2433	 0.186002970417198 
2434	 0.131158568229286 
2435	 3.73944243342574E-02 
2436	-2.94655291646857E-03 
2437	-7.45583320558224E-03 
2438	 5.42537238310581E-03 
2439	 4.47644994254523E-02 
2440	-1.55268404303744E-02 
2441	-7.39604961654366E-02 
2442	-4.29981063611934E-02 
2443	-5.91633953511834E-02 
2444	 2.53251314895852E-02 
2445	 0.145568013098606 
2446	 4.57653312287198E-02 
2447	-3.84574771547506E-03 
2448	 3.71152683880843E-02 
2449	 0.179449625804098 
2450	 0.15386402576901 
2451	-7.98453804682883E-02 
2452	 7.89604206752659E-02 
2453	-5.42598152489312E-02 
2454	-7.12622579907643E-02 
2455	 0.14159680496595 
2456	 7.77223514830869E-02 
2457	-0.122837331300747 
2458	-0.114859787064845 
2459	-3.18100127968667E-02 
2460	-1.03560352405774E-02 
2461	 0.11967744487588 
2462	 0.321735048593995 
2463	 0.483945094133827 
2464	 0.436639915011535 
2465	 0.199714666844943 
2466	-7.38560647798149E-02 
2467	-0.231188926178377 
2468	-0.140510751147519 
2469	 0.185998494607137 
2470	 0.454176827274873 
2471	 0.44026344923653 
2472	 0.124016872374971 
2473	 0.420014189361713 
2474	 1.19543310912839 
2475	 1.25723888413751 
2476	 0.839154816691555 
2477	 1.92056788679877E-02 
2478	-0.593600571059803 
2479	-6.02097338070397E-02 
2480	 0.337784878354779 
2481	 0.766367793214852 
2482	 1.49439307850517 
2483	 3.73517733706442 
2484	 2.82733663486421 
2485	-5.28364311594836 
2486	-0.328422828882331 
2487	-1.66393799639185 
2488	-0.872835575002864 
2489	-1.172623787324 
2490	-1.25189692274277 
2491	-0.794525141325025 
2492	 0.302935849829462 
2493	 0.550041587043423 
2494	 0.733014759180572 
2495	-0.78144811058848 
2496	-2.8321079000796 
2497	 1.56412142001449 
2498	-0.293609610967221 
2499	 0.26014513575057 
2500	-5.45000909284973 
