Wavelength	rt0711a300000.asd
350	 0.120972519729901 
351	 0.122237935219952 
352	 0.124448492537052 
353	 0.126349327063839 
354	 0.127375658090663 
355	 0.128933721760073 
356	 0.130826098917382 
357	 0.132754605650649 
358	 0.134416261175573 
359	 0.135760257288401 
360	 0.137284754343515 
361	 0.139148733619256 
362	 0.14113239138048 
363	 0.1419079248584 
364	 0.142778552564786 
365	 0.144375677691086 
366	 0.1458657738099 
367	 0.147186789851777 
368	 0.148219132391541 
369	 0.149087605129804 
370	 0.150732978366808 
371	 0.152030524712268 
372	 0.153039552170234 
373	 0.154438387683153 
374	 0.155570854308036 
375	 0.156606358910435 
376	 0.157671014156935 
377	 0.158719247776653 
378	 0.159508007363733 
379	 0.160187801759767 
380	 0.160912926136366 
381	 0.161510571891676 
382	 0.162265390024198 
383	 0.162970556902132 
384	 0.16332277994455 
385	 0.164116934174633 
386	 0.164665044815422 
387	 0.164881315721836 
388	 0.165447418251227 
389	 0.165925963962335 
390	 0.165990448040737 
391	 0.165665535921524 
392	 0.165690997927409 
393	 0.165823350867617 
394	 0.165849195156679 
395	 0.165626842728474 
396	 0.165324931673492 
397	 0.164938989169498 
398	 0.164539917708755 
399	 0.16425408560113 
400	 0.163966267083623 
401	 0.163575336629059 
402	 0.16308823537816 
403	 0.16276622759688 
404	 0.162157244527779 
405	 0.161519303360415 
406	 0.161208612826206 
407	 0.160515493265966 
408	 0.159878107377201 
409	 0.15933238837534 
410	 0.158481458708858 
411	 0.157714507892744 
412	 0.156988599481565 
413	 0.156257812147477 
414	 0.15568479543658 
415	 0.155031120556598 
416	 0.154290894921505 
417	 0.153555713416083 
418	 0.152846513224413 
419	 0.152259211560656 
420	 0.15178572707142 
421	 0.151308183171377 
422	 0.150897319305561 
423	 0.150599435953985 
424	 0.1504429528229 
425	 0.15042425093889 
426	 0.150514057225761 
427	 0.150634893968181 
428	 0.150750891646609 
429	 0.151293113658229 
430	 0.151744372676474 
431	 0.151989738975853 
432	 0.152481238326318 
433	 0.152953374595491 
434	 0.153235474167075 
435	 0.153330301254754 
436	 0.153687232913219 
437	 0.153884413675587 
438	 0.153884196723542 
439	 0.15383841782845 
440	 0.15353380791675 
441	 0.153199685385399 
442	 0.152948143284219 
443	 0.152658939973225 
444	 0.152207482675495 
445	 0.151645045218047 
446	 0.151076490750273 
447	 0.150578655296457 
448	 0.150052612262839 
449	 0.14944746625545 
450	 0.148761737035441 
451	 0.148105002559408 
452	 0.147521964840231 
453	 0.146969691803773 
454	 0.146248773400595 
455	 0.145611400763054 
456	 0.145029772588922 
457	 0.144399574289317 
458	 0.143804534118169 
459	 0.143145722325864 
460	 0.142448635947867 
461	 0.141865538410481 
462	 0.141253257924337 
463	 0.14065208373164 
464	 0.140083555344265 
465	 0.139414660679035 
466	 0.138780326920723 
467	 0.138193335815398 
468	 0.137598805308153 
469	 0.13693755350534 
470	 0.136387775548392 
471	 0.135939006078835 
472	 0.135308536262289 
473	 0.134723905412913 
474	 0.134263994149004 
475	 0.133899372856171 
476	 0.133369170124685 
477	 0.132889590689845 
478	 0.132558680426175 
479	 0.132366554837335 
480	 0.132159636874627 
481	 0.131906244052416 
482	 0.131657857819087 
483	 0.13159644000373 
484	 0.131559853507521 
485	 0.131500056070024 
486	 0.131426746088282 
487	 0.131408805406696 
488	 0.131474655656248 
489	 0.131586396310512 
490	 0.131657019194736 
491	 0.131868076709793 
492	 0.132139962751251 
493	 0.132361023613058 
494	 0.132464993080722 
495	 0.132661218785754 
496	 0.132915903961163 
497	 0.133094200189049 
498	 0.133379532249343 
499	 0.13358512936805 
500	 0.13366563088204 
501	 0.133840799793824 
502	 0.134143357053531 
503	 0.134354678905348 
504	 0.134319610408556 
505	 0.134415722890706 
506	 0.13465933889388 
507	 0.134921142525072 
508	 0.1349872515329 
509	 0.135086191663324 
510	 0.135316177458396 
511	 0.135671792395625 
512	 0.135973189855384 
513	 0.136291127638055 
514	 0.136689251997487 
515	 0.137207081524219 
516	 0.137701176457195 
517	 0.138369724748825 
518	 0.139177589573271 
519	 0.139780692059147 
520	 0.140637417262312 
521	 0.141609201414865 
522	 0.14254032825277 
523	 0.143670752278103 
524	 0.145011455801936 
525	 0.146519625805635 
526	 0.14811807822461 
527	 0.149798705585854 
528	 0.151565076861214 
529	 0.153434559926073 
530	 0.155466017242951 
531	 0.157583753713801 
532	 0.159869997029695 
533	 0.162394855454533 
534	 0.164863704976182 
535	 0.167442050140178 
536	 0.170204120810309 
537	 0.173073328539753 
538	 0.17596540145796 
539	 0.178908485814858 
540	 0.181920688677046 
541	 0.184894042123499 
542	 0.187887146485554 
543	 0.190838349163776 
544	 0.19364159913046 
545	 0.196420181661177 
546	 0.199205918099932 
547	 0.201934642031665 
548	 0.204378039583223 
549	 0.206805681478441 
550	 0.209178659518586 
551	 0.211386567832108 
552	 0.213544147165475 
553	 0.215630112419408 
554	 0.21766064729432 
555	 0.219688667677812 
556	 0.221721510690884 
557	 0.223811590712152 
558	 0.225944324687154 
559	 0.227935863052461 
560	 0.229975599026718 
561	 0.232091263228896 
562	 0.234218263505082 
563	 0.236331022500688 
564	 0.238466787005484 
565	 0.240620115651445 
566	 0.242700007243572 
567	 0.244693184389387 
568	 0.24657121281471 
569	 0.248322638841309 
570	 0.250057165093631 
571	 0.251644891630621 
572	 0.253069318512762 
573	 0.254448515095882 
574	 0.255786966830879 
575	 0.257072304318176 
576	 0.258294812067823 
577	 0.259524796060514 
578	 0.26055076823521 
579	 0.261477335834365 
580	 0.262569578365883 
581	 0.263587609580567 
582	 0.264438376569317 
583	 0.265138645204686 
584	 0.265860507647753 
585	 0.266554118239416 
586	 0.267066398004441 
587	 0.267311158989184 
588	 0.267793799846083 
589	 0.268323563745124 
590	 0.268784420893206 
591	 0.269226583591352 
592	 0.269560610882345 
593	 0.269861812518004 
594	 0.270181512826854 
595	 0.270425795816385 
596	 0.270594109042154 
597	 0.270734931802234 
598	 0.270913952349393 
599	 0.271055392745593 
600	 0.271195235483509 
601	 0.271368331575497 
602	 0.271586582605671 
603	 0.271807381627346 
604	 0.272019805228163 
605	 0.272237411110707 
606	 0.272534736111306 
607	 0.272861474217263 
608	 0.273163764541518 
609	 0.273395833301814 
610	 0.273680904619287 
611	 0.274000886858166 
612	 0.274306397842324 
613	 0.274551335686967 
614	 0.274772757481503 
615	 0.274989374104774 
616	 0.275204397513694 
617	 0.27539813879623 
618	 0.275593593976256 
619	 0.275832757288483 
620	 0.276189850138339 
621	 0.276342350552024 
622	 0.276438615995362 
623	 0.276704270314591 
624	 0.276918886842542 
625	 0.277070884996186 
626	 0.277195432151089 
627	 0.277362243643046 
628	 0.277551061087085 
629	 0.277834901625771 
630	 0.278209428313552 
631	 0.278431787573499 
632	 0.278612701580284 
633	 0.278802722463492 
634	 0.27902889166889 
635	 0.279336193579261 
636	 0.279596780847487 
637	 0.279774125373055 
638	 0.279984787454024 
639	 0.280204871603135 
640	 0.280396481118795 
641	 0.280539445320238 
642	 0.280730140644447 
643	 0.280819124079247 
644	 0.280804198445117 
645	 0.28080151204611 
646	 0.280738336973939 
647	 0.280816613855664 
648	 0.28110949318458 
649	 0.281321269745331 
650	 0.281351867798678 
651	 0.281298682406614 
652	 0.281312080894566 
653	 0.281251558127921 
654	 0.28108756608442 
655	 0.280825414587786 
656	 0.280553147761581 
657	 0.280327562686423 
658	 0.28018337738618 
659	 0.280085905994847 
660	 0.27982104457138 
661	 0.279654581270793 
662	 0.279537144834594 
663	 0.279259288285111 
664	 0.279131577254623 
665	 0.27904691188006 
666	 0.278910979216523 
667	 0.278748761166313 
668	 0.278616956084335 
669	 0.278525266817337 
670	 0.278475517274921 
671	 0.278523154216782 
672	 0.278607825370759 
673	 0.278663475268834 
674	 0.27864125933711 
675	 0.278823259334054 
676	 0.279047916171001 
677	 0.279186057380076 
678	 0.279412823753879 
679	 0.279639559626586 
680	 0.279893334515994 
681	 0.280233242520517 
682	 0.280567804941342 
683	 0.280928919324366 
684	 0.281251393988916 
685	 0.281342352498272 
686	 0.281525490344865 
687	 0.281800707266644 
688	 0.282084883576907 
689	 0.282529840075826 
690	 0.282854036768537 
691	 0.282924037871076 
692	 0.282739434778869 
693	 0.28271836900557 
694	 0.282945022808359 
695	 0.283249247908547 
696	 0.283211606647475 
697	 0.282951573093817 
698	 0.282578648557834 
699	 0.282235536424194 
700	 0.28205891292283 
701	 0.281821844510182 
702	 0.281499304355089 
703	 0.281220787442351 
704	 0.280747825473622 
705	 0.280235325955238 
706	 0.279777970779518 
707	 0.279175383879212 
708	 0.278561923540672 
709	 0.277896094759894 
710	 0.277086787412805 
711	 0.276162462075502 
712	 0.27515014605053 
713	 0.274002591658789 
714	 0.27256799062673 
715	 0.270965269319006 
716	 0.269219937314224 
717	 0.267497689412683 
718	 0.265938821339811 
719	 0.264819296541603 
720	 0.263989384305277 
721	 0.262986222941507 
722	 0.2615280439512 
723	 0.259814846200135 
724	 0.258229369027259 
725	 0.256861221509486 
726	 0.255292832176197 
727	 0.253428012748145 
728	 0.251391493251792 
729	 0.249608155033335 
730	 0.247656235500875 
731	 0.245784493015276 
732	 0.244356331108822 
733	 0.24301591681372 
734	 0.241555074383209 
735	 0.240171629812227 
736	 0.239557104498403 
737	 0.238904162692803 
738	 0.238354591305942 
739	 0.238129692205108 
740	 0.237938772758724 
741	 0.23777596979057 
742	 0.237643330272052 
743	 0.237551081552126 
744	 0.237509047916591 
745	 0.237500958980738 
746	 0.237501352517649 
747	 0.237477213720399 
748	 0.237443352159969 
749	 0.237417032936489 
750	 0.237410319814926 
751	 0.237413823537022 
752	 0.237424427406316 
753	 0.237462767169763 
754	 0.237537145225234 
755	 0.237463410548418 
756	 0.237328984162051 
757	 0.237156696525508 
758	 0.23675562318306 
759	 0.236055351181371 
760	 0.235270395819505 
761	 0.235186365606964 
762	 0.235532370716266 
763	 0.236094472853756 
764	 0.236666343002234 
765	 0.237153881532533 
766	 0.237612876359154 
767	 0.237974511668146 
768	 0.238227771395631 
769	 0.238400610503886 
770	 0.238649973379522 
771	 0.238877075200311 
772	 0.239008702401688 
773	 0.239180684803905 
774	 0.239411092920933 
775	 0.239696928729332 
776	 0.240013474553336 
777	 0.240301402578705 
778	 0.240538647455249 
779	 0.240770850050436 
780	 0.241097846787049 
781	 0.241361707009027 
782	 0.241646185242332 
783	 0.242014911997042 
784	 0.242398228002212 
785	 0.242683611428709 
786	 0.242964808779685 
787	 0.243360341917859 
788	 0.243681807669578 
789	 0.244003561867219 
790	 0.244398963788163 
791	 0.244908041983083 
792	 0.245312160672098 
793	 0.245715320346893 
794	 0.246142104538111 
795	 0.246402490435155 
796	 0.246674067215564 
797	 0.246994112192546 
798	 0.247344944791885 
799	 0.247648759095579 
800	 0.247864429242583 
801	 0.248109979482438 
802	 0.248526973968719 
803	 0.248726529523528 
804	 0.248865160702994 
805	 0.249004560765317 
806	 0.249048206666251 
807	 0.249031878875638 
808	 0.248885943292699 
809	 0.248563118935198 
810	 0.248097322796688 
811	 0.247694211663533 
812	 0.247324286602503 
813	 0.246857270471107 
814	 0.246254804248099 
815	 0.245577720309468 
816	 0.245032674539621 
817	 0.244810484149026 
818	 0.244376826980671 
819	 0.243785114921642 
820	 0.243051708874151 
821	 0.242073130268656 
822	 0.240665007175919 
823	 0.239401362239796 
824	 0.238532175516713 
825	 0.237084816395845 
826	 0.235374365446181 
827	 0.233466366862474 
828	 0.231528690145785 
829	 0.229929853124195 
830	 0.228366364955084 
831	 0.226867720098321 
832	 0.225741873985877 
833	 0.224849700698382 
834	 0.224110984998147 
835	 0.223491943771129 
836	 0.223022048568276 
837	 0.222492902126466 
838	 0.222002045814973 
839	 0.221683241908197 
840	 0.221610869354935 
841	 0.221349537592783 
842	 0.220989999259594 
843	 0.220739533662673 
844	 0.22028212488613 
845	 0.21985192870229 
846	 0.219606692127312 
847	 0.219548848981873 
848	 0.218981863268443 
849	 0.218564905603968 
850	 0.218473978331782 
851	 0.218094386327869 
852	 0.217826583885275 
853	 0.217664787796183 
854	 0.217486188039767 
855	 0.217098132494843 
856	 0.216786211482705 
857	 0.216526198519829 
858	 0.216275455763078 
859	 0.21631078325438 
860	 0.216010981014561 
861	 0.215521717254995 
862	 0.215316408947646 
863	 0.215191059778741 
864	 0.215046439468154 
865	 0.214754373859227 
866	 0.214235258524812 
867	 0.214079771668448 
868	 0.213766688142989 
869	 0.213205220242556 
870	 0.213033786096767 
871	 0.212904723977095 
872	 0.212527373788084 
873	 0.211878179626032 
874	 0.211474150474791 
875	 0.211348498086757 
876	 0.21104198009794 
877	 0.210318499265474 
878	 0.210356641033734 
879	 0.209983555855911 
880	 0.209363538833712 
881	 0.209142593830842 
882	 0.208664630573073 
883	 0.20812661562258 
884	 0.20771041229728 
885	 0.207486864138433 
886	 0.207045906393378 
887	 0.206496875935222 
888	 0.206013214365695 
889	 0.20573215614401 
890	 0.205196429641482 
891	 0.204794990991387 
892	 0.204720379422492 
893	 0.204521139854663 
894	 0.203582258883042 
895	 0.202670427669164 
896	 0.202397899833808 
897	 0.201466600794539 
898	 0.201308786139127 
899	 0.201406487692338 
900	 0.200903254136453 
901	 0.200362257383429 
902	 0.199847791181822 
903	 0.199606360961933 
904	 0.199673520021603 
905	 0.198756932808395 
906	 0.198636028041381 
907	 0.198780460684282 
908	 0.1973673254582 
909	 0.196754069660865 
910	 0.196695677113746 
911	 0.196429842669276 
912	 0.195245885821942 
913	 0.19498593952646 
914	 0.194461093932358 
915	 0.193372725435932 
916	 0.192782818792138 
917	 0.192203682841917 
918	 0.191647165441853 
919	 0.190973788682604 
920	 0.189814412101659 
921	 0.189489873698322 
922	 0.189168944786332 
923	 0.188263551499515 
924	 0.187600793381686 
925	 0.186213195508995 
926	 0.185037426458176 
927	 0.184743658893667 
928	 0.182770344780289 
929	 0.181325264581028 
930	 0.180538972833462 
931	 0.179561285035977 
932	 0.178948060075537 
933	 0.176763946917491 
934	 0.17375260203246 
935	 0.17190564667453 
936	 0.170127117397597 
937	 0.171556260976377 
938	 0.171740748973607 
939	 0.167263309939094 
940	 0.167229099985664 
941	 0.165240828691274 
942	 0.163308588099967 
943	 0.165844116703872 
944	 0.16428696014267 
945	 0.161969934317386 
946	 0.160582722933814 
947	 0.159900359544481 
948	 0.158727129490576 
949	 0.156926900073985 
950	 0.154575339308636 
951	 0.152191127023223 
952	 0.15184286044304 
953	 0.150914288784093 
954	 0.148816424545824 
955	 0.147037100349317 
956	 0.148767141764035 
957	 0.147869830293557 
958	 0.144426606067707 
959	 0.142895465289952 
960	 0.141187491223961 
961	 0.140145269577566 
962	 0.141134494598723 
963	 0.144419079218837 
964	 0.142098662364173 
965	 0.140788721553374 
966	 0.141677946215184 
967	 0.141232999133906 
968	 0.139928755499867 
969	 0.139772111343974 
970	 0.140341427534266 
971	 0.139489236659233 
972	 0.140193076392388 
973	 0.140645026532271 
974	 0.140796836204143 
975	 0.142180974154181 
976	 0.140080490962307 
977	 0.139367884476388 
978	 0.140354034431837 
979	 0.139172144702657 
980	 0.140384977007804 
981	 0.141575016540781 
982	 0.142086438137135 
983	 0.14312484580666 
984	 0.143817012978694 
985	 0.142980038479866 
986	 0.142070354098979 
987	 0.143603517421925 
988	 0.142041847990933 
989	 0.142593696121253 
990	 0.145423277661693 
991	 0.146253815754069 
992	 0.143837427332365 
993	 0.143012627050968 
994	 0.144165608401395 
995	 0.144635975479646 
996	 0.147071287137456 
997	 0.146538460142241 
998	 0.145285922776073 
999	 0.148336336324528 
1000	 0.148350499861655 
1001	 0.145025704932714 
1002	 0.145274697532999 
1003	 0.1456861464933 
1004	 0.14616877973361 
1005	 0.14656916493945 
1006	 0.147001257975721 
1007	 0.147615549922895 
1008	 0.147921135192441 
1009	 0.148094940692382 
1010	 0.14842280083559 
1011	 0.14877722791537 
1012	 0.149244104889815 
1013	 0.150164938230747 
1014	 0.15103269251438 
1015	 0.152365966816624 
1016	 0.152969409816936 
1017	 0.153174044688807 
1018	 0.153567363830287 
1019	 0.153544005512313 
1020	 0.153854674352785 
1021	 0.154360561051725 
1022	 0.155193489724223 
1023	 0.155698019088226 
1024	 0.15628619061962 
1025	 0.156745308750791 
1026	 0.157126941511408 
1027	 0.157691182714807 
1028	 0.158203913691228 
1029	 0.158957703098665 
1030	 0.160216514035204 
1031	 0.160715868289597 
1032	 0.161043945141545 
1033	 0.161278492983841 
1034	 0.160741490661059 
1035	 0.160874320243786 
1036	 0.161298649172081 
1037	 0.161719885265421 
1038	 0.162212682064892 
1039	 0.163181008916433 
1040	 0.163850961836777 
1041	 0.16415554989851 
1042	 0.164513507745027 
1043	 0.164548992773892 
1044	 0.165105556297681 
1045	 0.165968529722204 
1046	 0.166533660378544 
1047	 0.167381843410742 
1048	 0.167742959169046 
1049	 0.167484411657656 
1050	 0.167673650347042 
1051	 0.167960816082198 
1052	 0.168199832416381 
1053	 0.168698603942296 
1054	 0.168942958561839 
1055	 0.168863392359707 
1056	 0.168947617409285 
1057	 0.169053692687986 
1058	 0.16905900670156 
1059	 0.169337036727298 
1060	 0.169926387381401 
1061	 0.170155914664292 
1062	 0.170377332387442 
1063	 0.170527093884094 
1064	 0.170535159450401 
1065	 0.170440473405944 
1066	 0.170093435799114 
1067	 0.170112876561912 
1068	 0.170382392466237 
1069	 0.170296803573581 
1070	 0.170158684038824 
1071	 0.170184608269084 
1072	 0.170062642121144 
1073	 0.1697943823802 
1074	 0.169754169393668 
1075	 0.17024318902797 
1076	 0.170066694576709 
1077	 0.169420603936947 
1078	 0.169169871809209 
1079	 0.168853391382902 
1080	 0.168601106617208 
1081	 0.168629227376867 
1082	 0.16848511573037 
1083	 0.16815583313499 
1084	 0.167924836981485 
1085	 0.167783629091832 
1086	 0.167500040454936 
1087	 0.16728749311418 
1088	 0.16692741645316 
1089	 0.166296891074801 
1090	 0.165716255506353 
1091	 0.165369068574161 
1092	 0.164984648857644 
1093	 0.164641787605455 
1094	 0.164690061602472 
1095	 0.164351622638171 
1096	 0.163774051886218 
1097	 0.163264262978464 
1098	 0.162386975928006 
1099	 0.162009430857476 
1100	 0.162118842290265 
1101	 0.161765212199802 
1102	 0.161554376398661 
1103	 0.161193661544881 
1104	 0.160450218270391 
1105	 0.159551248132032 
1106	 0.158689464996058 
1107	 0.158066505623809 
1108	 0.157225045697546 
1109	 0.156681752983102 
1110	 0.156340281454773 
1111	 0.156241930297945 
1112	 0.156350665840632 
1113	 0.157561964460507 
1114	 0.157075184801735 
1115	 0.155721860082689 
1116	 0.154820909817087 
1117	 0.151170261756014 
1118	 0.149888347184403 
1119	 0.152398451842532 
1120	 0.152671941889301 
1121	 0.153584887016457 
1122	 0.153896087963203 
1123	 0.150408338052321 
1124	 0.148042346219975 
1125	 0.145607489904924 
1126	 0.143466749139916 
1127	 0.144570212239996 
1128	 0.144316941696005 
1129	 0.142424898694205 
1130	 0.140300482776446 
1131	 0.138585566619674 
1132	 0.136008489864706 
1133	 0.132975200799392 
1134	 0.12978215375681 
1135	 0.128326298007411 
1136	 0.127047230509672 
1137	 0.125722447170587 
1138	 0.126192259420614 
1139	 0.124371582332793 
1140	 0.121981711679519 
1141	 0.119685242741226 
1142	 0.116880705777245 
1143	 0.116168382835514 
1144	 0.115182078998421 
1145	 0.111809706394752 
1146	 0.1100628645569 
1147	 0.108222648870046 
1148	 0.105061801484712 
1149	 0.104431610454895 
1150	 0.103536659932654 
1151	 0.103096325505046 
1152	 0.101754056773892 
1153	 0.10010898184377 
1154	 9.93298495993003E-02 
1155	 9.83627158274224E-02 
1156	 9.84847513339918E-02 
1157	 9.85754959336872E-02 
1158	 9.80672272371838E-02 
1159	 9.76222610340005E-02 
1160	 9.75408185958884E-02 
1161	 9.72947601620142E-02 
1162	 9.73339922415109E-02 
1163	 9.73782786931119E-02 
1164	 9.68819831528775E-02 
1165	 9.66921270415071E-02 
1166	 9.69477970028184E-02 
1167	 9.68964767762553E-02 
1168	 9.66088032185185E-02 
1169	 9.65119577849672E-02 
1170	 9.64790724571806E-02 
1171	 9.64379475168405E-02 
1172	 9.66130015061225E-02 
1173	 9.65850356218776E-02 
1174	 9.64709144023247E-02 
1175	 9.62067523056381E-02 
1176	 9.59368280687658E-02 
1177	 9.59137269173196E-02 
1178	 9.60508145322202E-02 
1179	 9.61973094642852E-02 
1180	 9.62308405575001E-02 
1181	 9.59396826893494E-02 
1182	 9.56750438894548E-02 
1183	 0.095634203193383 
1184	 9.56538756923179E-02 
1185	 9.56235382213511E-02 
1186	 9.54664520158964E-02 
1187	 9.52134297647041E-02 
1188	 9.51126976007685E-02 
1189	 9.53733196828451E-02 
1190	 9.56588807173176E-02 
1191	 0.095582808524133 
1192	 9.55035991256133E-02 
1193	 9.52932377382901E-02 
1194	 9.50599056117272E-02 
1195	 9.47389011016826E-02 
1196	 9.49309754585123E-02 
1197	 9.53632259652272E-02 
1198	 9.51813508044249E-02 
1199	 9.49569389019552E-02 
1200	 9.50956108310872E-02 
1201	 9.50413351029327E-02 
1202	 9.51324981482559E-02 
1203	 9.56375680576927E-02 
1204	 0.095542335305308 
1205	 9.51302712921753E-02 
1206	 9.54568119330996E-02 
1207	 9.56651813502358E-02 
1208	 9.55543394537153E-02 
1209	 9.58672012264379E-02 
1210	 9.59144949279382E-02 
1211	 0.095681559124835 
1212	 9.60006008291097E-02 
1213	 9.62990743201698E-02 
1214	 9.64481963221899E-02 
1215	 9.64297383926885E-02 
1216	 9.67525182721527E-02 
1217	 9.66888833271118E-02 
1218	 9.64353982137601E-02 
1219	 9.67743733828903E-02 
1220	 9.71581272432615E-02 
1221	 9.73251920864951E-02 
1222	 9.74039658931711E-02 
1223	 9.71495011220462E-02 
1224	 0.096919810530616 
1225	 9.73033259383691E-02 
1226	 9.77823862053234E-02 
1227	 9.78867841305346E-02 
1228	 9.79756152471508E-02 
1229	 9.80733300592202E-02 
1230	 9.79463140677524E-02 
1231	 0.097864182638021 
1232	 9.80176040684349E-02 
1233	 9.83190705730759E-02 
1234	 9.86594560106633E-02 
1235	 9.87930966445687E-02 
1236	 9.89976216710866E-02 
1237	 9.92196453345334E-02 
1238	 9.91984282384452E-02 
1239	 9.92004718445301E-02 
1240	 9.94310999566363E-02 
1241	 9.96894760337555E-02 
1242	 9.96775677686558E-02 
1243	 9.96118303236226E-02 
1244	 9.98776435752153E-02 
1245	 0.100060525689212 
1246	 0.100067189984494 
1247	 0.10019942696135 
1248	 0.100349110470952 
1249	 0.100490053970814 
1250	 0.100677592357749 
1251	 0.100950553346547 
1252	 0.100996293699543 
1253	 0.100843367004952 
1254	 0.100894253094934 
1255	 0.100932730151935 
1256	 0.100957764123509 
1257	 0.101211373314157 
1258	 0.101281394664245 
1259	 0.101025470060929 
1260	 0.101048703536857 
1261	 0.10136136748225 
1262	 0.101334430640808 
1263	 0.101175415234602 
1264	 0.101180370280749 
1265	 0.101157233560654 
1266	 0.101146353391022 
1267	 0.101239217752993 
1268	 0.101098365856201 
1269	 0.100724109367161 
1270	 0.100550707494652 
1271	 0.100728298180599 
1272	 0.100660347642141 
1273	 0.100366630264893 
1274	 0.100326603028328 
1275	 0.100480909829889 
1276	 0.100437532810686 
1277	 0.100170621267982 
1278	 9.99598346683208E-02 
1279	 9.97104002186745E-02 
1280	 9.95058939658569E-02 
1281	 0.099229155949749 
1282	 9.91531684417091E-02 
1283	 9.90079268973302E-02 
1284	 9.87072114553068E-02 
1285	 9.83931916180357E-02 
1286	 9.82421484488786E-02 
1287	 9.80430637146719E-02 
1288	 9.74497261219178E-02 
1289	 9.71385002697518E-02 
1290	 9.71656911556194E-02 
1291	 9.71865160633621E-02 
1292	 9.65604172709474E-02 
1293	 9.58110054230931E-02 
1294	 9.52643767370618E-02 
1295	 9.49717960040509E-02 
1296	 9.45805244936213E-02 
1297	 9.40080044795216E-02 
1298	 9.36196130783811E-02 
1299	 9.32505069563558E-02 
1300	 9.27752626879947E-02 
1301	 9.24918981134751E-02 
1302	 9.20349383048333E-02 
1303	 9.08520434379124E-02 
1304	 8.99533718759568E-02 
1305	 8.98766612995568E-02 
1306	 8.93264756613265E-02 
1307	 0.088591262042429 
1308	 8.80167919563272E-02 
1309	 8.74065583476622E-02 
1310	 8.66418941523692E-02 
1311	 8.60044148660226E-02 
1312	 8.53199972191353E-02 
1313	 8.44448724583332E-02 
1314	 8.35970445274935E-02 
1315	 8.27491573711887E-02 
1316	 8.19765716494638E-02 
1317	 8.11212570630271E-02 
1318	 8.03588643598289E-02 
1319	 7.98992552353533E-02 
1320	 7.92653462082902E-02 
1321	 7.84155568985146E-02 
1322	 7.77747302606162E-02 
1323	 7.70363717405094E-02 
1324	 7.63388613213972E-02 
1325	 7.62736059369885E-02 
1326	 7.55574464467297E-02 
1327	 7.45594498712337E-02 
1328	 7.42480435584526E-02 
1329	 7.32648894306407E-02 
1330	 7.21115930476487E-02 
1331	 7.13713868081792E-02 
1332	 7.03775030125049E-02 
1333	 6.91458081775111E-02 
1334	 6.79810289601989E-02 
1335	 0.067595988423796 
1336	 6.85347756952283E-02 
1337	 6.77444547367819E-02 
1338	 6.62206939329359E-02 
1339	 0.065838721748788 
1340	 6.49202946997032E-02 
1341	 6.42797065061361E-02 
1342	 6.49661172755165E-02 
1343	 6.53700307437972E-02 
1344	 6.54213458866794E-02 
1345	 6.49014886989751E-02 
1346	 6.42130207177962E-02 
1347	 0.06460963827936 
1348	 6.48487281333824E-02 
1349	 6.37756014302878E-02 
1350	 6.31515743211243E-02 
1351	 6.60606795518888E-02 
1352	 7.49460130515823E-02 
1353	 7.53551099245125E-02 
1354	 6.65776304243628E-02 
1355	 0.064577183221892 
1356	 7.38943309814055E-02 
1357	 6.62178030215681E-02 
1358	 7.55353083304506E-02 
1359	 0.118834184519915 
1360	 0.119451113446752 
1361	 9.38144656845728E-02 
1362	 0.103882999437396 
1363	 0.128680998277014 
1364	 8.86622228708971E-02 
1365	-0.052294471567183 
1366	 9.69716325044429E-02 
1367	 0.324842064683088 
1368	 0.357148427400283 
1369	 0.101651394933448 
1370	 3.56056693597009E-02 
1371	-0.10799876947141 
1372	-0.129764366658906 
1373	 6.80144030984461E-02 
1374	 0.048910187417239 
1375	-3.69937996198331E-02 
1376	-0.118139680282581 
1377	-0.303654852604146 
1378	-0.32773152531734 
1379	-0.245413026364483 
1380	-0.242827449861079 
1381	-0.226014545095302 
1382	-0.171196231585743 
1383	-5.95762999321324E-02 
1384	-7.36224841678127E-02 
1385	-0.201114614994592 
1386	-0.251724399227925 
1387	-0.427012972193248 
1388	-0.455543668808057 
1389	-0.094039043632496 
1390	-1.09107183865139E-02 
1391	-6.53530780444466E-02 
1392	-0.213626055882609 
1393	-5.84105061951898E-02 
1394	-0.203468109804629 
1395	-0.319505819877546 
1396	 0.115960664363986 
1397	-0.145972398273707 
1398	-0.271983551341262 
1399	 7.18491322267524E-02 
1400	 0.182324688009941 
1401	-0.130963580964002 
1402	-0.123687887477972 
1403	-0.076119252870844 
1404	-7.68475596377802E-02 
1405	-0.109753662774533 
1406	-4.89555335828997E-02 
1407	-1.16835061867784E-02 
1408	-0.100663720088648 
1409	-0.106733786159899 
1410	-1.63755429822684E-02 
1411	 1.54349548732097E-02 
1412	-9.4374130212123E-03 
1413	-1.21599344595025E-02 
1414	 2.71608543274769E-03 
1415	 1.91970145971937E-02 
1416	 3.39983104574477E-02 
1417	 0.023985949914796 
1418	 1.29202554585476E-02 
1419	 1.69667161673495E-02 
1420	 9.2145233029362E-03 
1421	 5.77719144783962E-03 
1422	 1.58911924845278E-02 
1423	 1.87909151492176E-02 
1424	 0.012266132767731 
1425	 1.39687440604738E-02 
1426	 2.48581776409872E-02 
1427	 2.47872165304366E-02 
1428	 1.78393504959257E-02 
1429	 1.66373043787352E-02 
1430	 1.48103068630945E-02 
1431	 1.50704247926741E-02 
1432	 2.00769906429368E-02 
1433	 2.21049839443627E-02 
1434	 2.17772926622173E-02 
1435	 0.022605665026904 
1436	 2.33510226049481E-02 
1437	 0.02515349544671 
1438	 2.17884642289703E-02 
1439	 1.84458445660287E-02 
1440	 1.90971135592853E-02 
1441	 1.64800154197374E-02 
1442	 1.52142545421248E-02 
1443	 1.72328646145805E-02 
1444	 1.77588024508131E-02 
1445	 1.99083531552654E-02 
1446	 1.93033187673048E-02 
1447	 1.72125086330281E-02 
1448	 1.75498736406946E-02 
1449	 1.62859101099756E-02 
1450	 1.65525482752856E-02 
1451	 1.92190815612298E-02 
1452	 2.01426139538161E-02 
1453	 1.92911288839924E-02 
1454	 1.84216796585478E-02 
1455	 1.70465150368612E-02 
1456	 1.73968486761211E-02 
1457	 1.79494979532583E-02 
1458	 1.76437164127834E-02 
1459	 1.80508283622615E-02 
1460	 1.83139019254901E-02 
1461	 1.76304847439201E-02 
1462	 1.70192359919525E-02 
1463	 1.68883258792077E-02 
1464	 1.70865360200975E-02 
1465	 1.65447967778603E-02 
1466	 1.64620117876146E-02 
1467	 1.76789202990285E-02 
1468	 1.89757516524583E-02 
1469	 2.06236578806172E-02 
1470	 2.04224804863365E-02 
1471	 1.94992320523975E-02 
1472	 0.019439588757112 
1473	 1.82029019302429E-02 
1474	 1.73712086148707E-02 
1475	 1.74108425420879E-02 
1476	 1.81198355430967E-02 
1477	 1.89141498093136E-02 
1478	 1.89371527981794E-02 
1479	 1.90835718979791E-02 
1480	 2.01079067670543E-02 
1481	 0.021242625784398 
1482	 2.10353936505685E-02 
1483	 2.10778532938105E-02 
1484	 2.14925861254332E-02 
1485	 0.020587969273558 
1486	 2.04355497799218E-02 
1487	 2.17883797992795E-02 
1488	 2.19060344648808E-02 
1489	 2.08224806028829E-02 
1490	 2.09464687766583E-02 
1491	 2.15155990935926E-02 
1492	 2.17722569759834E-02 
1493	 0.022581589568608 
1494	 2.27130747218571E-02 
1495	 2.19504642066725E-02 
1496	 0.022033838515502 
1497	 2.25613290096444E-02 
1498	 2.26673726437359E-02 
1499	 2.27764415007201E-02 
1500	 2.31819550024176E-02 
1501	 2.36067133978773E-02 
1502	 0.023662054569517 
1503	 2.38178028995676E-02 
1504	 2.40117841709326E-02 
1505	 2.37602165116269E-02 
1506	 2.38238060532521E-02 
1507	 2.42109070419771E-02 
1508	 2.44176391763052E-02 
1509	 0.024539713012712 
1510	 2.47129418989066E-02 
1511	 2.47766829797651E-02 
1512	 2.48570687930415E-02 
1513	 2.51856030031062E-02 
1514	 2.54257334206266E-02 
1515	 2.56397044687388E-02 
1516	 2.59608534153409E-02 
1517	 2.61054839701841E-02 
1518	 0.026159554665318 
1519	 0.026183474965327 
1520	 2.62687020860033E-02 
1521	 0.02673362606676 
1522	 2.70541707495303E-02 
1523	 2.71479492781469E-02 
1524	 2.75011843666586E-02 
1525	 2.76815221391188E-02 
1526	 2.76664921391294E-02 
1527	 2.77724152047601E-02 
1528	 2.80335195062558E-02 
1529	 0.028223477884347 
1530	 2.82148006892059E-02 
1531	 2.84458028226011E-02 
1532	 2.87243759480621E-02 
1533	 2.88528182897577E-02 
1534	 2.92239297001329E-02 
1535	 2.96169635076584E-02 
1536	 2.97608740502122E-02 
1537	 2.98133132608598E-02 
1538	 2.98574822685279E-02 
1539	 2.99603890263811E-02 
1540	 3.00591816160775E-02 
1541	 3.02087190214175E-02 
1542	 3.04385810727564E-02 
1543	 3.05651646751659E-02 
1544	 3.08171328002151E-02 
1545	 3.11465642050048E-02 
1546	 3.11259792197889E-02 
1547	 3.12319491821382E-02 
1548	 3.17000501100555E-02 
1549	 3.18274150689895E-02 
1550	 3.18466836898411E-02 
1551	 3.20791794071425E-02 
1552	 3.21705703843438E-02 
1553	 3.24189221280956E-02 
1554	 3.28162562898854E-02 
1555	 3.28994134233784E-02 
1556	 3.29547633282778E-02 
1557	 3.29965558122438E-02 
1558	 3.29343419303779E-02 
1559	 3.32505033352633E-02 
1560	 3.36783287540024E-02 
1561	 3.37918492199426E-02 
1562	 3.39903311178569E-02 
1563	 3.43236583024484E-02 
1564	 3.42293269558843E-02 
1565	 3.40462066100546E-02 
1566	 3.43775988511469E-02 
1567	 3.47596559195281E-02 
1568	 3.48801657167654E-02 
1569	 0.035008925532196 
1570	 3.52528675725168E-02 
1571	 0.035487716452656 
1572	 3.55182282753855E-02 
1573	 0.03544520156746 
1574	 3.55955864602335E-02 
1575	 3.57838056976663E-02 
1576	 3.57340981357518E-02 
1577	 3.57315607006745E-02 
1578	 3.60857676120451E-02 
1579	 3.65449917562165E-02 
1580	 3.67019962579659E-02 
1581	 3.68524289038484E-02 
1582	 3.72908710655616E-02 
1583	 0.037588386294109 
1584	 3.75653481795469E-02 
1585	 3.74617877276908E-02 
1586	 3.76335081050248E-02 
1587	 3.79429841649784E-02 
1588	 0.037984428574909 
1589	 3.81674562760776E-02 
1590	 3.83489015742405E-02 
1591	 3.80042990169205E-02 
1592	 3.79043405050199E-02 
1593	 3.84608010333566E-02 
1594	 3.87576704213767E-02 
1595	 3.85904042008658E-02 
1596	 0.038694851820844 
1597	 3.90978772670973E-02 
1598	 3.91981687796373E-02 
1599	 3.91177699282452E-02 
1600	 0.039260176330525 
1601	 3.93184246527119E-02 
1602	 3.93244578859154E-02 
1603	 3.96027163630775E-02 
1604	 3.98261663117965E-02 
1605	 3.99193900061632E-02 
1606	 3.99586564981796E-02 
1607	 3.99781948211214E-02 
1608	 4.02911950065697E-02 
1609	 4.04127448562424E-02 
1610	 4.03649455505045E-02 
1611	 4.06710220398946E-02 
1612	 4.08295222820445E-02 
1613	 4.07147135042157E-02 
1614	 4.06128223252562E-02 
1615	 4.07462272920348E-02 
1616	 4.10870964657291E-02 
1617	 4.10621741737192E-02 
1618	 4.09666595958093E-02 
1619	 4.12190440169277E-02 
1620	 4.13542871406992E-02 
1621	 4.16230620089709E-02 
1622	 4.20377446501965E-02 
1623	 4.19827621871501E-02 
1624	 4.17197863264405E-02 
1625	 4.16444783902253E-02 
1626	 4.18691834344068E-02 
1627	 0.042289156696172 
1628	 4.22972958528464E-02 
1629	 4.22297727739929E-02 
1630	 4.25235775010401E-02 
1631	 4.24329147906801E-02 
1632	 4.21769463504673E-02 
1633	 4.23811628790925E-02 
1634	 4.26460511651996E-02 
1635	 4.26486791576222E-02 
1636	 4.28080390964869E-02 
1637	 4.29548064883874E-02 
1638	 4.26566223492666E-02 
1639	 4.24619625486095E-02 
1640	 4.26155599899574E-02 
1641	 4.29763574194854E-02 
1642	 4.31278322762994E-02 
1643	 4.29609208948713E-02 
1644	 4.31657588562933E-02 
1645	 4.32670341938712E-02 
1646	 4.28654086350209E-02 
1647	 4.31399160293714E-02 
1648	 4.38204390864659E-02 
1649	 4.37687447003373E-02 
1650	 4.37544327372425E-02 
1651	 4.39693146147584E-02 
1652	 0.043700689945537 
1653	 4.37349083434691E-02 
1654	 4.38007455460462E-02 
1655	 4.37977943424894E-02 
1656	 0.043771589979562 
1657	 4.37588816897832E-02 
1658	 4.38761204903401E-02 
1659	 4.40379290024039E-02 
1660	 4.42158236344766E-02 
1661	 4.45490105248454E-02 
1662	 4.45204613368455E-02 
1663	 4.43266593265727E-02 
1664	 0.044339266796983 
1665	 4.41038967542311E-02 
1666	 4.41862005428775E-02 
1667	 4.45946030846752E-02 
1668	 0.044726201163508 
1669	 4.49725481589173E-02 
1670	 4.46849588338426E-02 
1671	 4.46063066976506E-02 
1672	 4.47386120230878E-02 
1673	 4.45103267661175E-02 
1674	 4.47562724797384E-02 
1675	 4.50778987106155E-02 
1676	 4.46457168732491E-02 
1677	 0.044375191793431 
1678	 4.47582944844756E-02 
1679	 4.51060259525596E-02 
1680	 4.51697581534684E-02 
1681	 4.51492286672793E-02 
1682	 4.48242944780463E-02 
1683	 4.44351800239709E-02 
1684	 4.47140229861853E-02 
1685	 4.51766577428753E-02 
1686	 0.045167937167458 
1687	 0.044903675961251 
1688	 4.46717328864215E-02 
1689	 4.45891186250894E-02 
1690	 4.48089047966424E-02 
1691	 4.51048521983563E-02 
1692	 4.50389243708182E-02 
1693	 4.49996243321755E-02 
1694	 4.50254504617537E-02 
1695	 4.45778612591885E-02 
1696	 4.40873499476511E-02 
1697	 4.41310742204854E-02 
1698	 4.44085758173306E-02 
1699	 4.45478460831332E-02 
1700	 4.45487013315734E-02 
1701	 4.46977447603092E-02 
1702	 4.47873734314511E-02 
1703	 4.44768532108749E-02 
1704	 4.45082959387865E-02 
1705	 4.44163577027332E-02 
1706	 4.34683568292821E-02 
1707	 4.32660176048582E-02 
1708	 4.39558806233255E-02 
1709	 4.40856159290819E-02 
1710	 4.40923878437572E-02 
1711	 4.41560188472629E-02 
1712	 4.34835080575792E-02 
1713	 4.29894870710078E-02 
1714	 4.30994783256045E-02 
1715	 4.38305076955125E-02 
1716	 4.36325118675832E-02 
1717	 4.34096317097521E-02 
1718	 4.30410090267704E-02 
1719	 4.24580658713482E-02 
1720	 4.27184540191417E-02 
1721	 0.043485772762384 
1722	 4.31993957162233E-02 
1723	 4.28391326692148E-02 
1724	 4.30426446600149E-02 
1725	 4.25139209436344E-02 
1726	 4.20462319896106E-02 
1727	 4.23768618793167E-02 
1728	 4.23780402321337E-02 
1729	 4.17876359229039E-02 
1730	 4.14913728923697E-02 
1731	 4.16804347344576E-02 
1732	 4.18264062380508E-02 
1733	 4.18468945590192E-02 
1734	 4.20241220562421E-02 
1735	 4.22156403548971E-02 
1736	 4.19839821651189E-02 
1737	 0.041457803462745 
1738	 0.041089037049904 
1739	 4.07866411451805E-02 
1740	 4.06211527349926E-02 
1741	 4.05360700486239E-02 
1742	 0.040099162468889 
1743	 3.97091672991973E-02 
1744	 3.94742390192762E-02 
1745	 3.93244800257166E-02 
1746	 3.94345937197285E-02 
1747	 0.039532949856263 
1748	 3.94566001254656E-02 
1749	 3.93364076759966E-02 
1750	 3.95732622341616E-02 
1751	 3.94004718955679E-02 
1752	 0.038352448361869 
1753	 3.81333926183237E-02 
1754	 0.038683333578655 
1755	 0.038721733566358 
1756	 3.87718519026996E-02 
1757	 3.78038084598904E-02 
1758	 3.68444586052238E-02 
1759	 3.69890029944725E-02 
1760	 3.75263167726756E-02 
1761	 3.74992998857233E-02 
1762	 3.76845504638289E-02 
1763	 3.64400577595625E-02 
1764	 3.49366617371199E-02 
1765	 3.63917905855632E-02 
1766	 3.73453715258405E-02 
1767	 3.66871984208229E-02 
1768	 3.74422284516612E-02 
1769	 3.65649273102432E-02 
1770	 3.44338478195817E-02 
1771	 3.51754843961057E-02 
1772	 3.49493072718793E-02 
1773	 3.35665264515935E-02 
1774	 3.45485090167295E-02 
1775	 3.44417443753517E-02 
1776	 3.44825124516347E-02 
1777	 3.52584758324534E-02 
1778	 0.03507646731868 
1779	 3.41131288956334E-02 
1780	 3.45019310461345E-02 
1781	 3.57891865627459E-02 
1782	 0.035206551555412 
1783	 3.36254761990341E-02 
1784	 3.34189309898077E-02 
1785	 3.17993885184166E-02 
1786	 3.21137339322344E-02 
1787	 3.69169386711526E-02 
1788	 3.73164808631411E-02 
1789	 3.54565689738277E-02 
1790	 3.43518066264794E-02 
1791	 2.97823370526177E-02 
1792	 3.00603565144906E-02 
1793	 3.16221094428039E-02 
1794	 3.09218283466886E-02 
1795	 3.42390407114648E-02 
1796	 3.26896957677218E-02 
1797	 2.51166587284131E-02 
1798	 2.31391288658745E-02 
1799	 2.00874391654723E-02 
1800	 3.38262879127573E-02 
1801	 4.09489649339678E-02 
1802	 5.18598925694678E-02 
1803	 5.20907091776039E-02 
1804	 1.63542025986934E-02 
1805	 2.85000378067941E-03 
1806	 1.42486882687962E-03 
1807	-1.88360429566783E-03 
1808	 3.44019059717338E-02 
1809	 4.34648927178683E-02 
1810	 8.1784289223707E-03 
1811	 5.52554181783992E-03 
1812	 3.18145008117867E-02 
1813	 2.39336679901283E-02 
1814	-3.5008712001751E-03 
1815	-5.75915240516164E-03 
1816	-4.87629967898865E-02 
1817	-1.63452775683938E-02 
1818	 8.26703446509148E-02 
1819	-8.02924868466633E-03 
1820	-0.083435712913799 
1821	-0.280956308712354 
1822	-0.43317202211291 
1823	-0.177697437783648 
1824	-0.100087918921686 
1825	-0.016581263895043 
1826	 1.00588233212131E-02 
1827	-0.128557885429518 
1828	-0.16061380081124 
1829	-8.45827860241779E-02 
1830	 1.31012297189578 
1831	-1.35907789197246 
1832	-1.67731270737866 
1833	-2.96819187578558 
1834	-3.01436821240757 
1835	 4.16821454140974E-02 
1836	-0.136565475317105 
1837	-1.27672599914561 
1838	-2.35528345582409 
1839	 3.09712138434316 
1840	 1.76311804170232 
1841	 4.39837293287274 
1842	 37.1541056409102 
1843	 656.346009277287 
1844	-3.83437632566237 
1845	-2.40971588456967 
1846	 4.69344161317242 
1847	 3.5206748417446 
1848	-2.1350256470487 
1849	-1.20413128395061 
1850	-1.79530461174714 
1851	-2.72582749186028 
1852	-4.67318916180324 
1853	-12.9235184710886 
1854	-6.14039635510527 
1855	-1.18563704365572 
1856	-0.733209540295279 
1857	-0.5651124509013 
1858	-0.464323167951452 
1859	-0.433267125737119 
1860	-1.31456011963848E-02 
1861	 0.458226176630205 
1862	 0.376290913778689 
1863	 0.225794003803971 
1864	 0.268870558820663 
1865	 0.550653858994251 
1866	 1.96068640442138 
1867	 2.27883009900169 
1868	-25.5710904003262 
1869	-2.15185627615809 
1870	-0.50540786220376 
1871	 1.01321656432123 
1872	-8.19055554238523E-02 
1873	-0.255400767133289 
1874	-8.22013621172593E-02 
1875	-0.284803978533079 
1876	-0.466432537978735 
1877	-0.34185862256826 
1878	-0.75593293781972 
1879	 106.212442610905 
1880	 5.38216867953505 
1881	 0.954807585809109 
1882	 0.466042341309746 
1883	 0.961497553985938 
1884	-24.4813831256263 
1885	 2.16921130185397 
1886	 1.4344500299677 
1887	 0.939007218391792 
1888	 0.490709058931178 
1889	-3.52028185016804E-03 
1890	 4.36543044927179 
1891	 4.20131187213376 
1892	-3.43503237393007 
1893	-0.507369766349157 
1894	-0.335271093405338 
1895	 6.63990118434243E-02 
1896	-6.41978235837703E-02 
1897	 1.49819589133554 
1898	 13.9295477238299 
1899	-1.67847786872311 
1900	-0.698177917430858 
1901	 2.42125801015442 
1902	 4.49422251395996 
1903	-118.41852869802 
1904	-1.97877889290094 
1905	-1.6791633939586 
1906	-0.88320352622287 
1907	-0.177560002609356 
1908	-0.755213344791781 
1909	-0.30445616879013 
1910	 0.385819292018643 
1911	 1.0393157280668 
1912	 4.37470173085684 
1913	-1.16632823261748 
1914	 0.899300269721564 
1915	 0.780912107312467 
1916	 0.626611621005424 
1917	-62.0552235491176 
1918	-0.102073127673477 
1919	-1.84968698901252 
1920	 149.784239535986 
1921	-2.14881713230524 
1922	-2.33302145179697 
1923	 0.748302949878997 
1924	 6.8625740340906 
1925	 4.94100840922825 
1926	 0.154396125616297 
1927	-1.45461515078276 
1928	-8.36514850433107 
1929	-2.25735936490612 
1930	-1.10648988056784 
1931	-0.563481453915738 
1932	 0.175123742070046 
1933	 0.189096625359996 
1934	 6.27234877298143E-02 
1935	 6.70793258216537E-02 
1936	-2.48608423272032E-02 
1937	-0.106223808304932 
1938	-6.28739978521219E-02 
1939	-4.17171810620177E-02 
1940	-1.88243801145261E-02 
1941	-5.00588536008683E-04 
1942	 2.16451447935062E-02 
1943	 2.53041967493721E-04 
1944	-1.00815462529291E-02 
1945	-0.027261876999269 
1946	-5.42033899939541E-02 
1947	-5.16393150833521E-02 
1948	-4.89842784598316E-02 
1949	-4.50122680126937E-02 
1950	-2.16500720386111E-02 
1951	-7.13619119919363E-03 
1952	-1.00285857734624E-03 
1953	 1.74753122386526E-03 
1954	-1.07504793977251E-04 
1955	-1.00413436015526E-02 
1956	-1.30623792121759E-02 
1957	-9.64821326561673E-03 
1958	-1.21948427160432E-02 
1959	-1.09152390957978E-02 
1960	-3.91605155839864E-03 
1961	-4.55413825624187E-03 
1962	-5.13126077968926E-03 
1963	-1.68338273220739E-03 
1964	 1.64323269895426E-03 
1965	 6.22402703054352E-03 
1966	 7.5283893215269E-03 
1967	 9.34302121447374E-03 
1968	 8.8991280238147E-03 
1969	 8.95081513864421E-03 
1970	 8.76088057467032E-03 
1971	 1.02184465251924E-02 
1972	 1.34329649733257E-02 
1973	 1.30357624748792E-02 
1974	 9.4721440147246E-03 
1975	 8.04157574519245E-03 
1976	 8.23148411670966E-03 
1977	 8.31129192350512E-03 
1978	 9.51627034431021E-03 
1979	 9.80124540091545E-03 
1980	 1.00784425792926E-02 
1981	 8.30434119423196E-03 
1982	 7.50837208923368E-03 
1983	 7.60605078059938E-03 
1984	 7.36057211582145E-03 
1985	 7.89383501467303E-03 
1986	 9.02544268066477E-03 
1987	 1.06301835652188E-02 
1988	 1.25225733760159E-02 
1989	 0.012600422826482 
1990	 1.07144967662467E-02 
1991	 9.96434526920001E-03 
1992	 9.94472769668929E-03 
1993	 9.05865482001161E-03 
1994	 8.81963940646006E-03 
1995	 1.00633917699384E-02 
1996	 1.04302564977258E-02 
1997	 9.25794765358458E-03 
1998	 1.01015504201816E-02 
1999	 1.22262775403211E-02 
2000	 1.20026452555924E-02 
2001	 1.29006288923535E-02 
2002	 0.017940505691116 
2003	 1.85822316770505E-02 
2004	 1.42375450200783E-02 
2005	 1.28412482017678E-02 
2006	 1.13451788343392E-02 
2007	 1.02853581084744E-02 
2008	 1.54713056270502E-02 
2009	 1.79900151655417E-02 
2010	 1.78892612006117E-02 
2011	 1.67155749476483E-02 
2012	 0.015784191895695 
2013	 1.43533625966132E-02 
2014	 9.49370669890946E-03 
2015	 9.49704792056285E-03 
2016	 1.12872487841022E-02 
2017	 1.07347944582658E-02 
2018	 1.35695192066803E-02 
2019	 1.62943874170624E-02 
2020	 1.39121967675108E-02 
2021	 1.26285716893438E-02 
2022	 1.34487515362371E-02 
2023	 0.013483103906611 
2024	 1.21925143516082E-02 
2025	 1.04739900900289E-02 
2026	 1.03790842981516E-02 
2027	 1.03120592279346E-02 
2028	 8.26631587345759E-03 
2029	 9.21620148337392E-03 
2030	 1.19982036033625E-02 
2031	 1.14414836638811E-02 
2032	 0.011159034155012 
2033	 1.21670270560024E-02 
2034	 1.29323083056166E-02 
2035	 1.34810182476239E-02 
2036	 1.35638897467224E-02 
2037	 1.33534611488918E-02 
2038	 1.22022252163536E-02 
2039	 0.012100879313905 
2040	 1.36034724370035E-02 
2041	 1.38534579724497E-02 
2042	 1.33032652727172E-02 
2043	 1.33155174872759E-02 
2044	 1.30566049556296E-02 
2045	 1.27029058386788E-02 
2046	 1.30448969909107E-02 
2047	 1.40056324550405E-02 
2048	 1.36529160943116E-02 
2049	 1.27112467735866E-02 
2050	 1.34334612524703E-02 
2051	 0.014247475621495 
2052	 1.37520885123647E-02 
2053	 1.47360010301189E-02 
2054	 1.45550354301287E-02 
2055	 1.21800444945466E-02 
2056	 1.20698633154913E-02 
2057	 1.37199170432079E-02 
2058	 1.40208904393988E-02 
2059	 1.51504665720259E-02 
2060	 1.62226770752413E-02 
2061	 1.73230715485025E-02 
2062	 1.66763347576329E-02 
2063	 1.67310555250799E-02 
2064	 1.65469264181105E-02 
2065	 1.49598267493392E-02 
2066	 1.57171728618045E-02 
2067	 1.72708383373399E-02 
2068	 1.60656493916328E-02 
2069	 1.47022145341313E-02 
2070	 1.39880241034922E-02 
2071	 1.38516091924861E-02 
2072	 1.46347811181219E-02 
2073	 1.51215563301126E-02 
2074	 1.67991540006899E-02 
2075	 1.70220170638561E-02 
2076	 1.56325836416345E-02 
2077	 0.016034934846748 
2078	 1.77877654879736E-02 
2079	 1.78270920720764E-02 
2080	 1.74290876010465E-02 
2081	 1.77584174139284E-02 
2082	 1.68881610257402E-02 
2083	 1.60578847666182E-02 
2084	 1.69521766388372E-02 
2085	 1.68335173154566E-02 
2086	 1.68216973041486E-02 
2087	 1.76370506898571E-02 
2088	 1.77348117076742E-02 
2089	 1.81753671118946E-02 
2090	 1.81032876487123E-02 
2091	 1.71519052876679E-02 
2092	 1.68057301844372E-02 
2093	 1.64616252032667E-02 
2094	 1.65004106140454E-02 
2095	 1.68539247452705E-02 
2096	 1.73448375790589E-02 
2097	 0.01839254081193 
2098	 1.89768741020552E-02 
2099	 1.95948617329726E-02 
2100	 1.98527269758445E-02 
2101	 1.99037130280191E-02 
2102	 1.98938004913404E-02 
2103	 1.93566963445986E-02 
2104	 1.90900635579625E-02 
2105	 1.87357233601933E-02 
2106	 1.75088691992578E-02 
2107	 1.69952186342818E-02 
2108	 1.73870150172022E-02 
2109	 1.79203927773816E-02 
2110	 1.87956481275735E-02 
2111	 1.93261396681865E-02 
2112	 1.88408506053946E-02 
2113	 1.85018273250963E-02 
2114	 1.74077557286355E-02 
2115	 0.017104656401974 
2116	 1.69555846375868E-02 
2117	 1.72307764759462E-02 
2118	 1.86676408754151E-02 
2119	 1.89946991493766E-02 
2120	 1.91708654879519E-02 
2121	 1.86381442411512E-02 
2122	 1.82558654570645E-02 
2123	 0.017375611657486 
2124	 1.75035258052591E-02 
2125	 0.018565468796783 
2126	 1.87070851077887E-02 
2127	 1.87835745827095E-02 
2128	 1.96297681958338E-02 
2129	 1.94071614496582E-02 
2130	 1.90316456303282E-02 
2131	 0.019183577207484 
2132	 1.74438438616253E-02 
2133	 1.66017195614294E-02 
2134	 1.70830093487103E-02 
2135	 1.92284367726831E-02 
2136	 1.97995787721002E-02 
2137	 2.11749945263513E-02 
2138	 2.12410470052903E-02 
2139	 1.90011336491312E-02 
2140	 1.84891388487668E-02 
2141	 0.019084971087855 
2142	 1.89554845192754E-02 
2143	 0.01856191585568 
2144	 1.89207622933083E-02 
2145	 2.02566517433411E-02 
2146	 2.00395002940199E-02 
2147	 1.97716034749721E-02 
2148	 2.05785878543977E-02 
2149	 2.06388466130946E-02 
2150	 2.09689005785789E-02 
2151	 2.14102448215767E-02 
2152	 2.12052161504521E-02 
2153	 0.021080850513246 
2154	 0.019325757311721 
2155	 1.82953914190345E-02 
2156	 1.90896104062994E-02 
2157	 1.95476982763021E-02 
2158	 2.01490428958034E-02 
2159	 2.04974499600953E-02 
2160	 2.14477590162659E-02 
2161	 2.16595881542326E-02 
2162	 0.020757266603734 
2163	 2.06453432138582E-02 
2164	 2.07264949347235E-02 
2165	 2.07504563373746E-02 
2166	 2.11229675033391E-02 
2167	 2.08378756134411E-02 
2168	 2.02121137773403E-02 
2169	 2.02750495818049E-02 
2170	 2.00998895558251E-02 
2171	 2.04881078824467E-02 
2172	 2.14668010642925E-02 
2173	 2.07727414618366E-02 
2174	 2.04280355851809E-02 
2175	 1.99191897832053E-02 
2176	 1.88568911583058E-02 
2177	 1.95911924529911E-02 
2178	 0.020349491951446 
2179	 2.02149894394894E-02 
2180	 1.99890918906642E-02 
2181	 1.99744565397254E-02 
2182	 2.05396059990784E-02 
2183	 2.12617974931716E-02 
2184	 2.15452546202656E-02 
2185	 0.021961156106172 
2186	 2.24164414012312E-02 
2187	 0.021907963683118 
2188	 2.17159150488808E-02 
2189	 2.25274788239065E-02 
2190	 2.29963871469874E-02 
2191	 2.30050279348331E-02 
2192	 2.25604165045155E-02 
2193	 2.17423804359175E-02 
2194	 2.14004584441953E-02 
2195	 2.02644668800428E-02 
2196	 0.020444108544007 
2197	 2.31037954716199E-02 
2198	 0.023217149733733 
2199	 2.19511169180121E-02 
2200	 2.11118282257331E-02 
2201	 2.03388853351566E-02 
2202	 2.01399339303668E-02 
2203	 2.00384012157832E-02 
2204	 2.00055929452236E-02 
2205	 1.98550407797906E-02 
2206	 0.019262985928519 
2207	 1.95342980639255E-02 
2208	 1.97584190299335E-02 
2209	 1.95430447441071E-02 
2210	 1.96703042803166E-02 
2211	 1.91565889947659E-02 
2212	 1.96974449315254E-02 
2213	 0.020225393411991 
2214	 1.92515044532942E-02 
2215	 1.91700353256252E-02 
2216	 1.83665561669309E-02 
2217	 1.88293489091713E-02 
2218	 2.12190815632068E-02 
2219	 2.01130233924782E-02 
2220	 1.69562234718928E-02 
2221	 0.017038577505937 
2222	 1.52519193640539E-02 
2223	 1.59631559300345E-02 
2224	 2.29622511285218E-02 
2225	 2.40451457566826E-02 
2226	 2.13107660186109E-02 
2227	 0.02065723579889 
2228	 1.86283540346433E-02 
2229	 1.79616161313179E-02 
2230	 1.91810975053616E-02 
2231	 1.97393273388259E-02 
2232	 1.93940636192789E-02 
2233	 1.99430730675894E-02 
2234	 2.12571828551283E-02 
2235	 2.26910886552837E-02 
2236	 2.37048025331942E-02 
2237	 2.37548455113386E-02 
2238	 2.27393459974105E-02 
2239	 2.13338205174234E-02 
2240	 1.97410905612119E-02 
2241	 0.018316949747001 
2242	 0.016783249918719 
2243	 1.65285096990943E-02 
2244	 1.89360671199315E-02 
2245	 2.27092022554035E-02 
2246	 2.47509696840134E-02 
2247	 2.40811029112197E-02 
2248	 2.25215156874085E-02 
2249	 2.07499206137236E-02 
2250	 1.94818695404214E-02 
2251	 1.90616405855595E-02 
2252	 1.88815812190898E-02 
2253	 1.81473717671754E-02 
2254	 1.87632566891157E-02 
2255	 2.23439011866184E-02 
2256	 2.32293697408249E-02 
2257	 2.29789074549879E-02 
2258	 2.33080094168737E-02 
2259	 2.09538695112753E-02 
2260	 2.00728570542468E-02 
2261	 2.02976311271089E-02 
2262	 1.94643780948403E-02 
2263	 1.84562851845287E-02 
2264	 1.86022467837384E-02 
2265	 1.88383543925316E-02 
2266	 1.92453787977272E-02 
2267	 1.95776665403516E-02 
2268	 1.99719526685253E-02 
2269	 2.17015811937121E-02 
2270	 2.17698259316519E-02 
2271	 2.14927597908896E-02 
2272	 2.12483671426811E-02 
2273	 1.90080496943895E-02 
2274	 1.75671750702373E-02 
2275	 1.61347993523319E-02 
2276	 1.62104224653216E-02 
2277	 1.82722365015045E-02 
2278	 1.88713535068849E-02 
2279	 2.02686043672632E-02 
2280	 2.07900027607447E-02 
2281	 2.13759645278825E-02 
2282	 0.016680283643371 
2283	 0.011581974507063 
2284	 1.14817665193021E-02 
2285	 1.32883247227154E-02 
2286	 1.51361406031391E-02 
2287	 2.04754931161574E-02 
2288	 2.18233571387292E-02 
2289	 0.019709601405198 
2290	 2.09230489171598E-02 
2291	 1.88392625411965E-02 
2292	 1.61018110012241E-02 
2293	 1.44290893062904E-02 
2294	 1.08769265064577E-02 
2295	 9.72652062114985E-03 
2296	 1.05036422963291E-02 
2297	 1.00014505184424E-02 
2298	 9.33317010623847E-03 
2299	 1.16970972005907E-02 
2300	 1.53984152776531E-02 
2301	 1.41642219044356E-02 
2302	 1.43408396607201E-02 
2303	 1.83928127123278E-02 
2304	 1.85404203009224E-02 
2305	 2.02395493938896E-02 
2306	 2.01987522975235E-02 
2307	 1.81239275171667E-02 
2308	 1.92248274324974E-02 
2309	 1.77042652502316E-02 
2310	 1.76467824643221E-02 
2311	 1.93213240412453E-02 
2312	 1.85597173080713E-02 
2313	 1.97061297003196E-02 
2314	 2.24055104623276E-02 
2315	 2.04410948828606E-02 
2316	 1.97970780600629E-02 
2317	 2.35439917818375E-02 
2318	 2.25353038124088E-02 
2319	 2.18566726998859E-02 
2320	 1.90514526812462E-02 
2321	 9.62767562960234E-03 
2322	 7.01694771418818E-03 
2323	 9.15768742421682E-03 
2324	 9.94260061948818E-03 
2325	 1.20386903483035E-02 
2326	 1.35237165612765E-02 
2327	 1.15965901086622E-02 
2328	 7.13025800506234E-03 
2329	 4.87991888879838E-03 
2330	 5.16338411724406E-03 
2331	 8.01333453780359E-03 
2332	 1.19264053330794E-02 
2333	 1.53177938723105E-02 
2334	 2.14012477550654E-02 
2335	 2.46134655437492E-02 
2336	 2.52231415777555E-02 
2337	 2.82398905924527E-02 
2338	 2.50385529442253E-02 
2339	 1.80624345976396E-02 
2340	 1.44471117038784E-02 
2341	 4.79781363651717E-03 
2342	-3.09557660213265E-03 
2343	-1.22388963022846E-03 
2344	-1.17577286735845E-03 
2345	-9.55780670922512E-04 
2346	-5.86842214762694E-04 
2347	-5.35334112790203E-03 
2348	-1.11093586825718E-02 
2349	-1.36494310670645E-02 
2350	-9.50929937802204E-03 
2351	-1.28622602088936E-03 
2352	-1.24553130213499E-03 
2353	-4.27264770423935E-04 
2354	 1.04101626186552E-02 
2355	 2.21240736023961E-03 
2356	-5.58900405466308E-03 
2357	-2.64578823343489E-03 
2358	-2.38718207947958E-02 
2359	-3.04677806468768E-02 
2360	-1.49329315706506E-02 
2361	-2.70807452904458E-03 
2362	 1.01990573624708E-02 
2363	 1.12513730510255E-02 
2364	 1.41630547856502E-02 
2365	 4.10917887459027E-03 
2366	-1.12879446415667E-02 
2367	-3.0607872390489E-03 
2368	 3.80649065549304E-03 
2369	 0.024147206748157 
2370	 3.62540306990614E-02 
2371	 2.02227424682974E-02 
2372	-2.95820766129809E-03 
2373	-0.034706277315429 
2374	-3.72321755416181E-02 
2375	-3.17900279075439E-03 
2376	 3.21146972794912E-02 
2377	 5.34927639285456E-02 
2378	 4.67927626013747E-02 
2379	 1.63253871018019E-02 
2380	 4.97547373029155E-03 
2381	 2.43347827848194E-02 
2382	 4.35123424114956E-02 
2383	 4.25730351843692E-02 
2384	 2.25122899394021E-02 
2385	 3.62653724714757E-03 
2386	 2.05774023757708E-03 
2387	 1.74393933301791E-02 
2388	 4.63790025224744E-02 
2389	 5.75186240733895E-02 
2390	 2.69337166475958E-02 
2391	-9.80368730800411E-03 
2392	-1.53021546149659E-02 
2393	 0.010149667633761 
2394	 1.67223946927851E-02 
2395	 2.00067997518959E-02 
2396	 1.60652089875567E-02 
2397	-5.48517205562318E-02 
2398	-8.10294106955025E-02 
2399	-5.15469123708487E-02 
2400	-6.12534323883055E-02 
2401	-5.62309216735244E-02 
2402	-5.16794074053413E-02 
2403	-6.58495319207517E-02 
2404	-4.15413235695011E-02 
2405	-8.84291032051111E-03 
2406	-1.50782742346124E-02 
2407	-2.80853258566634E-02 
2408	-2.61778824044384E-02 
2409	-3.58263765913051E-02 
2410	-4.16591793690412E-02 
2411	-1.76621422629161E-02 
2412	 1.35231490242716E-02 
2413	-5.97881495705863E-02 
2414	-8.99892847283096E-02 
2415	-2.50784536018015E-02 
2416	-0.127353587138951 
2417	-0.117292433567014 
2418	 1.69320369412514E-02 
2419	-3.48749263373165E-02 
2420	-4.14523914774317E-02 
2421	 2.41781087294553E-02 
2422	 3.43853878002801E-02 
2423	 0.063134396776198 
2424	 8.81494957646462E-02 
2425	 0.141937185758587 
2426	 0.129897009269808 
2427	 0.012069439304773 
2428	-6.72907413773271E-02 
2429	-0.115222162519263 
2430	-0.161795768167832 
2431	-0.152606366013973 
2432	-7.04556201246408E-02 
2433	 3.62871131266911E-02 
2434	 9.80105548298107E-02 
2435	 0.177346326117645 
2436	 0.232396676649888 
2437	 0.196707870432489 
2438	 0.101938768781027 
2439	 4.41199119942477E-02 
2440	 3.28736129084243E-02 
2441	 8.0727116167019E-03 
2442	-2.99511226637664E-02 
2443	-6.65035092708001E-02 
2444	-0.11865006029822 
2445	-0.160495756697627 
2446	-0.172331003352077 
2447	-0.195017890335763 
2448	-0.212134680169955 
2449	-0.246656696076942 
2450	-0.437066254602216 
2451	-0.706362200127138 
2452	-0.697495214020294 
2453	-0.627473218604761 
2454	-0.366035945358142 
2455	-0.159571515189777 
2456	-0.106790447200328 
2457	-5.04712076213942E-02 
2458	 9.01889320063636E-03 
2459	-6.37073572381304E-02 
2460	-0.176642625211865 
2461	-0.237237911899817 
2462	-0.310124785260216 
2463	-0.453863963692228 
2464	-0.30077654256779 
2465	-2.90135206291497E-02 
2466	-0.113193374124158 
2467	-0.191521032422521 
2468	-0.196061338835909 
2469	-0.311239435240235 
2470	-0.34225238547867 
2471	-0.164238558339166 
2472	-0.25356316490796 
2473	-1.15826897883078 
2474	-1.50645897723477 
2475	-1.23579613607597 
2476	-0.78445520862529 
2477	-0.278855989774181 
2478	-0.226119485210196 
2479	 3.59038706623744E-02 
2480	 0.341649384196564 
2481	-9.33852309095111E-03 
2482	-0.811345545979229 
2483	-18.1035545675177 
2484	 10.6927848244864 
2485	-26.5954271937575 
2486	-3.98353727199097 
2487	-14.3316714175118 
2488	 2.42718723070171 
2489	 1.81887024670956 
2490	 1.3045698824229 
2491	 0.483056943108994 
2492	 0.742779197030163 
2493	 0.163871496409867 
2494	 1.44737002856448 
2495	 1.77384155822843 
2496	 1.55529013034461 
2497	-0.533416245306607 
2498	-0.298510045470952 
2499	-0.205542085182566 
2500	-0.837615104659968 
