Wavelength	rt0711a300007.asd
350	 0.123648556789417 
351	 0.125076956637832 
352	 0.126398499086476 
353	 0.127793782930095 
354	 0.129282126329503 
355	 0.130632986420223 
356	 0.132237781346202 
357	 0.133745019265117 
358	 0.134827820948521 
359	 0.136271673693849 
360	 0.137602818966088 
361	 0.139154621508838 
362	 0.14150949860944 
363	 0.141760550927349 
364	 0.142123796790793 
365	 0.143713981371689 
366	 0.145072331781907 
367	 0.146435416469177 
368	 0.147527677985696 
369	 0.148297134934786 
370	 0.14981217132982 
371	 0.151124494475054 
372	 0.1522132079999 
373	 0.153531544515379 
374	 0.154369995172346 
375	 0.155425473050939 
376	 0.156838498993428 
377	 0.157827397136195 
378	 0.158507870880652 
379	 0.159200900176687 
380	 0.160119877265657 
381	 0.160968883439018 
382	 0.161822901061904 
383	 0.162438016048758 
384	 0.162606256645049 
385	 0.1633481276078 
386	 0.163951870076945 
387	 0.164266106677466 
388	 0.164891874115835 
389	 0.165245699118202 
390	 0.165469520398491 
391	 0.165753380828341 
392	 0.16609536748799 
393	 0.165927289247442 
394	 0.16581660781874 
395	 0.166356542906164 
396	 0.166010337647715 
397	 0.165489734708679 
398	 0.165087951500437 
399	 0.16462052025906 
400	 0.164225001103388 
401	 0.163726562041791 
402	 0.163155023129617 
403	 0.163124492439411 
404	 0.16302714526336 
405	 0.16279364388173 
406	 0.162508708887876 
407	 0.161898409074534 
408	 0.161279775659522 
409	 0.160716798531861 
410	 0.160004139266884 
411	 0.159341157210652 
412	 0.15882901565791 
413	 0.158415415051591 
414	 0.157732983836807 
415	 0.157107636339854 
416	 0.156543847253958 
417	 0.155934985988141 
418	 0.155345704589301 
419	 0.154854997672299 
420	 0.154451365295331 
421	 0.154030368440938 
422	 0.153671209614542 
423	 0.153349188827671 
424	 0.153109820391931 
425	 0.153259265483922 
426	 0.153504333914178 
427	 0.153714009060962 
428	 0.153872856961896 
429	 0.154163104662041 
430	 0.15444944602359 
431	 0.15471776841627 
432	 0.155128442670513 
433	 0.155374192863679 
434	 0.155529440169094 
435	 0.1557258595697 
436	 0.156008675929971 
437	 0.156179977222824 
438	 0.156210317172436 
439	 0.15616574885057 
440	 0.156047879286997 
441	 0.155783428521457 
442	 0.155406036148816 
443	 0.155115599486537 
444	 0.154746532954341 
445	 0.154301399616291 
446	 0.153825128854234 
447	 0.153326418996481 
448	 0.152872184741675 
449	 0.152391337279011 
450	 0.151740253250801 
451	 0.151228148158143 
452	 0.150813782221322 
453	 0.150377203236432 
454	 0.14974272680357 
455	 0.149186609021237 
456	 0.148670822481486 
457	 0.148080186638032 
458	 0.147550705382563 
459	 0.14700559117328 
460	 0.146432265803492 
461	 0.145893256975887 
462	 0.145349524659022 
463	 0.144868010884145 
464	 0.144445284306102 
465	 0.14381703068025 
466	 0.143336231647032 
467	 0.142919338164564 
468	 0.142318007191071 
469	 0.141821052431915 
470	 0.141360540016027 
471	 0.140866499138222 
472	 0.140312377334899 
473	 0.139802374024235 
474	 0.139434604380157 
475	 0.139195272497936 
476	 0.13870610692501 
477	 0.138275084510175 
478	 0.137993748347126 
479	 0.137785665282492 
480	 0.137547973413557 
481	 0.137406597807892 
482	 0.137408651862301 
483	 0.137377748637727 
484	 0.137414972350665 
485	 0.137435930323483 
486	 0.137340755589497 
487	 0.137307284834772 
488	 0.137241832596566 
489	 0.137233748352634 
490	 0.137535446238806 
491	 0.137724918814847 
492	 0.137929340673319 
493	 0.138231274793641 
494	 0.138270948382154 
495	 0.13839255729731 
496	 0.138685440718921 
497	 0.139082118348332 
498	 0.139421498213593 
499	 0.139615264625272 
500	 0.139699410650549 
501	 0.139874351857451 
502	 0.140099769317339 
503	 0.140237825711133 
504	 0.140225155552849 
505	 0.140401322290833 
506	 0.140631769224288 
507	 0.140850747331869 
508	 0.14105472855004 
509	 0.141164685633522 
510	 0.141356438620177 
511	 0.141714597280174 
512	 0.142023687039 
513	 0.142378529987358 
514	 0.142827060012758 
515	 0.143369615761979 
516	 0.143818503591466 
517	 0.144355087485537 
518	 0.144996364473399 
519	 0.145522883891477 
520	 0.146272234816137 
521	 0.147201168079796 
522	 0.148208566742789 
523	 0.149293571253667 
524	 0.150516755098225 
525	 0.151936594459023 
526	 0.15357276376235 
527	 0.155013267457737 
528	 0.156480383707659 
529	 0.158182649853238 
530	 0.160144530528227 
531	 0.16220169111193 
532	 0.164370885098385 
533	 0.166693928130183 
534	 0.168969827300982 
535	 0.171426139203974 
536	 0.174107423876735 
537	 0.176812667631554 
538	 0.17958374101377 
539	 0.182415578148215 
540	 0.185272262152218 
541	 0.188047254340165 
542	 0.190861109722166 
543	 0.193657130775778 
544	 0.196298861250391 
545	 0.198950518079889 
546	 0.201499835751954 
547	 0.203891778699113 
548	 0.206252660959219 
549	 0.208511451736456 
550	 0.210646762258388 
551	 0.212671442615618 
552	 0.214660565472834 
553	 0.216532603891402 
554	 0.218347116281839 
555	 0.220315017194038 
556	 0.222308383110272 
557	 0.22429326274929 
558	 0.22623881658243 
559	 0.228138075044153 
560	 0.229951413929808 
561	 0.2317607116761 
562	 0.233711577702573 
563	 0.235639588753152 
564	 0.237524381687698 
565	 0.239374968033606 
566	 0.241226422239591 
567	 0.24306830612696 
568	 0.244830735843222 
569	 0.246453344126228 
570	 0.248087249432746 
571	 0.249621548464238 
572	 0.251027689011267 
573	 0.252382726659847 
574	 0.253763338868691 
575	 0.255086796306641 
576	 0.256279314185453 
577	 0.257483582382816 
578	 0.258413229890449 
579	 0.259168053239505 
580	 0.260065190961778 
581	 0.260959519824035 
582	 0.26184716885741 
583	 0.262757291456872 
584	 0.263764544606445 
585	 0.2645935420854 
586	 0.265263279977718 
587	 0.265904685267182 
588	 0.266567227435346 
589	 0.267016026969364 
590	 0.267247350238455 
591	 0.267539145387948 
592	 0.267946520661886 
593	 0.268282068579783 
594	 0.268404837895269 
595	 0.268506705873899 
596	 0.268598921857569 
597	 0.268693395122769 
598	 0.268797082819016 
599	 0.268914528646952 
600	 0.26905603666163 
601	 0.269238090990841 
602	 0.269491338050983 
603	 0.269723557618408 
604	 0.270000283316645 
605	 0.270387602720759 
606	 0.270674928999202 
607	 0.271011558335411 
608	 0.271355741206702 
609	 0.271469830739735 
610	 0.271759208846785 
611	 0.27213370314361 
612	 0.272435277207054 
613	 0.272627349135748 
614	 0.272840983993189 
615	 0.273070929789435 
616	 0.273243035438996 
617	 0.273447079022215 
618	 0.273687263243941 
619	 0.273963529024074 
620	 0.274286746539952 
621	 0.274542116008129 
622	 0.274729598113406 
623	 0.274902145223772 
624	 0.275155976762509 
625	 0.275341195750478 
626	 0.275482879662751 
627	 0.275765084706013 
628	 0.2759532489097 
629	 0.276194821682202 
630	 0.276561465598788 
631	 0.276733658017538 
632	 0.27683940392529 
633	 0.277001207393134 
634	 0.277314614902977 
635	 0.27766096097791 
636	 0.277865839148457 
637	 0.27795195212771 
638	 0.27822432622842 
639	 0.278489091109692 
640	 0.278672851537817 
641	 0.278784099426454 
642	 0.27903618640709 
643	 0.27917227799317 
644	 0.27923125199493 
645	 0.279466137688073 
646	 0.27940783425892 
647	 0.279401333396728 
648	 0.279670227328569 
649	 0.279836349816393 
650	 0.279865579371425 
651	 0.279874152985262 
652	 0.279988518851519 
653	 0.279910446963525 
654	 0.279782875628014 
655	 0.279611191587233 
656	 0.279215288994932 
657	 0.278999729478694 
658	 0.278840154476981 
659	 0.278577004211254 
660	 0.278300418323666 
661	 0.278161690620699 
662	 0.278050789129036 
663	 0.277738825945164 
664	 0.277605966331746 
665	 0.277484340151424 
666	 0.277279324879178 
667	 0.27715634629785 
668	 0.277027856194216 
669	 0.276973290199155 
670	 0.277062340112844 
671	 0.27704636107641 
672	 0.27708578307964 
673	 0.277208906832062 
674	 0.277308406071181 
675	 0.277442863877863 
676	 0.277592291062058 
677	 0.277766203976939 
678	 0.278097893132439 
679	 0.27835651757631 
680	 0.278590361337676 
681	 0.278955951741063 
682	 0.279368364652819 
683	 0.279821079417014 
684	 0.280267135359933 
685	 0.28063390964404 
686	 0.280993469365437 
687	 0.28135713167984 
688	 0.281709954925987 
689	 0.282087473857778 
690	 0.2823834512793 
691	 0.28255803213789 
692	 0.282625805510511 
693	 0.282710447291594 
694	 0.282908010233023 
695	 0.283134934135357 
696	 0.283071454670579 
697	 0.282902404155982 
698	 0.282661548584862 
699	 0.282374757505951 
700	 0.28215786474413 
701	 0.281950314855922 
702	 0.28170965239626 
703	 0.281406876692799 
704	 0.28093873650166 
705	 0.280395987663015 
706	 0.279866029017436 
707	 0.279337069592885 
708	 0.27874275802882 
709	 0.278066187023369 
710	 0.277295449648141 
711	 0.276350534791322 
712	 0.275235809245464 
713	 0.274003930423654 
714	 0.272716885200346 
715	 0.271328727570261 
716	 0.269805069302909 
717	 0.26824653650996 
718	 0.266790060688882 
719	 0.265386431401499 
720	 0.264082940297681 
721	 0.262726434220822 
722	 0.261347423451197 
723	 0.259677169523581 
724	 0.257845376164696 
725	 0.256119659726681 
726	 0.254315934040288 
727	 0.252225423015607 
728	 0.249829215372483 
729	 0.247563917264164 
730	 0.245100568973735 
731	 0.242636187050105 
732	 0.240472192697417 
733	 0.238658716423806 
734	 0.236886898470588 
735	 0.235221261956081 
736	 0.234216824475318 
737	 0.233299135021695 
738	 0.232531865904618 
739	 0.232056490213581 
740	 0.231718453791875 
741	 0.231490690434791 
742	 0.231334150470758 
743	 0.231213908770624 
744	 0.231188937505137 
745	 0.231118762895485 
746	 0.231004124065923 
747	 0.23105621301315 
748	 0.231011724488502 
749	 0.230932536300291 
750	 0.230925388897988 
751	 0.230957037065589 
752	 0.230984527078996 
753	 0.230980619726108 
754	 0.230940588277592 
755	 0.230975152171437 
756	 0.230747337908567 
757	 0.230264132360787 
758	 0.230058490049465 
759	 0.230673368339639 
760	 0.231449697728352 
761	 0.230955115378147 
762	 0.231239057574145 
763	 0.231482849422924 
764	 0.231705843413563 
765	 0.232079528290982 
766	 0.232138532092784 
767	 0.232131976588543 
768	 0.232184399574434 
769	 0.23230368084822 
770	 0.232558168826853 
771	 0.232846217497722 
772	 0.23309121518109 
773	 0.233381155915586 
774	 0.233704767494295 
775	 0.234034393252859 
776	 0.234346690346187 
777	 0.234678887001253 
778	 0.235019494279351 
779	 0.235361714911037 
780	 0.235711980252515 
781	 0.236132846951272 
782	 0.236540705293427 
783	 0.236907749751624 
784	 0.237402373503769 
785	 0.237809681932095 
786	 0.238237436806829 
787	 0.238818940283214 
788	 0.23919243232527 
789	 0.239629449644422 
790	 0.240209274842884 
791	 0.240814663563047 
792	 0.241224262170635 
793	 0.241625865256066 
794	 0.242148053329407 
795	 0.242719897276302 
796	 0.243060584933321 
797	 0.243365824287415 
798	 0.243835493596741 
799	 0.244147619788766 
800	 0.244455243140069 
801	 0.244786521210304 
802	 0.24510430888512 
803	 0.24544573733163 
804	 0.245617749183252 
805	 0.245601944121011 
806	 0.245585524336977 
807	 0.245595475706266 
808	 0.245486495956272 
809	 0.245136019221377 
810	 0.244533685779978 
811	 0.244175858689597 
812	 0.243952217699633 
813	 0.243530496982895 
814	 0.243020604727408 
815	 0.242516262787752 
816	 0.242023775401863 
817	 0.241448907724858 
818	 0.240663687943972 
819	 0.239559925405497 
820	 0.238355287083712 
821	 0.237725865016465 
822	 0.236453568290796 
823	 0.234620806466403 
824	 0.232661516585477 
825	 0.230624808266057 
826	 0.228484292682825 
827	 0.226177515830441 
828	 0.223774628598688 
829	 0.221314600868159 
830	 0.21917440784471 
831	 0.217403633952861 
832	 0.215828794294705 
833	 0.214350712275474 
834	 0.213119536642824 
835	 0.212182560853121 
836	 0.211428504834964 
837	 0.210610748410438 
838	 0.209900808434157 
839	 0.209424189839229 
840	 0.208932543528434 
841	 0.208535316291941 
842	 0.208136899080289 
843	 0.207613308045337 
844	 0.20703749811587 
845	 0.206556984214258 
846	 0.206126236458753 
847	 0.205607067824125 
848	 0.205374334395405 
849	 0.204970566405553 
850	 0.20428134360784 
851	 0.203743093790747 
852	 0.203714537218341 
853	 0.203583409198542 
854	 0.202977879698264 
855	 0.202491373463469 
856	 0.202012389192482 
857	 0.201534380413591 
858	 0.201106515506191 
859	 0.200948385605124 
860	 0.200619603093614 
861	 0.200062862075558 
862	 0.199494637319966 
863	 0.199391607521032 
864	 0.199314762228216 
865	 0.199002057139789 
866	 0.198466295886716 
867	 0.197985669665134 
868	 0.19746794742139 
869	 0.196883352065652 
870	 0.196356582040791 
871	 0.196065131236329 
872	 0.195498672605943 
873	 0.194524045389974 
874	 0.194162178202716 
875	 0.193872239411431 
876	 0.193208497917675 
877	 0.192128775832438 
878	 0.191871964876752 
879	 0.191599052680106 
880	 0.191100958974914 
881	 0.19047024569338 
882	 0.189495939863534 
883	 0.188950591840833 
884	 0.188523441567216 
885	 0.187305867365425 
886	 0.186938785183663 
887	 0.186596997791836 
888	 0.185879079344099 
889	 0.185180278894246 
890	 0.184538546710491 
891	 0.183966226333749 
892	 0.183485381321355 
893	 0.183158387016257 
894	 0.182645578862507 
895	 0.182307536816954 
896	 0.182254662392152 
897	 0.181184198603292 
898	 0.180886509506149 
899	 0.180673940461924 
900	 0.179541862732557 
901	 0.178581174737649 
902	 0.177974808138598 
903	 0.177390070762953 
904	 0.176505151469585 
905	 0.176112591433996 
906	 0.176173328112973 
907	 0.176051501393536 
908	 0.174936235465907 
909	 0.174013090242786 
910	 0.173217954953493 
911	 0.172457373982223 
912	 0.171729288730004 
913	 0.171173977230969 
914	 0.170315894227442 
915	 0.169167308471159 
916	 0.168281401477653 
917	 0.166796499525582 
918	 0.16532093675448 
919	 0.164255142334588 
920	 0.163427827530434 
921	 0.162153156758445 
922	 0.160934266844144 
923	 0.159949931435443 
924	 0.158225871072332 
925	 0.156400571136415 
926	 0.15523087097223 
927	 0.155008749112461 
928	 0.154132900262937 
929	 0.152809821678155 
930	 0.151889001229907 
931	 0.152522096214258 
932	 0.153995429211828 
933	 0.151991840034132 
934	 0.148325172371658 
935	 0.146792728264065 
936	 0.142080866697121 
937	 0.140454185129958 
938	 0.139605161954405 
939	 0.136629053510663 
940	 0.137684239035685 
941	 0.136752350935035 
942	 0.135260779140495 
943	 0.13704560603454 
944	 0.135988832288683 
945	 0.133732953598452 
946	 0.131818066088121 
947	 0.131062931527748 
948	 0.131131288113948 
949	 0.129465084428864 
950	 0.126791660002853 
951	 0.125723712412872 
952	 0.125943508801346 
953	 0.124570023631944 
954	 0.122140822318607 
955	 0.121388846964449 
956	 0.121727758521427 
957	 0.122082981157477 
958	 0.11994379010601 
959	 0.113981612895372 
960	 0.116876965532823 
961	 0.116771795188292 
962	 0.113865523964303 
963	 0.116695867950539 
964	 0.116235037283495 
965	 0.114423366502111 
966	 0.113005624749994 
967	 0.112596920776505 
968	 0.112180454094894 
969	 0.113051534534342 
970	 0.113947995918072 
971	 0.112108163500414 
972	 0.112919995488076 
973	 0.11359358233148 
974	 0.113373443845978 
975	 0.11403901189473 
976	 0.113089944427547 
977	 0.113256709450625 
978	 0.114068741604887 
979	 0.112594857322161 
980	 0.113393470870769 
981	 0.11449842094461 
982	 0.114418545200672 
983	 0.113209983541808 
984	 0.114556038852676 
985	 0.114171789483308 
986	 0.112921179467144 
987	 0.115161036895337 
988	 0.115041230852855 
989	 0.114602342936549 
990	 0.114963804354912 
991	 0.115560956312225 
992	 0.113548484014996 
993	 0.114138370325541 
994	 0.115898959994537 
995	 0.113792142976579 
996	 0.113649010349047 
997	 0.11542654468341 
998	 0.117130889339581 
999	 0.116664569652718 
1000	 0.116799829518479 
1001	 0.122130981646549 
1002	 0.122972483274286 
1003	 0.123376968776836 
1004	 0.123709703477543 
1005	 0.123893313527231 
1006	 0.123691426614074 
1007	 0.12366305306362 
1008	 0.123687011940588 
1009	 0.124010263598336 
1010	 0.12503200410669 
1011	 0.125791889942077 
1012	 0.126288138751656 
1013	 0.126994241188536 
1014	 0.127290690230563 
1015	 0.126919230230754 
1016	 0.127031908700123 
1017	 0.127185823261724 
1018	 0.127382780343298 
1019	 0.127753987767137 
1020	 0.128031988092586 
1021	 0.128219886623229 
1022	 0.128698311830275 
1023	 0.128907761999436 
1024	 0.129039975217283 
1025	 0.129237584609087 
1026	 0.129596815751436 
1027	 0.130294149982029 
1028	 0.131521284165742 
1029	 0.132098513975297 
1030	 0.132649366453538 
1031	 0.133136268649645 
1032	 0.13325574185222 
1033	 0.133448149955248 
1034	 0.133831949951577 
1035	 0.134108855549147 
1036	 0.133928158615323 
1037	 0.134184773977408 
1038	 0.135061673564361 
1039	 0.135196532077794 
1040	 0.135551442441516 
1041	 0.136057885395567 
1042	 0.136323165114314 
1043	 0.136267556696307 
1044	 0.136610057527291 
1045	 0.137091242277586 
1046	 0.137481701174462 
1047	 0.138239408358354 
1048	 0.138441633787327 
1049	 0.1381364782205 
1050	 0.138210738827334 
1051	 0.137979736027955 
1052	 0.138148438526979 
1053	 0.139150488226402 
1054	 0.139445780575277 
1055	 0.139469296886675 
1056	 0.139537879903995 
1057	 0.139446234743179 
1058	 0.138621401083656 
1059	 0.138957592678416 
1060	 0.140061929445752 
1061	 0.140408020942941 
1062	 0.141196803982423 
1063	 0.141223784676137 
1064	 0.140119630723864 
1065	 0.139906254823931 
1066	 0.139887873100067 
1067	 0.139864889798479 
1068	 0.140387611631543 
1069	 0.140453814716454 
1070	 0.140162200268501 
1071	 0.139978727375914 
1072	 0.139747504061886 
1073	 0.139354909502037 
1074	 0.139147964492838 
1075	 0.139055298696136 
1076	 0.138958432618882 
1077	 0.139005619040654 
1078	 0.138740424128189 
1079	 0.138308550119307 
1080	 0.137956008814719 
1081	 0.137389304427201 
1082	 0.137020941265728 
1083	 0.136988171154386 
1084	 0.13663527620909 
1085	 0.135994095289327 
1086	 0.13554117140157 
1087	 0.135166252121723 
1088	 0.134613398770801 
1089	 0.133692358930782 
1090	 0.133411802912188 
1091	 0.133253440967335 
1092	 0.133228758242331 
1093	 0.132839702820623 
1094	 0.13277951834121 
1095	 0.132333918448088 
1096	 0.1310647889942 
1097	 0.130519879713281 
1098	 0.13044165555586 
1099	 0.130164011607059 
1100	 0.130041108286962 
1101	 0.129726336401916 
1102	 0.129243940187626 
1103	 0.128827553498305 
1104	 0.128299662433372 
1105	 0.127911699702772 
1106	 0.127335880695023 
1107	 0.126957837048045 
1108	 0.126658465018181 
1109	 0.126287562110775 
1110	 0.126037311594066 
1111	 0.125977249619971 
1112	 0.125839414952716 
1113	 0.125889573863888 
1114	 0.125568815955618 
1115	 0.124655659627788 
1116	 0.124637243560976 
1117	 0.125019163470974 
1118	 0.125061161999636 
1119	 0.126528025445391 
1120	 0.127220067279643 
1121	 0.126566700782186 
1122	 0.126262026445739 
1123	 0.125597408862972 
1124	 0.123058473626476 
1125	 0.122289849731482 
1126	 0.121480547690406 
1127	 0.121234836376076 
1128	 0.121948248723663 
1129	 0.119698466058282 
1130	 0.114865471072562 
1131	 0.112204016608395 
1132	 0.108939577909032 
1133	 0.108135317482957 
1134	 0.110160381732534 
1135	 0.109677981339706 
1136	 0.108233161732004 
1137	 0.106918027339841 
1138	 0.104584321948723 
1139	 0.103531504943931 
1140	 0.101859278095094 
1141	 0.101041632129633 
1142	 0.100221525437973 
1143	 9.73192272396872E-02 
1144	 0.095182043675562 
1145	 9.56075782326308E-02 
