Wavelength	rt0711c00004.asd
350	 0.10757199411786 
351	 0.107877759305383 
352	 0.108755081117312 
353	 0.109556988757025 
354	 0.109796016516503 
355	 0.109559682726783 
356	 0.110144313751134 
357	 0.110959277490987 
358	 0.111148703076217 
359	 0.111532158805755 
360	 0.111812992102332 
361	 0.111973734199548 
362	 0.112223737802433 
363	 0.112838596422948 
364	 0.113488508655783 
365	 0.113870976604399 
366	 0.113830610426023 
367	 0.114105146551127 
368	 0.11448515339759 
369	 0.114657513161113 
370	 0.114913253941976 
371	 0.115195255324622 
372	 0.115508235408783 
373	 0.115886383007019 
374	 0.116313780921346 
375	 0.116628011884257 
376	 0.116769001858462 
377	 0.116839276043635 
378	 0.117473755796567 
379	 0.118019767546629 
380	 0.117952990214651 
381	 0.118137217953723 
382	 0.118105880797846 
383	 0.118195462470349 
384	 0.11890131394792 
385	 0.119015648159477 
386	 0.1196358581904 
387	 0.120604492565738 
388	 0.120292123572171 
389	 0.12036699017207 
390	 0.120679001824068 
391	 0.120905857898291 
392	 0.121238889771122 
393	 0.121528725254575 
394	 0.121788131814465 
395	 0.122072403936785 
396	 0.12227207011144 
397	 0.122631697891154 
398	 0.123127176339488 
399	 0.123505776143392 
400	 0.123869122374701 
401	 0.124217377177202 
402	 0.124511219729122 
403	 0.124674053681873 
404	 0.124503253960778 
405	 0.124371340729367 
406	 0.124692732158433 
407	 0.124782198723722 
408	 0.125028597757542 
409	 0.125442328675889 
410	 0.125624160322973 
411	 0.125765549175625 
412	 0.125963108363317 
413	 0.126231601572694 
414	 0.126439458900586 
415	 0.126595050051514 
416	 0.126808319129882 
417	 0.127161033844719 
418	 0.127277294782068 
419	 0.127515415517342 
420	 0.127903038048117 
421	 0.128077055247709 
422	 0.12837793564302 
423	 0.128771803022341 
424	 0.129083887991247 
425	 0.128907906225629 
426	 0.129132662475778 
427	 0.129695808382055 
428	 0.130086289503861 
429	 0.130341143472556 
430	 0.13060765252211 
431	 0.131011189416672 
432	 0.131626114665137 
433	 0.13203810434154 
434	 0.132364279425397 
435	 0.132764262084007 
436	 0.133137657529727 
437	 0.133491950719929 
438	 0.133859403589508 
439	 0.134260069312575 
440	 0.134493438422459 
441	 0.13476210774765 
442	 0.135151220139182 
443	 0.135513467731603 
444	 0.135861648330366 
445	 0.136189135137617 
446	 0.136489596866015 
447	 0.136763035625924 
448	 0.13703384502195 
449	 0.137274587540252 
450	 0.137434823964731 
451	 0.137666373075133 
452	 0.137910289007623 
453	 0.138095549346836 
454	 0.138175133546107 
455	 0.138403606060077 
456	 0.138641708118151 
457	 0.138697964595861 
458	 0.138952455174362 
459	 0.139131629825636 
460	 0.139221041849251 
461	 0.139480008450163 
462	 0.139630478175258 
463	 0.139625631631336 
464	 0.139570807432996 
465	 0.139868535952278 
466	 0.140039331141332 
467	 0.140065782760312 
468	 0.14016984798773 
469	 0.140481506069773 
470	 0.140692801857575 
471	 0.140764652409148 
472	 0.141065252148056 
473	 0.141289315784417 
474	 0.141451365210371 
475	 0.141639580546874 
476	 0.1418920822787 
477	 0.142170581440385 
478	 0.142404463487327 
479	 0.14253146844025 
480	 0.142830329782956 
481	 0.143020492623229 
482	 0.14298084661143 
483	 0.143038046893177 
484	 0.143362026824693 
485	 0.143728941063377 
486	 0.143887614200741 
487	 0.144370867952506 
488	 0.144926501600183 
489	 0.145319445940435 
490	 0.145407831963667 
491	 0.145703811798908 
492	 0.146092579125749 
493	 0.146414038839701 
494	 0.146746666769619 
495	 0.147164019538488 
496	 0.147570110912909 
497	 0.147818804227269 
498	 0.148121068675929 
499	 0.148563643940714 
500	 0.149127472998354 
501	 0.149661890643178 
502	 0.150128798390432 
503	 0.150583587629603 
504	 0.151070225508758 
505	 0.151431173912669 
506	 0.151850652657646 
507	 0.152315806941106 
508	 0.152666727344629 
509	 0.15309403650707 
510	 0.153574423868209 
511	 0.154053513364432 
512	 0.154489707712193 
513	 0.154938220358468 
514	 0.155389891021348 
515	 0.155821482048636 
516	 0.156314445875606 
517	 0.15699405613867 
518	 0.157805303912494 
519	 0.158484345572916 
520	 0.159141941535531 
521	 0.159740538736651 
522	 0.160278413687824 
523	 0.160964915366853 
524	 0.161656104148776 
525	 0.162328236900129 
526	 0.163054085871749 
527	 0.163926878057887 
528	 0.164846480855134 
529	 0.165680379962984 
530	 0.166270879345064 
531	 0.166899578641426 
532	 0.167689729753924 
533	 0.168651458022591 
534	 0.169571060386586 
535	 0.170405408384766 
536	 0.171190144201043 
537	 0.172024541329258 
538	 0.172933532167745 
539	 0.173880062261638 
540	 0.174823253000176 
541	 0.175783922193237 
542	 0.176708034008797 
543	 0.177611009084222 
544	 0.178540413484591 
545	 0.179332752675222 
546	 0.180143338786487 
547	 0.181056079463719 
548	 0.181951475541616 
549	 0.182789472276936 
550	 0.18358055447187 
551	 0.184370056419219 
552	 0.185244068007106 
553	 0.186057082954282 
554	 0.186798960315821 
555	 0.187619110305589 
556	 0.188405536598136 
557	 0.189152067122311 
558	 0.189880202092901 
559	 0.190639462070474 
560	 0.191435149573477 
561	 0.192235509781601 
562	 0.19299152392431 
563	 0.193683854792855 
564	 0.194373226228483 
565	 0.195099002125427 
566	 0.195850958959274 
567	 0.196528006614522 
568	 0.197186879076342 
569	 0.197920572732868 
570	 0.198665016380247 
571	 0.199349750305425 
572	 0.199899380276903 
573	 0.200240497085861 
574	 0.200597157922244 
575	 0.200909490947762 
576	 0.201097968475603 
577	 0.201259377423195 
578	 0.201343392031101 
579	 0.20130327745641 
580	 0.20112267542834 
581	 0.201033289734715 
582	 0.200887576673116 
583	 0.200635471055217 
584	 0.200489526262296 
585	 0.200448925525575 
586	 0.200379142490893 
587	 0.200154781683654 
588	 0.200053182042129 
589	 0.200052554251895 
590	 0.200087274516582 
591	 0.200069606360845 
592	 0.199810355036372 
593	 0.199494881694963 
594	 0.199224195968102 
595	 0.198568311960302 
596	 0.197860335860492 
597	 0.197136271222405 
598	 0.196285569803677 
599	 0.195483442620693 
600	 0.194762167629749 
601	 0.194163488113453 
602	 0.193782696170211 
603	 0.193433318402665 
604	 0.193169356038887 
605	 0.193094521947567 
606	 0.193145341296576 
607	 0.193062193868633 
608	 0.19288981888248 
609	 0.192980168560135 
610	 0.193015847069807 
611	 0.192986930695251 
612	 0.192939685562297 
613	 0.192882785021246 
614	 0.192831141194079 
615	 0.192822130366118 
616	 0.192890968866407 
617	 0.192970018683292 
618	 0.192941988489593 
619	 0.192802685515329 
620	 0.192725287280047 
621	 0.19269131996013 
622	 0.19273499665118 
623	 0.192839532482738 
624	 0.192691880485013 
625	 0.192689065467953 
626	 0.192866806335163 
627	 0.192901588466553 
628	 0.192901977579492 
629	 0.19281501063051 
630	 0.192645170521598 
631	 0.192613555351148 
632	 0.192526222981666 
633	 0.192448754998298 
634	 0.192518113341608 
635	 0.192414253201093 
636	 0.192292701011699 
637	 0.192250559947985 
638	 0.19223663242809 
639	 0.192189020315852 
640	 0.192091572617576 
641	 0.191973894495195 
642	 0.191961294981324 
643	 0.191967545844577 
644	 0.191983001392194 
645	 0.192058313507155 
646	 0.19212953398755 
647	 0.192079194669337 
648	 0.191879299517841 
649	 0.191720816111468 
650	 0.191497931694886 
651	 0.191228790994856 
652	 0.190949116770722 
653	 0.190464235937814 
654	 0.189893361160594 
655	 0.189298757722333 
656	 0.188715076592536 
657	 0.188136600965138 
658	 0.187497580419957 
659	 0.186791490229794 
660	 0.186299121578171 
661	 0.185873096853249 
662	 0.185444440836121 
663	 0.185007443396031 
664	 0.184606478329627 
665	 0.184198321059262 
666	 0.183804192589321 
667	 0.183597200442873 
668	 0.183359118944481 
669	 0.183131979234422 
670	 0.183006955348589 
671	 0.182857733087178 
672	 0.182709924264969 
673	 0.182606526088547 
674	 0.182597978665823 
675	 0.182681251474084 
676	 0.182767424739792 
677	 0.182814554265996 
678	 0.182924563754235 
679	 0.183170491740269 
680	 0.183459466061947 
681	 0.183655449198094 
682	 0.183937510370084 
683	 0.184226434346735 
684	 0.184587044885298 
685	 0.185362843791708 
686	 0.186164498557956 
687	 0.186627920776309 
688	 0.186629872721643 
689	 0.186670001425866 
690	 0.186672258929392 
691	 0.186691981785974 
692	 0.186810684750688 
693	 0.186595343499401 
694	 0.186137332889877 
695	 0.18557752087372 
696	 0.184905154256179 
697	 0.184465591377357 
698	 0.184101937599458 
699	 0.183548456974524 
700	 0.182768524389004 
701	 0.181925761506882 
702	 0.18107274292138 
703	 0.180141987645123 
704	 0.179265651481673 
705	 0.178318288212838 
706	 0.177216171593357 
707	 0.175969605888543 
708	 0.174805728934531 
709	 0.173592889074412 
710	 0.17211456230725 
711	 0.170548866665612 
712	 0.168989841773435 
713	 0.167535045855315 
714	 0.1662559543643 
715	 0.165228702612605 
716	 0.164155415586063 
717	 0.16269875556209 
718	 0.160684355177122 
719	 0.158329437600183 
720	 0.156165384029924 
721	 0.154279723126082 
722	 0.153096599327558 
723	 0.151709116595601 
724	 0.149890580927503 
725	 0.148110608299202 
726	 0.146015661503227 
727	 0.143809901839183 
728	 0.141704237036988 
729	 0.139485891909438 
730	 0.137064446091706 
731	 0.134673944729357 
732	 0.132560450144839 
733	 0.130799416356437 
734	 0.129517115526151 
735	 0.12859097977736 
736	 0.1275342804584 
737	 0.126726185540795 
738	 0.126121430275963 
739	 0.125613445499495 
740	 0.125188615547273 
741	 0.124811745249531 
742	 0.124559383628315 
743	 0.124512882576114 
744	 0.124343474653648 
745	 0.124263503890789 
746	 0.124327683573129 
747	 0.124307574287248 
748	 0.124175532820988 
749	 0.124064828290337 
750	 0.124088886983957 
751	 0.124142229782218 
752	 0.124174853671366 
753	 0.124152873521496 
754	 0.124079129811215 
755	 0.124088510203307 
756	 0.12432505101899 
757	 0.124835767152353 
758	 0.125723270986714 
759	 0.126550149093529 
760	 0.127459405844534 
761	 0.128206489621141 
762	 0.127858439284457 
763	 0.127350695376492 
764	 0.126678094411508 
765	 0.12570350878249 
766	 0.125234503247617 
767	 0.124970048785027 
768	 0.124821281055786 
769	 0.12492001869418 
770	 0.125038395715286 
771	 0.125123051617291 
772	 0.125198069449486 
773	 0.125391067284788 
774	 0.125574915549578 
775	 0.125726586297863 
776	 0.125881063385797 
777	 0.126094263787698 
778	 0.126384215406949 
779	 0.126692661340966 
780	 0.126903150449282 
781	 0.127145272549611 
782	 0.127503850156397 
783	 0.127936430261014 
784	 0.128122363378093 
785	 0.128517287692866 
786	 0.129077887326872 
787	 0.129575018251407 
788	 0.129875396719938 
789	 0.130232192648456 
790	 0.130655327236641 
791	 0.130966428705731 
792	 0.131364327025139 
793	 0.131697558762029 
794	 0.131964129660442 
795	 0.132472824698728 
796	 0.132915448171331 
797	 0.133238252564481 
798	 0.133495663968627 
799	 0.133788211183663 
800	 0.134119661058183 
801	 0.13441962432499 
802	 0.134584911652989 
803	 0.134561849680265 
804	 0.134664949826198 
805	 0.134903444202835 
806	 0.134940555582461 
807	 0.135117984193499 
808	 0.135271295237885 
809	 0.135305538564402 
810	 0.135561099044591 
811	 0.135875886285828 
812	 0.136063291336198 
813	 0.135968217964215 
814	 0.135870884717002 
815	 0.135525016232931 
816	 0.13497803754335 
817	 0.134491686746552 
818	 0.133800156955835 
819	 0.133135287149816 
820	 0.132532953298971 
821	 0.131777236797759 
822	 0.130633723456301 
823	 0.129469896995592 
824	 0.128569572927454 
825	 0.127581510484921 
826	 0.126330799343337 
827	 0.124940203399869 
828	 0.123735531570616 
829	 0.122792026816644 
830	 0.121754776100314 
831	 0.12067298144175 
832	 0.119894262303068 
833	 0.119089703079693 
834	 0.118635400342823 
835	 0.118495286147358 
836	 0.118034212091452 
837	 0.117509207811802 
838	 0.117215970143123 
839	 0.117178059475051 
840	 0.116675840975182 
841	 0.116455692399157 
842	 0.116294070356022 
843	 0.115840978724102 
844	 0.115942076666003 
845	 0.115971020021234 
846	 0.115796830448168 
847	 0.115641218260066 
848	 0.115194615532146 
849	 0.115151683902412 
850	 0.115451628096251 
851	 0.115019077120743 
852	 0.114924017749105 
853	 0.114801572437205 
854	 0.114428513042623 
855	 0.114494588910616 
856	 0.114663519197683 
857	 0.114553414634823 
858	 0.114093458587795 
859	 0.114331937811168 
860	 0.114377203985555 
861	 0.114312186628489 
862	 0.114545923658347 
863	 0.114149484027045 
864	 0.113748752177014 
865	 0.113585237860162 
866	 0.11346283006811 
867	 0.113606906619549 
868	 0.113800915146937 
869	 0.113770883206849 
870	 0.113281205453269 
871	 0.113149264703783 
872	 0.113129728045851 
873	 0.11301436294772 
874	 0.113242666523521 
875	 0.113252057854355 
876	 0.113214072811332 
877	 0.113344951312441 
878	 0.113121893341553 
879	 0.113114753496142 
880	 0.113091207982993 
881	 0.112657341186237 
882	 0.112827706260395 
883	 0.112796926053335 
884	 0.112467563659972 
885	 0.112331708844685 
886	 0.112389777723353 
887	 0.112422222571807 
888	 0.112432297168148 
889	 0.112692120738063 
890	 0.113112505696321 
891	 0.113466318444785 
892	 0.113658169818424 
893	 0.113885387327224 
894	 0.113743520375028 
895	 0.114001085042822 
896	 0.115003363420721 
897	 0.114790034720994 
898	 0.114297059533087 
899	 0.114033713559916 
900	 0.114156593698666 
901	 0.114216442053426 
902	 0.114540454849441 
903	 0.114972566746002 
904	 0.1151236384825 
905	 0.114338967769794 
906	 0.114282742181951 
907	 0.114936695538238 
908	 0.115062409639815 
909	 0.114909207766671 
910	 0.115134671545483 
911	 0.115441959476736 
912	 0.114870447274241 
913	 0.11489494870292 
914	 0.11478162254496 
915	 0.114422894880481 
916	 0.114607991328268 
917	 0.114324124072576 
918	 0.114314083780529 
919	 0.114632442576399 
920	 0.114172427466918 
921	 0.114084614291657 
922	 0.114364086109513 
923	 0.114735885444494 
924	 0.114856343972574 
925	 0.115077557074643 
926	 0.115221741469397 
927	 0.115397228931612 
928	 0.117455899934202 
929	 0.116735928969992 
930	 0.115389477801275 
931	 0.11835068832318 
932	 0.119097739817409 
933	 0.119128970183815 
934	 0.117108712322951 
935	 0.113730987574957 
936	 0.11972893130206 
937	 0.121485659288739 
938	 0.119599952664608 
939	 0.118617824056081 
940	 0.11796565913283 
941	 0.117517427220816 
942	 0.118588512291669 
943	 0.121842080738398 
944	 0.1198545059569 
945	 0.120318320831316 
946	 0.121961864476529 
947	 0.119143839418005 
948	 0.118440110846823 
949	 0.11721130423275 
950	 0.116585589966696 
951	 0.11923492907439 
952	 0.120730594355842 
953	 0.118009735745062 
954	 0.11461184145287 
955	 0.116424076433389 
956	 0.113587298755003 
957	 0.115032904802115 
958	 0.119295971186988 
959	 0.118071279097817 
960	 0.11687592028729 
961	 0.116317200269452 
962	 0.116463389885708 
963	 0.116927723619509 
964	 0.115080220031789 
965	 0.115660454786987 
966	 0.117236035354986 
967	 0.114898343139479 
968	 0.116486666752172 
969	 0.117056210296867 
970	 0.115302171633463 
971	 0.114227687111091 
972	 0.117058625008839 
973	 0.116512540832638 
974	 0.113362232245576 
975	 0.115805295812705 
976	 0.115494381543337 
977	 0.115190011585324 
978	 0.115144184027191 
979	 0.113134326062995 
980	 0.114176841140955 
981	 0.115242469912512 
982	 0.114830709433131 
983	 0.113716135450276 
984	 0.113742385614621 
985	 0.114185964687926 
986	 0.11444481568185 
987	 0.114303468128465 
988	 0.113891681781982 
989	 0.112664270854902 
990	 0.112208033975027 
991	 0.114490550555652 
992	 0.113103368466957 
993	 0.113288267481372 
994	 0.114544318533442 
995	 0.112843167302038 
996	 0.112969159035585 
997	 0.112179730974019 
998	 0.111602202868827 
999	 0.113616869653678 
1000	 0.11201296673158 
1001	 0.164497342187393 
1002	 0.164828359730611 
1003	 0.164836098281363 
1004	 0.165096035378994 
1005	 0.164780800274291 
1006	 0.163795678119363 
1007	 0.163380171745968 
1008	 0.162640842636299 
1009	 0.162549712160216 
1010	 0.162954646423167 
1011	 0.163135392458099 
1012	 0.16364645695686 
1013	 0.16368781925698 
1014	 0.163548373290749 
1015	 0.162930843717833 
1016	 0.162878913983951 
1017	 0.162725843698206 
1018	 0.162907970927305 
1019	 0.163828061507513 
1020	 0.16422487265359 
1021	 0.164664221399499 
1022	 0.164629387578444 
1023	 0.164314589946588 
1024	 0.163947394842219 
1025	 0.163234155562491 
1026	 0.16283141470841 
1027	 0.162733906576401 
1028	 0.162888660173816 
1029	 0.162999071201428 
1030	 0.163402620898782 
1031	 0.163680322451603 
1032	 0.163983463703682 
1033	 0.164161871327105 
1034	 0.164403775991265 
1035	 0.164427624094114 
1036	 0.164093118105801 
1037	 0.164008123516335 
1038	 0.163755106467525 
1039	 0.163897995511232 
1040	 0.164522929807831 
1041	 0.164750858293747 
1042	 0.164904235912417 
1043	 0.165014312590848 
1044	 0.165280288243692 
1045	 0.165354987920296 
1046	 0.165679543650256 
1047	 0.166404644880875 
1048	 0.166769536417665 
1049	 0.166886205930042 
1050	 0.167187005624305 
1051	 0.167485794042518 
1052	 0.167854535644564 
1053	 0.168443025821762 
1054	 0.168848964314726 
1055	 0.168991927956878 
1056	 0.169395429916013 
1057	 0.169880022648835 
1058	 0.170397041234985 
1059	 0.170892410999007 
1060	 0.171628702573279 
1061	 0.172108591142032 
1062	 0.172480022615919 
1063	 0.17271382725199 
1064	 0.172803840952087 
1065	 0.172949736638552 
1066	 0.172601640309113 
1067	 0.172966313976399 
1068	 0.173846618373856 
1069	 0.174551047759132 
1070	 0.175791278460943 
1071	 0.176619892158436 
1072	 0.177260584259874 
1073	 0.177573077497802 
1074	 0.178066030168053 
1075	 0.17842592377335 
1076	 0.179006775389956 
1077	 0.179610669794737 
1078	 0.180459220630083 
1079	 0.181586797951523 
1080	 0.182427261812301 
1081	 0.18330800663791 
1082	 0.184199116091922 
1083	 0.184988918440727 
1084	 0.185840618340837 
1085	 0.186727251314079 
1086	 0.187686646121608 
1087	 0.188514431722338 
1088	 0.189503520865225 
1089	 0.190572147076894 
1090	 0.192183126576161 
1091	 0.193286289772913 
1092	 0.194321469115814 
1093	 0.195432400779918 
1094	 0.196298815552297 
1095	 0.197355546171291 
1096	 0.198602661301809 
1097	 0.199974180744833 
1098	 0.201601632009614 
1099	 0.202937581451578 
1100	 0.204210394319998 
1101	 0.205488290371218 
1102	 0.20662645346818 
1103	 0.207776022312061 
1104	 0.20855236255016 
1105	 0.210534415946736 
1106	 0.211736201430195 
1107	 0.21321371835707 
1108	 0.215476259534112 
1109	 0.216583980490197 
1110	 0.218015256657327 
1111	 0.219571137114993 
1112	 0.221071742793879 
1113	 0.221783437138566 
1114	 0.223804166690332 
1115	 0.22681011469451 
1116	 0.228953943629829 
1117	 0.232870901572878 
1118	 0.235317744306967 
1119	 0.234058337914706 
1120	 0.235139111302363 
1121	 0.238589553957861 
1122	 0.236710913956456 
1123	 0.234788611100777 
1124	 0.24012621302497 
1125	 0.238624259961633 
1126	 0.23962210595159 
1127	 0.244274588903185 
1128	 0.243130042105593 
1129	 0.243153259243952 
1130	 0.242731557849707 
1131	 0.244529541146076 
1132	 0.24781824574 
1133	 0.248975169742555 
1134	 0.249374466169165 
1135	 0.250793146451659 
1136	 0.250898598706162 
1137	 0.252267002669798 
1138	 0.25430073500091 
1139	 0.258908522789204 
1140	 0.260181523955094 
1141	 0.261041831996884 
1142	 0.26331193223354 
1143	 0.262813650377182 
1144	 0.267376038154166 
1145	 0.270272280038102 
1146	 0.274202416386688 
1147	 0.273423521798281 
1148	 0.271881788403268 
1149	 0.270937321470131 
1150	 0.271560530349147 
1151	 0.273890236722334 
1152	 0.274434497890241 
1153	 0.275219740327922 
1154	 0.274705635191802 
1155	 0.271992034853943 
1156	 0.273170694640263 
1157	 0.27343715560205 
1158	 0.274582328843013 
1159	 0.274732006840335 
1160	 0.273988958578163 
1161	 0.272846157245312 
1162	 0.273534640483664 
1163	 0.273211267990996 
1164	 0.273766119181057 
1165	 0.273996006117538 
1166	 0.273438251764238 
1167	 0.272599378959106 
1168	 0.27166375362137 
1169	 0.270299746035664 
1170	 0.269831609585139 
1171	 0.268903128689413 
1172	 0.268107987404702 
1173	 0.266770561540336 
1174	 0.265314217252898 
1175	 0.262877864319524 
1176	 0.260639687659805 
1177	 0.258762090486802 
1178	 0.257118772681076 
1179	 0.255103873343947 
1180	 0.253134246612152 
1181	 0.250490214088361 
1182	 0.248467335766015 
1183	 0.245652661471012 
1184	 0.243241927905249 
1185	 0.241479411077732 
1186	 0.238856496079688 
1187	 0.236355137835937 
1188	 0.233348235287324 
1189	 0.229825028549667 
1190	 0.225977442319513 
1191	 0.223003959736344 
1192	 0.219745656340353 
1193	 0.21643638897961 
1194	 0.21299776944913 
1195	 0.209331266312658 
1196	 0.204990719955876 
1197	 0.200687294997219 
1198	 0.196243588280591 
1199	 0.192906014518358 
1200	 0.189191079722061 
1201	 0.185059483545792 
1202	 0.181031599521264 
1203	 0.177241703434095 
1204	 0.173213923068872 
1205	 0.169536836673535 
1206	 0.166404457116774 
1207	 0.162982673297497 
1208	 0.159674651888125 
1209	 0.156702167005043 
1210	 0.153762184324822 
1211	 0.15069404979379 
1212	 0.147597083004294 
1213	 0.144597312605241 
1214	 0.141823193757111 
1215	 0.139272976268747 
1216	 0.136632317646409 
1217	 0.133931362990065 
1218	 0.131273826755442 
1219	 0.128882260552195 
1220	 0.126550971095037 
1221	 0.124403313360654 
1222	 0.122268758327974 
1223	 0.119464393831077 
1224	 0.117005531515649 
1225	 0.115211698584007 
1226	 0.113142838538279 
1227	 0.111023747438538 
1228	 0.109277566942425 
1229	 0.107128150877354 
1230	 0.104999651642477 
1231	 0.103547546172139 
1232	 0.102192292030037 
1233	 0.100880945791269 
1234	 9.96417485964107E-02 
1235	 9.84699898246212E-02 
1236	 0.097310246280066 
1237	 9.62760311217637E-02 
1238	 9.52411902315106E-02 
1239	 9.45560058492984E-02 
1240	 9.38423615925777E-02 
1241	 9.28300028706192E-02 
1242	 9.19961350186372E-02 
1243	 9.13258351155151E-02 
1244	 9.05327686309629E-02 
1245	 8.98659484732818E-02 
1246	 8.91732200237205E-02 
1247	 8.84985831552919E-02 
1248	 8.82125987645488E-02 
1249	 8.79005917731517E-02 
1250	 8.75436589573448E-02 
1251	 8.70156613227215E-02 
1252	 8.64597027824082E-02 
1253	 8.63525659045531E-02 
1254	 8.62676967985654E-02 
1255	 8.58668155812902E-02 
1256	 8.56360237473058E-02 
1257	 8.53867731241833E-02 
1258	 8.51402180090978E-02 
1259	 0.085009404905162 
1260	 8.48294245022586E-02 
1261	 0.084576882461142 
1262	 8.43909311544509E-02 
1263	 8.41232232145412E-02 
1264	 8.41011438376852E-02 
1265	 8.42618207752495E-02 
1266	 8.41878998112083E-02 
1267	 8.39038357368817E-02 
1268	 8.39227339655085E-02 
1269	 8.36497742447984E-02 
1270	 8.31049754922592E-02 
1271	 8.29118201756052E-02 
1272	 8.26017754407183E-02 
1273	 8.24926561924788E-02 
1274	 8.21257633559775E-02 
1275	 8.17671332531751E-02 
1276	 8.14281570880888E-02 
1277	 8.11210919286759E-02 
1278	 8.11813911653496E-02 
1279	 8.13526415448875E-02 
1280	 8.10159559607609E-02 
1281	 8.07305287445912E-02 
1282	 8.02757693560392E-02 
1283	 8.00921516226165E-02 
1284	 7.99672510649136E-02 
1285	 7.97601487118713E-02 
1286	 7.96635180851855E-02 
1287	 7.95081263505091E-02 
1288	 7.91550922701456E-02 
1289	 7.89582296415546E-02 
1290	 0.078989196580309 
1291	 7.87795888448879E-02 
1292	 7.87375622381636E-02 
1293	 7.88190619585493E-02 
1294	 7.85339058427722E-02 
1295	 7.84437256814974E-02 
1296	 7.84267611739397E-02 
1297	 7.84537870248925E-02 
1298	 7.83675503740754E-02 
1299	 7.81435105950376E-02 
1300	 7.80941861819186E-02 
1301	 7.80861166036833E-02 
1302	 7.82617362563824E-02 
1303	 7.86917611156328E-02 
1304	 7.88926605789321E-02 
1305	 7.90463714934327E-02 
1306	 7.90619717569292E-02 
1307	 7.91704586316868E-02 
1308	 0.079294651073876 
1309	 7.90570939785473E-02 
1310	 7.90250357140136E-02 
1311	 7.94256672048349E-02 
1312	 7.97323897984865E-02 
1313	 7.99178285708525E-02 
1314	 7.99865145525734E-02 
1315	 8.01469730491494E-02 
1316	 0.080147605410728 
1317	 7.98245509614173E-02 
1318	 7.97339303631872E-02 
1319	 7.93216805911203E-02 
1320	 7.94690777788659E-02 
1321	 8.00719327251366E-02 
1322	 8.08382924403392E-02 
1323	 8.15092883218531E-02 
1324	 8.22024684913347E-02 
1325	 8.21970522599332E-02 
1326	 8.20315190862895E-02 
1327	 8.20814740891007E-02 
1328	 8.27124930377796E-02 
1329	 8.24509507784004E-02 
1330	 8.15270663462695E-02 
1331	 8.07498744003598E-02 
1332	 8.07883530199521E-02 
1333	 8.04294259199187E-02 
1334	 7.98094824716168E-02 
1335	 7.99338756048031E-02 
1336	 7.99572914993607E-02 
1337	 7.97367478287668E-02 
1338	 8.01637366420434E-02 
1339	 8.05399086997944E-02 
1340	 8.04442693053133E-02 
1341	 8.05301402421209E-02 
1342	 8.14366657284041E-02 
1343	 8.20790929962198E-02 
1344	 8.26857418540537E-02 
1345	 8.26106673327385E-02 
1346	 8.15454919699766E-02 
1347	 8.19054520307069E-02 
1348	 8.25516461998262E-02 
1349	 8.20468003855789E-02 
1350	 8.16558987942799E-02 
1351	 8.45016566627942E-02 
1352	 9.22813795838922E-02 
1353	 9.36732660552638E-02 
1354	 0.09723146411495 
1355	 8.90547603394633E-02 
1356	 4.73687216533889E-02 
1357	-3.46124291131768E-03 
1358	 5.61965511504997E-03 
1359	 1.04241668989535E-02 
1360	 6.37494104544285E-02 
1361	 0.124774824813133 
1362	 0.137200178251445 
1363	 0.125742922882608 
1364	 0.141477177378106 
1365	 0.262948838079714 
1366	 0.280659946209478 
1367	 0.179231972906046 
1368	 0.188947886558071 
1369	 0.133318366456326 
1370	 6.63617590034997E-02 
1371	 5.45777741946492E-02 
1372	 0.155837503730636 
1373	 0.19652209253064 
1374	 0.205206808088 
1375	 0.332106214978462 
1376	 0.494905932075181 
1377	 0.719390458941689 
1378	 0.645521200252446 
1379	 0.45565371436536 
1380	 0.41240893682169 
1381	-0.233660860353477 
1382	-0.38091972808327 
1383	 0.220148492526327 
1384	 0.281129550173362 
1385	 0.340002348767745 
1386	 0.367421295600789 
1387	 0.234279879435343 
1388	 0.137962022795021 
1389	 0.281241913991468 
1390	 0.101571377390459 
1391	-0.293701025264113 
1392	-0.228577452690178 
1393	 0.111639457101058 
1394	 0.599279609470181 
1395	 0.513050513574428 
1396	 0.308940921145345 
1397	 0.193710283670677 
1398	 0.104303889687312 
1399	-9.50546587863398E-02 
1400	 7.80301933183242E-02 
1401	 0.393699261967493 
1402	 0.136379708325801 
1403	-0.124121791914954 
1404	 2.88925009375754E-02 
1405	 0.083770229444757 
1406	-3.99412414771613E-02 
1407	-8.15855306221344E-02 
1408	 5.03374213176912E-02 
1409	 9.27851662041481E-02 
1410	 3.96838655416271E-03 
1411	 5.06368516799725E-02 
1412	 0.216910905248972 
1413	 0.211982414672436 
1414	 0.145283896514994 
1415	 0.127002135384255 
1416	 0.08119579308547 
1417	 7.89310273188541E-02 
1418	 0.118190028139531 
1419	 0.112333204152483 
1420	 9.32057764736982E-02 
1421	 0.09025602991394 
1422	 8.19319510913964E-02 
1423	 8.27917987820794E-02 
1424	 9.62956069781236E-02 
1425	 9.73825414907734E-02 
1426	 9.32753354190194E-02 
1427	 0.089777114255849 
1428	 8.23358083326786E-02 
1429	 8.06631059098714E-02 
1430	 7.91723333165102E-02 
1431	 8.06470272298395E-02 
1432	 9.02706867559011E-02 
1433	 9.21292859665804E-02 
1434	 8.95605084690128E-02 
1435	 9.01858590923357E-02 
1436	 8.96668905298855E-02 
1437	 8.80717579762486E-02 
1438	 0.086039553185771 
1439	 8.55092578398163E-02 
1440	 8.58768518357001E-02 
1441	 8.60642867286689E-02 
1442	 8.56354377637965E-02 
1443	 8.83769448990567E-02 
1444	 8.69185494341333E-02 
1445	 8.27540593544967E-02 
1446	 8.45522264572881E-02 
1447	 8.57001928055551E-02 
1448	 8.44803781894931E-02 
1449	 8.49311939940275E-02 
1450	 8.39196708519597E-02 
1451	 8.09143374940344E-02 
1452	 8.18450381383957E-02 
1453	 8.22823298865135E-02 
1454	 8.07274388460758E-02 
1455	 7.84447295243264E-02 
1456	 7.79396860892379E-02 
1457	 7.59856527236072E-02 
1458	 7.60515098591174E-02 
1459	 7.90425248469629E-02 
1460	 7.92196091172162E-02 
1461	 7.76608889036135E-02 
1462	 7.82128273110144E-02 
1463	 7.97119049855155E-02 
1464	 7.96898821742057E-02 
1465	 7.99512162979506E-02 
1466	 8.05317887044994E-02 
1467	 8.01105434235944E-02 
1468	 7.94430314230647E-02 
1469	 7.99451608608105E-02 
1470	 7.92662627430959E-02 
1471	 7.61881315910583E-02 
1472	 7.48608394326357E-02 
1473	 7.41109204544451E-02 
1474	 7.44458103219936E-02 
1475	 7.62614545263891E-02 
1476	 7.62618389708611E-02 
1477	 7.60424654098952E-02 
1478	 0.07594879777909 
1479	 7.48872740491864E-02 
1480	 0.07472052086003 
1481	 7.54773676933538E-02 
1482	 7.56957334835349E-02 
1483	 0.076209042446071 
1484	 7.57054778941773E-02 
1485	 7.42894515479302E-02 
1486	 7.37307886751841E-02 
1487	 7.33887047912644E-02 
1488	 7.26979363865073E-02 
1489	 7.17186720415275E-02 
1490	 7.17015460435719E-02 
1491	 0.072371009453943 
1492	 7.19736976629993E-02 
1493	 7.12773910195147E-02 
1494	 7.13042308164412E-02 
1495	 7.11391698940887E-02 
1496	 7.07822247868129E-02 
1497	 7.09657496166087E-02 
1498	 7.10671196484128E-02 
1499	 7.07123749513593E-02 
1500	 7.04431977851499E-02 
1501	 0.070451047987268 
1502	 7.04134702934453E-02 
1503	 0.070325027752803 
1504	 7.01090244479226E-02 
1505	 6.98899320421492E-02 
1506	 6.95343787941877E-02 
1507	 6.96814425172079E-02 
1508	 6.97564084675824E-02 
1509	 6.94414996155651E-02 
1510	 6.94574674727451E-02 
1511	 6.97532548517152E-02 
1512	 6.95911332915757E-02 
1513	 6.92951131439974E-02 
1514	 6.94584431795466E-02 
1515	 0.069639111158725 
1516	 6.94073944286278E-02 
1517	 6.92322482792541E-02 
1518	 6.94787854352449E-02 
1519	 6.96455717388604E-02 
1520	 6.94850148015118E-02 
1521	 0.069491886208159 
1522	 6.97704311800189E-02 
1523	 6.98384210032796E-02 
1524	 6.96590520487215E-02 
1525	 6.97463237388977E-02 
1526	 7.00137355353176E-02 
1527	 7.00188773177045E-02 
1528	 0.070119812334154 
1529	 0.070407130339034 
1530	 7.06665238707891E-02 
1531	 7.08357339625434E-02 
1532	 7.10843956101432E-02 
1533	 7.15278298286575E-02 
1534	 7.18613619455904E-02 
1535	 7.21534576840861E-02 
1536	 7.27235612547995E-02 
1537	 7.32623198359596E-02 
1538	 7.35411819227338E-02 
1539	 7.39355929784228E-02 
1540	 7.46069700401662E-02 
1541	 7.52490373894983E-02 
1542	 7.57159834033046E-02 
1543	 7.64193368170032E-02 
1544	 7.73808497274195E-02 
1545	 7.80715826128704E-02 
1546	 7.87326403568933E-02 
1547	 7.95670054657928E-02 
1548	 8.03410877615733E-02 
1549	 8.10950829740873E-02 
1550	 8.20494345710946E-02 
1551	 0.083347832516611 
1552	 8.44559760553853E-02 
1553	 8.52337847093331E-02 
1554	 8.63398349425924E-02 
1555	 8.75835852558292E-02 
1556	 8.83308395529055E-02 
1557	 8.89631951455418E-02 
1558	 9.00139065231848E-02 
1559	 9.15756744449533E-02 
1560	 9.29661764268174E-02 
1561	 9.41519966589455E-02 
1562	 9.53192918219676E-02 
1563	 9.59446617171122E-02 
1564	 9.68255257268889E-02 
1565	 9.84555280297822E-02 
1566	 9.99177334687387E-02 
1567	 0.101210328032699 
1568	 0.102532122710387 
1569	 0.103651568762211 
1570	 0.105209688133077 
1571	 0.107039782506493 
1572	 0.108641076525597 
1573	 0.109997737737385 
1574	 0.111945194885666 
1575	 0.113857508812559 
1576	 0.115205487886692 
1577	 0.116534411911777 
1578	 0.117826751183784 
1579	 0.119172532810939 
1580	 0.120660281986476 
1581	 0.122753932695032 
1582	 0.124483665849471 
1583	 0.125803237673555 
1584	 0.127431216376637 
1585	 0.129071795834931 
1586	 0.130448379904603 
1587	 0.131825558836095 
1588	 0.133385015292992 
1589	 0.134959232553503 
1590	 0.13646642951435 
1591	 0.138128247460835 
1592	 0.139748068877446 
1593	 0.141427459384236 
1594	 0.142748522904258 
1595	 0.144082490297173 
1596	 0.145868591471904 
1597	 0.1472744753888 
1598	 0.148595600592902 
1599	 0.150163896985705 
1600	 0.151697462342379 
1601	 0.152765764770025 
1602	 0.154072217765668 
1603	 0.155581155728729 
1604	 0.156966314947431 
1605	 0.158227307863738 
1606	 0.15968815191146 
1607	 0.161313144756612 
1608	 0.162823067047535 
1609	 0.163897748072756 
1610	 0.164953455795486 
1611	 0.166658010868738 
1612	 0.168293507570593 
1613	 0.169938197262075 
1614	 0.171684756368105 
1615	 0.173108071288645 
1616	 0.174283737295061 
1617	 0.175582856038613 
1618	 0.176857921822129 
1619	 0.178068766586683 
1620	 0.178994591906579 
1621	 0.180130304395032 
1622	 0.181584888061109 
1623	 0.182826970679656 
1624	 0.183707837194304 
1625	 0.184662619884254 
1626	 0.185511263224814 
1627	 0.186426565128068 
1628	 0.187696938994054 
1629	 0.188824671063694 
1630	 0.18973599298238 
1631	 0.190694091551841 
1632	 0.191779911209657 
1633	 0.192826790769643 
1634	 0.194226507962866 
1635	 0.195570829151797 
1636	 0.196487996255209 
1637	 0.197316812893224 
1638	 0.198545564634287 
1639	 0.20007598454445 
1640	 0.20161418185536 
1641	 0.202584240199122 
1642	 0.20384261403209 
1643	 0.205342815349678 
1644	 0.206159878157484 
1645	 0.20744500434866 
1646	 0.208976457656424 
1647	 0.20973928743408 
1648	 0.210786493920956 
1649	 0.212056394041553 
1650	 0.213008901931054 
1651	 0.214364184765169 
1652	 0.215567857893628 
1653	 0.21614933445644 
1654	 0.217114010561866 
1655	 0.218373009741122 
1656	 0.219059575828019 
1657	 0.219340337284397 
1658	 0.220345617500862 
1659	 0.22156567901516 
1660	 0.222090762803457 
1661	 0.222989934118675 
1662	 0.223757936982932 
1663	 0.223559635306473 
1664	 0.223759143635814 
1665	 0.224741871424283 
1666	 0.225039719410018 
1667	 0.22475463483652 
1668	 0.224503450514745 
1669	 0.224082505900007 
1670	 0.224177031225251 
1671	 0.224077742063153 
1672	 0.223876357831027 
1673	 0.223982691107709 
1674	 0.223747540821082 
1675	 0.223353175891177 
1676	 0.223029616628975 
1677	 0.222474806786116 
1678	 0.221847648175328 
1679	 0.221334044108754 
1680	 0.220848834393029 
1681	 0.220488976750171 
1682	 0.219948040305633 
1683	 0.219406495484208 
1684	 0.219298420393836 
1685	 0.218311451817251 
1686	 0.21699571810318 
1687	 0.216450130617591 
1688	 0.215695657057739 
1689	 0.214744188021744 
1690	 0.213858667569026 
1691	 0.212359707324688 
1692	 0.210511827870286 
1693	 0.209290741721144 
1694	 0.208053952248629 
1695	 0.206226585219801 
1696	 0.20458799611869 
1697	 0.203425521608197 
1698	 0.202055091520193 
1699	 0.200733158594342 
1700	 0.19923330617936 
1701	 0.197012530673094 
1702	 0.195274486294786 
1703	 0.194345503122897 
1704	 0.193097008232976 
1705	 0.191686735531931 
1706	 0.190564730885128 
1707	 0.189029343537278 
1708	 0.18674814248718 
1709	 0.185245940581338 
1710	 0.183949552241238 
1711	 0.182408627051876 
1712	 0.181448544478418 
1713	 0.18026680493373 
1714	 0.178735056041117 
1715	 0.176417677392668 
1716	 0.175358000707699 
1717	 0.174812131155196 
1718	 0.173405312514308 
1719	 0.172115025449789 
1720	 0.171083930265774 
1721	 0.168965300706821 
1722	 0.16742727226224 
1723	 0.166421029776833 
1724	 0.165129341997443 
1725	 0.163850918812554 
1726	 0.162685830883042 
1727	 0.161907385205079 
1728	 0.160653699795228 
1729	 0.159038295843011 
1730	 0.157888339107584 
1731	 0.15654099564462 
1732	 0.155165798313084 
1733	 0.15445948065773 
1734	 0.153850761300812 
1735	 0.152540604530601 
1736	 0.15087929471347 
1737	 0.149865481913085 
1738	 0.148897444360113 
1739	 0.147339569223655 
1740	 0.146375021963172 
1741	 0.145218563152423 
1742	 0.143296174366247 
1743	 0.142019902809392 
1744	 0.141265573932907 
1745	 0.140162633009396 
1746	 0.13829138028788 
1747	 0.137011456623788 
1748	 0.135729273148993 
1749	 0.134319964449913 
1750	 0.133389668761912 
1751	 0.132952185904256 
1752	 0.132727569799399 
1753	 0.131691708439733 
1754	 0.130596212971695 
1755	 0.129404022254151 
1756	 0.127126909762186 
1757	 0.126606490077123 
1758	 0.125937680353802 
1759	 0.124774449565243 
1760	 0.125107973170836 
1761	 0.125118148191412 
1762	 0.123742565850793 
1763	 0.122598592130696 
1764	 0.120875094728421 
1765	 0.120303337186689 
1766	 0.120490441637573 
1767	 0.119433169083209 
1768	 0.119494193374672 
1769	 0.118384958470676 
1770	 0.116258425780997 
1771	 0.116705369456489 
1772	 0.11594113551137 
1773	 0.114517458153801 
1774	 0.114615007405995 
1775	 0.1139871506158 
1776	 0.113459204754009 
1777	 0.113222142895766 
1778	 0.11280271943399 
1779	 0.112666230645534 
1780	 0.112010431281011 
1781	 0.11065363707771 
1782	 0.109479138721011 
1783	 0.107651949500905 
1784	 0.106925293403921 
1785	 0.107291790640076 
1786	 0.107668188057144 
1787	 0.109425330957154 
1788	 0.108868611648061 
1789	 0.105990971339867 
1790	 0.106705570840947 
1791	 0.106500994262131 
1792	 0.106862310854781 
1793	 0.108521994759379 
1794	 0.10787118851245 
1795	 0.107418632040103 
1796	 0.107775959156787 
1797	 0.109889402443438 
1798	 0.113236488615376 
1799	 0.107892058512125 
1800	 0.110424756515098 
1801	 0.110194539851897 
1802	 0.103557779145892 
1803	 0.102945631024346 
1804	 0.102729559274168 
1805	 0.101880546665599 
1806	 0.115170928430016 
1807	 0.124487767727545 
1808	 0.129123024263479 
1809	 0.132744806342933 
1810	 0.124786035103307 
1811	 0.129341738592116 
1812	 0.143573029153614 
1813	 0.141814087059444 
1814	 0.130703706187965 
1815	 0.173071178627406 
1816	 0.267175480298474 
1817	 0.373517058004174 
1818	 0.255263828189162 
1819	-0.126357135783011 
1820	-0.129095140103663 
1821	 0.268985004888182 
1822	 0.411274787145237 
1823	 0.854045021648168 
1824	 1.32617987491633 
1825	 0.86578916794074 
1826	-0.23593764089286 
1827	-0.515719839842303 
1828	-0.444126964216707 
1829	-5.23476677338573E-02 
1830	 1.18180417198732E-02 
1831	-1.98055825534201 
1832	-1.89328589575446 
1833	 0.172013111286395 
1834	 0.281743567545954 
1835	-0.723292497452579 
1836	-0.775265659734489 
1837	-0.541792549867718 
1838	-0.773562705809998 
1839	-0.447046597468619 
1840	-0.192158126305794 
1841	-1.70819502443778 
1842	 15.3261854426707 
1843	 3.90792219493961 
1844	 1.33914740926194 
1845	 1.12936279969983 
1846	 1.2544721839968 
1847	 5.29450272657271 
1848	-1.09729878588167 
1849	-0.395192654562087 
1850	-3.71482563809677 
1851	 17.5728451994255 
1852	-1.03907506595488 
1853	 0.112465006926895 
1854	 0.173007020257794 
1855	-0.509232904326834 
1856	 3.31965443404129 
1857	 0.856271112256607 
1858	 0.9006723026285 
1859	 1.18534366339957 
1860	 0.738955611886449 
1861	 0.98352453149003 
1862	 1.43009866737766 
1863	 1.05972479302409 
1864	 1.28273032772756 
1865	 1.42475901028818 
1866	 1.28497499723962 
1867	 0.112870636395956 
1868	-0.462350824163242 
1869	-0.359912302314742 
1870	 0.116622477882955 
1871	 0.641943769114778 
1872	 0.456650186129213 
1873	 0.534004365727996 
1874	 0.276959317566422 
1875	-0.299737535878368 
1876	-0.328494455157827 
1877	 2.36804510828003 
1878	 7.04621932870335 
1879	 3.02228026115323 
1880	 3.92987242641018 
1881	-2.14357634419573 
1882	-2.37012799301671 
1883	 1.04507113034797 
1884	 1.93336270140402 
1885	 3.04410743690822 
1886	 2.50587172920871 
1887	-7.20639779312547 
1888	-0.407747280372795 
1889	 0.382409673604515 
1890	 1.3233767808004 
1891	 0.926372398079974 
1892	 0.528488795542231 
1893	 3.68195776942968 
1894	 3.6518214381289 
1895	 0.722889879394637 
1896	 1.15234726812835 
1897	 1.94254120992906 
1898	-0.351197213836463 
1899	-2.31548299195503 
1900	-2.99882501875259 
1901	 5.17762051115598E-02 
1902	 4.21572247684585E-02 
1903	 0.171799836365109 
1904	-0.380137470209153 
1905	 5.7513307490383 
1906	 1.72163569442684 
1907	 0.662094555911533 
1908	 5.78058803267819E-02 
1909	-8.04219521406796E-03 
1910	 1.03857955567822E-02 
1911	-0.936576790584978 
1912	-3.94383417574021 
1913	-11.3402850606342 
1914	 20.4290986601119 
1915	 30.739597463528 
1916	-4.11836118004513 
1917	-2.69892837690401 
1918	-6.21869582602036 
1919	 0.838977257111652 
1920	-9.41983150592012E-02 
1921	 6.53940546171774E-02 
1922	 0.541581432514346 
1923	 0.790776997814778 
1924	 0.619065778599153 
1925	 0.542431324245121 
1926	 0.263607147647448 
1927	-0.318697995396654 
1928	-0.240046841522669 
1929	-9.93320335177581E-02 
1930	-0.135638762894589 
1931	 0.120824948417709 
1932	 0.116220560678113 
1933	 0.205032949417383 
1934	 0.343239872173148 
1935	 0.414967683711012 
1936	 0.531206562901432 
1937	 0.416307470175195 
1938	 0.323666989904582 
1939	 0.255646826970522 
1940	 0.190158628658446 
1941	 0.132760684126555 
1942	 0.133426006988536 
1943	 0.155486542007355 
1944	 0.207566081064705 
1945	 0.228153104879229 
1946	 0.196233786684072 
1947	 0.173433735544438 
1948	 0.157297071372827 
1949	 0.169922154588338 
1950	 0.18042830731448 
1951	 0.166958089156413 
1952	 0.168556023794566 
1953	 0.168886054245259 
1954	 0.156550371119264 
1955	 0.160140845083874 
1956	 0.17344040645012 
1957	 0.165755271159174 
1958	 0.149640816101086 
1959	 0.143875037730301 
1960	 0.141707194630748 
1961	 0.140843113541992 
1962	 0.137949906331436 
1963	 0.124900595825368 
1964	 0.118052647111216 
1965	 0.115766398028574 
1966	 0.112599370534201 
1967	 0.109920585332323 
1968	 0.113233884846703 
1969	 0.115061468052595 
1970	 0.110703092001722 
1971	 0.110545343089495 
1972	 0.11205645534171 
1973	 0.109057225056201 
1974	 0.106753395487947 
1975	 0.1071160852001 
1976	 0.105561031334374 
1977	 0.103600506345331 
1978	 0.104960345175986 
1979	 0.104716148739435 
1980	 0.103505191447939 
1981	 0.10145338664198 
1982	 0.102442872621496 
1983	 0.101195912127774 
1984	 9.92253624468219E-02 
1985	 0.099383276856081 
1986	 9.91933016208096E-02 
1987	 9.73137390030215E-02 
1988	 9.62379033960344E-02 
1989	 9.59673033552437E-02 
1990	 9.39582815791227E-02 
1991	 9.33713892524635E-02 
1992	 9.50720614016127E-02 
1993	 9.51606693012381E-02 
1994	 9.60516739814788E-02 
1995	 9.81970672220178E-02 
1996	 0.100608917451319 
1997	 9.79501123519215E-02 
1998	 9.64922332958662E-02 
1999	 9.53251280128494E-02 
2000	 9.32773703508675E-02 
2001	 9.25385121800575E-02 
2002	 9.40826970003186E-02 
2003	 9.23435072983157E-02 
2004	 9.06994865524891E-02 
2005	 9.00467340028896E-02 
2006	 8.97660103225404E-02 
2007	 9.25614155887162E-02 
2008	 9.65320084885658E-02 
2009	 9.74461243406184E-02 
2010	 9.83532069005249E-02 
2011	 9.85999757195282E-02 
2012	 9.71341689437825E-02 
2013	 9.29247074827198E-02 
2014	 0.092485416431059 
2015	 9.58758934431389E-02 
2016	 9.65844302591118E-02 
2017	 9.60293703906242E-02 
2018	 9.41249412917528E-02 
2019	 9.24515169093375E-02 
2020	 9.06379042362443E-02 
2021	 8.85972165883967E-02 
2022	 8.85957051260698E-02 
2023	 8.86631756929475E-02 
2024	 8.87588169746201E-02 
2025	 8.97867723344803E-02 
2026	 8.96245681010183E-02 
2027	 8.90928209763748E-02 
2028	 8.81244331829571E-02 
2029	 8.78833405352568E-02 
2030	 8.71206174685377E-02 
2031	 8.66398400550734E-02 
2032	 0.087367356231725 
2033	 8.80840444123242E-02 
2034	 8.85044541557349E-02 
2035	 8.82466794078358E-02 
2036	 8.77010043522359E-02 
2037	 8.71335762099273E-02 
2038	 8.68712970450152E-02 
2039	 8.67846393205002E-02 
2040	 8.78564070762077E-02 
2041	 8.78042709208531E-02 
2042	 8.69202339735367E-02 
2043	 8.65250322007173E-02 
2044	 8.59069534065153E-02 
2045	 8.54206899405796E-02 
2046	 8.69235474836895E-02 
2047	 8.79973133839923E-02 
2048	 8.81237590617929E-02 
2049	 0.088780723498797 
2050	 8.79444684464904E-02 
2051	 8.69636555434877E-02 
2052	 8.52053675623093E-02 
2053	 8.49042759131421E-02 
2054	 8.51362559710142E-02 
2055	 8.53712410893405E-02 
2056	 8.57641208689633E-02 
2057	 8.80463342982519E-02 
2058	 8.86016090109916E-02 
2059	 8.72549906256398E-02 
2060	 8.68261283750773E-02 
2061	 8.68090433825211E-02 
2062	 8.67153745844086E-02 
2063	 8.55783526382835E-02 
2064	 8.58008347971499E-02 
2065	 8.66256835515054E-02 
2066	 8.68606604268493E-02 
2067	 8.64047503983755E-02 
2068	 8.64645738650474E-02 
2069	 0.085976626768531 
2070	 8.48927432922866E-02 
2071	 8.47264689043871E-02 
2072	 8.41382882391449E-02 
2073	 8.40136697535887E-02 
2074	 8.38366899618037E-02 
2075	 8.36193131003774E-02 
2076	 8.41693659330841E-02 
2077	 8.38872834543374E-02 
2078	 8.22799566111951E-02 
2079	 8.21095620327447E-02 
2080	 8.25031074301198E-02 
2081	 0.082865203693622 
2082	 8.30205246203415E-02 
2083	 0.083289304343374 
2084	 8.27352624184217E-02 
2085	 8.16127236788672E-02 
2086	 8.11118760394298E-02 
2087	 8.14836642031173E-02 
2088	 8.17012026039853E-02 
2089	 8.21079613019646E-02 
2090	 0.08345558222834 
2091	 8.35227559101067E-02 
2092	 8.32721049450222E-02 
2093	 8.22366755000122E-02 
2094	 8.22180282331531E-02 
2095	 8.25289652752238E-02 
2096	 8.25980131049505E-02 
2097	 0.082781156890166 
2098	 8.30351819085517E-02 
2099	 8.36266827360637E-02 
2100	 8.23646040139848E-02 
2101	 8.17243886292085E-02 
2102	 8.27974972536849E-02 
2103	 8.17645173048913E-02 
2104	 8.13857905741506E-02 
2105	 8.21522806499999E-02 
2106	 8.11108041494972E-02 
2107	 8.06248560060821E-02 
2108	 8.19760173223102E-02 
2109	 8.27174731787231E-02 
2110	 8.26763176746609E-02 
2111	 0.082531734251992 
2112	 8.10422911093667E-02 
2113	 8.07592945669471E-02 
2114	 8.11570389111008E-02 
2115	 8.09312194735383E-02 
2116	 8.10765668675176E-02 
2117	 8.09001207612178E-02 
2118	 7.89701723933116E-02 
2119	 7.85498681399121E-02 
2120	 7.90354903638651E-02 
2121	 8.02281638057271E-02 
2122	 8.09612110997419E-02 
2123	 8.14841527139842E-02 
2124	 8.11972362652312E-02 
2125	 8.05023534631855E-02 
2126	 7.92358974014328E-02 
2127	 7.85102836340674E-02 
2128	 7.85891032470585E-02 
2129	 7.77080852298039E-02 
2130	 7.74447371584906E-02 
2131	 7.79729485820885E-02 
2132	 7.77837037599413E-02 
2133	 7.72656409922733E-02 
2134	 0.077050928806331 
2135	 7.67533017467888E-02 
2136	 7.68937064161098E-02 
2137	 7.76282517629096E-02 
2138	 7.76808149853903E-02 
2139	 7.77277881379316E-02 
2140	 7.71805904004166E-02 
2141	 0.075547887653371 
2142	 7.48362852355452E-02 
2143	 7.42937920004497E-02 
2144	 7.43907351200499E-02 
2145	 7.36501536049698E-02 
2146	 7.31205491250381E-02 
2147	 7.35705276191494E-02 
2148	 7.32082595491449E-02 
2149	 7.28946250459179E-02 
2150	 7.39224716975237E-02 
2151	 0.073588390232176 
2152	 0.072987555957409 
2153	 0.074188362786104 
2154	 7.42503202248003E-02 
2155	 7.24372039950622E-02 
2156	 7.14799596826904E-02 
2157	 7.15575578954004E-02 
2158	 7.18710426761392E-02 
2159	 7.15773385578891E-02 
2160	 7.19452836599078E-02 
2161	 7.26923026314516E-02 
2162	 7.29861195438874E-02 
2163	 7.26002731969174E-02 
2164	 7.32477867240771E-02 
2165	 7.37141155330797E-02 
2166	 7.27742177707681E-02 
2167	 7.22381162292879E-02 
2168	 7.29663485692916E-02 
2169	 0.072586096898435 
2170	 7.10903384941925E-02 
2171	 6.90921670980158E-02 
2172	 6.83294506604033E-02 
2173	 6.82429888067963E-02 
2174	 6.91949404506157E-02 
2175	 6.89621178947211E-02 
2176	 6.79492818653478E-02 
2177	 0.068629519229934 
2178	 6.91244517725947E-02 
2179	 7.07945760993622E-02 
2180	 7.29675807086267E-02 
2181	 7.25933614264282E-02 
2182	 7.06745450693468E-02 
2183	 6.91062774544327E-02 
2184	 6.95327595957235E-02 
2185	 7.06911636892604E-02 
2186	 7.03169128072742E-02 
2187	 0.070526657551377 
2188	 6.97518038218865E-02 
2189	 6.60297203942312E-02 
2190	 6.45686535276146E-02 
2191	 6.49640028933948E-02 
2192	 6.38084203092864E-02 
2193	 0.061354295637463 
2194	 6.08292718768368E-02 
2195	 6.17647431442056E-02 
2196	 6.12208425073202E-02 
2197	 6.11311529705592E-02 
2198	 0.060978673439168 
2199	 5.92930445690974E-02 
2200	 5.82967797764455E-02 
2201	 5.87939744521005E-02 
2202	 5.85330573682113E-02 
2203	 5.89772506065892E-02 
2204	 5.94358605903625E-02 
2205	 5.83591656788371E-02 
2206	 0.059757745810133 
2207	 0.06256009533926 
2208	 6.03847197697064E-02 
2209	 5.97011621354108E-02 
2210	 6.22457605334775E-02 
2211	 6.18421570829138E-02 
2212	 6.14302331177067E-02 
2213	 6.12872328935225E-02 
2214	 5.89063852358493E-02 
2215	 5.93655639443972E-02 
2216	 6.10210747675732E-02 
2217	 6.14774083695134E-02 
2218	 0.063509060355363 
2219	 6.32972243562302E-02 
2220	 5.98934358288801E-02 
2221	 5.95546304023879E-02 
2222	 6.02657289725229E-02 
2223	 6.00781519037817E-02 
2224	 6.10977914984133E-02 
2225	 6.12709358776419E-02 
2226	 0.059619421342702 
2227	 5.89819278067652E-02 
2228	 5.92627766074488E-02 
2229	 5.88038776174678E-02 
2230	 5.82622242410956E-02 
2231	 0.058237514706312 
2232	 0.057722200355544 
2233	 5.84139161037679E-02 
2234	 6.00097496749446E-02 
2235	 0.061354351297542 
2236	 6.40010949857906E-02 
2237	 6.41568382422225E-02 
2238	 0.061718138935872 
2239	 5.96990282058751E-02 
2240	 5.91313628105682E-02 
2241	 0.05985232881246 
2242	 6.33449357670867E-02 
2243	 0.066951555850845 
2244	 6.83246474409299E-02 
2245	 6.85028581808429E-02 
2246	 6.50183893810779E-02 
2247	 6.21834902517141E-02 
2248	 6.38236308121759E-02 
2249	 6.40868582562622E-02 
2250	 6.38140880916442E-02 
2251	 0.066287047908666 
2252	 6.79121838321715E-02 
2253	 6.86371547029239E-02 
2254	 7.02045464596602E-02 
2255	 6.89740839623713E-02 
2256	 6.62161599493481E-02 
2257	 6.50266538447098E-02 
2258	 6.52049823351631E-02 
2259	 6.75278198114137E-02 
2260	 6.86060179960115E-02 
2261	 6.86559970278154E-02 
2262	 7.06222622577806E-02 
2263	 7.39846096622091E-02 
2264	 7.51176843298185E-02 
2265	 7.65016642137417E-02 
2266	 7.63537644540745E-02 
2267	 7.30469837653945E-02 
2268	 7.41363071026722E-02 
2269	 7.81893839683803E-02 
2270	 7.95019976308408E-02 
2271	 0.080061005781174 
2272	 8.10096515252323E-02 
2273	 8.12856645858282E-02 
2274	 8.17228326363201E-02 
2275	 8.34715036914608E-02 
2276	 8.53863086840409E-02 
2277	 8.59896337256423E-02 
2278	 8.62088159330379E-02 
2279	 8.64431925894509E-02 
2280	 8.84354763782486E-02 
2281	 8.91747941290691E-02 
2282	 9.45753117181455E-02 
2283	 9.99260974656306E-02 
2284	 0.103223941528446 
2285	 0.105530876665017 
2286	 0.103627005988499 
2287	 0.108717750597001 
2288	 0.116233220750502 
2289	 0.115242286885743 
2290	 0.118659342135012 
2291	 0.122002700612329 
2292	 0.117936082893474 
2293	 0.121137453643616 
2294	 0.128885581309861 
2295	 0.12943202993111 
2296	 0.128365062431251 
2297	 0.130724499132777 
2298	 0.129548821639342 
2299	 0.125691456264331 
2300	 0.130137430453945 
2301	 0.140048725847794 
2302	 0.146346027875294 
2303	 0.153725750309253 
2304	 0.161429976873364 
2305	 0.160390970582176 
2306	 0.160745645723695 
2307	 0.16479538750391 
2308	 0.167755717545623 
2309	 0.173122426296852 
2310	 0.172972388765497 
2311	 0.171912482164741 
2312	 0.173187250796042 
2313	 0.176796196874239 
2314	 0.18395715897563 
2315	 0.18564289921456 
2316	 0.186503046988341 
2317	 0.19098426894529 
2318	 0.191235997416862 
2319	 0.193849336876434 
2320	 0.201358083509868 
2321	 0.198530669389383 
2322	 0.19754973426623 
2323	 0.202543537892144 
2324	 0.198157515397288 
2325	 0.194030219896759 
2326	 0.194878852685826 
2327	 0.198620002884279 
2328	 0.204552660684174 
2329	 0.203509734071282 
2330	 0.200332032842733 
2331	 0.2045785240595 
2332	 0.206117777559494 
2333	 0.207334050055292 
2334	 0.211964994819441 
2335	 0.209332229664841 
2336	 0.20593601494984 
2337	 0.210186520653114 
2338	 0.215260726185141 
2339	 0.213877599472506 
2340	 0.207854067995425 
2341	 0.19904661944927 
2342	 0.196591458516723 
2343	 0.201156742743094 
2344	 0.202702309697809 
2345	 0.214425956581292 
2346	 0.224140969562042 
2347	 0.219153119053631 
2348	 0.225070081423355 
2349	 0.218644475104791 
2350	 0.206265562035234 
2351	 0.207750844121926 
2352	 0.201733164450606 
2353	 0.201835771415588 
2354	 0.208829009473842 
2355	 0.198676625888595 
2356	 0.186150992450375 
2357	 0.194083785216254 
2358	 0.202852227063774 
2359	 0.210331438733193 
2360	 0.212481036520191 
2361	 0.198182253897906 
2362	 0.189336631986714 
2363	 0.182295014272247 
2364	 0.178460775113951 
2365	 0.1872713459357 
2366	 0.1795109581887 
2367	 0.165535686381712 
2368	 0.171934979402114 
2369	 0.186085641108025 
2370	 0.19002089324603 
2371	 0.184399840603342 
2372	 0.187334269210678 
2373	 0.174144740972832 
2374	 0.160923257518679 
2375	 0.190155570919178 
2376	 0.215531079147103 
2377	 0.187917100213576 
2378	 0.173643361436372 
2379	 0.184142603371754 
2380	 0.174012125787308 
2381	 0.205490418046542 
2382	 0.244240097509526 
2383	 0.22296404797165 
2384	 0.188170339338096 
2385	 0.174920324355758 
2386	 0.162335769934272 
2387	 0.177386004607303 
2388	 0.209162598647028 
2389	 0.21047185883919 
2390	 0.227736182852672 
2391	 0.235303613779831 
2392	 0.213276142818638 
2393	 0.231114278476237 
2394	 0.227844156621773 
2395	 0.199370446870672 
2396	 0.192903066652744 
2397	 0.176344884434588 
2398	 0.169661289884954 
2399	 0.19248291743125 
2400	 0.205135450610263 
2401	 0.171668406744615 
2402	 0.134135098140798 
2403	 0.131483446936282 
2404	 0.146172914640442 
2405	 0.200905817972342 
2406	 0.257119915107807 
2407	 0.295915419959155 
2408	 0.311636359795673 
2409	 0.293783844801327 
2410	 0.299039648820553 
2411	 0.268791222621549 
2412	 0.235798839837891 
2413	 0.223108264322488 
2414	 0.190660584046118 
2415	 0.153503399120968 
2416	 6.54371632047865E-02 
2417	 1.11349374039888E-02 
2418	 7.21805214707684E-02 
2419	 0.101290763113718 
2420	 0.145932999886967 
2421	 0.187524360515342 
2422	 9.77306595326404E-02 
2423	 6.62113343477038E-02 
2424	 0.172757320141455 
2425	 0.165769115916341 
2426	 0.138371173480102 
2427	 0.172977347581984 
2428	 0.121958479124126 
2429	 6.51021689420766E-02 
2430	 5.65341397538355E-02 
2431	 0.091374466544591 
2432	 0.168533129826656 
2433	 0.150102688316559 
2434	 0.14592244435911 
2435	 0.158099688339005 
2436	 4.99247734767369E-02 
2437	 6.49622735170356E-02 
2438	 0.223449466776778 
2439	 0.258308934738141 
2440	 0.214556822898126 
2441	 0.197224835023991 
2442	 0.189473589293881 
2443	 0.119024776476776 
2444	 2.83932548375379E-02 
2445	-5.56678944028577E-02 
2446	-0.169023275844852 
2447	-0.937922793856948 
2448	-1.47363598230595 
2449	 9.94260834879975E-02 
2450	 0.15187477236432 
2451	 0.198539930881594 
2452	-9.57883747861067E-02 
2453	-0.436429602038048 
2454	-0.362717373088399 
2455	-0.402882522867565 
2456	-0.272160988978378 
2457	-0.201206255311753 
2458	-0.466977438334607 
2459	-0.536929993022926 
2460	-0.472021173638443 
2461	-0.765589651739959 
2462	-0.578193555358805 
2463	-0.278054511000349 
2464	-0.300126953450623 
2465	-0.283380174147815 
2466	-0.354867712361317 
2467	-0.526484551228182 
2468	-1.12964206726808 
2469	-2.37619743770291 
2470	-1.95066243377917 
2471	-1.74011056313216 
2472	-0.17782548873425 
2473	 0.695389331578465 
2474	 0.727795606761513 
2475	 1.41651559129988 
2476	 1.42207306023073 
2477	 0.537086667103269 
2478	 0.872528085589464 
2479	 1.35556392954976 
2480	-4.86016284564904E-02 
2481	 0.162947834314623 
2482	 0.708832595837357 
2483	 9.22185817107272E-02 
2484	 2.56401921785693 
2485	-0.162128801143827 
2486	 9.19889605812843 
2487	 3.17356212591157 
2488	 1.42346282024788 
2489	 3.7463109263382 
2490	 0.819515767494492 
2491	 0.446972241774858 
2492	 1.12981187057073 
2493	 4.32584896484712 
2494	-2.87408169254864 
2495	-16.9731930614001 
2496	 2.27930372437844 
2497	 1.74251827812061 
2498	 0.312525695402855 
2499	 1.40685493515305E-02 
2500	-96.434778805296 
