Wavelength	rt0711c00008.asd
350	 4.87917936107576E-02 
351	 4.82684437392209E-02 
352	 4.91814265119362E-02 
353	 4.99278124702193E-02 
354	 4.95174094158987E-02 
355	 4.91905858007163E-02 
356	 4.93286733821472E-02 
357	 4.95266876762077E-02 
358	 4.93363354034541E-02 
359	 4.93704695947422E-02 
360	 4.96374282042289E-02 
361	 4.99860841900605E-02 
362	 5.01630837583428E-02 
363	 4.98616378565793E-02 
364	 4.96845101944926E-02 
365	 4.98311886190638E-02 
366	 4.97317672458781E-02 
367	 4.99414849176098E-02 
368	 5.00517480166153E-02 
369	 4.97129709242385E-02 
370	 4.96207035427661E-02 
371	 4.98383372812094E-02 
372	 5.02080144235449E-02 
373	 5.04446922299063E-02 
374	 5.04590707157079E-02 
375	 5.07176254921047E-02 
376	 0.051090442461909 
377	 5.06061376965735E-02 
378	 5.10239142331258E-02 
379	 5.16310008978498E-02 
380	 5.16157371616138E-02 
381	 5.17837093984127E-02 
382	 5.18780950975105E-02 
383	 5.19107488249742E-02 
384	 5.20246755125502E-02 
385	 5.23254096599873E-02 
386	 5.28800384607409E-02 
387	 5.31934305113943E-02 
388	 5.22937263471895E-02 
389	 5.27962931758751E-02 
390	 5.34377505025654E-02 
391	 5.31860530860622E-02 
392	 5.34727122319967E-02 
393	 0.053748070829855 
394	 5.38573666198132E-02 
395	 5.38474010595072E-02 
396	 5.40144954414725E-02 
397	 5.40883427143783E-02 
398	 0.054001993789977 
399	 5.38998284329678E-02 
400	 5.41787195795927E-02 
401	 5.43130952300934E-02 
402	 5.41394600347167E-02 
403	 5.46716813774996E-02 
404	 5.46094664516118E-02 
405	 0.054383567758331 
406	 5.47917719260245E-02 
407	 5.47574793006694E-02 
408	 5.47301488110408E-02 
409	 5.48317056520473E-02 
410	 5.47913817179092E-02 
411	 5.49637094608285E-02 
412	 5.50917268450863E-02 
413	 5.50566571370395E-02 
414	 5.53482326045289E-02 
415	 5.55039374530968E-02 
416	 5.55343507967172E-02 
417	 5.56177040932068E-02 
418	 5.56526172838687E-02 
419	 5.58499580478755E-02 
420	 5.60953658729236E-02 
421	 5.59369911185703E-02 
422	 5.60171180239799E-02 
423	 5.62834346248975E-02 
424	 5.65507454093826E-02 
425	 5.66908526501688E-02 
426	 5.69212518490394E-02 
427	 5.71437629740562E-02 
428	 5.71773400256706E-02 
429	 5.74174829042206E-02 
430	 5.77095738923559E-02 
431	 5.79307186413993E-02 
432	 5.80627134519985E-02 
433	 5.82140660612086E-02 
434	 5.83953566036085E-02 
435	 0.05859659063011 
436	 5.88198848099198E-02 
437	 5.91080374752608E-02 
438	 5.93991255440632E-02 
439	 5.95969378474822E-02 
440	 5.98755697219124E-02 
441	 6.00502176826719E-02 
442	 6.01049968576906E-02 
443	 6.03216035948095E-02 
444	 0.06058248789659 
445	 6.08274858390039E-02 
446	 6.10239945505609E-02 
447	 6.12047125193347E-02 
448	 6.13297451957002E-02 
449	 6.14078678076484E-02 
450	 6.14899194946733E-02 
451	 6.16529810634119E-02 
452	 6.18181208483156E-02 
453	 6.19460430279567E-02 
454	 6.21396354959165E-02 
455	 6.21705506270177E-02 
456	 6.21477929015457E-02 
457	 6.22486943645299E-02 
458	 6.22949202263533E-02 
459	 6.22951290894794E-02 
460	 0.062332141029979 
461	 6.25363581579039E-02 
462	 6.25992781025058E-02 
463	 0.062549564318016 
464	 6.25266156650797E-02 
465	 6.27963914576712E-02 
466	 6.28848669574083E-02 
467	 6.28393025252985E-02 
468	 0.062942792339373 
469	 6.30976231246469E-02 
470	 0.063168600508193 
471	 6.31682618750737E-02 
472	 6.33071140542978E-02 
473	 6.34520828420682E-02 
474	 0.063579225899965 
475	 6.37065208256923E-02 
476	 6.38988900052221E-02 
477	 6.41247268122982E-02 
478	 6.42719697969117E-02 
479	 6.42240315368061E-02 
480	 6.44247848006579E-02 
481	 0.064639636063083 
482	 6.47357301433269E-02 
483	 6.49704552285147E-02 
484	 0.065295572175485 
485	 6.55982295750504E-02 
486	 6.57568183329133E-02 
487	 6.57589929304769E-02 
488	 6.59234027592288E-02 
489	 6.62722234009098E-02 
490	 6.65382864489474E-02 
491	 6.68570733892144E-02 
492	 6.71894619490041E-02 
493	 0.067481836168588 
494	 6.77149127532914E-02 
495	 6.80416776644513E-02 
496	 6.84133970113306E-02 
497	 6.87000079194667E-02 
498	 6.90432770937836E-02 
499	 6.94316779163343E-02 
500	 6.98094820585757E-02 
501	 7.00747142212606E-02 
502	 7.04920557147986E-02 
503	 7.09389114643219E-02 
504	 7.12566500875183E-02 
505	 7.16077223705424E-02 
506	 0.072048992453544 
507	 0.07248852429348 
508	 7.27480940121969E-02 
509	 7.32055232758543E-02 
510	 0.073635428444375 
511	 0.073898192417447 
512	 7.42667800505201E-02 
513	 7.47969098091446E-02 
514	 7.54103295731878E-02 
515	 7.59579756720725E-02 
516	 7.64112227803225E-02 
517	 7.68885197861332E-02 
518	 7.73940590244217E-02 
519	 0.077778158056721 
520	 7.83488763280207E-02 
521	 7.89400952114417E-02 
522	 7.94058992111292E-02 
523	 8.00539634586163E-02 
524	 8.06933647896485E-02 
525	 8.13324184311028E-02 
526	 0.082100995888151 
527	 8.27521460228146E-02 
528	 8.33754186915529E-02 
529	 0.084044378052762 
530	 8.47022977488114E-02 
531	 8.54206356208266E-02 
532	 8.61779256650648E-02 
533	 8.69249290440082E-02 
534	 8.76939233279031E-02 
535	 8.84515380591994E-02 
536	 8.92146023562283E-02 
537	 9.00529940771214E-02 
538	 9.08967832978774E-02 
539	 9.17594952275785E-02 
540	 9.26355690463991E-02 
541	 0.093386274202189 
542	 9.41918477093716E-02 
543	 9.50220782855911E-02 
544	 9.57399390039627E-02 
545	 9.65580378682141E-02 
546	 9.73200773788486E-02 
547	 9.79589446770211E-02 
548	 9.86684337680684E-02 
549	 9.93721152287191E-02 
550	 0.100063545999375 
551	 0.100755799327111 
552	 0.101448264030613 
553	 0.102092585665833 
554	 0.102727429382962 
555	 0.103483295638076 
556	 0.10415975583456 
557	 0.104837754635877 
558	 0.105587310519644 
559	 0.106239369708605 
560	 0.106871771034153 
561	 0.107548684165502 
562	 0.108306338826781 
563	 0.108946401722084 
564	 0.109553938617803 
565	 0.110153903388465 
566	 0.110575162684753 
567	 0.111025457908303 
568	 0.111457876869159 
569	 0.111760488639603 
570	 0.112030813177485 
571	 0.112267620449834 
572	 0.112468750312349 
573	 0.112636698151189 
574	 0.11282146316893 
575	 0.113015684466418 
576	 0.113209282437568 
577	 0.113449542132136 
578	 0.113600832343805 
579	 0.113682865609609 
580	 0.113806146734089 
581	 0.113924017725724 
582	 0.113987605222927 
583	 0.114001471498791 
584	 0.114076121550985 
585	 0.114006646486827 
586	 0.113949933528748 
587	 0.114091915744315 
588	 0.114012046526283 
589	 0.113607438039759 
590	 0.113104963831244 
591	 0.112975138558777 
592	 0.112676898945789 
593	 0.112207773390499 
594	 0.111661949933123 
595	 0.111040971145424 
596	 0.110367335234506 
597	 0.109634019809113 
598	 0.108840407574931 
599	 0.108174592735436 
600	 0.107534363556418 
601	 0.106912058027654 
602	 0.106523114290105 
603	 0.106273941653259 
604	 0.106118144110539 
605	 0.10603609214739 
606	 0.106101983051133 
607	 0.106038736453949 
608	 0.105864108257052 
609	 0.105902554295658 
610	 0.105859807295368 
611	 0.105839786877061 
612	 0.105904276431979 
613	 0.105736275528533 
614	 0.105614690023276 
615	 0.105573346876918 
616	 0.105519465981999 
617	 0.105567888975258 
618	 0.10554888283113 
619	 0.105419445057356 
620	 0.105385361686128 
621	 0.105291936745025 
622	 0.105209186829093 
623	 0.105220376866114 
624	 0.105105935264033 
625	 0.105104487311682 
626	 0.105167909166262 
627	 0.104983335482479 
628	 0.104868806979104 
629	 0.104812540291565 
630	 0.104746809402452 
631	 0.10462469143707 
632	 0.104612896709119 
633	 0.104623520899905 
634	 0.104485985655091 
635	 0.104436916963394 
636	 0.104394271887105 
637	 0.104306589047519 
638	 0.104207145901112 
639	 0.104145633937896 
640	 0.10408467455527 
641	 0.10398528158431 
642	 0.103925637260985 
643	 0.103792675391549 
644	 0.103636378506465 
645	 0.103625106841773 
646	 0.103512925992041 
647	 0.103370468845727 
648	 0.103257982292368 
649	 0.103062237913574 
650	 0.102949599535887 
651	 0.102762818260121 
652	 0.102296525592149 
653	 0.101864358771553 
654	 0.101398183457825 
655	 0.10082218230278 
656	 0.100170509743175 
657	 9.96279972960955E-02 
658	 9.90808003623289E-02 
659	 9.84516477052498E-02 
660	 9.80398439555626E-02 
661	 9.76744124646884E-02 
662	 9.72700529613305E-02 
663	 9.68273869349817E-02 
664	 9.65809338168915E-02 
665	 9.62973669646943E-02 
666	 9.59077888983439E-02 
667	 9.57577404249907E-02 
668	 9.55467158712778E-02 
669	 9.52940746618889E-02 
670	 9.51160499345008E-02 
671	 9.50532032036372E-02 
672	 9.49744951414414E-02 
673	 9.48784650898701E-02 
674	 9.48877570257941E-02 
675	 9.49544549692268E-02 
676	 9.49736148107687E-02 
677	 9.49162112486695E-02 
678	 9.49639821345549E-02 
679	 9.50522746454363E-02 
680	 9.51659645169924E-02 
681	 9.53151090418948E-02 
682	 9.55464206513854E-02 
683	 9.58192202051502E-02 
684	 9.61083372034559E-02 
685	 9.64496644724239E-02 
686	 9.68487234796575E-02 
687	 9.70828564943161E-02 
688	 9.70219439509328E-02 
689	 9.70493577248649E-02 
690	 9.68953455465097E-02 
691	 9.66600707199161E-02 
692	 9.66182352673975E-02 
693	 0.096461266306917 
694	 0.096086225941818 
695	 0.095541923173578 
696	 9.49896136464195E-02 
697	 9.44901033453833E-02 
698	 9.39414848687382E-02 
699	 9.32583602639374E-02 
700	 9.25778257292919E-02 
701	 9.18474860660868E-02 
702	 9.10096313380817E-02 
703	 9.00125849028383E-02 
704	 8.91712528858718E-02 
705	 8.81973650426898E-02 
706	 8.69697082203027E-02 
707	 8.58597378805839E-02 
708	 0.084808293664585 
709	 8.36110380689248E-02 
710	 0.082091825355757 
711	 8.06428784989994E-02 
712	 7.91107519046653E-02 
713	 7.74633398078904E-02 
714	 0.075792959853799 
715	 7.42957167415236E-02 
716	 7.27558106871664E-02 
717	 7.10166857229121E-02 
718	 6.91870606224462E-02 
719	 6.71655880084954E-02 
720	 6.52439773347261E-02 
721	 6.34555580689281E-02 
722	 0.062163455489232 
723	 0.060647114874296 
724	 5.87983059918355E-02 
725	 5.70412224183108E-02 
726	 5.50428811202931E-02 
727	 5.29941269536807E-02 
728	 5.10480511410191E-02 
729	 4.87924576546218E-02 
730	 4.65969959010863E-02 
731	 4.46005944549333E-02 
732	 0.042736901738614 
733	 4.11518654788488E-02 
734	 3.99705318113037E-02 
735	 3.91023858079838E-02 
736	 3.81469428806571E-02 
737	 3.74207907544818E-02 
738	 3.69009034868234E-02 
739	 3.65140133151881E-02 
740	 3.62557788984756E-02 
741	 3.61191805845205E-02 
742	 0.035989358874252 
743	 3.57422926705545E-02 
744	 3.56521774093429E-02 
745	 3.56509660534226E-02 
746	 3.56751122126664E-02 
747	 3.57179485259147E-02 
748	 3.55201058363593E-02 
749	 3.53490192070118E-02 
750	 3.54282943150843E-02 
751	 3.53633714504984E-02 
752	 3.53387116566911E-02 
753	 3.53633847981319E-02 
754	 3.53558965685556E-02 
755	 3.53570517263788E-02 
756	 3.52196137153442E-02 
757	 3.50255372523085E-02 
758	 3.52883789322557E-02 
759	 0.036098007119995 
760	 3.69728107108425E-02 
761	 0.03682579553416 
762	 3.68875160088991E-02 
763	 3.69145034466986E-02 
764	 3.66267129793648E-02 
765	 3.59960004383488E-02 
766	 3.58395199191768E-02 
767	 3.58178300368719E-02 
768	 3.58181443032516E-02 
769	 3.59490487198652E-02 
770	 3.59902815944694E-02 
771	 3.60171482772964E-02 
772	 3.61302044152702E-02 
773	 0.036343298289459 
774	 3.64399841681303E-02 
775	 3.65310873502304E-02 
776	 3.68043034597737E-02 
777	 3.69342877943368E-02 
778	 3.71122271297582E-02 
779	 3.73492074540192E-02 
780	 3.74561303424351E-02 
781	 3.76125536766634E-02 
782	 3.79094864188517E-02 
783	 3.82959189088896E-02 
784	 3.84396794732473E-02 
785	 3.86500173644264E-02 
786	 3.90075678396166E-02 
787	 3.94644910492222E-02 
788	 3.98022627478688E-02 
789	 4.00619332052987E-02 
790	 4.03280814651062E-02 
791	 4.06948919615136E-02 
792	 4.10593064923141E-02 
793	 0.041288189016705 
794	 4.14399178502822E-02 
795	 4.18787118074512E-02 
796	 4.21796558939149E-02 
797	 4.24405727033185E-02 
798	 0.042808710191721 
799	 4.30368373162919E-02 
800	 4.33400193915572E-02 
801	 4.35780079650484E-02 
802	 4.35025871770216E-02 
803	 4.35841449355131E-02 
804	 0.043714183977458 
805	 0.043782995376987 
806	 0.043752046306229 
807	 0.043848631392196 
808	 4.39122009937204E-02 
809	 0.043775390692226 
810	 0.043426939074406 
811	 4.33244239995474E-02 
812	 4.32906597743404E-02 
813	 4.29782864095445E-02 
814	 4.28637828161517E-02 
815	 4.27895186335379E-02 
816	 4.25515907488837E-02 
817	 4.19986914834793E-02 
818	 4.12855934466348E-02 
819	 4.04971823988769E-02 
820	 3.97550970929108E-02 
821	 3.93072831781533E-02 
822	 3.85809316759893E-02 
823	 3.75409777573464E-02 
824	 3.63824064233907E-02 
825	 3.52603043581472E-02 
826	 3.41796486121246E-02 
827	 3.30953229241012E-02 
828	 3.20063537543246E-02 
829	 0.030927701010129 
830	 2.99132535851042E-02 
831	 2.90612586415659E-02 
832	 2.84667006670876E-02 
833	 2.76564282048966E-02 
834	 2.71817475474287E-02 
835	 2.71508490945136E-02 
836	 2.69662735805893E-02 
837	 0.026489018214421 
838	 2.60378288283739E-02 
839	 2.58845796118907E-02 
840	 2.59350436936152E-02 
841	 2.56580780196475E-02 
842	 2.52718150684963E-02 
843	 2.51642515244141E-02 
844	 0.024981268776795 
845	 2.49742756170992E-02 
846	 2.49606163963848E-02 
847	 2.45462663961792E-02 
848	 2.43671434195481E-02 
849	 2.42971915675962E-02 
850	 2.41396690737087E-02 
851	 2.37627917428327E-02 
852	 2.40070117743528E-02 
853	 2.41974913074082E-02 
854	 0.023870816315167 
855	 2.37093747666764E-02 
856	 0.023782236244732 
857	 2.36804421005691E-02 
858	 2.31798952680055E-02 
859	 0.02321684982797 
860	 2.32671247129271E-02 
861	 2.32644209971937E-02 
862	 0.023295855506086 
863	 2.27986148501685E-02 
864	 2.26383654396072E-02 
865	 2.28737674575158E-02 
866	 2.27854364629684E-02 
867	 2.27384465597538E-02 
868	 2.25792225430878E-02 
869	 0.022261313662125 
870	 2.19520126922902E-02 
871	 2.17258001311755E-02 
872	 2.18875879764505E-02 
873	 2.23106599603152E-02 
874	 2.18308790144347E-02 
875	 2.17162150738795E-02 
876	 2.18894593960815E-02 
877	 2.18876538018665E-02 
878	 2.14867640947851E-02 
879	 2.14504699946834E-02 
880	 2.14555724675669E-02 
881	 2.09151212493214E-02 
882	 2.09484024284516E-02 
883	 2.09722982603822E-02 
884	 2.08650707134095E-02 
885	 2.08547314457421E-02 
886	 2.03850422033467E-02 
887	 0.020220716265563 
888	 2.04906654079781E-02 
889	 2.04803249179908E-02 
890	 2.04647102341359E-02 
891	 0.020386139924551 
892	 2.02728505175434E-02 
893	 2.03960503562487E-02 
894	 2.02912304320991E-02 
895	 2.05309600518834E-02 
896	 2.13309624365531E-02 
897	 2.09014085954767E-02 
898	 0.020873042095287 
899	 2.09309266659138E-02 
900	 2.04714980420041E-02 
901	 2.04414659470236E-02 
902	 2.00418984035621E-02 
903	 1.98402210678918E-02 
904	 2.04047708426723E-02 
905	 1.95539962258529E-02 
906	 1.94321739885903E-02 
907	 2.02521228126432E-02 
908	 2.06407808238672E-02 
909	 1.98125692377111E-02 
910	 1.95217395953396E-02 
911	 1.99256136420046E-02 
912	 1.96952288702776E-02 
913	 2.01562442359061E-02 
914	 2.02345441166227E-02 
915	 1.97591044916374E-02 
916	 1.97927100905698E-02 
917	 1.94614635734732E-02 
918	 1.91929737154564E-02 
919	 1.92763649684485E-02 
920	 1.95464229727208E-02 
921	 0.018830347901222 
922	 1.85395499682105E-02 
923	 1.91933044780318E-02 
924	 1.84095292640806E-02 
925	 1.79934779613402E-02 
926	 1.85843917000553E-02 
927	 1.99485138150366E-02 
928	 2.00311700167601E-02 
929	 1.83039457949357E-02 
930	 1.76199671661196E-02 
931	 2.13729978951083E-02 
932	 2.05798702317697E-02 
933	 2.12647846566536E-02 
934	 2.23892960030965E-02 
935	 2.05577598844769E-02 
936	 2.01548798992704E-02 
937	 1.92019954116103E-02 
938	 1.90090145605979E-02 
939	 2.04060966506424E-02 
940	 1.83332902367904E-02 
941	 1.73383681700587E-02 
942	 1.99783789859021E-02 
943	 2.54073375843668E-02 
944	 2.06138230543349E-02 
945	 1.83531872697553E-02 
946	 1.98550651507018E-02 
947	 1.87259600259392E-02 
948	 1.74647181164745E-02 
949	 1.65340120535014E-02 
950	 1.73154726363861E-02 
951	 2.06251570356354E-02 
952	 2.10009300801567E-02 
953	 1.86883266424787E-02 
954	 1.74004105696248E-02 
955	 2.06873508726648E-02 
956	 1.79555265899585E-02 
957	 1.64238329434978E-02 
958	 1.78900806631025E-02 
959	 1.90381375468074E-02 
960	 0.018770279098427 
961	 1.88875467889405E-02 
962	 1.92694439564262E-02 
963	 1.86007330875183E-02 
964	 1.87657742817558E-02 
965	 1.98590677541071E-02 
966	 1.98605878690458E-02 
967	 1.66641250098077E-02 
968	 1.82351029564835E-02 
969	 1.85346437247171E-02 
970	 1.64906256322347E-02 
971	 0.016177554743947 
972	 1.76041656393129E-02 
973	 1.78825413078985E-02 
974	 1.71452062792157E-02 
975	 1.82351694492558E-02 
976	 1.76921569842833E-02 
977	 1.82948215530948E-02 
978	 1.90871635409381E-02 
979	 1.64991415901876E-02 
980	 1.70728682484662E-02 
981	 1.79688652274251E-02 
982	 0.017321162422079 
983	 1.56148376486581E-02 
984	 1.77210751274636E-02 
985	 0.018640178556694 
986	 1.73002808434764E-02 
987	 1.65137213194848E-02 
988	 1.68698678413737E-02 
989	 1.58059999886167E-02 
990	 1.49170499477218E-02 
991	 1.77940074723966E-02 
992	 1.81426199846077E-02 
993	 1.80404691387143E-02 
994	 1.74107035540158E-02 
995	 1.52445376911832E-02 
996	 1.72834977697155E-02 
997	 0.016339765856263 
998	 1.39850217388095E-02 
999	 1.60635005595524E-02 
1000	 1.61127447139125E-02 
1001	 1.32773652796627E-02 
1002	 1.35144173097617E-02 
1003	 1.35617703022845E-02 
1004	 1.30613843229728E-02 
1005	 1.29680237938413E-02 
1006	 1.31784692756014E-02 
1007	 1.30613274138249E-02 
1008	 1.30453464793909E-02 
1009	 1.28430504263393E-02 
1010	 1.22795012733828E-02 
1011	 1.22001160417785E-02 
1012	 1.23438532571251E-02 
1013	 1.24748566146419E-02 
1014	 1.25394717216708E-02 
1015	 1.26640213455491E-02 
1016	 1.27794769954122E-02 
1017	 1.28439905576274E-02 
1018	 1.28926567943858E-02 
1019	 1.31371724741235E-02 
1020	 1.31585289180809E-02 
1021	 1.31066204297089E-02 
1022	 1.27099887963486E-02 
1023	 1.23757858884576E-02 
1024	 1.22583293878221E-02 
1025	 1.19264449692762E-02 
1026	 1.18444061299186E-02 
1027	 1.18954432076448E-02 
1028	 1.21265500352096E-02 
1029	 1.22196325219946E-02 
1030	 1.23065672847633E-02 
1031	 1.26488297083398E-02 
1032	 1.32423141350007E-02 
1033	 1.34131269451681E-02 
1034	 1.37081060167393E-02 
1035	 1.37698892116286E-02 
1036	 1.32848426312532E-02 
1037	 1.30526438040711E-02 
1038	 1.28625477978581E-02 
1039	 1.27788715714701E-02 
1040	 1.26213664727062E-02 
1041	 1.24808267796824E-02 
1042	 1.27325776682962E-02 
1043	 1.35055724042809E-02 
1044	 0.013522658341425 
1045	 0.013527592977151 
1046	 0.013312215555458 
1047	 1.22532801570201E-02 
1048	 1.20206069316293E-02 
1049	 1.21571709647086E-02 
1050	 1.23150114025295E-02 
1051	 1.30054086193189E-02 
1052	 1.32188058418284E-02 
1053	 1.32141905460611E-02 
1054	 1.32676631565093E-02 
1055	 1.31736698558979E-02 
1056	 1.30364537762818E-02 
1057	 1.28822704375359E-02 
1058	 1.27473030362477E-02 
1059	 1.26879843569988E-02 
1060	 1.24318118629971E-02 
1061	 1.25647366837054E-02 
1062	 1.31810101475193E-02 
1063	 1.33036290532122E-02 
1064	 1.34312072521912E-02 
1065	 1.33927007823465E-02 
1066	 1.28839495755852E-02 
1067	 1.27109300195324E-02 
1068	 1.27038579358072E-02 
1069	 1.26136331798957E-02 
1070	 1.25145878219674E-02 
1071	 0.012521820257588 
1072	 1.25848150120786E-02 
1073	 1.26186477315256E-02 
1074	 1.26196205511784E-02 
1075	 1.26593090637458E-02 
1076	 1.27447924030816E-02 
1077	 1.28827526269879E-02 
1078	 1.27742052378282E-02 
1079	 1.25972192162929E-02 
1080	 0.012517401906164 
1081	 1.21561658504451E-02 
1082	 1.20820245973629E-02 
1083	 1.23271102752724E-02 
1084	 1.24230758546918E-02 
1085	 1.26910033721448E-02 
1086	 1.26507840724847E-02 
1087	 1.22454319528489E-02 
1088	 1.21582258821772E-02 
1089	 1.21224281890021E-02 
1090	 1.18484454613432E-02 
1091	 1.19371494935179E-02 
1092	 1.26077165325855E-02 
1093	 1.25808338586946E-02 
1094	 1.20906446031689E-02 
1095	 1.20678021602735E-02 
1096	 1.19934488678982E-02 
1097	 1.19661339127933E-02 
1098	 1.24503794668751E-02 
1099	 1.26668114795207E-02 
1100	 1.23550397771926E-02 
1101	 1.23739557017179E-02 
1102	 1.27894013049963E-02 
1103	 1.28271425679176E-02 
1104	 0.012229220540778 
1105	 1.29764804830632E-02 
1106	 1.32447708409148E-02 
1107	 1.26175527071927E-02 
1108	 1.33830635987265E-02 
1109	 1.38821196523563E-02 
1110	 1.37414107042226E-02 
1111	 1.33681854516633E-02 
1112	 1.33194594052534E-02 
1113	 0.011743922743049 
1114	 1.17390927588843E-02 
1115	 1.45361313762986E-02 
1116	 0.014814125595001 
1117	 0.013629376408208 
1118	 0.013723994495627 
1119	 1.21213330883462E-02 
1120	 1.14301381810304E-02 
1121	 1.34185888277775E-02 
1122	 1.51735513601467E-02 
1123	 1.51304785347763E-02 
1124	 1.35290515529784E-02 
1125	 0.012041396308609 
1126	 1.18617831751062E-02 
1127	 1.29437054001652E-02 
1128	 1.52824287241989E-02 
1129	 1.51331381594919E-02 
1130	 0.013877091244832 
1131	 1.38332794769001E-02 
1132	 1.26193409646427E-02 
1133	 1.23716250787914E-02 
1134	 1.33842541991916E-02 
1135	 1.42345305333619E-02 
1136	 1.58594047497968E-02 
1137	 1.54490206296283E-02 
1138	 1.35379317854108E-02 
1139	 1.35645737891138E-02 
1140	 1.42468551159078E-02 
1141	 1.36848351882334E-02 
1142	 1.31236121363756E-02 
1143	 1.36480549275417E-02 
1144	 1.31331917143134E-02 
1145	 1.22204605871982E-02 
1146	 1.42092254638351E-02 
1147	 0.014990073739457 
1148	 1.37604103558147E-02 
1149	 0.014341614067108 
1150	 0.014544388592573 
1151	 1.45663572804766E-02 
1152	 0.014454748328739 
1153	 1.46705471234528E-02 
1154	 1.42857960661656E-02 
1155	 1.32062033894155E-02 
1156	 1.34714539207226E-02 
1157	 1.36867015852471E-02 
1158	 0.013639587157156 
1159	 1.39940855677484E-02 
1160	 0.013483651061547 
1161	 1.30054192372917E-02 
1162	 1.32828196679527E-02 
1163	 1.28048152556414E-02 
1164	 1.23754772082991E-02 
1165	 1.22947870155122E-02 
1166	 1.19283860709656E-02 
1167	 1.24434217844384E-02 
1168	 1.31914841656348E-02 
1169	 1.32488082651818E-02 
1170	 1.31947220698223E-02 
1171	 0.013127739010514 
1172	 1.25972122251322E-02 
1173	 1.24613698208914E-02 
1174	 1.26089042035904E-02 
1175	 1.25554742953874E-02 
1176	 1.27553286559099E-02 
1177	 1.28618288780127E-02 
1178	 1.25161470253421E-02 
1179	 1.25839062144953E-02 
1180	 1.25775116646115E-02 
1181	 1.23067942419942E-02 
1182	 1.26418181230389E-02 
1183	 1.29102914279827E-02 
1184	 1.27130002502803E-02 
1185	 1.26046495163272E-02 
1186	 1.25687755440124E-02 
1187	 1.24608996887094E-02 
1188	 1.24013916843231E-02 
1189	 1.23533538566588E-02 
1190	 1.23013761788493E-02 
1191	 1.21908834827412E-02 
1192	 1.20881685711056E-02 
1193	 1.19402874215731E-02 
1194	 1.20658235695067E-02 
1195	 1.23183674341914E-02 
1196	 1.25156753478483E-02 
1197	 1.28151348641241E-02 
1198	 1.27936218625102E-02 
1199	 1.22928859919543E-02 
1200	 1.18670998439802E-02 
1201	 1.18669843101937E-02 
1202	 1.19728774733209E-02 
1203	 1.19240284911551E-02 
1204	 1.20606828807559E-02 
1205	 1.20395321452649E-02 
1206	 1.19988576583309E-02 
1207	 1.23754238753543E-02 
1208	 1.24984839944212E-02 
1209	 1.25134300622461E-02 
1210	 1.26337593023464E-02 
1211	 1.23979092695543E-02 
1212	 1.21392161822609E-02 
1213	 1.23377729781082E-02 
1214	 1.23631508246627E-02 
1215	 1.23159711579355E-02 
1216	 1.20869130990666E-02 
1217	 1.20803524825768E-02 
1218	 1.19058957998561E-02 
1219	 1.16044861121013E-02 
1220	 1.16289419893541E-02 
1221	 1.17832967145668E-02 
1222	 1.18734619581114E-02 
1223	 1.18213499013169E-02 
1224	 1.16541671329238E-02 
1225	 1.17081566544659E-02 
1226	 1.18662500108967E-02 
1227	 1.18391070300461E-02 
1228	 1.19203103885257E-02 
1229	 1.19793083943148E-02 
1230	 1.15619180538327E-02 
1231	 1.14128446852288E-02 
1232	 1.17264805437647E-02 
1233	 1.17341373317781E-02 
1234	 1.17667203918978E-02 
1235	 1.18434212976475E-02 
1236	 1.18267352543463E-02 
1237	 1.17639604003265E-02 
1238	 1.17525219826762E-02 
1239	 1.17769572459483E-02 
1240	 1.15427717824946E-02 
1241	 1.14557839997654E-02 
1242	 1.15785700207414E-02 
1243	 0.011704203885116 
1244	 0.011692026166469 
1245	 1.14508860317295E-02 
1246	 0.011358927713994 
1247	 1.14546359798011E-02 
1248	 1.15501416680159E-02 
1249	 1.16692160235601E-02 
1250	 1.16386620712737E-02 
1251	 1.14450220097257E-02 
1252	 1.14824846740624E-02 
1253	 1.17672267929447E-02 
1254	 1.16180511103356E-02 
1255	 0.011357742429691 
1256	 1.14393700649036E-02 
1257	 1.16895909044113E-02 
1258	 1.16332089590824E-02 
1259	 1.16296303071605E-02 
1260	 1.17130009716958E-02 
1261	 1.16649253745053E-02 
1262	 1.15770356727028E-02 
1263	 1.16069786669745E-02 
1264	 1.17178577613496E-02 
1265	 1.19002862948191E-02 
1266	 1.16710904066205E-02 
1267	 1.14783118602897E-02 
1268	 1.18626249639152E-02 
1269	 1.19406895651273E-02 
1270	 1.16666572243431E-02 
1271	 1.17961910967079E-02 
1272	 1.19727630053646E-02 
1273	 1.16880465031058E-02 
1274	 0.011408496195009 
1275	 1.16108780478117E-02 
1276	 1.16136399616087E-02 
1277	 1.13358082819589E-02 
1278	 1.13867172445883E-02 
1279	 1.15216983816959E-02 
1280	 1.14148217895655E-02 
1281	 1.13789000345041E-02 
1282	 1.16531594133985E-02 
1283	 1.17856144248353E-02 
1284	 1.16653461994235E-02 
1285	 1.15296133939086E-02 
1286	 1.14450899450541E-02 
1287	 1.14827094325559E-02 
1288	 1.14819884733495E-02 
1289	 1.14350383404823E-02 
1290	 1.16506167927829E-02 
1291	 1.15221310172931E-02 
1292	 0.011115945735271 
1293	 1.13086443278872E-02 
1294	 1.17948756359345E-02 
1295	 1.16944025773486E-02 
1296	 1.14929053072014E-02 
1297	 1.14804072286142E-02 
1298	 1.14422498904974E-02 
1299	 1.15928406119523E-02 
1300	 1.17258170097749E-02 
1301	 1.16362162402971E-02 
1302	 1.16985954267854E-02 
1303	 1.16879239540092E-02 
1304	 1.12576488870421E-02 
1305	 1.09875609927646E-02 
1306	 1.11089250094826E-02 
1307	 1.13555648148481E-02 
1308	 1.13166191689071E-02 
1309	 1.16613997698696E-02 
1310	 1.19330938451857E-02 
1311	 1.16954915253383E-02 
1312	 1.15283225609873E-02 
1313	 1.19391760418588E-02 
1314	 1.19201020576377E-02 
1315	 1.09411783282171E-02 
1316	 1.07248306825446E-02 
1317	 0.011163108601611 
1318	 0.011260480919649 
1319	 1.13556099482677E-02 
1320	 1.15159168061664E-02 
1321	 1.18074767613865E-02 
1322	 1.16107813224601E-02 
1323	 1.15273554768297E-02 
1324	 1.24621199491953E-02 
1325	 1.24151053674946E-02 
1326	 1.17556429017377E-02 
1327	 1.19362895681583E-02 
1328	 1.17475213693165E-02 
1329	 1.21214197362925E-02 
1330	 1.29121511928442E-02 
1331	 1.31367648906292E-02 
1332	 1.33104935412587E-02 
1333	 1.31361124036728E-02 
1334	 0.013273498124103 
1335	 1.30693672746615E-02 
1336	 1.19499506899547E-02 
1337	 0.012007955068591 
1338	 1.29566276120562E-02 
1339	 1.31066640244561E-02 
1340	 1.34304048481735E-02 
1341	 1.40167024104705E-02 
1342	 1.46094817978748E-02 
1343	 0.014055130604331 
1344	 1.25642076429536E-02 
1345	 1.29243411211173E-02 
1346	 1.38676026248819E-02 
1347	 0.012922015010424 
1348	 1.19064949617705E-02 
1349	 1.24658429747211E-02 
1350	 1.06790099429394E-02 
1351	 7.52247477764008E-03 
1352	 1.09460711125027E-02 
1353	 1.83138701723137E-02 
1354	 3.24955175244473E-02 
1355	 1.62200762336538E-02 
1356	 4.44848446108587E-03 
1357	 2.19504940080317E-02 
1358	 1.74864468578679E-02 
1359	 8.8671613402838E-03 
1360	-2.72417088890032E-02 
1361	-1.41851483568687E-03 
1362	 8.62094575478955E-02 
1363	-8.31943443262571E-03 
1364	-7.20128692801219E-02 
1365	-3.07707288085793E-02 
1366	-7.11893858049611E-02 
1367	-0.108537596952772 
1368	-0.119281425472373 
1369	 8.60637414437663E-02 
1370	 0.155169942850179 
1371	 7.29490996345916E-02 
1372	 0.18970248049308 
1373	 0.591254621707051 
1374	 0.543050770326085 
1375	-3.13839731362837E-02 
1376	-7.80409949130153E-03 
1377	 0.312672040675065 
1378	 0.154933224760187 
1379	-4.14924896742864E-02 
1380	 0.140345496091533 
1381	 0.14973660119901 
1382	-9.44039800548056E-02 
1383	 0.17503810512797 
1384	 0.301065098832302 
1385	 2.53583824014554E-02 
1386	-6.37569244425624E-02 
1387	 0.747699809453964 
1388	 1.79838089544121 
1389	 1.0723359971202 
1390	 0.896742222214692 
1391	 0.473171156760494 
1392	 0.247447227350228 
1393	 0.253068009381655 
1394	 0.315830034456273 
1395	 0.469136478576387 
1396	 0.362073233224047 
1397	 9.98191851943658E-03 
1398	 0.02358726704619 
1399	 0.357170430838617 
1400	 0.40432926736706 
1401	 0.312522694789172 
1402	 0.404575885037263 
1403	 0.418967366064459 
1404	 0.305216207037804 
1405	 0.223022818933454 
1406	 0.190201751263878 
1407	 0.188766329004292 
1408	 0.168878656331258 
1409	 0.104878803715678 
1410	 6.68080017341559E-02 
1411	 5.88124907783875E-02 
1412	 2.82050044098444E-02 
1413	-1.44703608452715E-02 
1414	-3.99319823963101E-02 
1415	-1.80739075898229E-02 
1416	-1.92025546308676E-02 
1417	-2.60192163360387E-02 
1418	 0.015897501923796 
1419	 2.91486145706854E-02 
1420	-2.13211693599085E-03 
1421	 1.83691589329528E-03 
1422	 3.88306414392704E-02 
1423	 3.91765247291664E-02 
1424	 2.00343671781122E-02 
1425	 1.83728972750802E-02 
1426	 1.82028195390878E-02 
1427	 0.017262208285901 
1428	 2.24037106344709E-02 
1429	 2.41045290724694E-02 
1430	 2.34623057990015E-02 
1431	 2.06746676881045E-02 
1432	 1.13366213593836E-02 
1433	 1.17645249576211E-02 
1434	 2.21392088527888E-02 
1435	 2.21159527746824E-02 
1436	 2.02318361438006E-02 
1437	 1.95787972346928E-02 
1438	 1.62975800766473E-02 
1439	 9.29616152467817E-03 
1440	 8.95344750561678E-03 
1441	 1.48529054946564E-02 
1442	 1.73059297968933E-02 
1443	 1.50791041127186E-02 
1444	 1.63435106641646E-02 
1445	 1.93179944299908E-02 
1446	 0.020070306719696 
1447	 2.06873033194702E-02 
1448	 0.015886359257463 
1449	 1.25424093966211E-02 
1450	 1.37057337538299E-02 
1451	 0.012197024168833 
1452	 1.28650370750856E-02 
1453	 1.48004213261637E-02 
1454	 1.47650162409148E-02 
1455	 1.27645784855768E-02 
1456	 1.35853631774576E-02 
1457	 1.61425122019367E-02 
1458	 1.55977765489294E-02 
1459	 1.40285834817842E-02 
1460	 1.43778777306041E-02 
1461	 1.43001184128255E-02 
1462	 1.33227827021674E-02 
1463	 0.013032429060415 
1464	 0.014131893131805 
1465	 0.014761225158725 
1466	 0.013905481231114 
1467	 1.48261289173806E-02 
1468	 1.55007368430588E-02 
1469	 1.24361120743886E-02 
1470	 1.15552968656274E-02 
1471	 0.015221020721965 
1472	 1.50883326992548E-02 
1473	 1.04688892795931E-02 
1474	 1.03267884321411E-02 
1475	 1.28107208098476E-02 
1476	 0.012782168189505 
1477	 1.26412037965465E-02 
1478	 1.37004493479269E-02 
1479	 1.51840999466074E-02 
1480	 0.014237093292119 
1481	 1.18215704075956E-02 
1482	 1.23465040226554E-02 
1483	 1.35875790849334E-02 
1484	 1.26589966914231E-02 
1485	 1.23140805310397E-02 
1486	 0.012825396094133 
1487	 1.20323169668787E-02 
1488	 1.12687566498834E-02 
1489	 1.18651421388402E-02 
1490	 1.20080701567176E-02 
1491	 0.010945128701639 
1492	 1.05453524426249E-02 
1493	 1.09663136023844E-02 
1494	 1.11729652540153E-02 
1495	 1.10457880587185E-02 
1496	 1.09987071167328E-02 
1497	 1.12657326210216E-02 
1498	 1.13471188770215E-02 
1499	 0.011426809301281 
1500	 1.12071120978075E-02 
1501	 1.05297400782842E-02 
1502	 1.03884348515339E-02 
1503	 1.03155724746956E-02 
1504	 1.01926540190443E-02 
1505	 1.03049553723051E-02 
1506	 1.06396853695562E-02 
1507	 1.07050344376809E-02 
1508	 1.04605098226937E-02 
1509	 1.03043063512841E-02 
1510	 1.05151825360513E-02 
1511	 1.07738894016923E-02 
1512	 1.06455643940478E-02 
1513	 1.02306599541579E-02 
1514	 1.01165288147644E-02 
1515	 1.00016092265096E-02 
1516	 9.78486812432697E-03 
1517	 1.01979074331359E-02 
1518	 1.04786033834465E-02 
1519	 0.010383386149706 
1520	 1.06308524766477E-02 
1521	 1.06911112777216E-02 
1522	 0.010533556920074 
1523	 0.010590639076445 
1524	 1.05164884932915E-02 
1525	 1.02628490783359E-02 
1526	 1.01391047500096E-02 
1527	 1.02435452095439E-02 
1528	 1.03434743851517E-02 
1529	 1.00705462349932E-02 
1530	 0.009862878242025 
1531	 0.010097739113556 
1532	 1.01381826212979E-02 
1533	 1.00447000390993E-02 
1534	 1.03678675869391E-02 
1535	 1.05857255815548E-02 
1536	 1.04149236275055E-02 
1537	 1.03592552927672E-02 
1538	 1.03930972935893E-02 
1539	 1.02344116064529E-02 
1540	 1.00235003930144E-02 
1541	 1.00596835480197E-02 
1542	 1.03573955077313E-02 
1543	 1.05728245954838E-02 
1544	 1.05996359250845E-02 
1545	 1.03823546996491E-02 
1546	 1.01009928017066E-02 
1547	 1.01694709825936E-02 
1548	 1.02200742484248E-02 
1549	 1.04709778569226E-02 
1550	 1.10078269221622E-02 
1551	 1.06859025610597E-02 
1552	 1.00685992416531E-02 
1553	 1.00295676437985E-02 
1554	 1.00060403040628E-02 
1555	 9.99044707210642E-03 
1556	 1.02038316373744E-02 
1557	 1.04103743358914E-02 
1558	 1.04687119372661E-02 
1559	 1.04357002313904E-02 
1560	 1.03132312687691E-02 
1561	 1.03066521989583E-02 
1562	 1.03449948396878E-02 
1563	 1.04153831453671E-02 
1564	 0.010565643408572 
1565	 1.03485059365935E-02 
1566	 1.02490200406213E-02 
1567	 1.04678552282254E-02 
1568	 1.04468492149587E-02 
1569	 0.010311043748537 
1570	 1.00243969537926E-02 
1571	 9.92173683567563E-03 
1572	 1.02679997135456E-02 
1573	 1.03437197005024E-02 
1574	 1.02505956988522E-02 
1575	 1.04372388586021E-02 
1576	 1.06286696072156E-02 
1577	 1.05589777251869E-02 
1578	 1.05578485774916E-02 
1579	 1.04678024574234E-02 
1580	 1.00084907283287E-02 
1581	 1.00101396909182E-02 
1582	 1.03894126857782E-02 
1583	 0.010437212360664 
1584	 1.03022127759231E-02 
1585	 1.02759317527689E-02 
1586	 0.010235425429315 
1587	 1.00837338158774E-02 
1588	 1.00286324503128E-02 
1589	 9.93576090129195E-03 
1590	 9.81054893305486E-03 
1591	 9.98151470467676E-03 
1592	 1.01566825608962E-02 
1593	 1.01636097159843E-02 
1594	 1.02875432962868E-02 
1595	 1.04808893092372E-02 
1596	 1.04797425617236E-02 
1597	 0.01013860891757 
1598	 9.90440898365548E-03 
1599	 1.00228476941448E-02 
1600	 9.87232441751625E-03 
1601	 9.73242231271262E-03 
1602	 0.010173003963066 
1603	 1.04907124613461E-02 
1604	 1.03930769022607E-02 
1605	 1.04621963224037E-02 
1606	 1.06824671815114E-02 
1607	 1.04949467449966E-02 
1608	 1.02490969381371E-02 
1609	 1.02783987935932E-02 
1610	 1.01259781352436E-02 
1611	 9.86660860157229E-03 
1612	 9.85029600985676E-03 
1613	 1.02039411142944E-02 
1614	 1.04836803288651E-02 
1615	 1.01881229540107E-02 
1616	 9.91100391512319E-03 
1617	 9.85408647861997E-03 
1618	 9.67765595859839E-03 
1619	 9.84319368534263E-03 
1620	 1.01026821741483E-02 
1621	 1.01321214198762E-02 
1622	 0.010188322006414 
1623	 1.00663941949973E-02 
1624	 9.93052811594474E-03 
1625	 9.95298573269876E-03 
1626	 1.01213643713022E-02 
1627	 1.03043956303484E-02 
1628	 1.03015316571447E-02 
1629	 1.02457540583421E-02 
1630	 1.00031269874713E-02 
1631	 9.69400252808282E-03 
1632	 9.86291211645454E-03 
1633	 1.02549007883203E-02 
1634	 0.0102444810465 
1635	 1.02493440951108E-02 
1636	 1.04048150542686E-02 
1637	 1.01923326023936E-02 
1638	 9.9819751049256E-03 
1639	 9.93550980217426E-03 
1640	 9.88691995137034E-03 
1641	 9.94678057806824E-03 
1642	 1.01495806126153E-02 
1643	 1.05213155848065E-02 
1644	 1.05751055005417E-02 
1645	 1.02040519242171E-02 
1646	 1.00280544070188E-02 
1647	 9.71393727170156E-03 
1648	 9.48845630336036E-03 
1649	 9.92605117040018E-03 
1650	 9.96413885977104E-03 
1651	 9.80377834258702E-03 
1652	 1.02408426011198E-02 
1653	 1.05649532086164E-02 
1654	 1.05078727372449E-02 
1655	 1.01389746448555E-02 
1656	 1.01378410055979E-02 
1657	 1.00409621725533E-02 
1658	 1.00680453316959E-02 
1659	 1.06274778053953E-02 
1660	 1.05959488351302E-02 
1661	 1.01453778017034E-02 
1662	 1.01354165589283E-02 
1663	 1.00117759678175E-02 
1664	 1.00006587595701E-02 
1665	 1.03392184393797E-02 
1666	 1.02107725534081E-02 
1667	 9.94584877521138E-03 
1668	 1.00072913596684E-02 
1669	 9.83497664886644E-03 
1670	 9.80309747910632E-03 
1671	 9.90832286107393E-03 
1672	 1.02346321822003E-02 
1673	 1.04642946008622E-02 
1674	 1.05151809111509E-02 
1675	 1.02578865783551E-02 
1676	 1.00796350205008E-02 
1677	 1.01165254423069E-02 
1678	 1.00137120093172E-02 
1679	 1.00312594936163E-02 
1680	 1.00077393309392E-02 
1681	 1.02191153613402E-02 
1682	 1.05360345279848E-02 
1683	 1.03372195421075E-02 
1684	 1.02615502556838E-02 
1685	 0.010131697779944 
1686	 9.93825504180468E-03 
1687	 1.01079746389392E-02 
1688	 1.02086222437021E-02 
1689	 0.010255865152591 
1690	 0.010239959591372 
1691	 1.01122555994042E-02 
1692	 1.00587235755481E-02 
1693	 1.00277373341382E-02 
1694	 9.7950188499629E-03 
1695	 9.90693513972353E-03 
1696	 0.010378743520368 
1697	 1.04779934602079E-02 
1698	 1.04769427859264E-02 
1699	 1.03614057234109E-02 
1700	 1.02373346462058E-02 
1701	 1.01811984751066E-02 
1702	 1.00122292333517E-02 
1703	 1.00771377714499E-02 
1704	 1.01674174427623E-02 
1705	 9.98784826041803E-03 
1706	 9.65654044097738E-03 
1707	 9.70463450648801E-03 
1708	 1.03094307323733E-02 
1709	 1.05198691755404E-02 
1710	 1.01097835988073E-02 
1711	 9.9728806734405E-03 
1712	 1.01570553216528E-02 
1713	 0.010400216644066 
1714	 1.01673307616643E-02 
1715	 9.73764947728976E-03 
1716	 0.009923465943687 
1717	 9.81549480991879E-03 
1718	 9.97520440231444E-03 
1719	 1.05121591643218E-02 
1720	 1.00814961776531E-02 
1721	 9.69479731299241E-03 
1722	 1.01949421441554E-02 
1723	 9.85021103805084E-03 
1724	 9.14169093865074E-03 
1725	 9.40263594774289E-03 
1726	 1.01191751841997E-02 
1727	 1.05315964427242E-02 
1728	 0.010360856460595 
1729	 1.02838711547594E-02 
1730	 1.03720538587315E-02 
1731	 1.03703544494257E-02 
1732	 0.011045405339635 
1733	 1.11028522824238E-02 
1734	 9.93144235225196E-03 
1735	 9.66257807589174E-03 
1736	 1.02888370174229E-02 
1737	 1.06189650941781E-02 
1738	 1.05822351866871E-02 
1739	 1.04584246986659E-02 
1740	 9.63044803118131E-03 
1741	 8.62669651278838E-03 
1742	 9.11419598648398E-03 
1743	 9.78723188795719E-03 
1744	 9.69610290525835E-03 
1745	 9.71180742558324E-03 
1746	 1.02124826422803E-02 
1747	 1.03622589112054E-02 
1748	 1.05467062650523E-02 
1749	 1.07739716835323E-02 
1750	 1.03784643224617E-02 
1751	 1.03310984974868E-02 
1752	 1.11691660306551E-02 
1753	 0.011113505957772 
1754	 1.05749652816021E-02 
1755	 1.03729604323397E-02 
1756	 9.50207165312616E-03 
1757	 9.09737567243524E-03 
1758	 9.45481138097155E-03 
1759	 0.010147461772471 
1760	 1.08281890191818E-02 
1761	 1.10590077630151E-02 
1762	 0.010639926194437 
1763	 9.67069186698649E-03 
1764	 9.50618726111996E-03 
1765	 1.04862176474786E-02 
1766	 0.010796685871492 
1767	 1.08201892420624E-02 
1768	 1.10991886657782E-02 
1769	 1.02874290899461E-02 
1770	 9.84006584507109E-03 
1771	 9.97941051399501E-03 
1772	 9.47036496578041E-03 
1773	 9.49654712424035E-03 
1774	 1.06731198327207E-02 
1775	 1.34862831217996E-02 
1776	 1.36903014218333E-02 
1777	 1.13402084204849E-02 
1778	 0.011543750450852 
1779	 1.12034594423912E-02 
1780	 1.10420983576202E-02 
1781	 1.43899649467197E-02 
1782	 1.46364332514443E-02 
1783	 1.11718018530588E-02 
1784	 0.010933225594157 
1785	 1.20055370691468E-02 
1786	 1.13824942716875E-02 
1787	 1.08924861553252E-02 
1788	 0.011086718655994 
1789	 1.00855114634831E-02 
1790	 1.17734777491728E-02 
1791	 1.53279992208941E-02 
1792	 1.59419865985446E-02 
1793	 1.41277783652676E-02 
1794	 1.22035770470586E-02 
1795	 8.07189504668566E-03 
1796	 6.75401699502047E-03 
1797	 9.01610357756665E-03 
1798	 1.35444202743464E-02 
1799	 1.94833674445338E-02 
1800	 1.95878403011841E-02 
1801	 0.020156986541529 
1802	 0.012507029588609 
1803	 8.39442932163478E-03 
1804	 7.95165283469079E-03 
1805	 9.92138376335951E-03 
1806	 2.03357690697502E-02 
1807	 2.87756266759973E-02 
1808	 4.78627558799475E-02 
1809	 5.63999441436198E-02 
1810	 4.84279550852366E-02 
1811	 2.99364068367895E-02 
1812	-3.78748432088914E-02 
1813	-5.34625489119768E-02 
1814	-4.40696266193395E-02 
1815	 3.8103161971667E-03 
1816	 0.237302178818663 
1817	 0.240064877793195 
1818	 0.191912810220275 
1819	 0.142790694886454 
1820	 0.103621372140915 
1821	 0.138283967986184 
1822	 0.139138336309744 
1823	-2.62163487558684E-02 
1824	-0.253703027772098 
1825	-1.22287726597159 
1826	-1.24147584694125 
1827	 0.613353255252598 
1828	 0.623411264268143 
1829	 0.429361357779254 
1830	 0.45388337225471 
1831	 0.269424925639274 
1832	 0.841028931010846 
1833	 0.820259618330556 
1834	 0.643498097757469 
1835	-0.214851726105272 
1836	-0.33137836896252 
1837	-0.439887065130027 
1838	-0.806122201440298 
1839	-0.456079245636653 
1840	-0.43028427886092 
1841	-1.55922317495432 
1842	 12.5410436556071 
1843	 3.08564293062028 
1844	 0.796392585352347 
1845	 0.714802493023038 
1846	 2.53784270702308 
1847	 16.8069280201371 
1848	-0.523757334345274 
1849	-0.906697380614053 
1850	-2.83023830778229 
1851	 5.5358171029482 
1852	-2.5069100194293 
1853	-1.73629573992835 
1854	-2.38032331932168 
1855	-8.58314369855156 
1856	 37.1794981665313 
1857	 1.43800891990951 
1858	 0.852982888928256 
1859	 0.60011976406931 
1860	 0.719775268451319 
1861	 1.47687578266085 
1862	 1.44454797984494 
1863	 0.601051255896761 
1864	 9.54720103108155E-03 
1865	-0.528700815867441 
1866	-2.26821370479445 
1867	-1.98208984358921 
1868	-0.24223852213305 
1869	 0.114087141331971 
1870	 0.368565321409784 
1871	 1.28877445016095 
1872	 3.39202549490885 
1873	 2.86592699335416 
1874	 1.47302293522765 
1875	 1.4449573847886 
1876	 1.69728658297358 
1877	 6.00424206139243 
1878	 15.891892645704 
1879	-8.95476787131745 
1880	-4.76205444732264 
1881	-1.67063456029709 
1882	-1.77782972717436 
1883	 1.12101862677202 
1884	 1.66470737802445 
1885	 2.05516962912479 
1886	 1.54180205555902 
1887	-3.47291078448146 
1888	-0.942218398869923 
1889	 0.100132741525725 
1890	 2.40085706602158 
1891	 3.61865164183631 
1892	 5.23936981035553 
1893	 19.8850383027562 
1894	 16.4463241584391 
1895	 2.70429910701972 
1896	 2.02126973612157 
1897	 2.87465029160508 
1898	 3.08098566410913 
1899	 6.0813406576252 
1900	 5.98801088567214 
1901	 0.201461010920561 
1902	 0.106718278579135 
1903	 0.296454314915212 
1904	 1.79708901903688 
1905	-11.6270772143298 
1906	-3.18773962341427 
1907	-0.695155933252002 
1908	-0.808053199802355 
1909	-1.28182567192477 
1910	-0.537772274199466 
1911	-1.72399617117103 
1912	-8.65287243005106 
1913	-21.0398226776319 
1914	 19.5380197043425 
1915	 25.012129703342 
1916	-3.31325877028014 
1917	-0.61005860527433 
1918	 6.31175775801379 
1919	 1.7869795814416 
1920	 1.26613582057729 
1921	 0.885424005106783 
1922	 1.43832115516273 
1923	 1.04634565427626 
1924	-0.093757922084354 
1925	-0.66860026100838 
1926	-0.778849672256037 
1927	-0.550816390181626 
1928	-0.184171740160172 
1929	 0.182182046066079 
1930	 0.175610411499123 
1931	 0.160378974119515 
1932	 0.24377227703646 
1933	 0.101690546663148 
1934	 6.22985774443379E-02 
1935	 0.104918671365496 
1936	-7.35350010445011E-02 
1937	-0.116937658751196 
1938	 5.55464808992004E-02 
1939	 9.37089105660755E-02 
1940	 0.114944949386301 
1941	 8.35528253353948E-02 
1942	 0.105692921567196 
1943	 5.25198654735697E-02 
1944	 1.45642960031584E-02 
1945	 5.55959925772963E-02 
1946	 5.94707476915529E-02 
1947	 5.14684135815876E-02 
1948	 6.66390223720105E-02 
1949	 6.32405595209707E-02 
1950	 6.04719477586065E-02 
1951	 6.37096581473946E-02 
1952	 6.12277583851145E-02 
1953	 5.42872637579778E-02 
1954	 4.11246157806337E-02 
1955	 3.00861499988477E-02 
1956	 0.040008471798299 
1957	 4.41312608861641E-02 
1958	 3.32621859628221E-02 
1959	 3.10268326808848E-02 
1960	 2.68833117644604E-02 
1961	 1.99356941924536E-02 
1962	 2.08544844458457E-02 
1963	 2.45509350365029E-02 
1964	 2.08322343889257E-02 
1965	 1.74040914401514E-02 
1966	 1.76598878386236E-02 
1967	 2.04513823769093E-02 
1968	 0.019084415241367 
1969	 1.56413126168074E-02 
1970	 1.41572787791436E-02 
1971	 1.38470330205353E-02 
1972	 1.22136326844567E-02 
1973	 0.010644339866991 
1974	 1.20803851109557E-02 
1975	 1.13938410700983E-02 
1976	 1.00487116622036E-02 
1977	 1.16805438954051E-02 
1978	 1.24449450168998E-02 
1979	 1.26937336014954E-02 
1980	 1.20505251934848E-02 
1981	 1.16435713730059E-02 
1982	 1.07770155399509E-02 
1983	 1.11594685422225E-02 
1984	 1.21674005167839E-02 
1985	 1.12224608381278E-02 
1986	 1.11986305834387E-02 
1987	 1.22325581586246E-02 
1988	 1.08429185071321E-02 
1989	 9.57019788013559E-03 
1990	 9.53787672146512E-03 
1991	 8.8190884988649E-03 
1992	 7.29101037439091E-03 
1993	 7.23129034211974E-03 
1994	 7.82997739923316E-03 
1995	 9.73209458841641E-03 
1996	 1.02829855762136E-02 
1997	 1.11022527165871E-02 
1998	 1.17324532048951E-02 
1999	 0.010729350090006 
2000	 8.72594643671341E-03 
2001	 8.29381537270871E-03 
2002	 1.02107344074513E-02 
2003	 1.00804276571243E-02 
2004	 8.26524080965205E-03 
2005	 1.04714331264078E-02 
2006	 1.31604606418769E-02 
2007	 1.15274118373282E-02 
2008	 1.38394320303557E-02 
2009	 0.013974209045796 
2010	 7.28772321694164E-03 
2011	 5.05357942687626E-03 
2012	 6.22579219444026E-03 
2013	 6.58330681683838E-03 
2014	 5.95137320509923E-03 
2015	 8.72045269926516E-03 
2016	 6.86850589204956E-03 
2017	 4.49248298317476E-03 
2018	 3.9368820706319E-03 
2019	 4.56796001740083E-03 
2020	 8.14134624712624E-03 
2021	 1.17015684605802E-02 
2022	 1.31947980074938E-02 
2023	 1.32333461662247E-02 
2024	 1.25497689591752E-02 
2025	 9.85410848142752E-03 
2026	 9.24055956887021E-03 
2027	 9.56101580226729E-03 
2028	 8.21062013636077E-03 
2029	 7.24179381419638E-03 
2030	 7.45756136788414E-03 
2031	 6.32570716779211E-03 
2032	 6.44177251312449E-03 
2033	 8.74504746999403E-03 
2034	 1.02022973409083E-02 
2035	 1.03292453631239E-02 
2036	 1.08340746505618E-02 
2037	 0.010950409175799 
2038	 1.04189704997747E-02 
2039	 1.03431119054481E-02 
2040	 1.10844920755893E-02 
2041	 0.011575689839132 
2042	 1.16999593145836E-02 
2043	 1.14150155040716E-02 
2044	 1.10306890398047E-02 
2045	 0.011122079280523 
2046	 1.01305136824713E-02 
2047	 1.13388742655261E-02 
2048	 1.27545802941207E-02 
2049	 1.20495117165748E-02 
2050	 0.010868810303043 
2051	 1.02033212637232E-02 
2052	 1.17476680014759E-02 
2053	 1.32724825868509E-02 
2054	 0.014109124634121 
2055	 1.46012906169888E-02 
2056	 1.44234831020472E-02 
2057	 0.01166889548149 
2058	 1.07547024189794E-02 
2059	 1.11052743131647E-02 
2060	 1.11467349850773E-02 
2061	 1.08886006611887E-02 
2062	 1.13415344107613E-02 
2063	 1.20762873704246E-02 
2064	 1.05904084256104E-02 
2065	 9.77374931980069E-03 
2066	 9.6504198646597E-03 
2067	 9.11155694917248E-03 
2068	 8.96821472581472E-03 
2069	 9.81002924253152E-03 
2070	 1.01436159685469E-02 
2071	 1.02445209163067E-02 
2072	 1.02533584777653E-02 
2073	 1.03736534462205E-02 
2074	 1.04117530687086E-02 
2075	 1.01314957558333E-02 
2076	 9.25422024693092E-03 
2077	 9.70162814512226E-03 
2078	 1.05031762257886E-02 
2079	 1.07339868679493E-02 
2080	 1.17403389456359E-02 
2081	 1.23930012056714E-02 
2082	 0.011669279315136 
2083	 0.010776924582819 
2084	 9.91810848503606E-03 
2085	 0.010451864382179 
2086	 1.07596946738015E-02 
2087	 1.05804809161591E-02 
2088	 1.10202868503066E-02 
2089	 1.08349404636771E-02 
2090	 1.10042891610029E-02 
2091	 1.03800810932652E-02 
2092	 1.01255973954512E-02 
2093	 9.61339479075795E-03 
2094	 1.01740224818763E-02 
2095	 1.18368298093758E-02 
2096	 1.21802467937457E-02 
2097	 0.011986633450891 
2098	 1.21687011607326E-02 
2099	 1.17381206494615E-02 
2100	 1.19434248773143E-02 
2101	 1.19251808125966E-02 
2102	 1.16983825193976E-02 
2103	 1.10067951345011E-02 
2104	 0.010710200424176 
2105	 1.06068811578412E-02 
2106	 1.00687886910158E-02 
2107	 9.50693735625527E-03 
2108	 7.71672461395789E-03 
2109	 6.83555212007218E-03 
2110	 8.04695289451909E-03 
2111	 8.63100066690293E-03 
2112	 8.76307142582099E-03 
2113	 9.32259270039468E-03 
2114	 1.01039114468612E-02 
2115	 1.04148712768817E-02 
2116	 1.12143118825164E-02 
2117	 1.14609608880349E-02 
2118	 1.09071702298269E-02 
2119	 0.010383851046836 
2120	 9.3947341597202E-03 
2121	 8.79491502042551E-03 
2122	 8.9580100866631E-03 
2123	 9.18822644084784E-03 
2124	 9.76567196669114E-03 
2125	 1.02202688284984E-02 
2126	 9.08404946248913E-03 
2127	 8.49601841098382E-03 
2128	 9.19230709906782E-03 
2129	 9.45632319484977E-03 
2130	 9.47131019182756E-03 
2131	 1.07140866290734E-02 
2132	 1.13673951365457E-02 
2133	 1.00798311676351E-02 
2134	 9.77323257339163E-03 
2135	 9.77299452293415E-03 
2136	 9.60495006449983E-03 
2137	 9.32374213651706E-03 
2138	 9.74174585916217E-03 
2139	 1.07816184117616E-02 
2140	 1.06685910166562E-02 
2141	 1.03270035232308E-02 
2142	 1.03998665364128E-02 
2143	 9.63123822071543E-03 
2144	 9.73415792536321E-03 
2145	 1.16908817213977E-02 
2146	 1.13578726690496E-02 
2147	 9.76343738245894E-03 
2148	 9.82327464073304E-03 
2149	 9.60671984845643E-03 
2150	 8.87944261725713E-03 
2151	 9.99275040041876E-03 
2152	 1.00768520936937E-02 
2153	 8.46875335114284E-03 
2154	 9.18801095806927E-03 
2155	 1.03541418336461E-02 
2156	 1.01243789988993E-02 
2157	 1.01842053746547E-02 
2158	 0.010344194812316 
2159	 1.09811270486812E-02 
2160	 1.18184983972517E-02 
2161	 1.19050411655671E-02 
2162	 1.19991011958314E-02 
2163	 1.23022074174879E-02 
2164	 1.23094693708837E-02 
2165	 1.20205622337391E-02 
2166	 1.23746997508494E-02 
2167	 1.21398010908015E-02 
2168	 1.03742016758687E-02 
2169	 9.10521577005832E-03 
2170	 8.00949672833023E-03 
2171	 7.28868077248346E-03 
2172	 6.77185143119377E-03 
2173	 7.81904207298882E-03 
2174	 9.46311774584222E-03 
2175	 1.12864853194048E-02 
2176	 1.25713702588665E-02 
2177	 1.26403955898186E-02 
2178	 1.28764293331927E-02 
2179	 1.19852837960213E-02 
2180	 1.05013062838739E-02 
2181	 1.07963294195424E-02 
2182	 1.01349216528468E-02 
2183	 7.58615606791757E-03 
2184	 7.52929345437312E-03 
2185	 6.95684793707215E-03 
2186	 7.04288507367258E-03 
2187	 9.56321652345518E-03 
2188	 1.06176458993989E-02 
2189	 1.02501540101539E-02 
2190	 1.02550269290262E-02 
2191	 9.38569105115153E-03 
2192	 9.33797255971323E-03 
2193	 1.04035967704656E-02 
2194	 1.14399361508169E-02 
2195	 1.36925092461184E-02 
2196	 1.42076889859551E-02 
2197	 1.36861370718114E-02 
2198	 0.012606574586471 
2199	 9.51393175599082E-03 
2200	 7.78603685728363E-03 
2201	 7.7761853427095E-03 
2202	 8.47698802689487E-03 
2203	 1.10994273269257E-02 
2204	 1.24390444861728E-02 
2205	 1.12739955785431E-02 
2206	 1.13256713342955E-02 
2207	 1.23029506993962E-02 
2208	 1.30610512352931E-02 
2209	 1.43009232074236E-02 
2210	 1.57912033067627E-02 
2211	 1.62011169895866E-02 
2212	 1.50157147413317E-02 
2213	 1.37984022542928E-02 
2214	 1.10886230469338E-02 
2215	 6.86514260877369E-03 
2216	 5.64665912091483E-03 
2217	 5.7210907288243E-03 
2218	 7.54239824510432E-03 
2219	 8.79622402498691E-03 
2220	 1.20170416336849E-02 
2221	 1.33144222612953E-02 
2222	 1.33566048925503E-02 
2223	 1.28039811230513E-02 
2224	 1.21909834187959E-02 
2225	 1.16296078050828E-02 
2226	 9.08676149519712E-03 
2227	 9.13569507366923E-03 
2228	 1.07198770275976E-02 
2229	 1.07689209025377E-02 
2230	 1.19314768164787E-02 
2231	 1.29811393304727E-02 
2232	 1.34058981249131E-02 
2233	 1.37739161790165E-02 
2234	 1.58787013133688E-02 
2235	 1.31272392207667E-02 
2236	 9.98519369453912E-03 
2237	 8.38691692964423E-03 
2238	 6.93220170252999E-03 
2239	 6.67620916434292E-03 
2240	 6.60327870190468E-03 
2241	 6.64471534657643E-03 
2242	 8.20481988104119E-03 
2243	 9.75310475563501E-03 
2244	 1.00307860372647E-02 
2245	 1.20605055537384E-02 
2246	 1.20960607670045E-02 
2247	 8.81757090380215E-03 
2248	 8.22012507886945E-03 
2249	 7.72274063549284E-03 
2250	 5.67091036357589E-03 
2251	 7.56359166909754E-03 
2252	 1.01875668499744E-02 
2253	 9.30293969596671E-03 
2254	 9.69862595116977E-03 
2255	 9.28271235770212E-03 
2256	 8.07458514532193E-03 
2257	 1.08257836605706E-02 
2258	 1.14894069105733E-02 
2259	 0.010926578378818 
2260	 1.17151917059186E-02 
2261	 1.21297972845714E-02 
2262	 1.12280913681398E-02 
2263	 1.09337059881987E-02 
2264	 1.09447940813974E-02 
2265	 0.01021985219042 
2266	 9.0972060729235E-03 
2267	 8.47293649496798E-03 
2268	 7.40928291611908E-03 
2269	 2.57740042299787E-03 
2270	 2.62980011161403E-03 
2271	 7.33101407092748E-03 
2272	 9.79247390223546E-03 
2273	 1.50562670314424E-02 
2274	 1.66739028223644E-02 
2275	 1.39329722212409E-02 
2276	 1.38489988353699E-02 
2277	 1.25282812764672E-02 
2278	 1.28243289078505E-02 
2279	 1.62946782213161E-02 
2280	 1.78479404408693E-02 
2281	 1.85031577348985E-02 
2282	 0.021113684815888 
2283	 2.09163850618673E-02 
2284	 1.93789137909088E-02 
2285	 1.84352546821842E-02 
2286	 1.53247229208303E-02 
2287	 1.41027845940397E-02 
2288	 1.20795508954538E-02 
2289	 8.21867368676571E-03 
2290	 7.65839929882581E-03 
2291	 7.46843205561576E-03 
2292	 4.92862691743425E-03 
2293	 5.52281261820263E-03 
2294	 7.78203644823192E-03 
2295	 6.89677794997234E-03 
2296	 9.75577676595288E-03 
2297	 1.10875591802468E-02 
2298	 9.56943958190671E-03 
2299	 1.07140984158615E-02 
2300	 9.80224166692611E-03 
2301	 9.33454437144373E-03 
2302	 8.1482448854587E-03 
2303	 7.75901810896503E-03 
2304	 8.16929620955902E-03 
2305	 9.48137792393981E-03 
2306	 1.32095920792532E-02 
2307	 1.27184085974289E-02 
2308	 1.07958473426673E-02 
2309	 1.09153252487666E-02 
2310	 1.18525264643916E-02 
2311	 1.15704913586813E-02 
2312	 8.64179660528409E-03 
2313	 8.85282624897006E-03 
2314	 1.00516278254194E-02 
2315	 9.58943585566359E-03 
2316	 1.51274385828908E-02 
2317	 1.81413645100675E-02 
2318	 1.46808972619129E-02 
2319	 1.47974919075691E-02 
2320	 0.019510033142626 
2321	 2.16310679827523E-02 
2322	 2.08300099255152E-02 
2323	 1.80437361503424E-02 
2324	 9.43498240705085E-03 
2325	 9.95679264473632E-03 
2326	 9.54642753175947E-03 
2327	 2.02806605196765E-03 
2328	 4.74111384455414E-03 
2329	 2.57371657695865E-03 
2330	-4.6876891022999E-05 
2331	 3.38343657782602E-03 
2332	 3.2388745687237E-04 
2333	-1.88756765016554E-03 
2334	 1.07657803409462E-04 
2335	 9.12574412089379E-03 
2336	 1.47996806001808E-02 
2337	 8.94315612121069E-03 
2338	 6.11468806175654E-03 
2339	-7.04228389303295E-03 
2340	-2.07197203207632E-02 
2341	-0.017903077520432 
2342	-2.27450782861562E-02 
2343	-1.59887180803715E-02 
2344	 1.96922246015328E-03 
2345	 5.89727542836977E-03 
2346	 1.55757735685631E-02 
2347	 2.14111354071949E-02 
2348	 1.23206566864582E-02 
2349	 1.27180389263804E-02 
2350	 1.93903850159309E-02 
2351	 2.07359544416776E-02 
2352	 0.029975434080174 
2353	 3.79333865959891E-02 
2354	 3.66428955018643E-02 
2355	 3.41374272127923E-02 
2356	 2.82539092274603E-02 
2357	 3.07230458527173E-02 
2358	 3.24588293021534E-02 
2359	 1.85783097231861E-02 
2360	 7.8890724763923E-03 
2361	 7.60764958639029E-03 
2362	 7.02552565990959E-03 
2363	 8.02012524310797E-03 
2364	 1.76191193050988E-02 
2365	 3.72288911857672E-03 
2366	-2.45319786076616E-02 
2367	-2.83928591734184E-02 
2368	-0.030725346768857 
2369	-2.61164835062807E-02 
2370	-9.09051859458295E-03 
2371	-2.23492292316821E-03 
2372	 2.40478043162774E-04 
2373	-3.95098394975822E-03 
2374	-1.36425646200257E-02 
2375	-9.67692908538416E-03 
2376	-1.90303528996047E-02 
2377	 8.59545853239819E-05 
2378	 6.28328799289283E-02 
2379	 7.17445321876708E-02 
2380	 8.65422753941806E-02 
2381	 8.80253917271445E-02 
2382	 3.89606399649345E-02 
2383	 3.72829033068584E-02 
2384	 5.54501522650063E-02 
2385	 4.38198557091257E-02 
2386	 4.02291848280441E-02 
2387	 3.43243113164049E-02 
2388	-9.6732543932947E-04 
2389	-3.32177332747771E-03 
2390	 6.53274733442163E-03 
2391	-3.85758826808851E-02 
2392	-5.98077968598469E-02 
2393	-6.06681641306257E-02 
2394	-9.07655721326687E-02 
2395	-7.29224880071672E-02 
2396	-2.63859289743982E-02 
2397	-2.24860227038158E-02 
2398	-4.74870655101439E-03 
2399	-3.45989464178844E-03 
2400	-3.69358432950367E-02 
2401	-4.14781428295142E-02 
2402	-3.61307974079198E-02 
2403	-4.57461341866908E-02 
2404	-4.22896666318867E-02 
2405	-0.036784546403773 
2406	-1.90592940456469E-02 
2407	 5.92609964583384E-03 
2408	-2.945632903376E-05 
2409	 0.022889511530121 
2410	 4.47907062987114E-02 
2411	 4.41171981554306E-03 
2412	 5.35093036045298E-03 
2413	 0.033774751285605 
2414	-5.69143339736624E-02 
2415	-0.10196632151226 
2416	 4.65582232254295E-02 
2417	 0.125053140348719 
2418	 0.18144817117364 
2419	 0.244149256515623 
2420	 5.76047336197405E-02 
2421	-0.128836943911471 
2422	-0.103056823113713 
2423	-5.55513953073811E-02 
2424	-1.09447531418504E-02 
2425	 7.86267123903653E-02 
2426	 8.47065817349466E-02 
2427	 9.03586964768982E-03 
2428	 3.38469026873172E-02 
2429	 5.92437289774286E-03 
2430	-2.88081809140706E-02 
2431	-8.35358722879286E-03 
2432	-0.074567898063523 
2433	-4.25067845751039E-02 
2434	-1.40833038687697E-02 
2435	 2.5400850705349E-03 
2436	 1.22107862914671E-02 
2437	-2.95546715868958E-02 
2438	-7.79509851042302E-02 
2439	-0.147934222045656 
2440	-3.40878236769851E-02 
2441	 1.42829828325891E-02 
2442	 5.65337710416774E-02 
2443	 0.225771084491044 
2444	 0.197162062405749 
2445	 0.360779088614291 
2446	 0.566031854854023 
2447	 0.331169556796822 
2448	-0.602742472395473 
2449	-0.158521375695914 
2450	-4.24761306483945E-02 
2451	-2.80813423587112E-02 
2452	-0.22205562355696 
2453	 3.61657389128806E-03 
2454	 1.51575606783919E-02 
2455	-8.60719139575376E-02 
2456	 9.25440252016364E-02 
2457	 0.293538337744174 
2458	 0.50117218502274 
2459	 0.489721906240241 
2460	 0.460137905710601 
2461	 0.38045957466654 
2462	 2.53866406930854E-02 
2463	-0.127571044999407 
2464	-0.114574842693584 
2465	-6.39531392830411E-02 
2466	 4.95111725497644E-02 
2467	-3.08469265857931E-02 
2468	 6.71170807957184E-02 
2469	 1.05671780144132 
2470	-2.5477466983143 
2471	-3.64710160022954 
2472	-0.750881082382768 
2473	-1.03782779095806 
2474	-0.690292383911972 
2475	-1.55188850573168E-02 
2476	-0.481809048047467 
2477	-1.02127627791316 
2478	-1.91172262053439 
2479	-2.99165158276703 
2480	-1.02678428036289 
2481	-0.688052995051895 
2482	-0.565177910060856 
2483	-0.411819796274245 
2484	 5.24001490633114 
2485	-0.129702392453939 
2486	-10.2554263847072 
2487	-1.8095001159567 
2488	-2.11779265057823E-03 
2489	 0.44931416693093 
2490	 7.67668486611948E-02 
2491	 0.142818660180496 
2492	 1.26877051871021 
2493	 3.52331352846742 
2494	-1.17316183913332 
2495	-3.028443152985 
2496	-0.46796457511721 
2497	 0.837948021031927 
2498	 0.514884084131809 
2499	 3.38016608813153E-02 
2500	-8.41669346700107 
