Wavelength	rt0711c00005.asd
350	 9.57559443020861E-02 
351	 9.56044656855057E-02 
352	 9.57969932972994E-02 
353	 9.60771367308947E-02 
354	 9.61938267556723E-02 
355	 9.61987723432952E-02 
356	 9.64901245846266E-02 
357	 0.096691529029487 
358	 9.65157869330628E-02 
359	 9.71723175381859E-02 
360	 9.73647396633446E-02 
361	 9.71176662738456E-02 
362	 9.72722298967355E-02 
363	 9.66832551473999E-02 
364	 9.61641537290542E-02 
365	 9.62173326722875E-02 
366	 9.65265810520691E-02 
367	 9.72609807358999E-02 
368	 9.76640655149155E-02 
369	 9.72614483201909E-02 
370	 9.72516377205996E-02 
371	 9.78799477539033E-02 
372	 9.87039478461445E-02 
373	 9.89615160686478E-02 
374	 9.90199118497932E-02 
375	 9.93330601399258E-02 
376	 9.97984231846989E-02 
377	 9.95820400962982E-02 
378	 9.99230439642609E-02 
379	 0.100389965951317 
380	 0.100607756385384 
381	 0.101735306379553 
382	 0.102257174158391 
383	 0.102405553236426 
384	 0.103065241565295 
385	 0.103101652671982 
386	 0.103335731808084 
387	 0.103574814238672 
388	 0.102483753420362 
389	 0.103180321201905 
390	 0.104417176091045 
391	 0.10494007119041 
392	 0.1057258490549 
393	 0.10609137434654 
394	 0.106269211035668 
395	 0.106656332869835 
396	 0.106665259657435 
397	 0.106147679594158 
398	 0.105428588334583 
399	 0.10514877245919 
400	 0.104930315518133 
401	 0.104984458166194 
402	 0.105389182139347 
403	 0.10576379797857 
404	 0.106184491017827 
405	 0.106623103006372 
406	 0.107016055533948 
407	 0.107319363598877 
408	 0.107390919166322 
409	 0.107251891101461 
410	 0.107088453910401 
411	 0.107211484456932 
412	 0.107424259109562 
413	 0.10754071232459 
414	 0.107627106719135 
415	 0.107818442207175 
416	 0.10803420820691 
417	 0.108157983513019 
418	 0.108475677332486 
419	 0.108675715214186 
420	 0.108673880884872 
421	 0.108668923159259 
422	 0.108603631603817 
423	 0.108710464289662 
424	 0.109122456453431 
425	 0.109570311159238 
426	 0.110104056851812 
427	 0.110555122841157 
428	 0.110732428070375 
429	 0.111038629516119 
430	 0.111216763593301 
431	 0.111145704774761 
432	 0.110935040514684 
433	 0.110750639191714 
434	 0.110749284467651 
435	 0.111018829733359 
436	 0.111556029476572 
437	 0.111879065017363 
438	 0.112073380071849 
439	 0.112485105577771 
440	 0.112756746211882 
441	 0.112851385819765 
442	 0.112870294829494 
443	 0.113054598139953 
444	 0.113377876363966 
445	 0.113677206131036 
446	 0.113819058853931 
447	 0.113953634996204 
448	 0.114033180432838 
449	 0.114106208833183 
450	 0.114284929695866 
451	 0.114525665463047 
452	 0.11473856132573 
453	 0.114915725407151 
454	 0.115252531446031 
455	 0.11530227689254 
456	 0.115206303313747 
457	 0.115271248649709 
458	 0.115403349060297 
459	 0.115478621237238 
460	 0.115521826885168 
461	 0.115699321621447 
462	 0.115859096596704 
463	 0.115954680682056 
464	 0.116034687342218 
465	 0.116368261882386 
466	 0.116548014054098 
467	 0.116582958048151 
468	 0.116687945452801 
469	 0.116904581195976 
470	 0.116971420746162 
471	 0.116909099670073 
472	 0.117143200926518 
473	 0.117322484922569 
474	 0.117486310639611 
475	 0.117723237195174 
476	 0.117930124276557 
477	 0.11814612604393 
478	 0.118273026998754 
479	 0.118167055846803 
480	 0.118219991774734 
481	 0.118475022334399 
482	 0.118921155429609 
483	 0.119567026362259 
484	 0.120164483200259 
485	 0.120593969784363 
486	 0.120777423192378 
487	 0.120460336434247 
488	 0.12035785387432 
489	 0.120654706245987 
490	 0.120979319766776 
491	 0.121404038519862 
492	 0.121828698911036 
493	 0.122137287999558 
494	 0.122203283294445 
495	 0.122445578249329 
496	 0.122913632862844 
497	 0.123450657516669 
498	 0.123973402255974 
499	 0.124544862370615 
500	 0.125113379330736 
501	 0.125426745115384 
502	 0.12573419135006 
503	 0.126033528980642 
504	 0.126290297434266 
505	 0.126618208930698 
506	 0.127108460011735 
507	 0.127640345832977 
508	 0.127950609938288 
509	 0.128254263906778 
510	 0.128646839773219 
511	 0.129119582167289 
512	 0.129446241698102 
513	 0.130008316904576 
514	 0.130819320170189 
515	 0.131689496177468 
516	 0.132419685374688 
517	 0.13279184528627 
518	 0.132889825406575 
519	 0.133143393540474 
520	 0.133631582347121 
521	 0.134221515218325 
522	 0.13478367638587 
523	 0.13537525231766 
524	 0.136223718680926 
525	 0.137239122846845 
526	 0.138091305187644 
527	 0.138488510943935 
528	 0.138790109122347 
529	 0.139335938576515 
530	 0.14027373541681 
531	 0.141215963430533 
532	 0.142040288450682 
533	 0.142747455598015 
534	 0.143390497351744 
535	 0.144120984958682 
536	 0.145019260285595 
537	 0.146074576528704 
538	 0.14713897579819 
539	 0.148167093129918 
540	 0.14911413013933 
541	 0.149826205597063 
542	 0.150515068735385 
543	 0.151302376069362 
544	 0.152225847034773 
545	 0.153127890372086 
546	 0.153886662423094 
547	 0.154487276843989 
548	 0.155090199365733 
549	 0.155718052882576 
550	 0.156403908526318 
551	 0.157136543199136 
552	 0.157696262358955 
553	 0.158192052503457 
554	 0.158736257693869 
555	 0.159417010627686 
556	 0.160314042466925 
557	 0.161149877588309 
558	 0.161734145453184 
559	 0.162480625888786 
560	 0.163208344458095 
561	 0.163914259945883 
562	 0.16469823733395 
563	 0.165471649648094 
564	 0.16623138282295 
565	 0.166912628357773 
566	 0.167293645310408 
567	 0.167800767455088 
568	 0.168276691131249 
569	 0.168408754353121 
570	 0.168361609287336 
571	 0.16821061652163 
572	 0.168098187003535 
573	 0.168228435874142 
574	 0.168424518515723 
575	 0.168574088760208 
576	 0.168652543611862 
577	 0.168878210435014 
578	 0.169027635251434 
579	 0.169106070150434 
580	 0.169260455924209 
581	 0.169505686367586 
582	 0.169742258949455 
583	 0.169973163287003 
584	 0.170433729786295 
585	 0.170702361686785 
586	 0.170963296510057 
587	 0.171512337231791 
588	 0.171994960822905 
589	 0.17167138644045 
590	 0.170759717399514 
591	 0.170407795058364 
592	 0.16998777557088 
593	 0.169483547298164 
594	 0.168914997766985 
595	 0.167992631255399 
596	 0.16724005253592 
597	 0.166590412724516 
598	 0.165700744015595 
599	 0.165093425014069 
600	 0.164616266910559 
601	 0.16416976003424 
602	 0.163886090333777 
603	 0.163769979871852 
604	 0.163769041984236 
605	 0.163813506102597 
606	 0.163888040466355 
607	 0.163858910882628 
608	 0.163735702259168 
609	 0.163679142053088 
610	 0.163679534164326 
611	 0.163747309673152 
612	 0.163817266277107 
613	 0.163575000975705 
614	 0.163527027345746 
615	 0.163622278793832 
616	 0.16351869790738 
617	 0.163394192635607 
618	 0.16329229724351 
619	 0.163248719347883 
620	 0.163322141488066 
621	 0.163270200141148 
622	 0.163243223517095 
623	 0.163405152007781 
624	 0.16331528191563 
625	 0.163242646978528 
626	 0.163273118541979 
627	 0.163288586590938 
628	 0.163177688082446 
629	 0.163073119819951 
630	 0.163065645546978 
631	 0.163009364788623 
632	 0.162927857314863 
633	 0.16285330501939 
634	 0.162812649454174 
635	 0.162732479108102 
636	 0.162635675586439 
637	 0.162555438711068 
638	 0.162524563434687 
639	 0.162531562849795 
640	 0.162508877328474 
641	 0.162395686697728 
642	 0.162200639252418 
643	 0.16215026542126 
644	 0.162277956212311 
645	 0.162443314400056 
646	 0.162467693811045 
647	 0.162314716793917 
648	 0.162038243956788 
649	 0.161788609416657 
650	 0.161664593612235 
651	 0.161490803671243 
652	 0.161049074955536 
653	 0.160572899777119 
654	 0.16031978592991 
655	 0.160109860422436 
656	 0.159222696635176 
657	 0.1583966821481 
658	 0.15778572545583 
659	 0.157314512641481 
660	 0.156717933033882 
661	 0.156377780821413 
662	 0.156152902432586 
663	 0.155633609864693 
664	 0.155249171155778 
665	 0.154896651218515 
666	 0.15452176874423 
667	 0.154291841724686 
668	 0.154054233774337 
669	 0.153828117849848 
670	 0.153690107268199 
671	 0.153710058235927 
672	 0.153644691578703 
673	 0.153506815568752 
674	 0.153551794309521 
675	 0.153712260545257 
676	 0.153795424516352 
677	 0.15371334099133 
678	 0.153674130392179 
679	 0.153807807377206 
680	 0.15400137793776 
681	 0.154079087544937 
682	 0.154355991935974 
683	 0.154642771363445 
684	 0.154930218022252 
685	 0.155550188764028 
686	 0.15648538679884 
687	 0.157057470301824 
688	 0.156825889481478 
689	 0.156833006231793 
690	 0.15664395092836 
691	 0.156418141145194 
692	 0.156583239583732 
693	 0.156513485994974 
694	 0.156080001696538 
695	 0.155414408407546 
696	 0.154823157315987 
697	 0.154508111292757 
698	 0.154194176350242 
699	 0.153562370210012 
700	 0.152862538918322 
701	 0.152139312925922 
702	 0.151345853175738 
703	 0.150367746141769 
704	 0.149480340032865 
705	 0.14849303163454 
706	 0.147314095590831 
707	 0.1461453110454 
708	 0.14506177615014 
709	 0.143900366859739 
710	 0.142458192432157 
711	 0.140927763564361 
712	 0.139352558126384 
713	 0.137777059473935 
714	 0.136222040346298 
715	 0.134870395996534 
716	 0.133759264888923 
717	 0.132815571600104 
718	 0.131303910642 
719	 0.129091246537714 
720	 0.12670476045539 
721	 0.12443848908934 
722	 0.122961596908042 
723	 0.121635911184509 
724	 0.120128751048699 
725	 0.11821851796083 
726	 0.116102472577948 
727	 0.113935778779482 
728	 0.111807429370922 
729	 0.109553792168335 
730	 0.107201622409782 
731	 0.104832236749508 
732	 0.102495579048361 
733	 0.100514388834664 
734	 9.91601712214131E-02 
735	 9.82732449276861E-02 
736	 9.71023230254787E-02 
737	 9.61748571116454E-02 
738	 9.55526038569153E-02 
739	 9.51455359495993E-02 
740	 9.47109450687781E-02 
741	 9.43808070897584E-02 
742	 9.41040939785376E-02 
743	 9.37670989019292E-02 
744	 9.36106163412034E-02 
745	 9.35478373484794E-02 
746	 9.34894926119561E-02 
747	 9.33908899682526E-02 
748	 9.32223775034084E-02 
749	 0.093088018581565 
750	 9.30689287101261E-02 
751	 0.093060161101415 
752	 9.29952465965009E-02 
753	 9.29097240902385E-02 
754	 9.28722910658123E-02 
755	 9.27771422959697E-02 
756	 9.21122326621031E-02 
757	 9.11084543249115E-02 
758	 9.12122702377831E-02 
759	 9.42377286010357E-02 
760	 9.80906302412108E-02 
761	 0.097055522358427 
762	 9.73338590926674E-02 
763	 0.097313277802383 
764	 9.65398980030036E-02 
765	 0.09522549565534 
766	 9.42237253145264E-02 
767	 9.35648332561785E-02 
768	 9.32138482736837E-02 
769	 9.31460397038165E-02 
770	 9.31926095323108E-02 
771	 9.32330188161419E-02 
772	 9.32335348257587E-02 
773	 0.093350323143798 
774	 9.34743432979818E-02 
775	 9.36002923725694E-02 
776	 9.37626447383774E-02 
777	 9.39346529149235E-02 
778	 9.41617748981674E-02 
779	 9.44060569470457E-02 
780	 9.45561121976973E-02 
781	 0.094779113225188 
782	 9.50693731617075E-02 
783	 9.53402235265757E-02 
784	 0.095377164489825 
785	 9.56246125525322E-02 
786	 9.60687680477666E-02 
787	 9.65255191059481E-02 
788	 9.69370627733271E-02 
789	 9.72707684948135E-02 
790	 9.75803343949394E-02 
791	 9.79668506573069E-02 
792	 9.82277736008255E-02 
793	 9.83881917323599E-02 
794	 9.86437541221192E-02 
795	 9.94173964280838E-02 
796	 9.96428890611337E-02 
797	 9.96227582265872E-02 
798	 9.98601824695756E-02 
799	 0.100061446225141 
800	 0.100480061376015 
801	 0.100881650385811 
802	 0.100861005714575 
803	 0.100899047894565 
804	 0.100846942365003 
805	 0.100675348309664 
806	 0.100543245083983 
807	 0.100631196012627 
808	 0.100675161408766 
809	 0.10045405084132 
810	 0.100054062085836 
811	 9.99916262723597E-02 
812	 0.100170695490641 
813	 0.100273147828985 
814	 0.100499521831516 
815	 0.100672446051259 
816	 0.100599810072614 
817	 0.100101714438976 
818	 9.87316728070543E-02 
819	 9.68268605796555E-02 
820	 9.54119881893889E-02 
821	 9.64644556554648E-02 
822	 9.65463069645126E-02 
823	 9.47446415720297E-02 
824	 0.09197041975243 
825	 9.07310414728856E-02 
826	 8.98654510019358E-02 
827	 8.89098974983659E-02 
828	 8.76942109140217E-02 
829	 8.62558311013026E-02 
830	 8.49821888767931E-02 
831	 0.084057517256709 
832	 8.34473342852143E-02 
833	 8.25734382444291E-02 
834	 8.17807254109386E-02 
835	 8.12314254385158E-02 
836	 8.07057156260363E-02 
837	 8.02388844534565E-02 
838	 7.98466933450893E-02 
839	 7.95040058897081E-02 
840	 7.90734758933772E-02 
841	 7.87470171847768E-02 
842	 7.85487918266281E-02 
843	 7.84134821695625E-02 
844	 7.82415354973552E-02 
845	 7.77676213431987E-02 
846	 7.72085338783548E-02 
847	 0.077040837349433 
848	 7.68411766147592E-02 
849	 7.67616178271982E-02 
850	 7.66469248017143E-02 
851	 7.59651862722673E-02 
852	 7.64392278829066E-02 
853	 7.70020408069677E-02 
854	 7.66632466191209E-02 
855	 7.59313853459627E-02 
856	 7.55238297823476E-02 
857	 7.53498566972642E-02 
858	 0.075161595216299 
859	 7.51888592968433E-02 
860	 7.49048774960683E-02 
861	 0.074454265555548 
862	 0.074252469933655 
863	 7.39558987934223E-02 
864	 7.42408779046774E-02 
865	 7.47946301022208E-02 
866	 0.074474329451223 
867	 7.39278961383644E-02 
868	 7.35103141612161E-02 
869	 7.32533579524623E-02 
870	 0.072841705432312 
871	 7.27387758274011E-02 
872	 7.28048614291638E-02 
873	 7.27753088860933E-02 
874	 7.24104468419531E-02 
875	 7.22239800693763E-02 
876	 7.20529666959346E-02 
877	 7.17192973570559E-02 
878	 7.18363109971565E-02 
879	 0.071688773707214 
880	 7.13331038585726E-02 
881	 7.11403946004943E-02 
882	 7.08812057999876E-02 
883	 7.06609488149454E-02 
884	 7.05762682685336E-02 
885	 7.06307158114705E-02 
886	 7.02889763788128E-02 
887	 6.97035123663379E-02 
888	 6.92246719248639E-02 
889	 6.92465107981378E-02 
890	 6.88966046387297E-02 
891	 0.06870612774094 
892	 6.89921371361109E-02 
893	 6.92021646280707E-02 
894	 6.93282521888988E-02 
895	 6.98228313587598E-02 
896	 7.09293095047275E-02 
897	 0.071842509593355 
898	 7.21100047734573E-02 
899	 7.20231254066304E-02 
900	 7.18148781166806E-02 
901	 7.03812722775422E-02 
902	 6.85331425353512E-02 
903	 6.74322740088063E-02 
904	 6.78206475262525E-02 
905	 6.80439253866015E-02 
906	 6.88339726152716E-02 
907	 6.98985695552089E-02 
908	 7.01712355948488E-02 
909	 6.93171905620495E-02 
910	 6.89590054420183E-02 
911	 0.06929729545955 
912	 6.91801860088276E-02 
913	 6.92825204597948E-02 
914	 7.00762695363592E-02 
915	 7.06256989341376E-02 
916	 6.89475057390023E-02 
917	 6.84422500014896E-02 
918	 6.76105588139915E-02 
919	 6.62090188431277E-02 
920	 6.64838120389791E-02 
921	 6.60639526982099E-02 
922	 6.55045581950588E-02 
923	 6.53365245343803E-02 
924	 6.48465475224738E-02 
925	 6.40692557945114E-02 
926	 6.35802744735149E-02 
927	 6.40859470214999E-02 
928	 6.61048257873164E-02 
929	 6.61348191300579E-02 
930	 6.68749936370463E-02 
931	 7.29867234610938E-02 
932	 7.53460361988468E-02 
933	 7.80571650245954E-02 
934	 7.84146834548467E-02 
935	 7.31908929697756E-02 
936	 6.88314488040586E-02 
937	 6.71810460473258E-02 
938	 6.68033392142538E-02 
939	 6.57283247676226E-02 
940	 6.36356607287468E-02 
941	 6.56774567636217E-02 
942	 6.96933199950366E-02 
943	 7.05591104911459E-02 
944	 7.05073637137829E-02 
945	 6.95926167533731E-02 
946	 0.068037727896854 
947	 6.62924999886787E-02 
948	 6.51102954834615E-02 
949	 6.64345130928637E-02 
950	 6.76982352211032E-02 
951	 6.54586216465932E-02 
952	 6.95668486306507E-02 
953	 6.80386697340857E-02 
954	 0.063314151479713 
955	 6.61028189774915E-02 
956	 6.41020456708928E-02 
957	 6.29175649796961E-02 
958	 6.50194621744107E-02 
959	 0.068421624562485 
960	 6.60573474205366E-02 
961	 6.46439564779869E-02 
962	 6.52229118065418E-02 
963	 6.42676208393162E-02 
964	 6.43244704616626E-02 
965	 6.39883959041407E-02 
966	 6.29865876706806E-02 
967	 0.062015557778681 
968	 6.02336621005414E-02 
969	 0.061083854975368 
970	 6.28810460668928E-02 
971	 6.05925341714922E-02 
972	 6.19306967014643E-02 
973	 6.39466237440191E-02 
974	 6.44629854883793E-02 
975	 0.063510182606865 
976	 6.18523026179242E-02 
977	 6.24406700102059E-02 
978	 6.35172197944355E-02 
979	 6.05586034947272E-02 
980	 6.13094734020653E-02 
981	 6.09289560691796E-02 
982	 5.88627279078961E-02 
983	 5.87741538321031E-02 
984	 6.00841223588438E-02 
985	 5.99359943875151E-02 
986	 0.058176160197918 
987	 5.71507155816038E-02 
988	 5.90713312318518E-02 
989	 5.83614779645755E-02 
990	 5.62669519472892E-02 
991	 5.83825024462792E-02 
992	 5.88593215905569E-02 
993	 5.86974814222285E-02 
994	 5.87582751157837E-02 
995	 5.91179374604207E-02 
996	 5.81502971550526E-02 
997	 5.74641220177975E-02 
998	 5.82205537930577E-02 
999	 5.99055579502433E-02 
1000	 5.61986502245835E-02 
1001	 2.92385292330029E-02 
1002	 3.13797124838468E-02 
1003	 3.33018777622858E-02 
1004	 3.52653375820219E-02 
1005	 3.70477476899461E-02 
1006	 3.87813843094269E-02 
1007	 4.04120356206715E-02 
1008	 4.20902472134099E-02 
1009	 4.38821559369605E-02 
1010	 4.57337419202504E-02 
1011	 4.75968096353591E-02 
1012	 4.92560116541527E-02 
1013	 5.04577928769546E-02 
1014	 5.14951113972904E-02 
1015	 5.21911533057524E-02 
1016	 5.31111535329864E-02 
1017	 0.053778705150465 
1018	 5.45434305359916E-02 
1019	 5.57250619778187E-02 
1020	 5.64234700726144E-02 
1021	 5.66075785176428E-02 
1022	 0.05737862983204 
1023	 5.75896228679144E-02 
1024	 5.73910644997431E-02 
1025	 5.75993614170844E-02 
1026	 5.68729142600057E-02 
1027	 5.60002194822596E-02 
1028	 5.49875796702998E-02 
1029	 5.34780860637692E-02 
1030	 5.11496968809058E-02 
1031	 4.94694809961091E-02 
1032	 4.75074914730179E-02 
1033	 4.59725772847414E-02 
1034	 4.48481619386724E-02 
1035	 4.36835300489775E-02 
1036	 4.27806677869966E-02 
1037	 4.17865682549103E-02 
1038	 4.09993068380164E-02 
1039	 3.99044119814144E-02 
1040	 3.82643442627981E-02 
1041	 3.71803993208124E-02 
1042	 3.62129057335395E-02 
1043	 3.51721877971262E-02 
1044	 3.44465155202144E-02 
1045	 3.42194125463766E-02 
1046	 3.37458877748147E-02 
1047	 3.33164726908642E-02 
1048	 3.27744039832903E-02 
1049	 3.21071950686914E-02 
1050	 0.03167874011926 
1051	 3.11112932106461E-02 
1052	 3.08690947944196E-02 
1053	 3.12761770699068E-02 
1054	 3.11589521988248E-02 
1055	 3.09189255568052E-02 
1056	 3.06493269657633E-02 
1057	 3.02429755550138E-02 
1058	 2.93356341063481E-02 
1059	 0.029115040549889 
1060	 2.92393190848393E-02 
1061	 2.91262211783076E-02 
1062	 2.92835963396708E-02 
1063	 2.91278736022501E-02 
1064	 2.86088302557372E-02 
1065	 2.83636798636082E-02 
1066	 2.80674578466036E-02 
1067	 0.027975466251664 
1068	 0.028003163295316 
1069	 0.028150446561731 
1070	 2.87177781840257E-02 
1071	 2.89493059321468E-02 
1072	 2.93807615156849E-02 
1073	 0.02932121361828 
1074	 2.90335944828502E-02 
1075	 2.80383929825476E-02 
1076	 2.79882080106397E-02 
1077	 2.81652003703238E-02 
1078	 2.82200735523553E-02 
1079	 2.88346075059292E-02 
1080	 2.90072698452018E-02 
1081	 2.87660105423446E-02 
1082	 2.86035963065832E-02 
1083	 2.84976922778547E-02 
1084	 2.83285275376991E-02 
1085	 0.02777894853363 
1086	 2.76162594989208E-02 
1087	 2.78368004499816E-02 
1088	 2.78413104676197E-02 
1089	 2.78682826452757E-02 
1090	 2.79437425335644E-02 
1091	 2.79987871357657E-02 
1092	 2.78010513258662E-02 
1093	 0.027895144111324 
1094	 2.84349489193931E-02 
1095	 0.028474786680026 
1096	 2.81911084799793E-02 
1097	 2.83196073740543E-02 
1098	 2.82893097909645E-02 
1099	 2.84173072487576E-02 
1100	 2.92095341832191E-02 
1101	 2.94451450340015E-02 
1102	 2.92533844776739E-02 
1103	 2.93586206556131E-02 
1104	 2.92261046147329E-02 
1105	 2.93498516437085E-02 
1106	 3.05856813890875E-02 
1107	 3.09708473825309E-02 
1108	 3.11620231862962E-02 
1109	 3.19406492179183E-02 
1110	 3.20266245422644E-02 
1111	 3.09013815409068E-02 
1112	 3.10324834275136E-02 
1113	 3.17395396596147E-02 
1114	 3.22599688927985E-02 
1115	 3.35828680384861E-02 
1116	 3.48079396277273E-02 
1117	 3.57488058284167E-02 
1118	 3.71058495108024E-02 
1119	 3.96946135608246E-02 
1120	 4.19694161093594E-02 
1121	 4.49224391362376E-02 
1122	 4.50914052014087E-02 
1123	 4.56597590126358E-02 
1124	 4.62103993898122E-02 
1125	 4.59938104343794E-02 
1126	 4.93046990396716E-02 
1127	 5.10816092798474E-02 
1128	 5.05834053196209E-02 
1129	 5.25327108736077E-02 
1130	 5.46496656751013E-02 
1131	 5.68417681861676E-02 
1132	 5.98591065115309E-02 
1133	 6.18115060577732E-02 
1134	 6.27700160816717E-02 
1135	 0.064420825330277 
1136	 6.59859428678775E-02 
1137	 6.91948695286427E-02 
1138	 7.48757139207806E-02 
1139	 7.53591155427964E-02 
1140	 7.90602321364047E-02 
1141	 8.28881794373279E-02 
1142	 8.23025649364261E-02 
1143	 8.60964923988628E-02 
1144	 9.03118091138149E-02 
1145	 9.11764888259984E-02 
1146	 9.25320738493746E-02 
1147	 9.61200487150379E-02 
1148	 9.77929142682699E-02 
1149	 0.101867719663378 
1150	 0.105135199985389 
1151	 0.109010459590453 
1152	 0.110901144004907 
1153	 0.110710709258076 
1154	 0.11271462047863 
1155	 0.115053310707395 
1156	 0.117046752089402 
1157	 0.118349938961101 
1158	 0.118617504941658 
1159	 0.119300541295081 
1160	 0.119844207551636 
1161	 0.120898274746477 
1162	 0.121409018097737 
1163	 0.121556524113727 
1164	 0.121183205813275 
1165	 0.121178280800093 
1166	 0.121714875107869 
1167	 0.12200125098907 
1168	 0.121501703355849 
1169	 0.12133357982838 
1170	 0.121690269679727 
1171	 0.121632669333263 
1172	 0.121337306427832 
1173	 0.121181165098374 
1174	 0.121050922889078 
1175	 0.120786667813776 
1176	 0.120194718425176 
1177	 0.119837082902487 
1178	 0.119539747772856 
1179	 0.118532880627134 
1180	 0.117688022425012 
1181	 0.117716219720584 
1182	 0.116690368009685 
1183	 0.11584570347431 
1184	 0.115376604952842 
1185	 0.114400284453206 
1186	 0.113421428687641 
1187	 0.112257984430173 
1188	 0.110878180977189 
1189	 0.109431119729827 
1190	 0.108253643545461 
1191	 0.106897896136966 
1192	 0.105467699953053 
1193	 0.103963441375462 
1194	 0.102239666208162 
1195	 0.100409347208269 
1196	 9.89823210916505E-02 
1197	 9.75541678277538E-02 
1198	 9.58197059294413E-02 
1199	 0.093973441593588 
1200	 9.24027904793807E-02 
1201	 9.06263366945163E-02 
1202	 8.94422793593679E-02 
1203	 8.83940663692756E-02 
1204	 0.08669498103063 
1205	 8.50193472154506E-02 
1206	 8.34477414332363E-02 
1207	 0.081793240579401 
1208	 8.01681116560784E-02 
1209	 0.078671158923374 
1210	 0.07746015331229 
1211	 7.63117258116854E-02 
1212	 7.49705173893195E-02 
1213	 7.35937552398811E-02 
1214	 7.23971547499376E-02 
1215	 7.09988098967568E-02 
1216	 6.97189613253261E-02 
1217	 6.88880469218908E-02 
1218	 6.82222478336385E-02 
1219	 6.70806652327378E-02 
1220	 6.58893473837221E-02 
1221	 6.49963255607905E-02 
1222	 6.39508627976853E-02 
1223	 6.29376560259634E-02 
1224	 6.21564403709304E-02 
1225	 6.12578150260969E-02 
1226	 0.060311152300802 
1227	 5.96065949568634E-02 
1228	 5.89532180385639E-02 
1229	 5.79062649972097E-02 
1230	 0.056839910515794 
1231	 5.62017436805267E-02 
1232	 5.56153683507657E-02 
1233	 5.46989084948972E-02 
1234	 5.38076710729904E-02 
1235	 5.31488543714525E-02 
1236	 0.052472111793145 
1237	 5.16533533014032E-02 
1238	 5.09459689150451E-02 
1239	 5.04011866465201E-02 
1240	 4.95398287503099E-02 
1241	 4.85183098568413E-02 
1242	 4.78759141209108E-02 
1243	 4.74520591755158E-02 
1244	 4.67809931079708E-02 
1245	 4.57630310983933E-02 
1246	 4.49342283090042E-02 
1247	 4.42704837413869E-02 
1248	 4.35960704751749E-02 
1249	 4.31403109248315E-02 
1250	 4.25645970664796E-02 
1251	 4.17044518940812E-02 
1252	 4.11692255394064E-02 
1253	 4.10476853521336E-02 
1254	 4.07015435894289E-02 
1255	 4.02069545027585E-02 
1256	 3.98825606961496E-02 
1257	 3.94424629916429E-02 
1258	 3.90251685042094E-02 
1259	 3.88286240469465E-02 
1260	 3.86547996754762E-02 
1261	 3.84034076470179E-02 
1262	 3.80211812741552E-02 
1263	 3.75876303141196E-02 
1264	 3.73957950523115E-02 
1265	 3.72501504168223E-02 
1266	 3.71444975158913E-02 
1267	 3.69002330847457E-02 
1268	 3.66630215555388E-02 
1269	 3.66563628931857E-02 
1270	 3.64283392351986E-02 
1271	 3.60344412710037E-02 
1272	 3.56889405721841E-02 
1273	 3.50749046334369E-02 
1274	 0.034588316526416 
1275	 3.43765756816128E-02 
1276	 3.43390442766107E-02 
1277	 3.41959373439256E-02 
1278	 3.37371811123718E-02 
1279	 3.35029092751104E-02 
1280	 3.34241799089361E-02 
1281	 3.32215660766893E-02 
1282	 3.28482208671855E-02 
1283	 3.26915089244483E-02 
1284	 3.26962886560317E-02 
1285	 3.25157869280299E-02 
1286	 3.21033118633015E-02 
1287	 3.21180877379859E-02 
1288	 3.26943745161247E-02 
1289	 3.24440419243764E-02 
1290	 3.18166616567955E-02 
1291	 3.15789719102892E-02 
1292	 3.16146496016867E-02 
1293	 3.11313312314305E-02 
1294	 3.09700968046485E-02 
1295	 3.13264858484094E-02 
1296	 3.10028246974171E-02 
1297	 3.06569672651223E-02 
1298	 3.09738112664109E-02 
1299	 3.10000940728148E-02 
1300	 3.07795476242207E-02 
1301	 0.03059578420302 
1302	 3.06439442245994E-02 
1303	 3.09158558010333E-02 
1304	 3.09424014471143E-02 
1305	 3.08745058203211E-02 
1306	 3.06731273165794E-02 
1307	 0.030197813381919 
1308	 0.03017645051863 
1309	 3.02801158954903E-02 
1310	 3.02802417544116E-02 
1311	 3.06970611345327E-02 
1312	 3.07536672995752E-02 
1313	 3.01193249545385E-02 
1314	 3.01587601482026E-02 
1315	 3.08061694315041E-02 
1316	 3.10487511010089E-02 
1317	 3.14942575967099E-02 
1318	 0.031622852351939 
1319	 3.10828162243237E-02 
1320	 3.09127316796221E-02 
1321	 3.08686598513708E-02 
1322	 3.09215136201196E-02 
1323	 3.05911198137214E-02 
1324	 3.04577857576868E-02 
1325	 3.07319622675722E-02 
1326	 3.08355845536368E-02 
1327	 3.10468160774382E-02 
1328	 0.031028276325413 
1329	 3.09345744248785E-02 
1330	 0.031303705226598 
1331	 0.031522224528567 
1332	 0.03229194525762 
1333	 3.29567004920315E-02 
1334	 3.20776359227899E-02 
1335	 3.19102595262019E-02 
1336	 3.24710232300937E-02 
1337	 3.22477914374986E-02 
1338	 3.08802764498885E-02 
1339	 3.07128742588408E-02 
1340	 3.09987345340695E-02 
1341	 3.10668925304865E-02 
1342	 3.20436550845532E-02 
1343	 3.26752496645737E-02 
1344	 3.27852907122533E-02 
1345	 3.26233256098278E-02 
1346	 3.21653291863601E-02 
1347	 3.24730622316039E-02 
1348	 3.34887228792767E-02 
1349	 0.033603255370952 
1350	 3.18973997820881E-02 
1351	 3.28312924912037E-02 
1352	 3.66380166567717E-02 
1353	 3.85286433204864E-02 
1354	 4.52532398885594E-02 
1355	 5.93146412164491E-02 
1356	 6.12028863296016E-02 
1357	 7.08398313224995E-02 
1358	 7.21027734335263E-02 
1359	 7.60715562782136E-02 
1360	 0.125421943846368 
1361	 0.161871780580223 
1362	 0.203636466327932 
1363	 0.302916719981704 
1364	 0.30409775049791 
1365	 0.135542188041021 
1366	 0.179783181575626 
1367	 0.359181310861084 
1368	 0.37209502259037 
1369	 0.337867572237894 
1370	 0.375957040316611 
1371	 0.368257624950331 
1372	 0.289880577473533 
1373	 0.283789705214099 
1374	 0.38600405499871 
1375	 0.397205270081652 
1376	 0.459817338644774 
1377	 0.953388907256902 
1378	 0.943530509458771 
1379	 0.15867985870989 
1380	 0.14427380144636 
1381	 0.735254578900667 
1382	 0.587280143262828 
1383	 0.333389040800114 
1384	 0.462132578413698 
1385	 0.548493495107193 
1386	 0.498687609339352 
1387	 1.45030213180145 
1388	 1.98334629431575 
1389	-0.195970997038432 
1390	-0.276756594059848 
1391	 0.611492148986706 
1392	 0.839613511141063 
1393	 0.666769903162508 
1394	 0.414293394484554 
1395	 0.263880670649948 
1396	 0.150674298778282 
1397	 0.148816788504199 
1398	 0.231373622765507 
1399	 0.304609244752425 
1400	 0.354068800369185 
1401	 0.413989795380481 
1402	 0.352436330850745 
1403	 0.263821577914746 
1404	 0.164910974993971 
1405	 0.10991523096509 
1406	 0.272530502404941 
1407	 0.236337056128 
1408	 3.27929919627536E-02 
1409	 4.80688852971969E-02 
1410	 0.195267340399954 
1411	 0.148669753415875 
1412	 3.37505526897449E-02 
1413	 0.071087346453162 
1414	 0.132195392457869 
1415	 0.105184469013414 
1416	 0.108466329773397 
1417	 0.117400860307484 
1418	 8.38269659524414E-02 
1419	 5.36567006483726E-02 
1420	 4.35035118170751E-02 
1421	 4.98446427785537E-02 
1422	 0.048149479433778 
1423	 0.042643142522277 
1424	 5.33326959422658E-02 
1425	 5.66424233694595E-02 
1426	 4.34179673921259E-02 
1427	 3.86254518318885E-02 
1428	 4.73807043205972E-02 
1429	 4.77739095566804E-02 
1430	 3.61828445943724E-02 
1431	 3.46416074500547E-02 
1432	 3.84564792573664E-02 
1433	 4.07980178155468E-02 
1434	 4.86531210832569E-02 
1435	 5.20088925412625E-02 
1436	 5.43092669116305E-02 
1437	 5.15439823978912E-02 
1438	 4.68094898754363E-02 
1439	 4.80923966939814E-02 
1440	 4.82873946507845E-02 
1441	 0.047178603967254 
1442	 4.86966179552388E-02 
1443	 4.72104459874105E-02 
1444	 4.30360298773483E-02 
1445	 4.07585156771976E-02 
1446	 3.92882539210197E-02 
1447	 3.96494515875496E-02 
1448	 4.58964447055974E-02 
1449	 4.98540535251153E-02 
1450	 5.04608460507034E-02 
1451	 5.18197693421966E-02 
1452	 5.15617787223047E-02 
1453	 5.16256596330014E-02 
1454	 5.15368114996908E-02 
1455	 5.18774129020993E-02 
1456	 5.22517904310402E-02 
1457	 5.18371115021943E-02 
1458	 5.27295392593959E-02 
1459	 5.50640067199455E-02 
1460	 5.62692200773003E-02 
1461	 5.73439931390786E-02 
1462	 5.83532512281533E-02 
1463	 5.89287785154907E-02 
1464	 6.04438593052796E-02 
1465	 6.30338671865752E-02 
1466	 6.43405574073864E-02 
1467	 6.55641178609151E-02 
1468	 6.65481632331374E-02 
1469	 6.63985668937728E-02 
1470	 6.68983228935351E-02 
1471	 6.67964316703003E-02 
1472	 6.86330211491519E-02 
1473	 7.26237807322129E-02 
1474	 7.29395661736224E-02 
1475	 7.22645567968109E-02 
1476	 7.25768149843508E-02 
1477	 7.10207285843859E-02 
1478	 0.070680113910869 
1479	 7.25707320619494E-02 
1480	 7.27459113335083E-02 
1481	 7.12119693611253E-02 
1482	 7.09198870126091E-02 
1483	 7.14439527657924E-02 
1484	 7.10975060694268E-02 
1485	 0.070140215564502 
1486	 7.03268925549984E-02 
1487	 7.12408473094682E-02 
1488	 7.09537090060496E-02 
1489	 7.06854390069274E-02 
1490	 7.05762971560801E-02 
1491	 7.00745216821996E-02 
1492	 6.92617381465158E-02 
1493	 6.84569649398907E-02 
1494	 6.79756057226776E-02 
1495	 6.72701009685851E-02 
1496	 6.64612379695787E-02 
1497	 6.59331003287669E-02 
1498	 6.54569689102158E-02 
1499	 6.46925208964341E-02 
1500	 6.39464431423422E-02 
1501	 0.063530229723321 
1502	 0.062893433545072 
1503	 0.06177593486354 
1504	 6.10423031373793E-02 
1505	 6.05655404050945E-02 
1506	 5.99865277668055E-02 
1507	 5.95585192863129E-02 
1508	 5.93805820132769E-02 
1509	 5.90596839635669E-02 
1510	 5.85005964846709E-02 
1511	 0.057637392048801 
1512	 0.056899397654559 
1513	 0.056816940329434 
1514	 5.64342201189999E-02 
1515	 0.055840580229558 
1516	 5.55350433608814E-02 
1517	 5.47505128862324E-02 
1518	 5.41832288055252E-02 
1519	 5.41319710101686E-02 
1520	 5.38078429762408E-02 
1521	 5.35336627020349E-02 
1522	 5.31599429105532E-02 
1523	 5.26614065484042E-02 
1524	 5.22166047695499E-02 
1525	 5.16413192314096E-02 
1526	 5.13184676859157E-02 
1527	 5.11181724856775E-02 
1528	 5.07188921573947E-02 
1529	 5.04267592137325E-02 
1530	 5.01926647294062E-02 
1531	 5.01524139458148E-02 
1532	 5.02677814158436E-02 
1533	 5.00693980799046E-02 
1534	 4.96407266130883E-02 
1535	 4.91300532735738E-02 
1536	 4.87804085995646E-02 
1537	 4.85984814394069E-02 
1538	 4.84327253958184E-02 
1539	 0.048393580628083 
1540	 4.82352358576562E-02 
1541	 4.79909027333013E-02 
1542	 4.78736000886796E-02 
1543	 4.77308802205156E-02 
1544	 0.047519629670152 
1545	 4.74679313164513E-02 
1546	 4.72882949331599E-02 
1547	 4.69081215597612E-02 
1548	 4.68442551518303E-02 
1549	 4.65681898990808E-02 
1550	 4.62975468684709E-02 
1551	 4.64192517132355E-02 
1552	 4.61882717921213E-02 
1553	 0.045780591244525 
1554	 4.54251635825949E-02 
1555	 4.51578381028839E-02 
1556	 4.50572324431555E-02 
1557	 4.47613600769779E-02 
1558	 0.044661838338483 
1559	 4.48864362444193E-02 
1560	 4.44956627429241E-02 
1561	 4.40890521810561E-02 
1562	 0.044189284679638 
1563	 4.39116848477721E-02 
1564	 4.35303874796898E-02 
1565	 4.34793467817818E-02 
1566	 0.043610850640147 
1567	 4.37187090024089E-02 
1568	 4.34715730644849E-02 
1569	 4.34306289968854E-02 
1570	 4.35636862161972E-02 
1571	 0.043403311069001 
1572	 4.34300905797803E-02 
1573	 4.32674517849657E-02 
1574	 4.29330417970435E-02 
1575	 4.28352558085627E-02 
1576	 4.29731275118018E-02 
1577	 4.34503866311653E-02 
1578	 4.34221373641929E-02 
1579	 4.28437641961821E-02 
1580	 4.28287696351215E-02 
1581	 4.30676983480935E-02 
1582	 0.043003558640155 
1583	 4.30670757053323E-02 
1584	 4.30119086647279E-02 
1585	 4.26516873074857E-02 
1586	 4.25850053960342E-02 
1587	 4.27707913170538E-02 
1588	 4.26113334139199E-02 
1589	 4.22639651432372E-02 
1590	 4.22824090843374E-02 
1591	 0.042185239969884 
1592	 4.19374973832633E-02 
1593	 4.21743990513362E-02 
1594	 4.23692278940826E-02 
1595	 4.21592421775285E-02 
1596	 4.17937731685339E-02 
1597	 4.15526406177634E-02 
1598	 4.14927525745396E-02 
1599	 4.12501038951796E-02 
1600	 4.12164715355495E-02 
1601	 4.14334261522258E-02 
1602	 4.13601520268529E-02 
1603	 4.11450126057842E-02 
1604	 4.09179897179879E-02 
1605	 0.040847961889582 
1606	 4.09326579541743E-02 
1607	 4.07367067871248E-02 
1608	 4.05332840969543E-02 
1609	 4.05384842736342E-02 
1610	 4.03642485531955E-02 
1611	 0.040439947014601 
1612	 4.09614186474664E-02 
1613	 4.09903766187517E-02 
1614	 4.02623466126168E-02 
1615	 3.95308261480423E-02 
1616	 3.94930966779234E-02 
1617	 3.97934284633462E-02 
1618	 3.96428580584828E-02 
1619	 3.95657994433669E-02 
1620	 3.97098995761651E-02 
1621	 3.95641095119488E-02 
1622	 3.94663346542669E-02 
1623	 3.95760449541542E-02 
1624	 3.96419474898296E-02 
1625	 3.95197252119336E-02 
1626	 3.93413625641816E-02 
1627	 3.92522750354917E-02 
1628	 3.91955963221177E-02 
1629	 3.92334074549848E-02 
1630	 3.91693181912927E-02 
1631	 3.90078224678753E-02 
1632	 3.89244608823558E-02 
1633	 3.86341090941709E-02 
1634	 3.84217027164398E-02 
1635	 3.86350519072274E-02 
1636	 3.88008839074047E-02 
1637	 3.86076113733244E-02 
1638	 3.84760105575995E-02 
1639	 3.86921288454214E-02 
1640	 3.85727995271175E-02 
1641	 3.80502581744535E-02 
1642	 3.81566397784921E-02 
1643	 3.83447771830116E-02 
1644	 3.79047661959748E-02 
1645	 3.79632369106963E-02 
1646	 3.83870590890123E-02 
1647	 3.81470279935503E-02 
1648	 3.78989396312786E-02 
1649	 0.038174689078218 
1650	 3.82608991629764E-02 
1651	 3.77843283263327E-02 
1652	 3.75254773486944E-02 
1653	 3.74875401886015E-02 
1654	 3.74810170381665E-02 
1655	 3.80858977799516E-02 
1656	 3.79516395397888E-02 
1657	 3.70947802434175E-02 
1658	 3.70011787386539E-02 
1659	 3.69986853164044E-02 
1660	 3.69582088982126E-02 
1661	 3.74336084149179E-02 
1662	 3.74662478453613E-02 
1663	 3.71085045134874E-02 
1664	 3.71396498479813E-02 
1665	 3.72964288641628E-02 
1666	 3.73245299057598E-02 
1667	 3.73050484049723E-02 
1668	 3.68581968653774E-02 
1669	 3.68627392897269E-02 
1670	 3.65634873900794E-02 
1671	 3.62899921983425E-02 
1672	 3.64777588383313E-02 
1673	 0.036726832768473 
1674	 3.68226694730813E-02 
1675	 0.036748976176707 
1676	 3.64800372845055E-02 
1677	 3.62086908391341E-02 
1678	 3.63874576979084E-02 
1679	 3.65092255871019E-02 
1680	 3.62763991851929E-02 
1681	 3.64084704885623E-02 
1682	 0.036321781823412 
1683	 3.58951529711593E-02 
1684	 3.62356169082709E-02 
1685	 3.63649102032832E-02 
1686	 0.035651638505801 
1687	 3.57230620639358E-02 
1688	 3.62524731085319E-02 
1689	 3.59673752813612E-02 
1690	 3.59779642037991E-02 
1691	 0.036391160574687 
1692	 3.60294698799654E-02 
1693	 3.55367872165992E-02 
1694	 3.58246294407087E-02 
1695	 3.62158733538676E-02 
1696	 3.61168081221631E-02 
1697	 3.58169529205063E-02 
1698	 3.53362465132851E-02 
1699	 3.53137796046797E-02 
1700	 3.58187235430055E-02 
1701	 3.62030542685812E-02 
1702	 3.67167240718941E-02 
1703	 3.64199099298558E-02 
1704	 0.035265491371619 
1705	 3.53046550635174E-02 
1706	 3.60366870123008E-02 
1707	 3.59543518437162E-02 
1708	 3.56970910862729E-02 
1709	 3.55011407182509E-02 
1710	 3.50811446144295E-02 
1711	 3.48885416263496E-02 
1712	 3.52986169022529E-02 
1713	 3.54123236540812E-02 
1714	 3.51080784852507E-02 
1715	 3.49762987004781E-02 
1716	 3.51558259725294E-02 
1717	 3.47483416554595E-02 
1718	 3.43070141234996E-02 
1719	 3.37644796335638E-02 
1720	 3.35570148913714E-02 
1721	 3.40009215582158E-02 
1722	 3.46491558142664E-02 
1723	 3.44683256292728E-02 
1724	 3.34528002920146E-02 
1725	 3.25827994998376E-02 
1726	 3.28375574357377E-02 
1727	 3.34366684909818E-02 
1728	 3.31147030520109E-02 
1729	 3.25654812712667E-02 
1730	 3.20208130780821E-02 
1731	 3.12705920725355E-02 
1732	 3.15655243182656E-02 
1733	 3.22659271243812E-02 
1734	 3.17465250928145E-02 
1735	 3.08965282660646E-02 
1736	 3.05104386907755E-02 
1737	 2.99111472994466E-02 
1738	 2.94947153048493E-02 
1739	 2.96180186856826E-02 
1740	 2.87168346018856E-02 
1741	 2.79999972275073E-02 
1742	 2.88080514237067E-02 
1743	 2.81556871743206E-02 
1744	 2.71249330013829E-02 
1745	 2.78337680439277E-02 
1746	 2.79509350458425E-02 
1747	 2.74691652821791E-02 
1748	 2.67770700658145E-02 
1749	 2.66380703883717E-02 
1750	 2.62718859688304E-02 
1751	 2.60210926335176E-02 
1752	 2.71919718886994E-02 
1753	 2.72154111275696E-02 
1754	 2.54221359426094E-02 
1755	 2.49321788615221E-02 
1756	 2.51916413593402E-02 
1757	 2.50534794484681E-02 
1758	 2.54803213241906E-02 
1759	 0.024852628597048 
1760	 2.41890345375229E-02 
1761	 2.44450678336683E-02 
1762	 2.43311453649026E-02 
1763	 2.45166194161174E-02 
1764	 2.45350244937657E-02 
1765	 2.34290931677323E-02 
1766	 2.29181449562371E-02 
1767	 2.37902787324421E-02 
1768	 0.024225289974912 
1769	 2.45799586961921E-02 
1770	 0.025337967733612 
1771	 2.47178182646251E-02 
1772	 2.44490070917915E-02 
1773	 2.49891743304088E-02 
1774	 2.41341959342728E-02 
1775	 2.38299397792316E-02 
1776	 2.44017057367662E-02 
1777	 2.63264746105725E-02 
1778	 2.70263719584999E-02 
1779	 2.78818945694832E-02 
1780	 2.77638032038289E-02 
1781	 2.55358080296775E-02 
1782	 0.025051613913744 
1783	 0.024941509072158 
1784	 0.024679740670596 
1785	 2.49934851655642E-02 
1786	 2.56053572730862E-02 
1787	 2.74678015361554E-02 
1788	 2.65843440720761E-02 
1789	 2.45325453492454E-02 
1790	 2.30585221353811E-02 
1791	 1.82972951795183E-02 
1792	 1.91442334411892E-02 
1793	 2.22688759552233E-02 
1794	 2.64547025819817E-02 
1795	 3.30135745531389E-02 
1796	 3.14399389669004E-02 
1797	 2.79919751754129E-02 
1798	 2.43603064469537E-02 
1799	 2.09566654290573E-02 
1800	 3.39380506451455E-02 
1801	 3.79645561176946E-02 
1802	 3.14306851957234E-02 
1803	 3.03672359495195E-02 
1804	 2.23561950053939E-02 
1805	 2.40968527829433E-02 
1806	 0.049214049708233 
1807	 5.36144822760884E-02 
1808	 4.56657617193251E-02 
1809	 0.042144150030695 
1810	 2.67113335948585E-03 
1811	 1.29470934338126E-03 
1812	 5.12785718603956E-02 
1813	 9.53497107827167E-02 
1814	 0.203203542134258 
1815	 0.220604176546395 
1816	 0.155602685199227 
1817	 7.10504999792542E-02 
1818	-0.180120311275125 
1819	-1.50553216618476E-02 
1820	 2.20816075665496E-02 
1821	 4.33900025905886E-02 
1822	 8.02450356141379E-02 
1823	 0.129638265896247 
1824	 7.15027683941534E-02 
1825	-0.609786796916763 
1826	-0.866990204406064 
1827	-0.09716455592844 
1828	-7.98646557792169E-02 
1829	 2.03302019855653E-02 
1830	 0.114569526377834 
1831	 1.89533200897828 
1832	 1.40863193836011 
1833	-0.103342974807003 
1834	-0.221847200373819 
1835	 0.402419344214657 
1836	 0.466367340226783 
1837	 0.809233199508208 
1838	 0.8220980240179 
1839	 0.272343402977199 
1840	 0.198924727732418 
1841	 0.475264472011243 
1842	-4.47199853691736 
1843	-1.21305740768528 
1844	-0.322304854480474 
1845	-0.440566282575956 
1846	-3.6418159359906 
1847	-29.6009596976469 
1848	 2.19609065243 
1849	 1.58013947380699 
1850	 0.226388054465109 
1851	 16.113363972778 
1852	-2.48086301391113 
1853	-0.105527370447133 
1854	 0.481840564645255 
1855	 6.44141989740682 
1856	-36.0179418286311 
1857	-1.68521284683218 
1858	-1.16422817498797 
1859	-1.0639125051845 
1860	-1.4050524781242 
1861	-1.65279029086084 
1862	-1.2403137158997 
1863	-1.68470311730763 
1864	-3.07703797740897 
1865	-3.54824380431921 
1866	-2.52708913441779 
1867	-1.47498200278218 
1868	 0.071960436211485 
1869	-2.89034194971992E-02 
1870	-1.19320357795273 
1871	-4.28293240572117 
1872	-7.09943058326809 
1873	-3.37441237822444 
1874	-1.18469091715015 
1875	-8.31684813852853E-02 
1876	 0.141045355414779 
1877	-0.970546700728147 
1878	-4.48381510971937 
1879	 8.00240991941538 
1880	 7.52232530248955 
1881	-3.194471190812 
1882	-4.43881833214427 
1883	-0.101040781568958 
1884	 0.312146479020552 
1885	-0.516531013640004 
1886	-1.29152384710607 
1887	-4.14058294517197 
1888	-0.837095728621425 
1889	-1.49669593541518 
1890	-2.77711329051906 
1891	-2.64079144535923 
1892	-2.74533771919429 
1893	-5.18574201942506 
1894	 2.38600604044963 
1895	 1.84784320084877 
1896	 2.22303938353295 
1897	 2.80327727918999 
1898	-1.57762592050767 
1899	-7.85358391997868 
1900	-12.8854190655074 
1901	-3.76088595025162 
1902	-3.27025783137626 
1903	-2.10809692172156 
1904	-4.18501715684984 
1905	 18.3630303745261 
1906	 2.53915785803141 
1907	-0.274452420065385 
1908	-0.986028107958351 
1909	-2.42854467562453 
1910	-2.3886724422113 
1911	-2.32082195708989 
1912	-2.43055610227874 
1913	-1.84727095256229 
1914	 0.235444018334462 
1915	-6.22918060389366 
1916	 2.11887300383291 
1917	 2.96263882557088 
1918	 11.6364376055103 
1919	-3.66426010819102 
1920	-0.620869680111201 
1921	-0.379279977585613 
1922	-0.540416603796503 
1923	-0.400769907657561 
1924	-0.74253834707517 
1925	-1.29278361240793 
1926	-1.03398572780494 
1927	-0.438128773357323 
1928	-0.313753620166216 
1929	-0.330546860922409 
1930	 0.10623120617049 
1931	 6.54906796509375E-02 
1932	-0.223643114812234 
1933	-9.58410563070756E-02 
1934	 0.129099137244392 
1935	 0.147211234941929 
1936	-5.90802078639671E-03 
1937	-9.96750050252213E-02 
1938	-7.10687581975756E-02 
1939	-7.27886773823257E-02 
1940	-8.19827053517001E-02 
1941	-5.01096243506805E-02 
1942	-1.92194151280804E-02 
1943	-4.27435543457194E-02 
1944	-4.05186950956873E-02 
1945	-1.43748723890154E-02 
1946	 2.93722671014042E-03 
1947	 3.73445196809771E-03 
1948	-7.18129398459568E-03 
1949	-4.42214136876365E-03 
1950	-4.67184678434135E-03 
1951	-9.10041616939639E-03 
1952	-4.99537856076528E-03 
1953	 9.81941506151973E-05 
1954	 1.26358983525463E-02 
1955	 0.023679314775337 
1956	 2.90200246460521E-02 
1957	 4.03245640421209E-02 
1958	 0.042943081656765 
1959	 4.43494176767296E-02 
1960	 4.59178442284536E-02 
1961	 4.10013064754886E-02 
1962	 3.72083934352633E-02 
1963	 3.73031795780442E-02 
1964	 3.92655353124641E-02 
1965	 0.036857956775432 
1966	 3.41387281243489E-02 
1967	 2.91893286366991E-02 
1968	 2.73867597110527E-02 
1969	 2.65428734047493E-02 
1970	 2.67424273134003E-02 
1971	 3.09013430802677E-02 
1972	 3.27878250335283E-02 
1973	 3.10964325731466E-02 
1974	 3.12321678282555E-02 
1975	 3.21528910446269E-02 
1976	 3.30034450144539E-02 
1977	 0.033782228807 
1978	 3.27917818067378E-02 
1979	 3.20384782658491E-02 
1980	 0.030651483731048 
1981	 2.84438797911967E-02 
1982	 2.65393010833174E-02 
1983	 2.67170387194193E-02 
1984	 2.65109099018093E-02 
1985	 2.60036994521663E-02 
1986	 2.71918917691708E-02 
1987	 2.90282018990051E-02 
1988	 2.92107080519636E-02 
1989	 2.92453337523073E-02 
1990	 2.95459352451435E-02 
1991	 2.80788484780404E-02 
1992	 2.69103720492261E-02 
1993	 2.63572924863766E-02 
1994	 2.58419762547782E-02 
1995	 2.44602933579405E-02 
1996	 0.023419946697421 
1997	 2.49777698440732E-02 
1998	 2.76712446242902E-02 
1999	 2.61894814239381E-02 
2000	 2.55355334184572E-02 
2001	 2.51477896534979E-02 
2002	 2.04444340309349E-02 
2003	 2.30319205230555E-02 
2004	 2.73790550816943E-02 
2005	 2.79244338756456E-02 
2006	 3.05102815260397E-02 
2007	 2.84122267230614E-02 
2008	 2.54971487347679E-02 
2009	 2.34581732840443E-02 
2010	 1.94943689615217E-02 
2011	 1.96042569500715E-02 
2012	 2.24614964057126E-02 
2013	 2.51282800864875E-02 
2014	 2.48476260428797E-02 
2015	 2.59112929527218E-02 
2016	 2.60220396167331E-02 
2017	 2.15514818193231E-02 
2018	 1.93568906474738E-02 
2019	 2.21179611990634E-02 
2020	 2.21419580245524E-02 
2021	 2.27331794248402E-02 
2022	 2.39742982347914E-02 
2023	 0.022695454312003 
2024	 2.16740540822104E-02 
2025	 0.018726327035413 
2026	 1.84023960881164E-02 
2027	 1.91567206018221E-02 
2028	 1.99963868932401E-02 
2029	 1.98089580383684E-02 
2030	 2.03274161278478E-02 
2031	 2.08504970935552E-02 
2032	 2.03894119684296E-02 
2033	 2.05620914991523E-02 
2034	 2.10242969188516E-02 
2035	 2.11237850184236E-02 
2036	 0.021585482198485 
2037	 2.19035892329267E-02 
2038	 2.16490324250173E-02 
2039	 2.08518261850781E-02 
2040	 1.84898212100465E-02 
2041	 0.01791882752894 
2042	 1.72914634911656E-02 
2043	 1.71962132058284E-02 
2044	 1.86243720171087E-02 
2045	 1.92852973660821E-02 
2046	 1.88018321597643E-02 
2047	 0.019778462039515 
2048	 2.05956793011289E-02 
2049	 2.09235164649262E-02 
2050	 2.13531665572835E-02 
2051	 2.11371597028101E-02 
2052	 1.99358464250627E-02 
2053	 1.79884614871676E-02 
2054	 1.70708568752833E-02 
2055	 1.80237836396344E-02 
2056	 1.84581547715168E-02 
2057	 2.05784507534626E-02 
2058	 2.11469001867511E-02 
2059	 2.06707528545509E-02 
2060	 1.96936205740673E-02 
2061	 1.76124298127067E-02 
2062	 1.68281480067008E-02 
2063	 1.70352330240302E-02 
2064	 1.76812263437501E-02 
2065	 0.018782900068685 
2066	 1.85296251270928E-02 
2067	 1.76223391875368E-02 
2068	 1.83678800041656E-02 
2069	 0.019102419395795 
2070	 2.00207336772005E-02 
2071	 2.17570639768819E-02 
2072	 2.17147562243143E-02 
2073	 2.11019723731084E-02 
2074	 0.019768368141394 
2075	 1.93965066034244E-02 
2076	 1.84633457474077E-02 
2077	 1.80189146337193E-02 
2078	 1.83587998713425E-02 
2079	 1.88705128669809E-02 
2080	 1.97232945480218E-02 
2081	 1.96707484818024E-02 
2082	 1.91876361553081E-02 
2083	 1.84323447427484E-02 
2084	 1.85582033081156E-02 
2085	 1.82011660721151E-02 
2086	 1.82524599955469E-02 
2087	 2.00887043245161E-02 
2088	 0.020194664914483 
2089	 1.93073466836334E-02 
2090	 1.97830656781002E-02 
2091	 2.01923353299272E-02 
2092	 1.97623624533041E-02 
2093	 1.85496490299956E-02 
2094	 1.84309114890132E-02 
2095	 1.83009529244734E-02 
2096	 1.76180485141988E-02 
2097	 1.69089023410338E-02 
2098	 1.72399642645897E-02 
2099	 1.76162772722505E-02 
2100	 1.81870854104268E-02 
2101	 1.83363554427708E-02 
2102	 1.83236257882746E-02 
2103	 1.83615385032688E-02 
2104	 1.84694118113453E-02 
2105	 1.94949604709712E-02 
2106	 2.03351204897583E-02 
2107	 1.97904072497966E-02 
2108	 1.86383239125188E-02 
2109	 1.85980552000371E-02 
2110	 1.85544739547365E-02 
2111	 1.82839961852259E-02 
2112	 1.83926602755602E-02 
2113	 1.82693788000363E-02 
2114	 1.81141673765557E-02 
2115	 1.79699360722712E-02 
2116	 1.74301882004734E-02 
2117	 1.75581861397948E-02 
2118	 1.80387879051341E-02 
2119	 1.79195090302256E-02 
2120	 1.78836526328343E-02 
2121	 1.83149278553947E-02 
2122	 1.78575457803209E-02 
2123	 1.83102365844895E-02 
2124	 0.019287410235903 
2125	 1.99033413875859E-02 
2126	 1.94262102224867E-02 
2127	 1.80697748464275E-02 
2128	 1.79216178636571E-02 
2129	 0.017572645921454 
2130	 1.71282614385158E-02 
2131	 0.018052080563345 
2132	 1.81537747554608E-02 
2133	 1.77498693334083E-02 
2134	 1.79878078753656E-02 
2135	 0.018740270251856 
2136	 1.91466629025993E-02 
2137	 1.98715580972707E-02 
2138	 1.98161564395802E-02 
2139	 1.91197930007414E-02 
2140	 0.01882767868248 
2141	 1.80628684126295E-02 
2142	 1.81692558241358E-02 
2143	 1.87973129952795E-02 
2144	 1.96680310875203E-02 
2145	 2.12929603616872E-02 
2146	 2.12625571594097E-02 
2147	 1.99143496010148E-02 
2148	 1.93226238906567E-02 
2149	 1.90622541202667E-02 
2150	 1.85704683411451E-02 
2151	 1.88242188729021E-02 
2152	 1.94671606503104E-02 
2153	 2.01014293520245E-02 
2154	 2.14247142749638E-02 
2155	 2.20171019050419E-02 
2156	 0.0210415462289 
2157	 2.04329655786805E-02 
2158	 1.76922684282549E-02 
2159	 1.75868092644743E-02 
2160	 1.97844020813949E-02 
2161	 2.03052238462381E-02 
2162	 2.00495735305083E-02 
2163	 2.04965300784712E-02 
2164	 2.11703314563209E-02 
2165	 2.16151620014012E-02 
2166	 0.023543137204852 
2167	 2.39020070158486E-02 
2168	 2.17791949698927E-02 
2169	 2.12088998474441E-02 
2170	 2.09633477454706E-02 
2171	 2.04886764414623E-02 
2172	 2.10970572681563E-02 
2173	 2.27666367248536E-02 
2174	 2.34039260973586E-02 
2175	 2.34043261929504E-02 
2176	 2.37400605353079E-02 
2177	 2.35321429166233E-02 
2178	 2.22757028897721E-02 
2179	 2.22341594266379E-02 
2180	 2.33806674923141E-02 
2181	 2.33636523016323E-02 
2182	 2.15069220799661E-02 
2183	 2.02776417771064E-02 
2184	 2.09719098967832E-02 
2185	 2.05727451168373E-02 
2186	 2.05911661833419E-02 
2187	 2.35839158318638E-02 
2188	 2.43396220824839E-02 
2189	 2.27618108074925E-02 
2190	 2.24172780070831E-02 
2191	 2.26263367075715E-02 
2192	 2.29987688408379E-02 
2193	 2.26043545633911E-02 
2194	 2.29507415129746E-02 
2195	 2.54515574592421E-02 
2196	 2.54239955668594E-02 
2197	 2.36536272162502E-02 
2198	 2.31603830883005E-02 
2199	 2.22116005306808E-02 
2200	 2.07996087697787E-02 
2201	 2.07494173085719E-02 
2202	 2.19584075409179E-02 
2203	 2.29040524555265E-02 
2204	 2.38911848871091E-02 
2205	 2.50104734742151E-02 
2206	 2.47229615018439E-02 
2207	 2.29298643482726E-02 
2208	 2.15307192189123E-02 
2209	 2.18128545988728E-02 
2210	 2.18060066188899E-02 
2211	 2.15763262623142E-02 
2212	 2.41499273911113E-02 
2213	 2.54968660318321E-02 
2214	 2.50026779824016E-02 
2215	 2.55712722762302E-02 
2216	 2.42425529192156E-02 
2217	 2.35152043592398E-02 
2218	 2.22167114150733E-02 
2219	 2.15297706417253E-02 
2220	 2.06662604597477E-02 
2221	 2.23048236876946E-02 
2222	 2.58258573616879E-02 
2223	 2.68510062141667E-02 
2224	 0.02955992664066 
2225	 2.95577920945018E-02 
2226	 2.48319553568279E-02 
2227	 2.41660454719324E-02 
2228	 2.54445711101896E-02 
2229	 2.55971028879952E-02 
2230	 2.72079448272399E-02 
2231	 2.70124777593559E-02 
2232	 2.31148146544033E-02 
2233	 2.26695428497271E-02 
2234	 2.40505266825222E-02 
2235	 2.53614421653347E-02 
2236	 2.26570990890361E-02 
2237	 2.44859214556975E-02 
2238	 2.56900309266833E-02 
2239	 2.53333955382645E-02 
2240	 2.72647358058641E-02 
2241	 0.027314611204571 
2242	 0.024379697797407 
2243	 1.99095571924667E-02 
2244	 1.88373785280564E-02 
2245	 2.02978095833673E-02 
2246	 1.90613766873739E-02 
2247	 1.74779053181102E-02 
2248	 0.018570130910278 
2249	 1.87655884815801E-02 
2250	 1.91750514560812E-02 
2251	 2.19824065396527E-02 
2252	 2.15443215326394E-02 
2253	 2.02805759632219E-02 
2254	 2.01290830164572E-02 
2255	 1.90102619841515E-02 
2256	 1.95439316408666E-02 
2257	 2.05461133025213E-02 
2258	 2.11524389098377E-02 
2259	 2.20446651134658E-02 
2260	 2.23006498707846E-02 
2261	 2.30553322680265E-02 
2262	 2.14683598085226E-02 
2263	 1.66427895464438E-02 
2264	 1.64575114140897E-02 
2265	 1.71537672315634E-02 
2266	 1.75536242641387E-02 
2267	 2.15659483629142E-02 
2268	 2.26054583245131E-02 
2269	 2.08863887189611E-02 
2270	 2.01996023958875E-02 
2271	 1.92925763642828E-02 
2272	 1.92299027410431E-02 
2273	 1.88685394062644E-02 
2274	 2.00175405011074E-02 
2275	 2.38938981821593E-02 
2276	 2.50452411782644E-02 
2277	 2.59541121898338E-02 
2278	 2.62450506953061E-02 
2279	 2.43193216576937E-02 
2280	 2.28059301290173E-02 
2281	 2.13336882163952E-02 
2282	 1.99909276679488E-02 
2283	 1.67537925935202E-02 
2284	 0.015869471374354 
2285	 1.82171225790065E-02 
2286	 1.54636574064188E-02 
2287	 1.54126109838234E-02 
2288	 0.01895063935946 
2289	 1.66058035915985E-02 
2290	 1.67632739514411E-02 
2291	 1.82008728877034E-02 
2292	 1.58835979623088E-02 
2293	 1.65532381893313E-02 
2294	 1.96237614511541E-02 
2295	 2.11654049802649E-02 
2296	 0.021537469521823 
2297	 2.05075368283977E-02 
2298	 1.75082911925453E-02 
2299	 1.40502365261411E-02 
2300	 1.28037208550003E-02 
2301	 1.67516981726143E-02 
2302	 2.14134594799699E-02 
2303	 2.35717123002668E-02 
2304	 2.46022159266814E-02 
2305	 2.41203482288424E-02 
2306	 2.37066083551314E-02 
2307	 0.022822815337044 
2308	 2.17800915129023E-02 
2309	 2.04060017768216E-02 
2310	 1.51213247385969E-02 
2311	 1.40895562288261E-02 
2312	 0.017441084228279 
2313	 1.59021252600778E-02 
2314	 2.09064312448854E-02 
2315	 0.025557086131286 
2316	 1.63543597990842E-02 
2317	 0.011190606736492 
2318	 1.06423160838679E-02 
2319	 8.31725343006251E-03 
2320	 1.44817336242723E-02 
2321	 1.95757158614376E-02 
2322	 1.49745498946029E-02 
2323	 1.57577234348104E-02 
2324	 1.70367325076221E-02 
2325	 1.23714107499991E-02 
2326	 1.46316798115035E-02 
2327	 1.25020044213303E-02 
2328	 6.22020855636622E-03 
2329	 1.55490989358584E-02 
2330	 2.33841897465838E-02 
2331	 2.27837064756603E-02 
2332	 2.45340470551775E-02 
2333	 1.82487900502937E-02 
2334	 6.31908501601024E-03 
2335	-4.02696699109327E-05 
2336	-3.61110592639099E-04 
2337	-2.39687580924398E-04 
2338	-6.15295075817313E-04 
2339	 6.15119652340275E-03 
2340	 8.15517236139018E-03 
2341	 7.82930533105367E-03 
2342	 1.68261073425575E-02 
2343	 1.48290014448721E-02 
2344	 1.52970947596802E-03 
2345	-1.23181421028534E-02 
2346	-1.98167760488161E-02 
2347	-1.70682594226374E-02 
2348	-1.05441113237384E-02 
2349	 2.22978743897727E-03 
2350	 5.37387649282764E-03 
2351	 2.06126056890147E-03 
2352	 2.48467451422243E-03 
2353	 1.44083481908151E-03 
2354	 7.22723959832922E-04 
2355	 7.35789125507978E-04 
2356	 4.74079746505486E-03 
2357	 9.98667238209476E-03 
2358	 1.47645487055687E-02 
2359	 2.31083888409908E-02 
2360	 3.03550224464287E-02 
2361	 2.08321412533383E-02 
2362	 1.04256922286529E-02 
2363	 1.19647096780888E-02 
2364	 7.04761519403396E-03 
2365	-2.53923156365481E-03 
2366	-1.42035757679036E-02 
2367	-2.56651815488601E-02 
2368	-2.12371485574754E-02 
2369	 2.11058396385818E-03 
2370	 3.40862745001946E-02 
2371	 3.82298579793184E-02 
2372	 2.70233093868913E-02 
2373	 1.93665771957161E-02 
2374	-3.05465267621698E-03 
2375	 7.81655597568217E-03 
2376	 2.60417275603432E-02 
2377	 1.44070015152973E-02 
2378	 0.02603842609322 
2379	 0.023706132080859 
2380	-1.83055746802708E-03 
2381	-1.46361703001718E-02 
2382	-3.31113814105556E-02 
2383	-3.87825450579893E-02 
2384	-3.88604139789549E-02 
2385	-4.09798685598865E-02 
2386	-4.43949863013632E-02 
2387	-4.38625829109084E-02 
2388	-5.01768223742152E-02 
2389	-0.0597106411027 
2390	-4.07777082547748E-02 
2391	-4.52349965901251E-02 
2392	-8.10111537337012E-02 
2393	-0.121829470163025 
2394	-0.134638799970793 
2395	-0.115904715487185 
2396	-0.087382755271992 
2397	-4.63989843256777E-02 
2398	-4.57201845439224E-02 
2399	-0.076850349899794 
2400	-8.04993585028389E-02 
2401	-6.97212114580436E-02 
2402	-5.78501368756283E-02 
2403	-4.33405853950977E-02 
2404	-2.29695977951836E-02 
2405	-2.96015485163237E-02 
2406	-7.48034724920389E-02 
2407	-0.11721755932659 
2408	-0.133559908735359 
2409	-0.100080410831729 
2410	-0.065539805647347 
2411	-7.41759599950695E-02 
2412	-8.84974853172433E-02 
2413	-6.74070518873452E-02 
2414	-5.83397501483869E-02 
2415	-7.46343509975523E-02 
2416	-0.1280994690105 
2417	-0.270124987691487 
2418	-0.316311287614219 
2419	-0.225192372718551 
2420	-0.176511518026636 
2421	-0.187699482034994 
2422	-0.236196378238618 
2423	-0.205217330517229 
2424	-0.18153873196843 
2425	-0.192741409743957 
2426	-0.158576058756725 
2427	-0.200552905945927 
2428	-0.225486505714355 
2429	-0.186524795370283 
2430	-0.176263327098547 
2431	-0.220361648330029 
2432	-0.253674022896222 
2433	-0.248246626586289 
2434	-0.277535963049997 
2435	-0.308081771121035 
2436	-0.295048733894897 
2437	-0.312105169885613 
2438	-0.373306727734755 
2439	-0.387949633223749 
2440	-0.370214122060639 
2441	-0.44726962041326 
2442	-0.456445398479882 
2443	-0.303453397469691 
2444	-0.259919667833361 
2445	-0.264710334674432 
2446	-0.265896753711919 
2447	-1.43592222173825 
2448	-3.30505908199395 
2449	-0.842317077608626 
2450	-0.553546597530248 
2451	-0.401713596748302 
2452	-0.37104317543075 
2453	-0.256651602487717 
2454	-0.510293442165417 
2455	-0.324016011846727 
2456	-0.130250037890132 
2457	-0.127735406215892 
2458	-6.55372183537011E-02 
2459	-0.181635197202555 
2460	-0.45527324426318 
2461	-0.939800313143414 
2462	-1.2612623742193 
2463	-1.13516291390796 
2464	-0.73144364176894 
2465	-0.51361985415518 
2466	-0.351230963796104 
2467	-0.314370605509445 
2468	-1.14956671280278 
2469	-4.48544356544082 
2470	-7.52744331637306 
2471	-5.33706836738251 
2472	-1.02413528233541 
2473	-3.84094117612091E-02 
2474	 0.18648170524844 
2475	-0.193106552087554 
2476	-0.976392501562991 
2477	-1.09158477656805 
2478	-2.65022429127736 
2479	-6.02786871947294 
2480	-2.07218864949927 
2481	-1.98572816341186 
2482	-1.8639993744805 
2483	-1.09463496005313 
2484	 38.4684912301538 
2485	 2.32350882706397 
2486	 35.0395007857544 
2487	 3.95278618668466 
2488	 1.04568425440045 
2489	 2.78933622392559 
2490	 1.20429459714354 
2491	 0.790438713862598 
2492	 2.53546332161782 
2493	 5.59682256771826 
2494	-2.44484390277961 
2495	-18.6985714748606 
2496	 3.26682420423242 
2497	 3.86850219497239 
2498	 1.83704796586455 
2499	 1.12216688482111 
2500	-575.05093647347 
