Wavelength	rt0711a200008.asd
350	 0.121965983750478 
351	 0.124070129954893 
352	 0.126046773108377 
353	 0.128022806402182 
354	 0.130058660286559 
355	 0.131805371635436 
356	 0.133470629603891 
357	 0.135563955821432 
358	 0.138189677079611 
359	 0.139421244943664 
360	 0.141139700847278 
361	 0.14358517550321 
362	 0.145757559856858 
363	 0.14709194529474 
364	 0.148434274157165 
365	 0.150265752340084 
366	 0.152282171571145 
367	 0.153964163687943 
368	 0.155531612214432 
369	 0.157305918797378 
370	 0.15917720783982 
371	 0.161004333776904 
372	 0.162892245658513 
373	 0.164970321699101 
374	 0.166208576462385 
375	 0.167395051747142 
376	 0.168977135413264 
377	 0.170669547299272 
378	 0.172324921653458 
379	 0.173932481367525 
380	 0.175335499558242 
381	 0.175682928365894 
382	 0.17682349316491 
383	 0.178532634992021 
384	 0.179607952522941 
385	 0.179975797172946 
386	 0.180573992470141 
387	 0.181576761957533 
388	 0.182239412636154 
389	 0.182819922703134 
390	 0.18309777421337 
391	 0.183052058029334 
392	 0.183318494416927 
393	 0.183355686274612 
394	 0.18336360100955 
395	 0.183593488458569 
396	 0.183086160800736 
397	 0.182490606180555 
398	 0.181995593825727 
399	 0.181332614568338 
400	 0.180993852617931 
401	 0.180570723308681 
402	 0.179852693588665 
403	 0.179390482681475 
404	 0.178674879713268 
405	 0.177897262807287 
406	 0.177355604164648 
407	 0.176384735608938 
408	 0.175426896712329 
409	 0.174572726190126 
410	 0.173519929682095 
411	 0.172502644830337 
412	 0.171630503450778 
413	 0.170840553676291 
414	 0.169701352953193 
415	 0.16875879317325 
416	 0.167857067794813 
417	 0.166685289328183 
418	 0.165872641306945 
419	 0.165045153219669 
420	 0.164136565223054 
421	 0.163473405876364 
422	 0.162956138859506 
423	 0.162518103933539 
424	 0.162189336345496 
425	 0.162272573617828 
426	 0.162417036392144 
427	 0.162545486654918 
428	 0.162738340570495 
429	 0.163145483766679 
430	 0.163553528318986 
431	 0.163945589634024 
432	 0.164571236591154 
433	 0.164995271229047 
434	 0.165312996969897 
435	 0.16564055803549 
436	 0.165775303084948 
437	 0.16583724715102 
438	 0.165843304397465 
439	 0.165739642465088 
440	 0.165394636629819 
441	 0.164942889966699 
442	 0.164456776797479 
443	 0.163873525814146 
444	 0.163204165348788 
445	 0.162470778022963 
446	 0.161696687132353 
447	 0.160887528501509 
448	 0.160007652630124 
449	 0.159106293754565 
450	 0.158283091462818 
451	 0.157472119802307 
452	 0.156718198787915 
453	 0.15599115562368 
454	 0.155076719942292 
455	 0.154193046661186 
456	 0.153338734768405 
457	 0.152462669252928 
458	 0.151691578281299 
459	 0.150933520294517 
460	 0.150129308144394 
461	 0.149273399462814 
462	 0.148448698138854 
463	 0.14770711537104 
464	 0.147018288784308 
465	 0.146149110156343 
466	 0.1453530895496 
467	 0.144627056667014 
468	 0.143851778220761 
469	 0.143088876837405 
470	 0.142387272386401 
471	 0.141730300251293 
472	 0.141019660924246 
473	 0.140357826281197 
474	 0.139781935104369 
475	 0.139277622264709 
476	 0.138734310943766 
477	 0.138144809680598 
478	 0.137603280864019 
479	 0.137245955674486 
480	 0.136870976530194 
481	 0.136601640498863 
482	 0.136475220131969 
483	 0.136263213995227 
484	 0.136151366304321 
485	 0.136131260197414 
486	 0.136105642112805 
487	 0.13590802536156 
488	 0.135871715758586 
489	 0.136046682637829 
490	 0.136191767061012 
491	 0.136352285575163 
492	 0.136515900600631 
493	 0.136679837621299 
494	 0.136881372570434 
495	 0.137147051877315 
496	 0.137397038787106 
497	 0.137540512046787 
498	 0.137897425828078 
499	 0.138179573485109 
500	 0.138240545922766 
501	 0.13823707077439 
502	 0.138438954934291 
503	 0.138637481719359 
504	 0.138619540321949 
505	 0.138768164134304 
506	 0.138921748307073 
507	 0.139033475278836 
508	 0.13915569605084 
509	 0.139240536546075 
510	 0.139389687378301 
511	 0.13965723426111 
512	 0.139943903607949 
513	 0.140234005071776 
514	 0.14061873041772 
515	 0.141191185679181 
516	 0.141686198436306 
517	 0.142281454959969 
518	 0.143029664661497 
519	 0.143785184901634 
520	 0.144704188210591 
521	 0.145777324226999 
522	 0.146958131850734 
523	 0.148164371583704 
524	 0.149586708345712 
525	 0.151278640738963 
526	 0.153177607326541 
527	 0.155113322415288 
528	 0.157110333044758 
529	 0.159254485104661 
530	 0.161713457666965 
531	 0.16433221931289 
532	 0.167166985577965 
533	 0.170275186661002 
534	 0.173331972259549 
535	 0.176583412250911 
536	 0.180129562494419 
537	 0.183848466419195 
538	 0.18766896521088 
539	 0.191612097391078 
540	 0.195680119288139 
541	 0.199750960401716 
542	 0.20379719569967 
543	 0.207815308672432 
544	 0.211829003672909 
545	 0.215780156101205 
546	 0.219661565950905 
547	 0.22346314108323 
548	 0.227170420745891 
549	 0.230676106080066 
550	 0.234024064601287 
551	 0.237302310430499 
552	 0.240429706520877 
553	 0.24348052566911 
554	 0.246513998758117 
555	 0.249543699675591 
556	 0.252630065556503 
557	 0.255772145874051 
558	 0.25893014067987 
559	 0.262111545322459 
560	 0.265346608467737 
561	 0.268666030578711 
562	 0.272113078487374 
563	 0.275635412377854 
564	 0.2791897719817 
565	 0.282723586464141 
566	 0.286180229772077 
567	 0.289567219544687 
568	 0.292804094562484 
569	 0.295800937977035 
570	 0.29864044872144 
571	 0.301244557245982 
572	 0.303646913017974 
573	 0.306004825681354 
574	 0.308329798689925 
575	 0.310566224191508 
576	 0.31266404843809 
577	 0.314712281387613 
578	 0.316609011922643 
579	 0.318474468820136 
580	 0.320514421030563 
581	 0.322379373160216 
582	 0.324026707046821 
583	 0.32551785388727 
584	 0.327011702551062 
585	 0.328473497283425 
586	 0.329816357821374 
587	 0.330993785953243 
588	 0.332262201671716 
589	 0.333409291098913 
590	 0.334373438938163 
591	 0.33535383866164 
592	 0.336292251060226 
593	 0.337214536612829 
594	 0.338115898542135 
595	 0.338939776500013 
596	 0.339673412676687 
597	 0.340382737419238 
598	 0.34115312840689 
599	 0.341816422477072 
600	 0.342418183788099 
601	 0.343054962379974 
602	 0.343879825313541 
603	 0.344544429683397 
604	 0.345100754748649 
605	 0.34571565533145 
606	 0.34640595917817 
607	 0.347106898121022 
608	 0.347767638363933 
609	 0.348358244005988 
610	 0.348926374142035 
611	 0.349489775656585 
612	 0.350060183712439 
613	 0.350651356577246 
614	 0.351218810269938 
615	 0.351763892306026 
616	 0.352305751639155 
617	 0.352825088864136 
618	 0.353319568762512 
619	 0.353830810561713 
620	 0.354463298673653 
621	 0.355004455637677 
622	 0.355488216064973 
623	 0.35600076288639 
624	 0.356451887826997 
625	 0.35693972179881 
626	 0.357464980435195 
627	 0.357934294947903 
628	 0.358435098379056 
629	 0.359031418142552 
630	 0.359697264743962 
631	 0.360179089717913 
632	 0.360624281782116 
633	 0.361129034351788 
634	 0.361736509768776 
635	 0.362261807873276 
636	 0.362737153461112 
637	 0.363200945737861 
638	 0.36367181738846 
639	 0.364172174697116 
640	 0.364637667382376 
641	 0.365029028835875 
642	 0.365554591417336 
643	 0.36588683267354 
644	 0.366080011806109 
645	 0.366478065889331 
646	 0.366747471821521 
647	 0.367059214250876 
648	 0.36749712700617 
649	 0.367742211868455 
650	 0.368020087513813 
651	 0.368325141621124 
652	 0.368549549429968 
653	 0.368585998281011 
654	 0.368618705087101 
655	 0.368698526875444 
656	 0.368663094186825 
657	 0.368497647250886 
658	 0.368316488842009 
659	 0.368194848967186 
660	 0.368048738234181 
661	 0.367905284967646 
662	 0.367716721228612 
663	 0.367420435550101 
664	 0.367265698909961 
665	 0.367149995386072 
666	 0.366990039268273 
667	 0.366821688427396 
668	 0.366691179711453 
669	 0.366620186473336 
670	 0.366617399408337 
671	 0.366678119294295 
672	 0.366814786123993 
673	 0.366997440395512 
674	 0.367167559244258 
675	 0.36749757285542 
676	 0.367913632998233 
677	 0.368336956545139 
678	 0.368811327403887 
679	 0.369182363572196 
680	 0.369606714259303 
681	 0.370324182587438 
682	 0.371058811861306 
683	 0.371825414714073 
684	 0.372567784761349 
685	 0.373160370060746 
686	 0.37384050798017 
687	 0.374655041857856 
688	 0.375505560146253 
689	 0.376309412316522 
690	 0.376935192062204 
691	 0.377415350783011 
692	 0.377889689754257 
693	 0.37841196385704 
694	 0.379047130160846 
695	 0.379682581230867 
696	 0.380012402107403 
697	 0.38016640308146 
698	 0.380255449902939 
699	 0.380372437259656 
700	 0.380543558691643 
701	 0.380666365423159 
702	 0.380715606234861 
703	 0.380734731677437 
704	 0.380665107662767 
705	 0.380592957392817 
706	 0.380537032053892 
707	 0.380312302060172 
708	 0.380124376585326 
709	 0.379890899385773 
710	 0.379470072612768 
711	 0.379044983309141 
712	 0.378468564639406 
713	 0.377734142682451 
714	 0.376973196018938 
715	 0.37593463741716 
716	 0.374781499916168 
717	 0.373786061123618 
718	 0.372755649141215 
719	 0.371997857580295 
720	 0.371412932516954 
721	 0.370662984691942 
722	 0.369712832540031 
723	 0.368525388053432 
724	 0.367257236820157 
725	 0.366029058037615 
726	 0.364802416632628 
727	 0.363430527843241 
728	 0.361825627790024 
729	 0.360062402044323 
730	 0.358188330436447 
731	 0.356430681220252 
732	 0.354950681416863 
733	 0.353613684464329 
734	 0.352200779321305 
735	 0.350848148895052 
736	 0.350142839597291 
737	 0.34953913145323 
738	 0.349019561286493 
739	 0.348686370323442 
740	 0.348579803751187 
741	 0.348506994730434 
742	 0.348439835824294 
743	 0.348438842566757 
744	 0.348486022309063 
745	 0.348466131767962 
746	 0.348425190953516 
747	 0.348632909673138 
748	 0.348644894547178 
749	 0.34860678263149 
750	 0.348718057825927 
751	 0.348839303203478 
752	 0.348878711094787 
753	 0.348877898018587 
754	 0.348946036141983 
755	 0.34907213544262 
756	 0.349037611655744 
757	 0.348800770176497 
758	 0.348539914893135 
759	 0.348559727965488 
760	 0.348614700133568 
761	 0.348305692530463 
762	 0.348605019050208 
763	 0.349019254332319 
764	 0.349381365494883 
765	 0.349714548727104 
766	 0.350178115777654 
767	 0.35046993559114 
768	 0.350620341319783 
769	 0.350947090987465 
770	 0.351148298048432 
771	 0.351338844020422 
772	 0.351640893328895 
773	 0.351974257096544 
774	 0.352291925833992 
775	 0.352594728245183 
776	 0.352914608841323 
777	 0.353278818401568 
778	 0.353651744223197 
779	 0.354009158111984 
780	 0.354352155499808 
781	 0.354799669574371 
782	 0.355166429174633 
783	 0.355399249868803 
784	 0.355873391210772 
785	 0.356280632165056 
786	 0.356664754441711 
787	 0.357132967483043 
788	 0.357437431183839 
789	 0.357896262651794 
790	 0.358497449916321 
791	 0.358957461017184 
792	 0.359287626943368 
793	 0.359760507777897 
794	 0.360392927757252 
795	 0.3607223621247 
796	 0.361032066294761 
797	 0.361355575411325 
798	 0.361680265634108 
799	 0.362036622096215 
800	 0.362397561106858 
801	 0.362724391727969 
802	 0.36299131404906 
803	 0.363267553831197 
804	 0.363492445603703 
805	 0.363642546697597 
806	 0.363745635309424 
807	 0.363718016940898 
808	 0.363572043740659 
809	 0.363331258850453 
810	 0.362975872264763 
811	 0.362678446839922 
812	 0.362428830831474 
813	 0.362118489694444 
814	 0.36160146508813 
815	 0.361005681982726 
816	 0.360516449984532 
817	 0.360243538710997 
818	 0.359732030976458 
819	 0.359001331154289 
820	 0.358146944390517 
821	 0.357315181154032 
822	 0.356142561877794 
823	 0.354678213343034 
824	 0.353120680583075 
825	 0.351557397747448 
826	 0.349562029009975 
827	 0.347408375631284 
828	 0.345597280156982 
829	 0.343368384812036 
830	 0.341304274533796 
831	 0.339606217127327 
832	 0.338168764976701 
833	 0.3370164995751 
834	 0.33591373677544 
835	 0.334890897596652 
836	 0.334352059499724 
837	 0.333648459788406 
838	 0.333053342518693 
839	 0.332760182890893 
840	 0.332222578739642 
841	 0.331687720169917 
842	 0.331251647022476 
843	 0.330919221868661 
844	 0.330524831971359 
845	 0.330014290777513 
846	 0.329554365038325 
847	 0.329384052039236 
848	 0.32900919662496 
849	 0.328502174029387 
850	 0.3280113565701 
851	 0.327675288183058 
852	 0.327460179159824 
853	 0.327100633981739 
854	 0.326534670576109 
855	 0.326204467127056 
856	 0.325826297774808 
857	 0.325469660053227 
858	 0.325224292028009 
859	 0.324916777777635 
860	 0.324575888343867 
861	 0.324237887977662 
862	 0.323915313349512 
863	 0.323461772470106 
864	 0.323096003946064 
865	 0.322778801885035 
866	 0.32225988466176 
867	 0.32187448564699 
868	 0.321478457922782 
869	 0.320977589201727 
870	 0.320434512569286 
871	 0.319984602707546 
872	 0.31947383350573 
873	 0.31880571827407 
874	 0.318137649644223 
875	 0.317818166047867 
876	 0.317324616660227 
877	 0.3162885973766 
878	 0.315931696433747 
879	 0.315348832937714 
880	 0.314511342822941 
881	 0.31379871916244 
882	 0.31319502210599 
883	 0.312537331067573 
884	 0.311837205879384 
885	 0.311237465895073 
886	 0.310785967320601 
887	 0.30999284051068 
888	 0.309021899458307 
889	 0.308736093809728 
890	 0.308155395220476 
891	 0.307363487439586 
892	 0.306643565297784 
893	 0.30628736259814 
894	 0.305442104005197 
895	 0.304606284118046 
896	 0.304209216640556 
897	 0.30316141224761 
898	 0.302585138360009 
899	 0.302256765577671 
900	 0.301661758667149 
901	 0.301192780580279 
902	 0.300009935171129 
903	 0.298843711239132 
904	 0.298626531901228 
905	 0.298185886001428 
906	 0.29788775249886 
907	 0.297353175125891 
908	 0.295936325345655 
909	 0.295271932326392 
910	 0.294206410240332 
911	 0.292708068829018 
912	 0.291838195471898 
913	 0.290827735779395 
914	 0.289360151811388 
915	 0.287487534085906 
916	 0.285638240766297 
917	 0.284429808602386 
918	 0.282943272142839 
919	 0.281025467434971 
920	 0.279787794478748 
921	 0.278342258585855 
922	 0.276140825443774 
923	 0.273346475021927 
924	 0.271442461531955 
925	 0.269114467570207 
926	 0.266852598666307 
927	 0.265303612684604 
928	 0.263660943963057 
929	 0.260682996513718 
930	 0.25726257424749 
931	 0.255421663733477 
932	 0.254029907524228 
933	 0.250477988984565 
934	 0.24510171521573 
935	 0.240236041326374 
936	 0.235605383206193 
937	 0.23232824421329 
938	 0.229621345975482 
939	 0.22670446791658 
940	 0.225476269293657 
941	 0.222716941860513 
942	 0.21846602459002 
943	 0.214554690341719 
944	 0.212164045152203 
945	 0.210491775359909 
946	 0.207137282080892 
947	 0.200638276982524 
948	 0.198236750341214 
949	 0.194699867246484 
950	 0.189251309889876 
951	 0.184703776330577 
952	 0.182961617470046 
953	 0.180093599928151 
954	 0.176180594273397 
955	 0.174087633892348 
956	 0.173324054117417 
957	 0.16985109817843 
958	 0.165191007072282 
959	 0.164002363792528 
960	 0.16296209779269 
961	 0.161792219024068 
962	 0.160990308996547 
963	 0.161171273091267 
964	 0.16135008006905 
965	 0.15941075222106 
966	 0.15690463225549 
967	 0.157278913105058 
968	 0.156509553562333 
969	 0.155964622346605 
970	 0.156159418634452 
971	 0.156445780066569 
972	 0.156779312728988 
973	 0.156243638407784 
974	 0.155629777599594 
975	 0.156825323541146 
976	 0.156026777646747 
977	 0.155659871285694 
978	 0.156182913661733 
979	 0.155979755319125 
980	 0.1568700772491 
981	 0.157639064598541 
982	 0.158182072552919 
983	 0.159302609439935 
984	 0.159463591478309 
985	 0.159243771091991 
986	 0.159172118782014 
987	 0.159474338555433 
988	 0.159908486803 
989	 0.160863979202986 
990	 0.162545367128941 
991	 0.164470562870874 
992	 0.162897409212014 
993	 0.163345983696124 
994	 0.164915693884139 
995	 0.163286882230857 
996	 0.166042561823174 
997	 0.167266805689661 
998	 0.167097105851183 
999	 0.168960574917376 
1000	 0.168519774118024 
1001	 0.165568001125475 
1002	 0.166214224449331 
1003	 0.167248967624684 
1004	 0.16816812201222 
1005	 0.169249180473403 
1006	 0.170701634702689 
1007	 0.171966330312028 
1008	 0.17325861388111 
1009	 0.174328636187872 
1010	 0.174872948424768 
1011	 0.175718918334219 
1012	 0.176745606131726 
1013	 0.178110248736984 
1014	 0.179500648829103 
1015	 0.181536158446725 
1016	 0.182897035391054 
1017	 0.183668654175251 
1018	 0.184929778270194 
1019	 0.186189148818777 
1020	 0.187653526305066 
1021	 0.189331602364422 
1022	 0.191379803477171 
1023	 0.193045282397354 
1024	 0.194634159110338 
1025	 0.196112961099404 
1026	 0.197477949253973 
1027	 0.19906667980758 
1028	 0.200854645970998 
1029	 0.202194734022772 
1030	 0.203403500227503 
1031	 0.204820638387261 
1032	 0.206030591100528 
1033	 0.207325866128063 
1034	 0.208813541361958 
1035	 0.210260552777855 
1036	 0.211620354904007 
1037	 0.212974228373899 
1038	 0.214454418441916 
1039	 0.215936758136259 
1040	 0.217066263015987 
1041	 0.218482842239227 
1042	 0.219740087973965 
1043	 0.22093626736108 
1044	 0.222285991268629 
1045	 0.22386952811286 
1046	 0.224909903716298 
1047	 0.225907620888342 
1048	 0.226672170245782 
1049	 0.226467716030544 
1050	 0.227283824102536 
1051	 0.228780321873804 
1052	 0.229870842380754 
1053	 0.231528386277258 
1054	 0.232623036293077 
1055	 0.232981355140554 
1056	 0.23358857590507 
1057	 0.234177927249792 
1058	 0.234649626923543 
1059	 0.235257543685439 
1060	 0.236081330016218 
1061	 0.236566883640388 
1062	 0.236862450287181 
1063	 0.237311622772954 
1064	 0.237866181680209 
1065	 0.238029582459984 
1066	 0.237925429201393 
1067	 0.238095273633943 
1068	 0.238180709689428 
1069	 0.238137421129353 
1070	 0.238399881581303 
1071	 0.238424437243785 
1072	 0.238257575320603 
1073	 0.237591830227084 
1074	 0.237387327598242 
1075	 0.237385603414867 
1076	 0.237126738982126 
1077	 0.23682598899206 
1078	 0.236582684066542 
1079	 0.236298926249191 
1080	 0.235867190157683 
1081	 0.235685014478644 
1082	 0.234978747414309 
1083	 0.233616360389628 
1084	 0.232649273105018 
1085	 0.231351280054958 
1086	 0.230493926787986 
1087	 0.230501541807429 
1088	 0.229838384318421 
1089	 0.229156774221788 
1090	 0.227948353158626 
1091	 0.226946468545395 
1092	 0.225425298137285 
1093	 0.224451324274719 
1094	 0.224046699175012 
1095	 0.223056011415367 
1096	 0.221749877591024 
1097	 0.220434122260889 
1098	 0.218607346417732 
1099	 0.217507563333394 
1100	 0.217073872610743 
1101	 0.216104311515407 
1102	 0.21518175650916 
1103	 0.214119924701794 
1104	 0.212498746299862 
1105	 0.211025232930661 
1106	 0.209946483558019 
1107	 0.209362739266792 
1108	 0.208366235253139 
1109	 0.207155138773972 
1110	 0.20610448468067 
1111	 0.204802780561699 
1112	 0.203849436185158 
1113	 0.203259603298703 
1114	 0.202566292570798 
1115	 0.202358648113871 
1116	 0.201447829219147 
1117	 0.199743290057226 
1118	 0.198063621477001 
1119	 0.19655140379002 
1120	 0.194416454462067 
1121	 0.191773878275023 
1122	 0.188531872777886 
1123	 0.188720985750858 
1124	 0.184436711541287 
1125	 0.179414826351206 
1126	 0.179594324152197 
1127	 0.175650990656564 
1128	 0.168446714216253 
1129	 0.164363835815814 
1130	 0.162473912678051 
1131	 0.158338355836782 
1132	 0.154423780625376 
1133	 0.150892947877746 
1134	 0.146731316079202 
1135	 0.143234749484441 
1136	 0.14038198136875 
1137	 0.137903338641852 
1138	 0.135885153262283 
1139	 0.13207980253105 
1140	 0.130221782593778 
1141	 0.128729738264249 
1142	 0.124124303231398 
1143	 0.120263204878107 
1144	 0.118087008379488 
1145	 0.115068805251167 
