Wavelength	rt0711a200000.asd
350	 0.104437402882709 
351	 0.106802126163901 
352	 0.108209839822781 
353	 0.109239531222022 
354	 0.110539264636244 
355	 0.11202075841085 
356	 0.11356075020234 
357	 0.115296959632829 
358	 0.117197170352943 
359	 0.118155301776798 
360	 0.119476204497702 
361	 0.121613117625907 
362	 0.124119719768546 
363	 0.12439059783285 
364	 0.124914066307224 
365	 0.126881296365726 
366	 0.128637042819832 
367	 0.129991970850502 
368	 0.131075459827104 
369	 0.132138691202306 
370	 0.133304729653141 
371	 0.134717591382781 
372	 0.13630327215847 
373	 0.137828750069557 
374	 0.138920358788937 
375	 0.140084859335751 
376	 0.141378300950853 
377	 0.142144434196679 
378	 0.143150961917656 
379	 0.144237310504276 
380	 0.14507097387588 
381	 0.145439144971073 
382	 0.146380489086218 
383	 0.147688366238176 
384	 0.148585307501713 
385	 0.149165323247344 
386	 0.149438171847111 
387	 0.149759793871322 
388	 0.15078931360907 
389	 0.151483867562675 
390	 0.15148748632192 
391	 0.151017239972127 
392	 0.151196414718944 
393	 0.151413566169697 
394	 0.15147661475316 
395	 0.151361282091683 
396	 0.151026860721402 
397	 0.150638282802427 
398	 0.150319568959563 
399	 0.150123195382433 
400	 0.149637617545035 
401	 0.149059386887255 
402	 0.148608044408452 
403	 0.14839090614033 
404	 0.147894757172221 
405	 0.147189192569727 
406	 0.1465605861264 
407	 0.14611833894848 
408	 0.145567095233426 
409	 0.144822740836287 
410	 0.144034995359782 
411	 0.143292430485649 
412	 0.1426370166229 
413	 0.142005231162839 
414	 0.141097873857045 
415	 0.140358015333453 
416	 0.139677169359472 
417	 0.1388077796471 
418	 0.138146870606829 
419	 0.137538427090516 
420	 0.136928466127604 
421	 0.136411174862567 
422	 0.135962070731115 
423	 0.135610055443304 
424	 0.135374399940803 
425	 0.135205449095046 
426	 0.13527527396428 
427	 0.135492331411778 
428	 0.135663343520431 
429	 0.135893182048259 
430	 0.136237406519062 
431	 0.136657953441991 
432	 0.137019861998186 
433	 0.137394797638624 
434	 0.137612626106362 
435	 0.137622722424296 
436	 0.137871544421088 
437	 0.138007497451077 
438	 0.137943147706563 
439	 0.137752638741812 
440	 0.137526925222745 
441	 0.137201890728263 
442	 0.136792347522699 
443	 0.136460016896326 
444	 0.135904425367129 
445	 0.135254942950629 
446	 0.134692593418564 
447	 0.134096445922551 
448	 0.133514907429821 
449	 0.132901753828647 
450	 0.132164870476561 
451	 0.131596933788847 
452	 0.131062405814293 
453	 0.130422770224675 
454	 0.129649559583313 
455	 0.129035540262099 
456	 0.128492416425931 
457	 0.127834569052484 
458	 0.127197589842368 
459	 0.126589182235237 
460	 0.12598084861668 
461	 0.125323169694654 
462	 0.124747330316181 
463	 0.124177807281993 
464	 0.123543978277557 
465	 0.12290050973126 
466	 0.122312310496593 
467	 0.121749035686911 
468	 0.121138947590928 
469	 0.120519445963283 
470	 0.120001270694187 
471	 0.119561380658869 
472	 0.118997823056204 
473	 0.118368002579449 
474	 0.1178437585574 
475	 0.117515330704698 
476	 0.117088267043856 
477	 0.116647117840258 
478	 0.116259749932318 
479	 0.115969325516384 
480	 0.115698955963097 
481	 0.115514643118905 
482	 0.115409405122816 
483	 0.11517802771173 
484	 0.115120564538199 
485	 0.115132966359889 
486	 0.1150196055579 
487	 0.114957902801843 
488	 0.1150418127437 
489	 0.115184996917144 
490	 0.115155332899042 
491	 0.11526561984161 
492	 0.115458909938528 
493	 0.115635874210971 
494	 0.115779893481859 
495	 0.116033030110115 
496	 0.116276953753626 
497	 0.116324786359167 
498	 0.116634906529122 
499	 0.116875487135823 
500	 0.116910311259132 
501	 0.117022023800706 
502	 0.117184750825931 
503	 0.117307986001525 
504	 0.117334051679442 
505	 0.117427229144152 
506	 0.117562266470881 
507	 0.117689049053082 
508	 0.117750206225469 
509	 0.117831679446476 
510	 0.117967888151412 
511	 0.118173734405697 
512	 0.118454729330611 
513	 0.11872714354914 
514	 0.119038605683005 
515	 0.119468853106718 
516	 0.119876265205009 
517	 0.120359929147511 
518	 0.120947354375623 
519	 0.121555190039555 
520	 0.122292726900108 
521	 0.123118658958976 
522	 0.124003025219362 
523	 0.125043021908349 
524	 0.126263201865187 
525	 0.12764060403072 
526	 0.129115396769947 
527	 0.130605671960605 
528	 0.132173431049811 
529	 0.133893490802581 
530	 0.135847758166093 
531	 0.137908176660708 
532	 0.140104054732147 
533	 0.142476540562058 
534	 0.144822742848695 
535	 0.14735468207757 
536	 0.150118148692732 
537	 0.15293251425985 
538	 0.155834406773498 
539	 0.158809396573589 
540	 0.161821596383875 
541	 0.164807689285022 
542	 0.16778424959963 
543	 0.170746266163396 
544	 0.17368467902339 
545	 0.176575886745669 
546	 0.179357976267697 
547	 0.182006312364893 
548	 0.18457840338083 
549	 0.187030770159812 
550	 0.189365664106436 
551	 0.191605189530646 
552	 0.193746260161127 
553	 0.19580714462607 
554	 0.197837036878092 
555	 0.19990377017204 
556	 0.201984598657659 
557	 0.204101182885436 
558	 0.206253838723999 
559	 0.208425390124111 
560	 0.210612508183048 
561	 0.212834179448526 
562	 0.215135019158614 
563	 0.217512642846735 
564	 0.219882605434073 
565	 0.222188100968223 
566	 0.224459599935712 
567	 0.226640039076879 
568	 0.228653151626911 
569	 0.230448276978168 
570	 0.232169206495218 
571	 0.233743985519956 
572	 0.235176503007094 
573	 0.236563305638034 
574	 0.237952885448984 
575	 0.239299855074223 
576	 0.240547575771504 
577	 0.241708305204376 
578	 0.242878911905615 
579	 0.244084990929261 
580	 0.245288457645475 
581	 0.246353005765667 
582	 0.247369247182533 
583	 0.248375919058652 
584	 0.24924995324568 
585	 0.250149018158998 
586	 0.25101176521163 
587	 0.251729300880549 
588	 0.25236410470788 
589	 0.25294669743441 
590	 0.25347455280497 
591	 0.253949380182968 
592	 0.254396410747518 
593	 0.254891066633923 
594	 0.255411329513793 
595	 0.255646186662196 
596	 0.255915805306721 
597	 0.256222231809756 
598	 0.256407404961948 
599	 0.25668577114736 
600	 0.257013720427668 
601	 0.257324276332772 
602	 0.257562822515458 
603	 0.257872636331993 
604	 0.258239029307322 
605	 0.258596472967591 
606	 0.258925595480158 
607	 0.25924134258883 
608	 0.259546807641144 
609	 0.259832061875359 
610	 0.26017034533405 
611	 0.260532134376988 
612	 0.260869430165429 
613	 0.261145547252137 
614	 0.26141419344511 
615	 0.261689513239076 
616	 0.261956977784215 
617	 0.262191663641812 
618	 0.262448482492387 
619	 0.262769546393562 
620	 0.26316984764611 
621	 0.263386471186452 
622	 0.263558245627637 
623	 0.263897710855573 
624	 0.264281592072982 
625	 0.264494486228267 
626	 0.264604038155028 
627	 0.264927685399159 
628	 0.265173912327738 
629	 0.26547809995586 
630	 0.265906829009811 
631	 0.266129049700281 
632	 0.266339856939743 
633	 0.266585759361531 
634	 0.266853489814136 
635	 0.267232752446983 
636	 0.267506163064008 
637	 0.267655428866266 
638	 0.267985002830388 
639	 0.268314459819746 
640	 0.268538812820532 
641	 0.268646089108422 
642	 0.268920451831979 
643	 0.26912121325441 
644	 0.269231864953255 
645	 0.269414839640195 
646	 0.269544071448112 
647	 0.269657364460291 
648	 0.269815431249941 
649	 0.270095965709807 
650	 0.270174590565534 
651	 0.270126299997414 
652	 0.270149434682907 
653	 0.270090536280916 
654	 0.270055884879391 
655	 0.26998688864807 
656	 0.269608176274989 
657	 0.269246495508184 
658	 0.269033678426362 
659	 0.268933323907055 
660	 0.268576770041138 
661	 0.268382520444283 
662	 0.268244459719892 
663	 0.267789158420245 
664	 0.267493289617724 
665	 0.267340304684445 
666	 0.267222036256911 
667	 0.266988338078943 
668	 0.266812662323703 
669	 0.266692583326826 
670	 0.266592857910761 
671	 0.266624005855556 
672	 0.266635392794904 
673	 0.266634861650719 
674	 0.266780092426046 
675	 0.266953815330527 
676	 0.267156935848199 
677	 0.267411712499174 
678	 0.267751396478863 
679	 0.268000036063788 
680	 0.268296843338684 
681	 0.268861365102534 
682	 0.269357650412989 
683	 0.269916107488585 
684	 0.270527206575597 
685	 0.270990318460011 
686	 0.271561432324937 
687	 0.272168822049876 
688	 0.272672842471459 
689	 0.273233001607 
690	 0.273672147860562 
691	 0.274001072505237 
692	 0.274334488292626 
693	 0.274563116984705 
694	 0.274897142422473 
695	 0.275298362513261 
696	 0.275313210531283 
697	 0.275275101207238 
698	 0.275209927053023 
699	 0.27509758792617 
700	 0.275120566936437 
701	 0.275130901562873 
702	 0.275009429073917 
703	 0.27469852297511 
704	 0.274395532669401 
705	 0.274073080725007 
706	 0.273697990783076 
707	 0.273281822654159 
708	 0.272896882892146 
709	 0.272473600585862 
710	 0.27190889279271 
711	 0.271279635568036 
712	 0.270445569452779 
713	 0.269435194798813 
714	 0.268434852619743 
715	 0.267364728725144 
716	 0.266273225047521 
717	 0.265251262501715 
718	 0.264059066561611 
719	 0.26291004351439 
720	 0.261906245167633 
721	 0.260867395749158 
722	 0.259642367525296 
723	 0.25828961044798 
724	 0.25694299256169 
725	 0.255444256841051 
726	 0.253961713651093 
727	 0.252289122512612 
728	 0.250322624576978 
729	 0.248411658806991 
730	 0.246338266631871 
731	 0.244269660236601 
732	 0.242431524505327 
733	 0.240837613292387 
734	 0.239300622197858 
735	 0.237888203391751 
736	 0.236996182945552 
737	 0.236244264501623 
738	 0.235638671656268 
739	 0.23524638845045 
740	 0.235001036821571 
741	 0.234730374724173 
742	 0.234523926117641 
743	 0.234556997448355 
744	 0.234499944581401 
745	 0.234413110982814 
746	 0.234369429175352 
747	 0.23440081230014 
748	 0.234463646635286 
749	 0.234457271040591 
750	 0.234360868835289 
751	 0.23445882633333 
752	 0.234486122919898 
753	 0.234426157632902 
754	 0.234397005929668 
755	 0.234390646774186 
756	 0.234237551991232 
757	 0.233985591085907 
758	 0.234046988732178 
759	 0.234314241164609 
760	 0.234560720573104 
761	 0.234500701306987 
762	 0.234824410190961 
763	 0.235009085228325 
764	 0.235107157745053 
765	 0.23531574663052 
766	 0.235523420132415 
767	 0.235622397144051 
768	 0.235643983843322 
769	 0.235738436292958 
770	 0.235952913000555 
771	 0.236169315883565 
772	 0.236330365378869 
773	 0.236651637961132 
774	 0.236933169494954 
775	 0.237204447567726 
776	 0.237561942100841 
777	 0.237837964291527 
778	 0.238100616739613 
779	 0.238411410501919 
780	 0.238801432554424 
781	 0.239166227340005 
782	 0.23950748831757 
783	 0.239863632253619 
784	 0.240320048527786 
785	 0.240646205278561 
786	 0.241014247395546 
787	 0.241610608646405 
788	 0.241897628073048 
789	 0.242292235745011 
790	 0.242846092540065 
791	 0.24329127003308 
792	 0.243630759343551 
793	 0.244060924649665 
794	 0.244600865195344 
795	 0.2449297352232 
796	 0.245268347212098 
797	 0.245592160784895 
798	 0.245862516712602 
799	 0.246177366163769 
800	 0.246597971432315 
801	 0.246959744893532 
802	 0.247055247205354 
803	 0.247308219383441 
804	 0.247507846494363 
805	 0.247574280885799 
806	 0.247632113998219 
807	 0.247653242219744 
808	 0.247545255234401 
809	 0.247263643054269 
810	 0.246896668185513 
811	 0.246634280535529 
812	 0.246390598248245 
813	 0.245997450136975 
814	 0.245625284842141 
815	 0.245128200811728 
816	 0.244592529933271 
817	 0.244218381885641 
818	 0.2435221805417 
819	 0.242645826815941 
820	 0.241738023994416 
821	 0.240917341016545 
822	 0.239786222011079 
823	 0.238210885049521 
824	 0.236377274349235 
825	 0.234754413810441 
826	 0.232812414478934 
827	 0.230704141003647 
828	 0.228835805547678 
829	 0.226638677015503 
830	 0.224684441657348 
831	 0.223051340758561 
832	 0.221474301794257 
833	 0.220185106760866 
834	 0.219090440527515 
835	 0.218175753384817 
836	 0.217587931638719 
837	 0.216924327536516 
838	 0.216249001993406 
839	 0.215703719096957 
840	 0.21534086054381 
841	 0.215063060281116 
842	 0.214718063608324 
843	 0.214204037802641 
844	 0.213714810222442 
845	 0.213231865746861 
846	 0.212834834747698 
847	 0.212618410057311 
848	 0.212175702437924 
849	 0.211803028941555 
850	 0.211516940553577 
851	 0.210910248935671 
852	 0.210630914549191 
853	 0.210523889998588 
854	 0.210234803087674 
855	 0.209362467319695 
856	 0.209070411208474 
857	 0.208995943022818 
858	 0.20858530425662 
859	 0.208277417000107 
860	 0.207925577235125 
861	 0.207460445307773 
862	 0.206941269691616 
863	 0.206958421209467 
864	 0.206809387479179 
865	 0.206296517323715 
866	 0.205788526572615 
867	 0.205397423354188 
868	 0.205123714484665 
869	 0.204818049230783 
870	 0.204201282753146 
871	 0.203732179733098 
872	 0.203197133360338 
873	 0.202501411958019 
874	 0.202140674036993 
875	 0.201840682478811 
876	 0.201194575631522 
877	 0.200131305929302 
878	 0.199866686790417 
879	 0.199541761135536 
880	 0.199045136509407 
881	 0.198594892735941 
882	 0.197987304947004 
883	 0.197385614163517 
884	 0.1967993349869 
885	 0.196125430001798 
886	 0.195471603739689 
887	 0.194927523202621 
888	 0.194482490006187 
889	 0.194009523216369 
890	 0.193212400895688 
891	 0.192737854051648 
892	 0.19276861548803 
893	 0.192323737084955 
894	 0.191579337878539 
895	 0.191151124759906 
896	 0.19120000967137 
897	 0.190044930387971 
898	 0.189494814036913 
899	 0.189253625474354 
900	 0.188527515912398 
901	 0.18762722694845 
902	 0.187269186434387 
903	 0.187065930596275 
904	 0.186375113173326 
905	 0.185552329076213 
906	 0.185400277444047 
907	 0.185483455746541 
908	 0.184639346873971 
909	 0.183787161803983 
910	 0.182767311564738 
911	 0.181633789597282 
912	 0.180706599359304 
913	 0.180227696154903 
914	 0.179526298474908 
915	 0.178459787596275 
916	 0.177554432666651 
917	 0.176118239869405 
918	 0.174597385588607 
919	 0.173522261363977 
920	 0.173247528132228 
921	 0.172115222467308 
922	 0.170338266797442 
923	 0.16866709035879 
924	 0.168149760124611 
925	 0.166226152592819 
926	 0.164319755852627 
927	 0.163995581558747 
928	 0.162518629751796 
929	 0.16092168419884 
930	 0.160107876023965 
931	 0.160501105892076 
932	 0.159111423552074 
933	 0.156162823217796 
934	 0.155140220601116 
935	 0.157122497445734 
936	 0.150312910311312 
937	 0.148184610005745 
938	 0.146482158709728 
939	 0.140007984450556 
940	 0.144073275967421 
941	 0.142859846682953 
942	 0.138387480357242 
943	 0.139729413590855 
944	 0.138643798032083 
945	 0.137529142120736 
946	 0.136661224601226 
947	 0.135077008644901 
948	 0.135070624991062 
949	 0.130753489184784 
950	 0.12488188263021 
951	 0.124551100099007 
952	 0.125645389280197 
953	 0.123966337717759 
954	 0.120625035646734 
955	 0.119744330097787 
956	 0.118747169068209 
957	 0.118909517051874 
958	 0.118397021790372 
959	 0.114292830944541 
960	 0.112603447631933 
961	 0.111996052099492 
962	 0.111992033999508 
963	 0.112901002176538 
964	 0.112332706957352 
965	 0.110716518490324 
966	 0.109219655619642 
967	 0.108980677974666 
968	 0.10821902961563 
969	 0.108340133996599 
970	 0.109597268275357 
971	 0.110876941348891 
972	 0.110757374247123 
973	 0.109093179491525 
974	 0.10789917020936 
975	 0.10997312619314 
976	 0.108880525819774 
977	 0.108484075619651 
978	 0.109335182291746 
979	 0.108623273793026 
980	 0.110015888990678 
981	 0.110762308282418 
982	 0.110309830496131 
983	 0.110285134825299 
984	 0.11009456327213 
985	 0.109342170877333 
986	 0.108779820991507 
987	 0.109701916692567 
988	 0.11068164537652 
989	 0.11214223558902 
990	 0.113297515706108 
991	 0.112671025678226 
992	 0.110765125854137 
993	 0.110250488409499 
994	 0.111038389777997 
995	 0.111404312023925 
996	 0.113670462737636 
997	 0.114256677875212 
998	 0.114197749734174 
999	 0.116340067003049 
1000	 0.115337890312754 
1001	 0.111160688101988 
1002	 0.111507026264734 
1003	 0.111945850810666 
1004	 0.112626370777614 
1005	 0.113098193208826 
1006	 0.113369655993884 
1007	 0.113923861906411 
1008	 0.114383449314433 
1009	 0.114713344814165 
1010	 0.115103021605394 
1011	 0.115488988482596 
1012	 0.11603662817843 
1013	 0.11673186197357 
1014	 0.117489304057403 
1015	 0.118592261117883 
1016	 0.119321277508954 
1017	 0.119899366260933 
1018	 0.120506140550264 
1019	 0.121030556445293 
1020	 0.121447074786291 
1021	 0.121608826038032 
1022	 0.122183115834852 
1023	 0.122767494881541 
1024	 0.123472451030006 
1025	 0.124406703612576 
1026	 0.125289556904303 
1027	 0.126076233754469 
1028	 0.126698896769144 
1029	 0.127376931220602 
1030	 0.128131548232054 
1031	 0.128758626008343 
1032	 0.12921689945155 
1033	 0.129907786579434 
1034	 0.130677840272514 
1035	 0.131361628378087 
1036	 0.132366897551871 
1037	 0.13292533702059 
1038	 0.13308539282519 
1039	 0.13332424670842 
1040	 0.133516991650433 
1041	 0.133714772212361 
1042	 0.134477205465065 
1043	 0.135937899786175 
1044	 0.136533968983417 
1045	 0.137182604865491 
1046	 0.13754498143361 
1047	 0.137091199149174 
1048	 0.137345227017136 
1049	 0.137754199085554 
1050	 0.138390863538639 
1051	 0.139795159775573 
1052	 0.140364142896649 
1053	 0.140573611516007 
1054	 0.14097291961444 
1055	 0.140763679796712 
1056	 0.140908703828643 
1057	 0.141269773630652 
1058	 0.142214712927788 
1059	 0.142515922239337 
1060	 0.142705459109451 
1061	 0.142775541448456 
1062	 0.142420241376455 
1063	 0.142485399098292 
1064	 0.142722677917044 
1065	 0.142844269196514 
1066	 0.143120177425368 
1067	 0.143267172823185 
1068	 0.143274227083985 
1069	 0.143296148905379 
1070	 0.143429337096602 
1071	 0.14336626015966 
1072	 0.14327326520499 
1073	 0.142844294807756 
1074	 0.142649320396413 
1075	 0.142417357300773 
1076	 0.142187001583679 
1077	 0.142076257515358 
1078	 0.141783664884654 
1079	 0.141257866578863 
1080	 0.140959426491424 
1081	 0.140657188713214 
1082	 0.140479381071826 
1083	 0.140700151769252 
1084	 0.140445216876098 
1085	 0.13998812535977 
1086	 0.13952969944284 
1087	 0.138698476353069 
1088	 0.138045990748629 
1089	 0.137379650503553 
1090	 0.136947081861373 
1091	 0.136505771273592 
1092	 0.136143210533664 
1093	 0.135655386372937 
1094	 0.135211843395051 
1095	 0.134729138458072 
1096	 0.133973870555661 
1097	 0.133597095306164 
1098	 0.133823088867136 
1099	 0.1332192813759 
1100	 0.132113589992368 
1101	 0.131432613583822 
1102	 0.13018086325796 
1103	 0.129426160795148 
1104	 0.129349503050723 
1105	 0.129349336195181 
1106	 0.129077801478853 
1107	 0.128531001591938 
1108	 0.127597210356789 
1109	 0.12717000624333 
1110	 0.126626418970027 
1111	 0.125689983239168 
1112	 0.125609323612838 
1113	 0.126678431383554 
1114	 0.126492524174456 
1115	 0.126309204160088 
1116	 0.125485303757816 
1117	 0.122661585146472 
1118	 0.121134695709488 
1119	 0.120009487295191 
1120	 0.11909999511465 
1121	 0.121650170244287 
1122	 0.118215687283812 
1123	 0.114040353705259 
1124	 0.115014432964179 
1125	 0.114348540548764 
1126	 0.112991411674178 
1127	 0.110848036734207 
1128	 0.108364359777805 
1129	 0.107129385987871 
1130	 0.105667575291315 
1131	 0.104694120876321 
1132	 0.106169498035405 
1133	 0.103903662801612 
1134	 9.98223502255497E-02 
1135	 9.71372281317009E-02 
1136	 9.29666928957562E-02 
1137	 9.10344873125211E-02 
1138	 9.06543658937557E-02 
1139	 8.93973020858988E-02 
1140	 8.83926553933626E-02 
1141	 8.84468590875191E-02 
1142	 8.72457320456154E-02 
1143	 8.48923735674173E-02 
1144	 8.33896144642201E-02 
