Wavelength	rt0711c00003.asd
350	 0.122019897675353 
351	 0.121935565999827 
352	 0.122315758658345 
353	 0.123049096791824 
354	 0.123788271727165 
355	 0.123948226980215 
356	 0.124307629540725 
357	 0.124817822423711 
358	 0.125267019626333 
359	 0.125952916236846 
360	 0.12653979750825 
361	 0.127047094327824 
362	 0.127747782281554 
363	 0.128851307654991 
364	 0.129474451356379 
365	 0.129410308474321 
366	 0.129625127950562 
367	 0.129974417315071 
368	 0.130390041170535 
369	 0.130705207596227 
370	 0.130372855310198 
371	 0.130434603361996 
372	 0.130954081148473 
373	 0.131411061417206 
374	 0.131871552191463 
375	 0.132348696150348 
376	 0.132777185813435 
377	 0.132998595815347 
378	 0.133750769495769 
379	 0.134332225973367 
380	 0.134158655594547 
381	 0.134055259388532 
382	 0.134003173828335 
383	 0.134051651183565 
384	 0.134277388553998 
385	 0.134824048623528 
386	 0.135727261611038 
387	 0.136563921885421 
388	 0.136509607983948 
389	 0.136861525816587 
390	 0.137125621448284 
391	 0.136891221176887 
392	 0.136729782711406 
393	 0.137180627307535 
394	 0.137652386581004 
395	 0.137505392455649 
396	 0.138196645862342 
397	 0.139124599772203 
398	 0.139854251915603 
399	 0.140247096067843 
400	 0.14089834963272 
401	 0.141381865787707 
402	 0.141441303868287 
403	 0.141542014527595 
404	 0.141358177300197 
405	 0.141113880309308 
406	 0.141177923594442 
407	 0.141520983877085 
408	 0.141830263046278 
409	 0.142053750734484 
410	 0.142403505224221 
411	 0.142856507770224 
412	 0.143153484651952 
413	 0.143235639131009 
414	 0.143621639102426 
415	 0.143861635998175 
416	 0.1440027658411 
417	 0.144270528775576 
418	 0.144657133504702 
419	 0.144997861549973 
420	 0.1452587424699 
421	 0.1455584040723 
422	 0.146011860454108 
423	 0.14647451591001 
424	 0.146735204553316 
425	 0.146475403265837 
426	 0.146731015100975 
427	 0.147306635645819 
428	 0.147502802026431 
429	 0.147825199664358 
430	 0.148271901066332 
431	 0.14885937089198 
432	 0.14967498487165 
433	 0.150345631142779 
434	 0.150776299657883 
435	 0.151027704733812 
436	 0.151358706393838 
437	 0.1517581257194 
438	 0.152154430472225 
439	 0.1524618238942 
440	 0.152824377144231 
441	 0.153224064033486 
442	 0.153637838546926 
443	 0.154065796852584 
444	 0.154440611890004 
445	 0.154821161297469 
446	 0.155246409095371 
447	 0.155527144239722 
448	 0.155902944689766 
449	 0.156290639712554 
450	 0.156402605593324 
451	 0.156594152151045 
452	 0.156780128252737 
453	 0.156893081420187 
454	 0.157023674490904 
455	 0.157269484215007 
456	 0.157548305597905 
457	 0.15774600547424 
458	 0.158009837158132 
459	 0.158145610166585 
460	 0.158220733100023 
461	 0.158554159349827 
462	 0.158736841163569 
463	 0.158767441524101 
464	 0.158764667718215 
465	 0.15893974075355 
466	 0.159067210792445 
467	 0.159144381972158 
468	 0.159287800427771 
469	 0.159611916105521 
470	 0.159875412771622 
471	 0.160015081411772 
472	 0.16024410742111 
473	 0.160593159690128 
474	 0.160798406618306 
475	 0.160728449524533 
476	 0.160983014547885 
477	 0.161343499907444 
478	 0.161658402826505 
479	 0.161858653788362 
480	 0.162218477262541 
481	 0.162483744555238 
482	 0.162496393073842 
483	 0.162410414213854 
484	 0.162434987634316 
485	 0.16263982232549 
486	 0.163021213808863 
487	 0.16359775298436 
488	 0.164242485779186 
489	 0.164725973601446 
490	 0.164774200177342 
491	 0.165022846523326 
492	 0.165487249756983 
493	 0.166000493790435 
494	 0.166262454700982 
495	 0.166671653894255 
496	 0.167138677800236 
497	 0.16737216081014 
498	 0.167631091040866 
499	 0.167988088568502 
500	 0.168456893202166 
501	 0.168993565404863 
502	 0.169578372416454 
503	 0.170164668345424 
504	 0.170691328568036 
505	 0.171036878782488 
506	 0.171436500508106 
507	 0.171888343472025 
508	 0.172216371601414 
509	 0.172715308010666 
510	 0.173264467039697 
511	 0.173731082016875 
512	 0.174103411624578 
513	 0.174546117487248 
514	 0.174994819148651 
515	 0.175312907003643 
516	 0.175619718002797 
517	 0.176320359144623 
518	 0.177392917750054 
519	 0.178286518926222 
520	 0.178980327264847 
521	 0.179558453226733 
522	 0.180156949140821 
523	 0.180965267561521 
524	 0.181564112735552 
525	 0.182024625490749 
526	 0.18276556727351 
527	 0.183825285087463 
528	 0.184938861788491 
529	 0.185836557755249 
530	 0.186281647969671 
531	 0.186849697470014 
532	 0.187718223461892 
533	 0.18882268039971 
534	 0.189756044705451 
535	 0.190573583696787 
536	 0.19136054276931 
537	 0.192186219466382 
538	 0.193034540545385 
539	 0.193896607798016 
540	 0.194787691662943 
541	 0.195812872314523 
542	 0.196823669549875 
543	 0.19777139323856 
544	 0.198675315083744 
545	 0.199471460038577 
546	 0.200311992851746 
547	 0.201272335376323 
548	 0.202246680798032 
549	 0.203147524309415 
550	 0.204023098652916 
551	 0.204965690379936 
552	 0.205973350694599 
553	 0.206930057848563 
554	 0.207804088975546 
555	 0.20865951836119 
556	 0.209427154797708 
557	 0.210165346455329 
558	 0.210953712015368 
559	 0.211869680722328 
560	 0.212790699690503 
561	 0.213591375116116 
562	 0.214179544429892 
563	 0.214712304921974 
564	 0.215299692503151 
565	 0.215972764274058 
566	 0.216641744709042 
567	 0.217253165261969 
568	 0.217845588932379 
569	 0.218502755547724 
570	 0.219313806160196 
571	 0.220166717586079 
572	 0.220909555893106 
573	 0.221375755405618 
574	 0.221858525609011 
575	 0.222412957535671 
576	 0.222971455001893 
577	 0.223286419774909 
578	 0.223569060663004 
579	 0.223778469662099 
580	 0.223745287932742 
581	 0.223669835883436 
582	 0.223471019269742 
583	 0.223147695030064 
584	 0.22290264692843 
585	 0.222762595763875 
586	 0.222572435930782 
587	 0.222193510272293 
588	 0.222025526523589 
589	 0.222113370362631 
590	 0.222328124548281 
591	 0.222406769591362 
592	 0.222203280155526 
593	 0.221871168213808 
594	 0.221550315231999 
595	 0.221120549837688 
596	 0.220501590932084 
597	 0.219705513410577 
598	 0.218822742548516 
599	 0.218025310275485 
600	 0.217274272528995 
601	 0.216612448993949 
602	 0.216281637132283 
603	 0.215977343695527 
604	 0.215703264488145 
605	 0.215557845194772 
606	 0.215571657649802 
607	 0.215518499274601 
608	 0.215412905993657 
609	 0.215516610670814 
610	 0.21553934411144 
611	 0.215491766337773 
612	 0.215447855697006 
613	 0.215477819969446 
614	 0.215427197976143 
615	 0.21536128178401 
616	 0.215449134187909 
617	 0.215577680721864 
618	 0.215612085908493 
619	 0.215518052175033 
620	 0.215411710773149 
621	 0.215342816647384 
622	 0.215327247718171 
623	 0.215357386934172 
624	 0.215390274682912 
625	 0.215591567457867 
626	 0.215839251435356 
627	 0.215756983397981 
628	 0.215640801674994 
629	 0.215542790035209 
630	 0.215486007953686 
631	 0.215570660392707 
632	 0.215515557287086 
633	 0.215380586536604 
634	 0.215362138016916 
635	 0.215290695300667 
636	 0.215216288919881 
637	 0.215170562261641 
638	 0.215130337837329 
639	 0.215088172767804 
640	 0.215035774560016 
641	 0.214973682696944 
642	 0.214915882152154 
643	 0.21497211530937 
644	 0.215094031681426 
645	 0.215113245552723 
646	 0.215174624021143 
647	 0.215134852425164 
648	 0.214940891612452 
649	 0.214871887682907 
650	 0.214638254856461 
651	 0.214323853093715 
652	 0.214101275400433 
653	 0.213687896650225 
654	 0.213062594589227 
655	 0.212349714530248 
656	 0.211932279546185 
657	 0.211414279046497 
658	 0.210761306216582 
659	 0.210059939453196 
660	 0.209578745772426 
661	 0.20919743087492 
662	 0.208780703952729 
663	 0.208234102960769 
664	 0.207927390956418 
665	 0.207646070981792 
666	 0.207287310327535 
667	 0.207094810344826 
668	 0.206907763395504 
669	 0.206708767984157 
670	 0.206516881636395 
671	 0.206287130224485 
672	 0.206095406459806 
673	 0.205976834901298 
674	 0.205929426227773 
675	 0.206124267752848 
676	 0.206294718900987 
677	 0.206291639608299 
678	 0.206460722449646 
679	 0.206693400944155 
680	 0.206977104781864 
681	 0.20731443522246 
682	 0.207535813261761 
683	 0.207919957018752 
684	 0.208534559589121 
685	 0.209179616299209 
686	 0.209843777928607 
687	 0.210348378236724 
688	 0.210538285646666 
689	 0.210461541638114 
690	 0.210415099559279 
691	 0.210512556214158 
692	 0.210699672467127 
693	 0.210429738028504 
694	 0.209870389726275 
695	 0.209305205539615 
696	 0.20892560863215 
697	 0.208529764847992 
698	 0.208066721076456 
699	 0.207539500958033 
700	 0.206885234658688 
701	 0.206058521317637 
702	 0.205127140056859 
703	 0.204215915760549 
704	 0.203375179371988 
705	 0.2023878747168 
706	 0.201195033888011 
707	 0.200095165559609 
708	 0.199060276903038 
709	 0.197887268537098 
710	 0.196377306091867 
711	 0.194795476629883 
712	 0.193330510099973 
713	 0.192040921246427 
714	 0.190826296775948 
715	 0.18980329877951 
716	 0.188698109727145 
717	 0.187188139101577 
718	 0.185076426423254 
719	 0.182622543922161 
720	 0.180484958461769 
721	 0.178799477986269 
722	 0.177664738395036 
723	 0.176215225083486 
724	 0.174325309762868 
725	 0.172613817627855 
726	 0.170485977783361 
727	 0.168234282630348 
728	 0.166132543097805 
729	 0.163733366294623 
730	 0.161099499828867 
731	 0.158568250986029 
732	 0.156429132118129 
733	 0.154759739723757 
734	 0.153436336559962 
735	 0.152327673298329 
736	 0.151271604891333 
737	 0.150361558619856 
738	 0.149692450679508 
739	 0.14927599148141 
740	 0.148837849922017 
741	 0.148475377516703 
742	 0.148188721374744 
743	 0.147947739166541 
744	 0.147951560304075 
745	 0.148011739046037 
746	 0.148008003423774 
747	 0.147967728107905 
748	 0.147791288531431 
749	 0.14768240343739 
750	 0.147783920571343 
751	 0.147784300039302 
752	 0.147805244568144 
753	 0.147826446309097 
754	 0.147793106524861 
755	 0.147968074232133 
756	 0.148478283617259 
757	 0.149318818925611 
758	 0.150566998595136 
759	 0.150979911649454 
760	 0.151006516325942 
761	 0.15190809039024 
762	 0.15166066596094 
763	 0.150870683047278 
764	 0.150072738350666 
765	 0.149548418506966 
766	 0.149059742712319 
767	 0.148882605493577 
768	 0.148988945756973 
769	 0.149071372506113 
770	 0.149071846840556 
771	 0.149122537077883 
772	 0.149318380994553 
773	 0.149549343649302 
774	 0.149660511682924 
775	 0.149797507946956 
776	 0.150159950435236 
777	 0.150366570180344 
778	 0.150603911063545 
779	 0.150919679998166 
780	 0.151194100270616 
781	 0.151601432479534 
782	 0.151988319703649 
783	 0.152276991249048 
784	 0.152685382676058 
785	 0.153222548434037 
786	 0.153786211168833 
787	 0.154246933768075 
788	 0.15462100691917 
789	 0.155018500585208 
790	 0.155411433346752 
791	 0.155686987323683 
792	 0.15609624170315 
793	 0.156449399876104 
794	 0.156709214466157 
795	 0.15717242960615 
796	 0.157790965876957 
797	 0.158307150440001 
798	 0.15856619842107 
799	 0.158895590039209 
800	 0.159265219519505 
801	 0.159590918521815 
802	 0.159765409836573 
803	 0.159739459602348 
804	 0.159739608916655 
805	 0.15986361994954 
806	 0.160040047110229 
807	 0.160304512905659 
808	 0.160583727609078 
809	 0.160824750361533 
810	 0.161080379362827 
811	 0.161412551752486 
812	 0.16168058210806 
813	 0.161665802000921 
814	 0.161398752758678 
815	 0.160987145646067 
816	 0.160329232078881 
817	 0.159284153390923 
818	 0.158782272167807 
819	 0.158626482578796 
820	 0.158288979831677 
821	 0.156995009585473 
822	 0.155512276923342 
823	 0.154452163078538 
824	 0.153907328980171 
825	 0.153065637587301 
826	 0.151580867279022 
827	 0.14988188128006 
828	 0.14870208629908 
829	 0.147646817350677 
830	 0.146377694490939 
831	 0.145132742512684 
832	 0.144496543124187 
833	 0.143764919914483 
834	 0.143087967043988 
835	 0.142626736140561 
836	 0.142417525600784 
837	 0.142152419032228 
838	 0.141814078550279 
839	 0.141446739043275 
840	 0.141020190631751 
841	 0.140947449511763 
842	 0.140874394329669 
843	 0.140398282974775 
844	 0.14034728075583 
845	 0.140293530017445 
846	 0.140146088529129 
847	 0.140050903917868 
848	 0.139751662428691 
849	 0.139661058490658 
850	 0.139816409725693 
851	 0.139700453444136 
852	 0.13926652444161 
853	 0.138828451444838 
854	 0.138729000422455 
855	 0.139160015109323 
856	 0.139365026433704 
857	 0.139131334677318 
858	 0.13863249334749 
859	 0.138707150460816 
860	 0.138765449821257 
861	 0.138762032161331 
862	 0.138860962427431 
863	 0.138663333252847 
864	 0.13832178117395 
865	 0.137940368266986 
866	 0.137600041568246 
867	 0.137960351404391 
868	 0.138378380165005 
869	 0.138357576101136 
870	 0.137867775120269 
871	 0.137689435063544 
872	 0.137661550242117 
873	 0.137581365405371 
874	 0.137658874478031 
875	 0.137788457749682 
876	 0.137834301084216 
877	 0.137725020290112 
878	 0.137655080017459 
879	 0.137391000732698 
880	 0.137105736727993 
881	 0.137101588637117 
882	 0.137244344223795 
883	 0.137239455025083 
884	 0.137138015220796 
885	 0.137183214888123 
886	 0.136758630684222 
887	 0.136729701503554 
888	 0.137251958472445 
889	 0.137540525019641 
890	 0.137967335255368 
891	 0.138293411379634 
892	 0.138438744799441 
893	 0.13879097263553 
894	 0.138916139033533 
895	 0.138999403419078 
896	 0.13923921553258 
897	 0.139337586649027 
898	 0.138726836055258 
899	 0.138061584454503 
900	 0.138166587581466 
901	 0.138752882021216 
902	 0.139835718647016 
903	 0.140455114596166 
904	 0.139797218870565 
905	 0.13941155303079 
906	 0.139050052920162 
907	 0.13901653150626 
908	 0.139773095402165 
909	 0.139828200672586 
910	 0.140300900609172 
911	 0.140888807636867 
912	 0.140083871973594 
913	 0.139213177118744 
914	 0.139132526096188 
915	 0.139321628481846 
916	 0.13817709012677 
917	 0.139127558858291 
918	 0.139974547878193 
919	 0.139716727482475 
920	 0.139983651281949 
921	 0.139684736358 
922	 0.139519464609369 
923	 0.140086982599559 
924	 0.141095711942859 
925	 0.141625458772326 
926	 0.141991094062038 
927	 0.142680719837918 
928	 0.143279529653751 
929	 0.142226536170497 
930	 0.140800863030456 
931	 0.141515073983146 
932	 0.141570982881443 
933	 0.140522525179143 
934	 0.139424492631282 
935	 0.139797111599302 
936	 0.140873407776563 
937	 0.143587776546727 
938	 0.145843824971576 
939	 0.14572400067698 
940	 0.144978082166763 
941	 0.143460939718366 
942	 0.143148569608074 
943	 0.145741619127585 
944	 0.14488864103283 
945	 0.143884331543975 
946	 0.143988260244705 
947	 0.144436336437336 
948	 0.143811292198662 
949	 0.14422668979873 
950	 0.143805615488644 
951	 0.140183416425636 
952	 0.144651438476029 
953	 0.146061783329401 
954	 0.143403742099236 
955	 0.143005105206716 
956	 0.140902824059647 
957	 0.139905358756052 
958	 0.141379554569035 
959	 0.144107786953408 
960	 0.140511021693444 
961	 0.138810396358495 
962	 0.14044795848975 
963	 0.14110993447202 
964	 0.141324008123066 
965	 0.143598719727498 
966	 0.145007383645839 
967	 0.14056915508709 
968	 0.141059611085882 
969	 0.142598231751276 
970	 0.142244172779793 
971	 0.139891111944273 
972	 0.141151190902795 
973	 0.141224472415084 
974	 0.139733543341038 
975	 0.140940451456869 
976	 0.139993560655178 
977	 0.13987337941387 
978	 0.140303370796952 
979	 0.138256170114381 
980	 0.138074268937138 
981	 0.139663814425385 
982	 0.141132181287115 
983	 0.140306955608113 
984	 0.140802265262753 
985	 0.140973819812301 
986	 0.140114860252857 
987	 0.138994138796247 
988	 0.140095158277696 
989	 0.139138800803886 
990	 0.137174580363494 
991	 0.138666776851549 
992	 0.139060436045322 
993	 0.139028759259653 
994	 0.138915159674812 
995	 0.138777070080139 
996	 0.140260359579309 
997	 0.139123108653835 
998	 0.137495536489482 
999	 0.139780587552362 
1000	 0.138201205981839 
1001	 0.104158618122294 
1002	 0.10557788448323 
1003	 0.106516639001352 
1004	 0.106801782841935 
1005	 0.107490585581973 
1006	 0.108231385829839 
1007	 0.109071305076272 
1008	 0.109902179261258 
1009	 0.111050333451988 
1010	 0.112020191669387 
1011	 0.11264476624176 
1012	 0.113125257057564 
1013	 0.113680847236702 
1014	 0.114129978598671 
1015	 0.114562341347543 
1016	 0.114644334702509 
1017	 0.114371522026171 
1018	 0.114375684817607 
1019	 0.113860782099644 
1020	 0.114183245619433 
1021	 0.115123963243463 
1022	 0.116109985634092 
1023	 0.117385770929377 
1024	 0.11835835712417 
1025	 0.118946562312359 
1026	 0.120075015323688 
1027	 0.121039189346571 
1028	 0.122036747006539 
1029	 0.122963858993254 
1030	 0.123988672683385 
1031	 0.124826691459663 
1032	 0.125656101817528 
1033	 0.126203990340081 
1034	 0.126514237587051 
1035	 0.126809279892839 
1036	 0.126781228732057 
1037	 0.126924050611839 
1038	 0.126950538452407 
1039	 0.127262256941006 
1040	 0.127944146034476 
1041	 0.128836722956994 
1042	 0.129760249689189 
1043	 0.130962421320226 
1044	 0.132295449658078 
1045	 0.13352110503969 
1046	 0.13519703905533 
1047	 0.137620490027563 
1048	 0.13945786981342 
1049	 0.141008074296733 
1050	 0.142924207237365 
1051	 0.144763072523539 
1052	 0.146769077554058 
1053	 0.149502316469196 
1054	 0.151641480209931 
1055	 0.153155141245838 
1056	 0.155113134073957 
1057	 0.157141741118075 
1058	 0.158922939644582 
1059	 0.161263298215037 
1060	 0.164302318062344 
1061	 0.166721240285678 
1062	 0.168910648793574 
1063	 0.171429250960952 
1064	 0.174007835827461 
1065	 0.176418150351134 
1066	 0.178857191211043 
1067	 0.181487988861372 
1068	 0.183928203887261 
1069	 0.186569318217341 
1070	 0.189810020572701 
1071	 0.192656543839113 
1072	 0.195399722446866 
1073	 0.19786700721349 
1074	 0.200386029974285 
1075	 0.202745877620646 
1076	 0.205179440144489 
1077	 0.207641536266651 
1078	 0.21006110003783 
1079	 0.212458095894051 
1080	 0.214890445321162 
1081	 0.217258553321176 
1082	 0.219755132589232 
1083	 0.22254438470019 
1084	 0.224987020602734 
1085	 0.227036439922744 
1086	 0.229579775331096 
1087	 0.232434131731306 
1088	 0.235008219312762 
1089	 0.237825151238388 
1090	 0.24060899001754 
1091	 0.243229054654656 
1092	 0.245365423131011 
1093	 0.247853627757574 
1094	 0.250816034213011 
1095	 0.25333466710368 
1096	 0.255241027295275 
1097	 0.258101371593091 
1098	 0.261340420205099 
1099	 0.264513732657102 
1100	 0.268798333517074 
1101	 0.272125054831479 
1102	 0.27458645895832 
1103	 0.277647968005418 
1104	 0.280049909009721 
1105	 0.283870274880216 
1106	 0.288524359656158 
1107	 0.292774764229816 
1108	 0.296711421358881 
1109	 0.300214229032419 
1110	 0.303453274580567 
1111	 0.305354788251757 
1112	 0.30906266297479 
1113	 0.313832177162972 
1114	 0.318317035901365 
1115	 0.324553594792342 
1116	 0.32914020389871 
1117	 0.331716733733485 
1118	 0.335481011151169 
1119	 0.33854632835958 
1120	 0.340811584871306 
1121	 0.342839792396382 
1122	 0.342821790644303 
1123	 0.338779827301857 
1124	 0.339955861173282 
1125	 0.344777234607632 
1126	 0.349568364680192 
1127	 0.350110855132182 
1128	 0.350348189488836 
1129	 0.352258519939616 
1130	 0.352342654443151 
1131	 0.354573261886049 
1132	 0.360807009499858 
1133	 0.362458238994789 
1134	 0.360566116599461 
1135	 0.361172404546834 
1136	 0.361729034240432 
1137	 0.363751869023042 
1138	 0.366698831971984 
1139	 0.370640964165458 
1140	 0.371988324926941 
1141	 0.372285294786326 
1142	 0.373097538976948 
1143	 0.371170353657254 
1144	 0.374261300631012 
1145	 0.374590622039462 
1146	 0.375517949046793 
1147	 0.372980987546039 
1148	 0.372757315010022 
1149	 0.371794986793499 
1150	 0.370658461203516 
1151	 0.370986808402982 
1152	 0.369168525834196 
1153	 0.365453743550651 
1154	 0.363741171955923 
1155	 0.361751073961487 
1156	 0.362451382718419 
1157	 0.361362515892753 
1158	 0.360397781509845 
1159	 0.358456024028691 
1160	 0.360371432681138 
1161	 0.353006252878998 
1162	 0.345703034281521 
1163	 0.335187084864694 
1164	 0.317857171035011 
1165	 0.306862828103297 
1166	 0.295847844955947 
1167	 0.286298033612364 
1168	 0.27902468796937 
1169	 0.272034123603189 
1170	 0.265753183751807 
1171	 0.26115642689183 
1172	 0.258069662652829 
1173	 0.254793078689622 
1174	 0.252078847459561 
1175	 0.250385238710192 
1176	 0.248408778613745 
1177	 0.246972562539311 
1178	 0.246333898086025 
1179	 0.245749718171898 
1180	 0.245466103817135 
1181	 0.24553324120254 
1182	 0.245527263553555 
1183	 0.245012352780122 
1184	 0.243792122128142 
1185	 0.242599670231206 
1186	 0.241256868373915 
1187	 0.240018507398405 
1188	 0.239026173249917 
1189	 0.237134710552611 
1190	 0.234711201718761 
1191	 0.232886755192594 
1192	 0.231379831513124 
1193	 0.230018665192098 
1194	 0.228964938348735 
1195	 0.228809072703423 
1196	 0.228540864078591 
1197	 0.228364907919648 
1198	 0.228836393451649 
1199	 0.228770025327941 
1200	 0.228343269717014 
1201	 0.228300416179458 
1202	 0.228434123241513 
1203	 0.228154518335658 
1204	 0.227495032346109 
1205	 0.226639165830141 
1206	 0.225737128073163 
1207	 0.224796076183077 
1208	 0.223725109964932 
1209	 0.222523603525317 
1210	 0.220943435709468 
1211	 0.219449096082118 
1212	 0.218494894521113 
1213	 0.217407758315389 
1214	 0.216031787986777 
1215	 0.214377710968365 
1216	 0.212704162996378 
1217	 0.211194394258153 
1218	 0.209810634392465 
1219	 0.208623882360487 
1220	 0.207703858660886 
1221	 0.20653526494044 
1222	 0.205215163581573 
1223	 0.204219645946853 
1224	 0.203356586105775 
1225	 0.202292071435356 
1226	 0.201237351602397 
1227	 0.200349935834022 
1228	 0.199290313479205 
1229	 0.198028537518944 
1230	 0.196848826310402 
1231	 0.195969657681379 
1232	 0.195102178686263 
1233	 0.194100322491082 
1234	 0.193540580930197 
1235	 0.193092887054062 
1236	 0.192586001386583 
1237	 0.192165018524381 
1238	 0.192052524361405 
1239	 0.191933517418219 
1240	 0.191354000866277 
1241	 0.191069351480081 
1242	 0.191299661967074 
1243	 0.191567174674448 
1244	 0.191914503279394 
1245	 0.192327955646547 
1246	 0.192361225121544 
1247	 0.192462482325998 
1248	 0.193086330330057 
1249	 0.193565155912688 
1250	 0.194080399699481 
1251	 0.194859912807488 
1252	 0.195575828415647 
1253	 0.19654568182851 
1254	 0.197691723949998 
1255	 0.198945762660027 
1256	 0.200504218006183 
1257	 0.202345012657381 
1258	 0.204163525789076 
1259	 0.206285314457499 
1260	 0.208501549039855 
1261	 0.210996704120217 
1262	 0.213184358826629 
1263	 0.215572728220617 
1264	 0.21736121504431 
1265	 0.219113575736734 
1266	 0.220557030965688 
1267	 0.221431015927475 
1268	 0.221992502255983 
1269	 0.221835580374709 
1270	 0.220637415004873 
1271	 0.21932636288061 
1272	 0.218001140750196 
1273	 0.216136516570779 
1274	 0.214582279084283 
1275	 0.213268196299105 
1276	 0.212015178008822 
1277	 0.211069211552523 
1278	 0.210264002796922 
1279	 0.209446851461674 
1280	 0.209023954981651 
1281	 0.208859398142899 
1282	 0.208946949054307 
1283	 0.209205978396853 
1284	 0.209947891683392 
1285	 0.210434005894082 
1286	 0.210638216223786 
1287	 0.211605980023345 
1288	 0.212944463897876 
1289	 0.214318791517065 
1290	 0.216152097556534 
1291	 0.218209532183364 
1292	 0.220145081159432 
1293	 0.222259814236574 
1294	 0.224852158071782 
1295	 0.227969462246267 
1296	 0.231270541025013 
1297	 0.234659063346228 
1298	 0.238414508425715 
1299	 0.242140749878503 
1300	 0.245872626566648 
1301	 0.250055696299084 
1302	 0.254717233033308 
1303	 0.259588867918885 
1304	 0.264732415222014 
1305	 0.270206937751549 
1306	 0.275873204559051 
1307	 0.281764298585663 
1308	 0.28773074947049 
1309	 0.295127368859023 
1310	 0.298812849568163 
1311	 0.300894173144222 
1312	 0.302191965553842 
1313	 0.300527037761791 
1314	 0.299890571367887 
1315	 0.298274684991417 
1316	 0.29773559782654 
1317	 0.297220785401803 
1318	 0.296563431332246 
1319	 0.296675173587074 
1320	 0.296606829773012 
1321	 0.296405650816609 
1322	 0.295462361943138 
1323	 0.294983763106073 
1324	 0.295076851712315 
1325	 0.294967380897447 
1326	 0.295456599508532 
1327	 0.294807705344651 
1328	 0.294812521200352 
1329	 0.294554349665273 
1330	 0.295077277764171 
1331	 0.293968914982631 
1332	 0.293459956687649 
1333	 0.294161432625559 
1334	 0.293061021589452 
1335	 0.292666698419831 
1336	 0.293724600653717 
1337	 0.294233779783752 
1338	 0.293174901110636 
1339	 0.293200440282909 
1340	 0.294980994081245 
1341	 0.296272891788607 
1342	 0.298013474893339 
1343	 0.298828948163772 
1344	 0.300515451525089 
1345	 0.301417576135683 
1346	 0.299131871097851 
1347	 0.298856634635702 
1348	 0.300678239348193 
1349	 0.300632994769227 
1350	 0.299037395285 
1351	 0.297300463510572 
1352	 0.289955726561719 
1353	 0.274697644398298 
1354	 0.237381665149058 
1355	 0.204596988372262 
1356	 0.227694579620479 
1357	 0.193947114000208 
1358	 0.176578634154017 
1359	 0.168068150025012 
1360	 0.15430564744819 
1361	 0.033541206168333 
1362	 1.42021966487568E-02 
1363	 0.11661529093512 
1364	 9.50988260181321E-02 
1365	 0.131975365720221 
1366	 0.300334690890989 
1367	 0.242637719666133 
1368	 0.308068385926485 
1369	 0.286026206178351 
1370	 0.360338579706788 
1371	 0.858184799126639 
1372	 0.824936477667695 
1373	 7.36792572159628E-02 
1374	 3.84100636960335E-02 
1375	 0.271151117211336 
1376	 0.21792379648063 
1377	 0.391025209097112 
1378	 0.689639113023664 
1379	 0.879149773163542 
1380	 0.686902001835453 
1381	 0.537843580570163 
1382	 0.781425619083898 
1383	 0.504641825313444 
1384	 0.307984318680067 
1385	 0.385706610699782 
1386	 0.603771182519306 
1387	 1.06037729907864 
1388	 0.819163620799458 
1389	 0.843649488831895 
1390	 0.912006763456368 
1391	 0.387790862145402 
1392	-6.94231026802151E-02 
1393	 8.04697236077126E-02 
1394	 0.185599706788018 
1395	 8.83338719160029E-02 
1396	 0.204543569997028 
1397	 0.115924011884687 
1398	-4.28018221753825E-02 
1399	 0.229813576839641 
1400	 0.470363166541203 
1401	 0.18242175698224 
1402	 0.13899916227833 
1403	 0.192503785663857 
1404	-3.95107936249536E-02 
1405	-0.068770258980138 
1406	 0.257555750551075 
1407	 0.352502774240029 
1408	 0.228203771659019 
1409	 0.254701407349455 
1410	 0.413370209263358 
1411	 0.402024013634996 
1412	 0.308179650791034 
1413	 0.288221606774986 
1414	 0.274694148187009 
1415	 0.264990390519228 
1416	 0.255804409374327 
1417	 0.267038474795136 
1418	 0.304621177002672 
1419	 0.290912007140704 
1420	 0.265930110295066 
1421	 0.259318546993672 
1422	 0.241536125485831 
1423	 0.233047819553363 
1424	 0.239011969811683 
1425	 0.236269594146804 
1426	 0.221728898345356 
1427	 0.220267539052908 
1428	 0.229161678500805 
1429	 0.22987453381652 
1430	 0.229903225737101 
1431	 0.230911077517354 
1432	 0.230418556104745 
1433	 0.226750003927301 
1434	 0.221526953598343 
1435	 0.218682159006725 
1436	 0.20830530391253 
1437	 0.209924783477712 
1438	 0.217582705190009 
1439	 0.216561135143578 
1440	 0.210850423518417 
1441	 0.205594068773044 
1442	 0.199504881201082 
1443	 0.199220480218787 
1444	 0.201448153457555 
1445	 0.198839599138878 
1446	 0.193586695655624 
1447	 0.190521198772522 
1448	 0.192825238683603 
1449	 0.194886930205417 
1450	 0.192022631688005 
1451	 0.188326540560128 
1452	 0.187571397208693 
1453	 0.184999340052122 
1454	 0.18293981202826 
1455	 0.182304450754485 
1456	 0.18253658940599 
1457	 0.181384856709213 
1458	 0.18093430357592 
1459	 0.182349887342512 
1460	 0.183366782835693 
1461	 0.18414563596417 
1462	 0.184119003658286 
1463	 0.184411784874021 
1464	 0.185194785655412 
1465	 0.186347931725994 
1466	 0.184787706133239 
1467	 0.181965555507984 
1468	 0.180903353706302 
1469	 0.178305576581949 
1470	 0.174773245018923 
1471	 0.171755503150955 
1472	 0.17189456388003 
1473	 0.17215530498914 
1474	 0.170612623973167 
1475	 0.171448031525599 
1476	 0.172018850011382 
1477	 0.170044086484017 
1478	 0.168965472970141 
1479	 0.170354049156578 
1480	 0.170477859862723 
1481	 0.168782258836858 
1482	 0.167934286582558 
1483	 0.168457851973758 
1484	 0.168117784220213 
1485	 0.167063142411708 
1486	 0.166108265493843 
1487	 0.165230385586808 
1488	 0.164113495247597 
1489	 0.162539191227058 
1490	 0.161776781239293 
1491	 0.161314396166909 
1492	 0.160806485368262 
1493	 0.160524309322678 
1494	 0.160325703492663 
1495	 0.160099702362563 
1496	 0.15986730534404 
1497	 0.159874284906559 
1498	 0.159775419771243 
1499	 0.159508365870665 
1500	 0.159336913544678 
1501	 0.15954258321294 
1502	 0.159298312899007 
1503	 0.158463719666719 
1504	 0.15816808727404 
1505	 0.158123956763004 
1506	 0.157705940821755 
1507	 0.157054226377489 
1508	 0.157167656882035 
1509	 0.157443939048477 
1510	 0.156914439351818 
1511	 0.1566609453626 
1512	 0.15717645122714 
1513	 0.157644491943139 
1514	 0.157775288406076 
1515	 0.158108058033777 
1516	 0.158618427061925 
1517	 0.158969449215792 
1518	 0.159793685367361 
1519	 0.160665047814269 
1520	 0.161052856056787 
1521	 0.161462983025784 
1522	 0.162049423294501 
1523	 0.163050887417735 
1524	 0.164159712993911 
1525	 0.164962617468285 
1526	 0.1657155858057 
1527	 0.166665876331795 
1528	 0.167510263938222 
1529	 0.168266294010121 
1530	 0.169260305542277 
1531	 0.170305943687899 
1532	 0.171202274201316 
1533	 0.172289042708989 
1534	 0.173481106717717 
1535	 0.174183200504909 
1536	 0.175063596821657 
1537	 0.17639709790263 
1538	 0.177445614696822 
1539	 0.178447480163681 
1540	 0.179847643970296 
1541	 0.181317829459907 
1542	 0.182473775425674 
1543	 0.183510703949538 
1544	 0.184926691990931 
1545	 0.186414598060599 
1546	 0.187360016303961 
1547	 0.188379076724133 
1548	 0.189894245493378 
1549	 0.191503494071006 
1550	 0.192699655007039 
1551	 0.193888564514995 
1552	 0.19535982305137 
1553	 0.196626512528857 
1554	 0.197773062185537 
1555	 0.199400846352761 
1556	 0.20058234324835 
1557	 0.200933296135902 
1558	 0.201578528371738 
1559	 0.20247801507467 
1560	 0.203094827932135 
1561	 0.203612248167249 
1562	 0.204518645741746 
1563	 0.205997276236007 
1564	 0.206910582222763 
1565	 0.207617454131233 
1566	 0.208584327516688 
1567	 0.208931606528526 
1568	 0.208879584067681 
1569	 0.209090162027986 
1570	 0.209724380911162 
1571	 0.209763292579541 
1572	 0.209939066333699 
1573	 0.209465110177555 
1574	 0.208789462555235 
1575	 0.208558515410337 
1576	 0.208352891837366 
1577	 0.208103821522455 
1578	 0.208065027545873 
1579	 0.20818604607391 
1580	 0.208310479484414 
1581	 0.208967058425778 
1582	 0.209528289237903 
1583	 0.209867802061926 
1584	 0.209841131771803 
1585	 0.21030106147642 
1586	 0.210555180807449 
1587	 0.210469814390564 
1588	 0.210378289673115 
1589	 0.210126953464267 
1590	 0.210053861483257 
1591	 0.210032742468593 
1592	 0.209825493024296 
1593	 0.209617799821207 
1594	 0.209651871461443 
1595	 0.209697925122979 
1596	 0.209783495046432 
1597	 0.210047661525111 
1598	 0.209948333465748 
1599	 0.209523247740909 
1600	 0.209523349066347 
1601	 0.20918995606415 
1602	 0.208965390857759 
1603	 0.208821185508623 
1604	 0.208431277447508 
1605	 0.2079580801172 
1606	 0.207734160997232 
1607	 0.207544503329036 
1608	 0.207539990264747 
1609	 0.207572525149979 
1610	 0.207055412377959 
1611	 0.206813135201211 
1612	 0.206455361827284 
1613	 0.205888840316289 
1614	 0.205378499535702 
1615	 0.205152358921351 
1616	 0.204915859777811 
1617	 0.204083359391837 
1618	 0.20347043727001 
1619	 0.203046186461756 
1620	 0.202493036917108 
1621	 0.202244340665225 
1622	 0.202110713836937 
1623	 0.202129713560622 
1624	 0.201999750168002 
1625	 0.201913065260383 
1626	 0.202170689167583 
1627	 0.202394692694934 
1628	 0.202079898168816 
1629	 0.202010246548564 
1630	 0.202133307432306 
1631	 0.201929809434003 
1632	 0.201825921844715 
1633	 0.202071944565912 
1634	 0.202050162962964 
1635	 0.201315884371634 
1636	 0.200932453222884 
1637	 0.200796134924238 
1638	 0.200822665007864 
1639	 0.200544209814343 
1640	 0.20015682458223 
1641	 0.199711668052087 
1642	 0.199324131432318 
1643	 0.199667592170602 
1644	 0.199692915990725 
1645	 0.198897508062307 
1646	 0.198573368681499 
1647	 0.198533452421674 
1648	 0.198305415500351 
1649	 0.198312536968197 
1650	 0.198167337531743 
1651	 0.19795942297891 
1652	 0.197951351103967 
1653	 0.197791909509201 
1654	 0.197613606787526 
1655	 0.197132368188878 
1656	 0.196974851765881 
1657	 0.197095560858484 
1658	 0.197179951392808 
1659	 0.197427750363655 
1660	 0.197418096413423 
1661	 0.197201129256984 
1662	 0.197393183664686 
1663	 0.197833939851861 
1664	 0.197781632832046 
1665	 0.197813934133541 
1666	 0.197796314440642 
1667	 0.197092159767242 
1668	 0.197918660717505 
1669	 0.198232520971763 
1670	 0.198307742808803 
1671	 0.198387263442203 
1672	 0.198103153457058 
1673	 0.198062668268842 
1674	 0.198633464557593 
1675	 0.199111603784623 
1676	 0.199188992375222 
1677	 0.199472614437983 
1678	 0.200125165257868 
1679	 0.200241502002929 
1680	 0.200022663412624 
1681	 0.200471427291682 
1682	 0.201191348218742 
1683	 0.201271694447091 
1684	 0.201571830729564 
1685	 0.201825810322983 
1686	 0.201423252885887 
1687	 0.201645084489559 
1688	 0.202262975095028 
1689	 0.202242118072119 
1690	 0.201975574159248 
1691	 0.201666452311378 
1692	 0.201431699630362 
1693	 0.201372678557944 
1694	 0.200971692082334 
1695	 0.200413123366194 
1696	 0.199893362634282 
1697	 0.199011441649156 
1698	 0.198218751357026 
1699	 0.197495599134164 
1700	 0.196219958439277 
1701	 0.194897143633623 
1702	 0.194086694001134 
1703	 0.192963574219665 
1704	 0.191522079264966 
1705	 0.189992471940304 
1706	 0.187996256497325 
1707	 0.186235175023121 
1708	 0.184586174458769 
1709	 0.182689297994741 
1710	 0.180531737134311 
1711	 0.178488634792195 
1712	 0.176258966675021 
1713	 0.174202157703826 
1714	 0.172243881542668 
1715	 0.169636740114555 
1716	 0.167350019157676 
1717	 0.16554190751072 
1718	 0.162830317811092 
1719	 0.160497520971956 
1720	 0.159049835485724 
1721	 0.156731017183278 
1722	 0.154729990263259 
1723	 0.153558394034223 
1724	 0.151782595812125 
1725	 0.149175626355616 
1726	 0.147319928451875 
1727	 0.145832003171342 
1728	 0.143883595480032 
1729	 0.142936275126036 
1730	 0.141747332816862 
1731	 0.139520210255505 
1732	 0.137343994887056 
1733	 0.135927223000649 
1734	 0.13473583711801 
1735	 0.133018917059566 
1736	 0.131189872414145 
1737	 0.129246786359342 
1738	 0.127364379588542 
1739	 0.125791391951531 
1740	 0.124699336019266 
1741	 0.123274767310546 
1742	 0.121273937505382 
1743	 0.119066929259459 
1744	 0.116807998364514 
1745	 0.115357866483891 
1746	 0.114087142134559 
1747	 0.112361906487665 
1748	 0.11077423317996 
1749	 0.109479062864816 
1750	 0.107938435828879 
1751	 0.106675645906723 
1752	 0.10603784687736 
1753	 0.104873656945056 
1754	 0.103440592025391 
1755	 0.102113508500788 
1756	 0.100610782026826 
1757	 9.89535347307765E-02 
1758	 9.74458096907363E-02 
1759	 9.69159526052948E-02 
1760	 9.66710300871175E-02 
1761	 9.55635842359141E-02 
1762	 9.43838730839516E-02 
1763	 9.34124185863686E-02 
1764	 9.18439300017434E-02 
1765	 0.091118059633406 
1766	 9.06321240778002E-02 
1767	 8.84692663040246E-02 
1768	 8.75574992106182E-02 
1769	 8.79055403914602E-02 
1770	 8.77818584769608E-02 
1771	 8.84433150715878E-02 
1772	 8.85153232671655E-02 
1773	 0.086975774844136 
1774	 8.49692992035078E-02 
1775	 8.33998441751262E-02 
1776	 8.25937854011368E-02 
1777	 8.33514573776108E-02 
1778	 8.29897304578599E-02 
1779	 8.20902730554014E-02 
1780	 8.14585460603625E-02 
1781	 7.98787593122057E-02 
1782	 7.95805652521697E-02 
1783	 8.09118627861056E-02 
1784	 8.10889482477482E-02 
1785	 8.14267249823299E-02 
1786	 8.16728997423263E-02 
1787	 8.12153956063193E-02 
1788	 8.06120409771856E-02 
1789	 7.95434483385496E-02 
1790	 8.03198106082449E-02 
1791	 8.12549242084792E-02 
1792	 8.41341226193226E-02 
1793	 8.61552829761054E-02 
1794	 0.081013326202057 
1795	 7.85022353004797E-02 
1796	 8.59635836789206E-02 
1797	 0.0872575417779 
1798	 8.78488559682825E-02 
1799	 0.095801997800156 
1800	 7.70827975396538E-02 
1801	 7.05304419725571E-02 
1802	 7.80327022861844E-02 
1803	 7.91537611975497E-02 
1804	 9.07493495555601E-02 
1805	 9.89381776120368E-02 
1806	 9.73768947052665E-02 
1807	 0.10119239022128 
1808	 0.111739076867353 
1809	 0.106876654557746 
1810	 7.56087341660915E-02 
1811	 6.71934850566055E-02 
1812	 5.17236792584406E-02 
1813	 6.05956903855842E-02 
1814	 0.137641102042588 
1815	 0.19028558008856 
1816	 0.256538901311399 
1817	 0.241550768316294 
1818	 0.383261835727141 
1819	 0.306063862043801 
1820	 0.219633180625555 
1821	 0.436972230688331 
1822	 0.46852552579185 
1823	 0.699559060763518 
1824	 0.854981157436333 
1825	-0.973174103405398 
1826	-2.65813900912894 
1827	-0.591967928735455 
1828	-0.264062296863283 
1829	 0.378799043521398 
1830	 0.416012100369391 
1831	 1.2636955483975 
1832	 0.94627028640252 
1833	 0.681265966413654 
1834	 0.578383415505694 
1835	 0.934527881263761 
1836	 0.945954973702101 
1837	 1.07136947451721 
1838	 0.5347851693356 
1839	-0.048763047892261 
1840	-0.335343323980862 
1841	-1.34539962263807 
1842	 10.5263299767306 
1843	 2.63606374499862 
1844	 0.4838378414829 
1845	 0.511348618434087 
1846	 3.14728792104422 
1847	 30.888372051296 
1848	-4.16804780650881 
1849	-3.95059434425512 
1850	-10.1313250458494 
1851	 34.6465349635406 
1852	-5.63655056801632 
1853	-1.8622560755777 
1854	-1.26848832096152 
1855	 2.49676839548126 
1856	-17.1127211897661 
1857	-0.526252001752443 
1858	-0.373619474161058 
1859	-2.45276125554959E-02 
1860	 2.62856570036155E-02 
1861	-0.115533470941135 
1862	 5.41799392632613E-02 
1863	 0.607966583188211 
1864	 1.97285739294898 
1865	 2.86875447042555 
1866	 1.68650378695807 
1867	 1.07574788371265 
1868	 0.603859147014888 
1869	 0.300993491534339 
1870	-2.34267944623101E-03 
1871	-0.208583718072963 
1872	-3.14517517702193 
1873	-2.74867655743844 
1874	-1.13359231913813 
1875	-0.261195473198065 
1876	-4.61021779150592E-02 
1877	-2.34368439188514E-02 
1878	 2.41768285908403 
1879	-5.07178868455745 
1880	-5.23040806984996 
1881	 3.25656262628216 
1882	 8.05798041998341 
1883	 2.06788790858452 
1884	 1.61589031627524 
1885	 1.62656745147659 
1886	-0.215043816530234 
1887	-10.8206031214628 
1888	-3.59825946733717 
1889	-2.80325479445307 
1890	-0.459963302277506 
1891	 0.244701316058062 
1892	 1.40226140108356 
1893	 6.86757683975409 
1894	 6.84439405135535 
1895	 0.363660041771941 
1896	-0.689444865771008 
1897	-1.61929167421837 
1898	-1.7412537577523 
1899	-5.00760308732008 
1900	-6.38030330414161 
1901	-0.739730548902672 
1902	-0.924157860107642 
1903	-1.68498396121935 
1904	-4.3521742634224 
1905	 14.693249209793 
1906	 5.27501350737151 
1907	 2.09114423080399 
1908	 1.44177514841103 
1909	 1.42020715750685 
1910	 0.643782511217638 
1911	 0.71455372164271 
1912	 0.670712073877841 
1913	-1.46775354722221 
1914	 4.63254098055754 
1915	 8.39569468464119 
1916	-1.98135857547251 
1917	-2.50504435678738 
1918	-4.13971687018811 
1919	 1.38838372675748 
1920	 0.637202989379075 
1921	 8.07880255811623E-02 
1922	-0.427095911416417 
1923	-0.619399492937626 
1924	-0.491059733298001 
1925	-0.307737327438184 
1926	-0.199883302561149 
1927	 0.164977008047743 
1928	 6.86334010516351E-02 
1929	 3.09820277831351E-02 
1930	-0.325140859205469 
1931	-0.396420985567961 
1932	-0.094707232683811 
1933	-6.19015164176189E-02 
1934	 8.85166071287302E-02 
1935	 0.324927012681258 
1936	 0.29170078672784 
1937	 8.86185816084025E-02 
1938	 6.61228462569392E-02 
1939	 0.116948897332997 
1940	 0.20072769197451 
1941	 0.244769855616345 
1942	 0.297689243651986 
1943	 0.314009668459476 
1944	 0.257198915830533 
1945	 0.26136759881417 
1946	 0.304765516647283 
1947	 0.346638058228099 
1948	 0.402020598392423 
1949	 0.407116360303667 
1950	 0.384243478621384 
1951	 0.369928126819614 
1952	 0.363388431610317 
1953	 0.350478921272213 
1954	 0.348496334676571 
1955	 0.367007657394617 
1956	 0.363728291038723 
1957	 0.367872602456745 
1958	 0.375417842199796 
1959	 0.365871829799336 
1960	 0.363213471289988 
1961	 0.362385476416992 
1962	 0.35570486413944 
1963	 0.360604059862907 
1964	 0.367046368262267 
1965	 0.362836113161604 
1966	 0.361285240931256 
1967	 0.360125184611266 
1968	 0.35824758977128 
1969	 0.359955366039033 
1970	 0.360769946741825 
1971	 0.365704102720639 
1972	 0.359755684756714 
1973	 0.346698649642101 
1974	 0.332246466695851 
1975	 0.312879597623663 
1976	 0.299614070436375 
1977	 0.289381108159483 
1978	 0.280919894617337 
1979	 0.272103706666714 
1980	 0.264054364047633 
1981	 0.255909385340729 
1982	 0.248637713668771 
1983	 0.243339174405963 
1984	 0.240082470037658 
1985	 0.236945028606643 
1986	 0.234043091991844 
1987	 0.233263375857151 
1988	 0.23342834350871 
1989	 0.234640098481502 
1990	 0.237149302314036 
1991	 0.241281531751021 
1992	 0.246302345185996 
1993	 0.253785968989261 
1994	 0.264664283835828 
1995	 0.280985496604636 
1996	 0.297716740505678 
1997	 0.324965676617422 
1998	 0.345849609929285 
1999	 0.360774535400894 
2000	 0.374409654188641 
2001	 0.364722638439083 
2002	 0.363366838533154 
2003	 0.361967298794747 
2004	 0.362693216665606 
2005	 0.358794602958968 
2006	 0.351036589350398 
2007	 0.349725005840723 
2008	 0.348712122707976 
2009	 0.350944752292393 
2010	 0.363436919993625 
2011	 0.368231437561504 
2012	 0.37058784429084 
2013	 0.372560903757619 
2014	 0.370257614291172 
2015	 0.370558771137818 
2016	 0.37365557964074 
2017	 0.37199525636325 
2018	 0.375884506079054 
2019	 0.368641012151737 
2020	 0.360328995706747 
2021	 0.343173558962832 
2022	 0.318329846546435 
2023	 0.298826664206763 
2024	 0.280108804514652 
2025	 0.258728620719345 
2026	 0.244203739793533 
2027	 0.232727326653406 
2028	 0.221421157736987 
2029	 0.211841674498027 
2030	 0.205032089454072 
2031	 0.198780031725538 
2032	 0.193470836874741 
2033	 0.189110643319444 
2034	 0.18633762518126 
2035	 0.183827562953049 
2036	 0.180844673342496 
2037	 0.179750448345567 
2038	 0.178976548811639 
2039	 0.17911095024063 
2040	 0.180704606684733 
2041	 0.182386981867049 
2042	 0.184647276677552 
2043	 0.187100855389763 
2044	 0.189700120146553 
2045	 0.193301999204415 
2046	 0.197520922010097 
2047	 0.20209129134465 
2048	 0.20800074587879 
2049	 0.214338418834989 
2050	 0.219986259744934 
2051	 0.226690176856376 
2052	 0.233482790960858 
2053	 0.237445070960292 
2054	 0.242035948289806 
2055	 0.247478619534992 
2056	 0.250257724942196 
2057	 0.250479532189567 
2058	 0.251294742225603 
2059	 0.250762675612552 
2060	 0.249479274738856 
2061	 0.247316353367168 
2062	 0.246093245243694 
2063	 0.244069917416518 
2064	 0.241711305812365 
2065	 0.240925315246768 
2066	 0.240723774972947 
2067	 0.237039708833396 
2068	 0.233591134851183 
2069	 0.232529163462912 
2070	 0.229833426059333 
2071	 0.225104698672393 
2072	 0.220880767354711 
2073	 0.21766940026169 
2074	 0.21324568448418 
2075	 0.208362987072091 
2076	 0.205190136007545 
2077	 0.201684759954845 
2078	 0.195793675701215 
2079	 0.191267807475963 
2080	 0.187641852587525 
2081	 0.185294195792423 
2082	 0.18301199920222 
2083	 0.182541063998963 
2084	 0.183354122606209 
2085	 0.183037785219132 
2086	 0.182453022583788 
2087	 0.180620736065917 
2088	 0.178361700072781 
2089	 0.177429866269681 
2090	 0.176346189258228 
2091	 0.174930497982231 
2092	 0.174548942186511 
2093	 0.175629882166762 
2094	 0.175966732756256 
2095	 0.177035916315488 
2096	 0.176935922842755 
2097	 0.175783888756245 
2098	 0.175260450580651 
2099	 0.174504715238457 
2100	 0.173480011326254 
2101	 0.172993870049738 
2102	 0.17200804878316 
2103	 0.171131959999291 
2104	 0.170919768969679 
2105	 0.170831155969863 
2106	 0.170545166766961 
2107	 0.170423835529395 
2108	 0.169869838912028 
2109	 0.168668547074371 
2110	 0.168397265567661 
2111	 0.169539292584843 
2112	 0.170699589556579 
2113	 0.171382425378925 
2114	 0.172659052248302 
2115	 0.173772972055351 
2116	 0.174023042258727 
2117	 0.174440311582907 
2118	 0.176279197396174 
2119	 0.176563117781569 
2120	 0.175828784890967 
2121	 0.174307175223271 
2122	 0.173918551555296 
2123	 0.173217250425662 
2124	 0.172505844124033 
2125	 0.172942877529436 
2126	 0.172572410834639 
2127	 0.17143976930063 
2128	 0.171864268052694 
2129	 0.172087004232585 
2130	 0.172315055816029 
2131	 0.173729621977902 
2132	 0.174264410378647 
2133	 0.174140760728669 
2134	 0.173983921172682 
2135	 0.173002838363215 
2136	 0.173052452431755 
2137	 0.173770261709101 
2138	 0.173703951580756 
2139	 0.173629034868065 
2140	 0.174008704201602 
2141	 0.173464688621053 
2142	 0.174251812315497 
2143	 0.176482886012456 
2144	 0.17847141203185 
2145	 0.180098278943974 
2146	 0.181992461057108 
2147	 0.18347739154875 
2148	 0.184260443981446 
2149	 0.186126643866693 
2150	 0.187603076550546 
2151	 0.188799789843521 
2152	 0.191380099245081 
2153	 0.193198757953653 
2154	 0.194715903133035 
2155	 0.196519876600249 
2156	 0.198223395998407 
2157	 0.200173636854744 
2158	 0.202505802115248 
2159	 0.203573185900167 
2160	 0.204520595499409 
2161	 0.205164818371648 
2162	 0.204772348882456 
2163	 0.203895170070269 
2164	 0.203443652574564 
2165	 0.201622897889785 
2166	 0.197445539265838 
2167	 0.194765582389423 
2168	 0.192026193692838 
2169	 0.190191207396629 
2170	 0.18898065739255 
2171	 0.1886658829821 
2172	 0.187549727143529 
2173	 0.184034894565889 
2174	 0.182471664015035 
2175	 0.180925958332928 
2176	 0.178964836259185 
2177	 0.179223687396129 
2178	 0.178616957778636 
2179	 0.177149566612944 
2180	 0.176004263756176 
2181	 0.175365153921209 
2182	 0.174128638850166 
2183	 0.172468133211978 
2184	 0.172029752111834 
2185	 0.171500683676341 
2186	 0.170047584625828 
2187	 0.166612347140915 
2188	 0.165425887942957 
2189	 0.16522036775961 
2190	 0.164650752765846 
2191	 0.16542792618847 
2192	 0.164762456185579 
2193	 0.162783837580776 
2194	 0.161303450361676 
2195	 0.159303505274466 
2196	 0.157888895426412 
2197	 0.157172187563258 
2198	 0.155832226420359 
2199	 0.153757754235207 
2200	 0.153370693081376 
2201	 0.151814476707626 
2202	 0.151810407292765 
2203	 0.152653360337346 
2204	 0.151284937406128 
2205	 0.148619894351927 
2206	 0.146467616904818 
2207	 0.147033321828176 
2208	 0.14619462705734 
2209	 0.146121248586872 
2210	 0.146093039058248 
2211	 0.143277589394549 
2212	 0.142527826278631 
2213	 0.143477283622233 
2214	 0.143273164779989 
2215	 0.141697168887901 
2216	 0.141173952182969 
2217	 0.140371236998084 
2218	 0.138627554899249 
2219	 0.138042791563075 
2220	 0.13810864774214 
2221	 0.137500770530098 
2222	 0.137925840229407 
2223	 0.137453528001 
2224	 0.135273831039934 
2225	 0.135654214485546 
2226	 0.136811944622022 
2227	 0.136985514055521 
2228	 0.139258826780194 
2229	 0.139405551512295 
2230	 0.137523531128745 
2231	 0.136409210484422 
2232	 0.135175878877845 
2233	 0.134192379263841 
2234	 0.133073945839084 
2235	 0.131478933542419 
2236	 0.131275807016878 
2237	 0.130883369476145 
2238	 0.131295950965644 
2239	 0.13162922526106 
2240	 0.132714554310802 
2241	 0.132812624665614 
2242	 0.131468197376731 
2243	 0.131700425118164 
2244	 0.132661362733581 
2245	 0.134592021560888 
2246	 0.138042537914741 
2247	 0.140467762536304 
2248	 0.139289760508316 
2249	 0.136569295731061 
2250	 0.134926990186211 
2251	 0.13381526359851 
2252	 0.13230333390746 
2253	 0.132736942040042 
2254	 0.134664966305387 
2255	 0.134478965181525 
2256	 0.13618429831855 
2257	 0.139445215498693 
2258	 0.142220857377224 
2259	 0.1456463579192 
2260	 0.1470641479948 
2261	 0.148666495746042 
2262	 0.149422795550726 
2263	 0.146486246707005 
2264	 0.145572056387669 
2265	 0.146581471244635 
2266	 0.147203988597284 
2267	 0.147116373441737 
2268	 0.14814875915343 
2269	 0.150173112354341 
2270	 0.151356447681743 
2271	 0.153492025787069 
2272	 0.154213933781016 
2273	 0.153733199085159 
2274	 0.153020770199426 
2275	 0.15159055831269 
2276	 0.150188028267107 
2277	 0.147920691707227 
2278	 0.148147193863578 
2279	 0.147515608821173 
2280	 0.148122048911952 
2281	 0.151645158649669 
2282	 0.155167239905134 
2283	 0.155186071539989 
2284	 0.157879748964976 
2285	 0.159042180400785 
2286	 0.158537100762637 
2287	 0.160727009688344 
2288	 0.160446171767271 
2289	 0.158886675424526 
2290	 0.158774212651583 
2291	 0.15637511077076 
2292	 0.15432348321374 
2293	 0.15416961529913 
2294	 0.156714483445577 
2295	 0.158581297763059 
2296	 0.160996432686539 
2297	 0.16269945289027 
2298	 0.15778172194135 
2299	 0.153691272202102 
2300	 0.156297587636798 
2301	 0.161666325431388 
2302	 0.1635652625085 
2303	 0.161936253076504 
2304	 0.156429530908317 
2305	 0.150309241722786 
2306	 0.150800742022432 
2307	 0.154915166192255 
2308	 0.15957380066814 
2309	 0.163714224265139 
2310	 0.162094529757241 
2311	 0.162964847561067 
2312	 0.165354667782488 
2313	 0.162249457028579 
2314	 0.165043786463186 
2315	 0.16730037523344 
2316	 0.162182595961945 
2317	 0.161200940646125 
2318	 0.163917879770136 
2319	 0.166575110388872 
2320	 0.170723293684849 
2321	 0.172611543313676 
2322	 0.171261118448403 
2323	 0.168842197856478 
2324	 0.171300562415471 
2325	 0.178508814135473 
2326	 0.179750826906722 
2327	 0.176506566158689 
2328	 0.173132398744475 
2329	 0.165664633526954 
2330	 0.160141605010347 
2331	 0.16078529091097 
2332	 0.162372861732362 
2333	 0.166426648465405 
2334	 0.165490793364374 
2335	 0.160990755600651 
2336	 0.15879288871636 
2337	 0.155326394496055 
2338	 0.155985898594834 
2339	 0.153525680431601 
2340	 0.14969933598764 
2341	 0.146278603669132 
2342	 0.143719633422117 
2343	 0.157353998132141 
2344	 0.167875305918025 
2345	 0.171481626762202 
2346	 0.179171540710908 
2347	 0.168843624201273 
2348	 0.158130094956023 
2349	 0.150877892087197 
2350	 0.14430223876649 
2351	 0.159930856844818 
2352	 0.160703077438646 
2353	 0.155483238677046 
2354	 0.16458810599214 
2355	 0.152578159998567 
2356	 0.146546679316756 
2357	 0.147764586797203 
2358	 0.139691079746199 
2359	 0.144302914253982 
2360	 0.138957123786985 
2361	 0.130970277267595 
2362	 0.132357366836592 
2363	 0.12722327351344 
2364	 0.133004824973036 
2365	 0.14579003052756 
2366	 0.154626727330161 
2367	 0.171376042176371 
2368	 0.174624964132137 
2369	 0.164132313073707 
2370	 0.158039281932856 
2371	 0.129503725540762 
2372	 0.103416268488931 
2373	 0.11476948938671 
2374	 0.130281918431772 
2375	 0.138213682848544 
2376	 0.140841649172471 
2377	 0.13358968832571 
2378	 0.12938443715952 
2379	 0.127003185440113 
2380	 0.143734933925893 
2381	 0.153089516963266 
2382	 0.136068524929489 
2383	 0.131112982090156 
2384	 0.110068386161484 
2385	 0.103027891509684 
2386	 0.125449588136497 
2387	 0.123389449752408 
2388	 0.122722400378463 
2389	 0.122417087395997 
2390	 0.115635751644765 
2391	 0.132130863654826 
2392	 0.158145408193673 
2393	 0.168825244511504 
2394	 0.152829626265759 
2395	 0.12902796207059 
2396	 0.133131770204749 
2397	 0.153979360199418 
2398	 0.161067091422344 
2399	 0.160416802406994 
2400	 0.137123384670696 
2401	 0.115935050820562 
2402	 0.137432872224914 
2403	 0.152396185849349 
2404	 0.140687631240139 
2405	 0.124342288822391 
2406	 8.54870521467067E-02 
2407	 5.12113441040195E-02 
2408	 0.068600269418948 
2409	 8.38231615901168E-02 
2410	 7.78610807632068E-02 
2411	 7.28319700586547E-02 
2412	 4.43191019119569E-02 
2413	-0.01444295055305 
2414	-3.66160612456077E-02 
2415	-7.44752947562641E-02 
2416	-0.122808516254523 
2417	-0.130266515237421 
2418	-0.121347237292085 
2419	-4.81511377754989E-03 
2420	 0.108807431443965 
2421	 0.123936244330958 
2422	 0.128728639702157 
2423	 0.15611019465955 
2424	 0.159075884131717 
2425	 0.167474523172502 
2426	 0.167902202248613 
2427	 5.97286717076233E-02 
2428	 1.37648208558902E-02 
2429	 8.22235296172733E-02 
2430	 0.145948508591437 
2431	 0.188978425015018 
2432	 0.228938762215511 
2433	 0.204668275826405 
2434	 0.14542856139127 
2435	 0.148308018944096 
2436	 8.70673959573591E-02 
2437	 4.52283805072568E-03 
2438	-2.09016688242601E-02 
2439	-6.98314114824427E-02 
2440	-5.85894931610077E-02 
2441	 4.56954190708775E-02 
2442	 5.37605764699621E-02 
2443	-1.45824483374269E-02 
2444	-4.19026813877067E-02 
2445	-0.277413628220022 
2446	-0.665734677904703 
2447	 0.119015054492097 
2448	 1.1317138197682 
2449	 0.687106365735516 
2450	 0.796330212232294 
2451	-0.126861310410787 
2452	-0.559853031838338 
2453	-0.142471422466493 
2454	-0.392817737244198 
2455	-0.386129002069265 
2456	-0.244857111581976 
2457	-0.50493708711841 
2458	-0.499892676597776 
2459	-0.317865942839625 
2460	-0.117067709991434 
2461	 0.439842852942772 
2462	 0.501820181527878 
2463	 0.527921043878553 
2464	 0.409917802547609 
2465	-5.03603542859892E-02 
2466	-0.202534896743794 
2467	-0.395625919685583 
2468	-1.30759461214179 
2469	-2.22903861180032 
2470	 4.54267411804398E-02 
2471	 2.46016089880598 
2472	 1.58662844292915 
2473	 0.909786563136834 
2474	 0.400689527822509 
2475	 0.193144211903398 
2476	-0.058260797670879 
2477	-0.169326726493035 
2478	-1.10155632868021 
2479	-2.234193746636 
2480	-0.762131590586946 
2481	-1.742669562303 
2482	-1.56561820142812 
2483	-1.27365872957044 
2484	 42.5627957148087 
2485	 0.618024990540777 
2486	 13.111060252318 
2487	 3.53699471919491 
2488	 1.54542803847261 
2489	 5.18221307314645 
2490	 1.67692388394366 
2491	 0.950943579303376 
2492	 1.52984984636238 
2493	 2.56667936164461 
2494	-0.950224026764776 
2495	-12.8415733425282 
2496	 2.51529120395075 
2497	 2.70161568758288 
2498	 0.63138440045842 
2499	-0.199838959679968 
2500	-166.920038961046 
