Wavelength	rt0711a200001.asd
350	 0.205331192085162 
351	 0.20757801836976 
352	 0.209930845283079 
353	 0.21195417826015 
354	 0.213681960282627 
355	 0.215899533126978 
356	 0.218646574734488 
357	 0.221545400817015 
358	 0.223994247638198 
359	 0.225082694690536 
360	 0.226842654068224 
361	 0.229309120695068 
362	 0.23108734632488 
363	 0.231618528444778 
364	 0.232613836043996 
365	 0.234667334073047 
366	 0.236319241602434 
367	 0.238354479841798 
368	 0.240651727265015 
369	 0.243015118913474 
370	 0.245892160476249 
371	 0.248228324249536 
372	 0.250113753825423 
373	 0.25221724452988 
374	 0.253614060956217 
375	 0.255083848032992 
376	 0.256853224031731 
377	 0.258189276549338 
378	 0.259560275984445 
379	 0.261357846772252 
380	 0.263645872709252 
381	 0.265557636808385 
382	 0.268049124811754 
383	 0.270410526170276 
384	 0.271355824894357 
385	 0.271585323874599 
386	 0.271471591599601 
387	 0.271496037443046 
388	 0.272213122102855 
389	 0.273086217286204 
390	 0.274170122997868 
391	 0.275575082987065 
392	 0.277387153347695 
393	 0.278437851609821 
394	 0.278600947485553 
395	 0.27817347254157 
396	 0.277016741739077 
397	 0.275606771258588 
398	 0.274194635816448 
399	 0.272811521735564 
400	 0.271972732828121 
401	 0.271620398807898 
402	 0.271584638701083 
403	 0.271720437419815 
404	 0.271918818433137 
405	 0.272005028790937 
406	 0.271783641701898 
407	 0.271049413147461 
408	 0.270095483938413 
409	 0.269033992076888 
410	 0.267782318374998 
411	 0.266768599978881 
412	 0.266003381533681 
413	 0.265350964108128 
414	 0.264553215918254 
415	 0.263773674971254 
416	 0.262986491078987 
417	 0.262130867659535 
418	 0.261412810604144 
419	 0.260711714502793 
420	 0.259945949317713 
421	 0.25910550198826 
422	 0.258324737773107 
423	 0.25772706239019 
424	 0.257478211615318 
425	 0.257901117583158 
426	 0.258620914413146 
427	 0.259376291355063 
428	 0.26000089959237 
429	 0.260631989333545 
430	 0.260937323755499 
431	 0.260796259928983 
432	 0.260379030077664 
433	 0.260120326841516 
434	 0.26030745229195 
435	 0.260949712798504 
436	 0.261511634578647 
437	 0.261843345731233 
438	 0.261907042215456 
439	 0.261742515168207 
440	 0.261356398931399 
441	 0.260784885674807 
442	 0.260143679788195 
443	 0.259656814071261 
444	 0.259230049023151 
445	 0.258659027688214 
446	 0.257795295103846 
447	 0.256802543233538 
448	 0.255736219137071 
449	 0.254804255125058 
450	 0.254272292366312 
451	 0.253757008354643 
452	 0.253293131437987 
453	 0.252828938764029 
454	 0.252007711034093 
455	 0.251024481876383 
456	 0.250093669753842 
457	 0.249375472427549 
458	 0.24866820525792 
459	 0.248002804022171 
460	 0.24729960110937 
461	 0.246385492246869 
462	 0.24569178863185 
463	 0.245171075577812 
464	 0.244676206945839 
465	 0.244091410126365 
466	 0.243450706702785 
467	 0.24279771681904 
468	 0.242159722155411 
469	 0.241381924916841 
470	 0.240672525616314 
471	 0.240053017623813 
472	 0.239256530129861 
473	 0.238769683265551 
474	 0.2384884821571 
475	 0.238168106351039 
476	 0.237691756784293 
477	 0.23711946359913 
478	 0.236562061021603 
479	 0.236130745103483 
480	 0.235517587066128 
481	 0.235183314935233 
482	 0.235413684682805 
483	 0.235972549792188 
484	 0.236638285488812 
485	 0.237009523478501 
486	 0.236734191529329 
487	 0.235877091536233 
488	 0.235283990154869 
489	 0.235350769940671 
490	 0.235959836013737 
491	 0.236549965266527 
492	 0.236843196473502 
493	 0.236793332678316 
494	 0.236693669101088 
495	 0.236870158174681 
496	 0.237322515879634 
497	 0.237860854997782 
498	 0.238444211036166 
499	 0.23889620215187 
500	 0.239176779315573 
501	 0.239468916305016 
502	 0.239511335598742 
503	 0.239376775602646 
504	 0.239274550387383 
505	 0.239515400125533 
506	 0.239885713345561 
507	 0.240175586140801 
508	 0.240215832986017 
509	 0.240176326791559 
510	 0.240266073195337 
511	 0.24055966656615 
512	 0.24081553923701 
513	 0.241182661450852 
514	 0.241910025215873 
515	 0.24314310120542 
516	 0.244127653232312 
517	 0.244556828128481 
518	 0.244605782585747 
519	 0.244949429670775 
520	 0.245838383810222 
521	 0.246949889881772 
522	 0.247978307229721 
523	 0.249099609359856 
524	 0.250982249218648 
525	 0.253397413767723 
526	 0.25546789543482 
527	 0.25681325475211 
528	 0.258147300978631 
529	 0.260104635536628 
530	 0.26292527069584 
531	 0.26591976029841 
532	 0.268791297726723 
533	 0.271475004243575 
534	 0.274280828693464 
535	 0.277557095132286 
536	 0.281263707018385 
537	 0.284925355422895 
538	 0.288865113151573 
539	 0.292916526616278 
540	 0.296826151639308 
541	 0.300426854355998 
542	 0.304112028458988 
543	 0.307931405413787 
544	 0.311730383317863 
545	 0.315572490713378 
546	 0.319263108535015 
547	 0.322659738428242 
548	 0.325753825799215 
549	 0.328829164729217 
550	 0.331873520889614 
551	 0.334774554982794 
552	 0.337520264196004 
553	 0.340117772115027 
554	 0.342718806618357 
555	 0.345609283924904 
556	 0.348591886854922 
557	 0.351595666770928 
558	 0.354496149664613 
559	 0.356974760483278 
560	 0.359678367966021 
561	 0.362719816190824 
562	 0.365888396939708 
563	 0.369283957156828 
564	 0.372706469037872 
565	 0.375949203510999 
566	 0.378848300655516 
567	 0.381846657279286 
568	 0.38477541391714 
569	 0.387243865305848 
570	 0.389120515991015 
571	 0.390561270644667 
572	 0.391933974113018 
573	 0.39377159039482 
574	 0.395449479461862 
575	 0.396970358872359 
576	 0.398474650519519 
577	 0.400113746601765 
578	 0.401517299640958 
579	 0.402862414737575 
580	 0.404617225882868 
581	 0.406501546136444 
582	 0.408338775595173 
583	 0.410075178843232 
584	 0.41187423315138 
585	 0.41310340061103 
586	 0.41430830345804 
587	 0.416227579804857 
588	 0.418018860852049 
589	 0.418784707105447 
590	 0.418697823750764 
591	 0.419042568478175 
592	 0.419651890557793 
593	 0.420277214581341 
594	 0.420703001714327 
595	 0.420963181788365 
596	 0.421423327360425 
597	 0.421980257659119 
598	 0.422307130011587 
599	 0.422827649221458 
600	 0.423468976645878 
601	 0.424123489424698 
602	 0.424733479122603 
603	 0.425388644008024 
604	 0.426037476667246 
605	 0.426605815418629 
606	 0.427162684522562 
607	 0.427718357678729 
608	 0.428224183934558 
609	 0.428581052097646 
610	 0.428960349419245 
611	 0.429460983872532 
612	 0.430058737783602 
613	 0.430417527032263 
614	 0.430877342323706 
615	 0.431373059638182 
616	 0.431644376889031 
617	 0.431922927094235 
618	 0.432303977349745 
619	 0.432811073762038 
620	 0.433385370711119 
621	 0.433881498845092 
622	 0.434307545586866 
623	 0.434725269893802 
624	 0.435161601655947 
625	 0.435547983177191 
626	 0.435953962265391 
627	 0.436555684926403 
628	 0.436909613028658 
629	 0.4372854021766 
630	 0.437866605533017 
631	 0.438238876314017 
632	 0.438487357396051 
633	 0.438770739780225 
634	 0.439243225729207 
635	 0.439653069460795 
636	 0.439988098091736 
637	 0.440320293316134 
638	 0.440811344344408 
639	 0.441258452412524 
640	 0.441594867385692 
641	 0.441841715970051 
642	 0.442196374378837 
643	 0.442501508303636 
644	 0.442782756981786 
645	 0.443200658288967 
646	 0.443543072866703 
647	 0.443868774072029 
648	 0.444190620582266 
649	 0.444292954168542 
650	 0.444465360912976 
651	 0.444584728714977 
652	 0.444443059971543 
653	 0.444380335953978 
654	 0.444622570152393 
655	 0.444950679157024 
656	 0.444538849313423 
657	 0.444122064334641 
658	 0.443837030818659 
659	 0.443631459204141 
660	 0.443384389612257 
661	 0.443126304761348 
662	 0.44285217856087 
663	 0.442548481918089 
664	 0.442279387348292 
665	 0.442084632757403 
666	 0.441933321499366 
667	 0.441681551376976 
668	 0.441447134957586 
669	 0.441321830907246 
670	 0.441354577199695 
671	 0.441420776820088 
672	 0.441573787189504 
673	 0.441809441491425 
674	 0.442063444897021 
675	 0.442292641300034 
676	 0.442525271100032 
677	 0.442747265428243 
678	 0.442751120475077 
679	 0.443024578095252 
680	 0.443535152832471 
681	 0.444038568496438 
682	 0.444727612102914 
683	 0.445335371717338 
684	 0.44581700575673 
685	 0.446521958373267 
686	 0.447722791968531 
687	 0.448764011465218 
688	 0.449063836396858 
689	 0.449543424498232 
690	 0.449999705532336 
691	 0.450422067356677 
692	 0.450892125361198 
693	 0.451209605202032 
694	 0.451525736791115 
695	 0.451828975185156 
696	 0.451787944268025 
697	 0.451852844889746 
698	 0.452006297339581 
699	 0.452090769856977 
700	 0.452060076435564 
701	 0.452046572361318 
702	 0.45198856632634 
703	 0.451688280380014 
704	 0.451397640710648 
705	 0.451126184228557 
706	 0.450827841095747 
707	 0.450402302677564 
708	 0.449971005405005 
709	 0.449504432367155 
710	 0.448933191792794 
711	 0.448325662540539 
712	 0.447593193431679 
713	 0.44668018610601 
714	 0.445560695237572 
715	 0.444538807292488 
716	 0.443813243660608 
717	 0.443459221559806 
718	 0.442753750318074 
719	 0.441947220785898 
720	 0.440779974014072 
721	 0.438942453523965 
722	 0.437652896027441 
723	 0.436782324066522 
724	 0.436022644645907 
725	 0.434598545387008 
726	 0.433162856842039 
727	 0.431608840135157 
728	 0.429830227617772 
729	 0.428156151287457 
730	 0.426311914050938 
731	 0.424314918912959 
732	 0.422294850001005 
733	 0.420542394257012 
734	 0.419088290076636 
735	 0.417934271036946 
736	 0.417045313728623 
737	 0.416267324573353 
738	 0.415642046469172 
739	 0.415222298046935 
740	 0.414901777413749 
741	 0.414574040115572 
742	 0.414300574195142 
743	 0.414198642110028 
744	 0.414079095219336 
745	 0.413946696814269 
746	 0.413834625922891 
747	 0.413783469672638 
748	 0.413803088796709 
749	 0.413758997119562 
750	 0.41359835423709 
751	 0.413661652471189 
752	 0.413623389864812 
753	 0.413510396916507 
754	 0.41350156580527 
755	 0.413388064335996 
756	 0.412516610809536 
757	 0.411044632503499 
758	 0.41024606402375 
759	 0.413351973722132 
760	 0.417685162756711 
761	 0.415980399186556 
762	 0.416749166250804 
763	 0.417277745556279 
764	 0.416867060247413 
765	 0.415846742334965 
766	 0.415115270507789 
767	 0.414644506733669 
768	 0.414365118299734 
769	 0.41423771533831 
770	 0.414385403033757 
771	 0.414525143504267 
772	 0.414521302211965 
773	 0.414880925639487 
774	 0.415069605346488 
775	 0.41516969358519 
776	 0.415457403951503 
777	 0.41557217630289 
778	 0.415842250237082 
779	 0.416210370874058 
780	 0.416233027725628 
781	 0.416526365444747 
782	 0.416922249617398 
783	 0.41722231938612 
784	 0.417488419884838 
785	 0.417806665114271 
786	 0.418222359950369 
787	 0.418718044694363 
788	 0.419093342521993 
789	 0.419448525765045 
790	 0.41986780183498 
791	 0.420371798086825 
792	 0.420534187579965 
793	 0.420776241761326 
794	 0.421337721662941 
795	 0.421980301750451 
796	 0.421969814789489 
797	 0.421905415886318 
798	 0.42240645888919 
799	 0.422775652664828 
800	 0.423146974014734 
801	 0.42348825030385 
802	 0.423701798840176 
803	 0.423864515373469 
804	 0.423816818366716 
805	 0.423594081638185 
806	 0.423455112798744 
807	 0.423543970690112 
808	 0.423504712417284 
809	 0.423079255456374 
810	 0.422487976446458 
811	 0.422029168307435 
812	 0.42193155373417 
813	 0.422274331184911 
814	 0.4225532590279 
815	 0.422454375567813 
816	 0.422186919356457 
817	 0.422168965023525 
818	 0.420884830643684 
819	 0.418659242030786 
820	 0.416885763280819 
821	 0.418224128096246 
822	 0.418537046287101 
823	 0.416479399298856 
824	 0.41297544131492 
825	 0.411146178831077 
826	 0.410017855764644 
827	 0.408758620973912 
828	 0.406759799308229 
829	 0.40463933859952 
830	 0.402905317255584 
831	 0.40156250303699 
832	 0.400268985217178 
833	 0.398930527747547 
834	 0.397717376471403 
835	 0.396747784545097 
836	 0.396029562471158 
837	 0.395211178315686 
838	 0.394476275569535 
839	 0.393986871091843 
840	 0.393539262313182 
841	 0.39305834851917 
842	 0.392649020887581 
843	 0.392374597880779 
844	 0.391761173093814 
845	 0.390962800893497 
846	 0.390326896878232 
847	 0.390222780296392 
848	 0.390231893433088 
849	 0.389753060462191 
850	 0.388779616805486 
851	 0.388083767921111 
852	 0.38872758206481 
853	 0.389544195100488 
854	 0.389253479998747 
855	 0.387489616351788 
856	 0.386592676545371 
857	 0.386386687605735 
858	 0.386116107187808 
859	 0.38593185713739 
860	 0.385546681317983 
861	 0.384798638274605 
862	 0.383826214313346 
863	 0.383961695976266 
864	 0.38443198158247 
865	 0.384598861676301 
866	 0.38415156971684 
867	 0.383107245683909 
868	 0.382142400178032 
869	 0.381598972719959 
870	 0.381271291279548 
871	 0.380973458790948 
872	 0.380487737208298 
873	 0.379848933378263 
874	 0.379648767677717 
875	 0.379070256043367 
876	 0.378285963550842 
877	 0.377704494840471 
878	 0.377372404433322 
879	 0.376961108067252 
880	 0.376354756978623 
881	 0.375584441675666 
882	 0.374706260964436 
883	 0.374064597008795 
884	 0.373669097731105 
885	 0.373247854214617 
886	 0.372653277875289 
887	 0.371813709357943 
888	 0.370836503711488 
889	 0.369983051012243 
890	 0.368963318875613 
891	 0.368273179989138 
892	 0.368135889672373 
893	 0.368020594965743 
894	 0.367853051305614 
895	 0.368077297657792 
896	 0.368790045135807 
897	 0.368505664182865 
898	 0.369287129518131 
899	 0.369835975831924 
900	 0.368394899631787 
901	 0.365894622387654 
902	 0.362808326507381 
903	 0.360402143798417 
904	 0.359848778232757 
905	 0.360789304025328 
906	 0.3627031755462 
907	 0.363853522070417 
908	 0.362193024461598 
909	 0.360080465358009 
910	 0.358384354900135 
911	 0.357414143760166 
912	 0.357075953334231 
913	 0.357909700740169 
914	 0.357968574883568 
915	 0.356595728825164 
916	 0.354911757081152 
917	 0.352026272578943 
918	 0.349032332221314 
919	 0.346766217729986 
920	 0.34534220877569 
921	 0.344428892264496 
922	 0.342778505363353 
923	 0.339987172603564 
924	 0.337717750256861 
925	 0.334652410012761 
926	 0.331945597245868 
927	 0.33107583054594 
928	 0.33173412337894 
929	 0.333265180893656 
930	 0.335494466496721 
931	 0.337995371179039 
932	 0.338440777745369 
933	 0.335503712239988 
934	 0.331378385408774 
935	 0.328038008082775 
936	 0.318310571020913 
937	 0.311166223016152 
938	 0.305670832443703 
939	 0.29953452565017 
940	 0.299652572381213 
941	 0.300820842433751 
942	 0.301657157058505 
943	 0.301997419373034 
944	 0.296752392212467 
945	 0.29288674304854 
946	 0.290381517681048 
947	 0.285351814961084 
948	 0.282295745209267 
949	 0.277888852615121 
950	 0.274058978128753 
951	 0.274631939026614 
952	 0.271816680244936 
953	 0.268053088453979 
954	 0.264304327094287 
955	 0.26049178254239 
956	 0.260619356215165 
957	 0.260274237159422 
958	 0.25724341474144 
959	 0.252530884533667 
960	 0.25302123924536 
961	 0.25164654602334 
962	 0.249070533195554 
963	 0.25095828305635 
964	 0.250631633296858 
965	 0.247182930024792 
966	 0.243138995914484 
967	 0.242110518647981 
968	 0.238639666273777 
969	 0.238031335402736 
970	 0.240376733375674 
971	 0.24109947172838 
972	 0.243648206923897 
973	 0.244572522893139 
974	 0.244160804025487 
975	 0.246040070854555 
976	 0.243628978795764 
977	 0.24226632099538 
978	 0.242402043013102 
979	 0.240079784673207 
980	 0.242427916193035 
981	 0.243397067893789 
982	 0.242316129721205 
983	 0.243281299166483 
984	 0.242532602706709 
985	 0.241737618999358 
986	 0.241605712109678 
987	 0.241805118124811 
988	 0.243747357441077 
989	 0.243803726640516 
990	 0.243687487321613 
991	 0.247422258533207 
992	 0.243725380358813 
993	 0.243665987674243 
994	 0.246474190421482 
995	 0.24421367012985 
996	 0.247860266234177 
997	 0.248870227806333 
998	 0.247338344195778 
999	 0.248917106094816 
1000	 0.25304396882968 
1001	 0.195909339763438 
1002	 0.19717559250946 
1003	 0.198223282502015 
1004	 0.199021786666882 
1005	 0.200151043858056 
1006	 0.201279010561254 
1007	 0.202749013378506 
1008	 0.204288661450867 
1009	 0.205517934846428 
1010	 0.206908154934411 
1011	 0.208255618613313 
1012	 0.209112119394762 
1013	 0.210069991038629 
1014	 0.211164600458448 
1015	 0.211976669199986 
1016	 0.213139446958159 
1017	 0.214737091052456 
1018	 0.216211885247091 
1019	 0.217741399016299 
1020	 0.219184037252922 
1021	 0.220779106375971 
1022	 0.222068999843172 
1023	 0.22330281451732 
1024	 0.224744848610443 
1025	 0.225969445354221 
1026	 0.22758009705693 
1027	 0.229037019494888 
1028	 0.230463488655019 
1029	 0.231853883247943 
1030	 0.233382659404372 
1031	 0.234633746575057 
1032	 0.235813461244192 
1033	 0.236825949422042 
1034	 0.237490971355329 
1035	 0.238345275278286 
1036	 0.23916184362065 
1037	 0.240006845214777 
1038	 0.24078437885809 
1039	 0.241749916088716 
1040	 0.243302362158724 
1041	 0.244630741674161 
1042	 0.245730599528485 
1043	 0.247059815502617 
1044	 0.248064198824386 
1045	 0.248615065246084 
1046	 0.249220588581268 
1047	 0.249845622112988 
1048	 0.250438510517354 
1049	 0.250709943823385 
1050	 0.251204519746992 
1051	 0.251880745082829 
1052	 0.252536224761793 
1053	 0.253218187734423 
1054	 0.253883388878865 
1055	 0.25467732097577 
1056	 0.255347393366828 
1057	 0.255949491521597 
1058	 0.256474573059903 
1059	 0.256949758805713 
1060	 0.257186400292209 
1061	 0.257851272276573 
1062	 0.258882550557163 
1063	 0.259374779648342 
1064	 0.260039188727895 
1065	 0.260266459731386 
1066	 0.259422138717361 
1067	 0.259568752990905 
1068	 0.260315763380721 
1069	 0.260660815274113 
1070	 0.261339749782325 
1071	 0.261798686981331 
1072	 0.262059867628556 
1073	 0.261994625068236 
1074	 0.261815286469468 
1075	 0.261395575219006 
1076	 0.261453105616646 
1077	 0.261378931517987 
1078	 0.261530327681014 
1079	 0.262513872360358 
1080	 0.26256930426539 
1081	 0.262030097218633 
1082	 0.26173124606405 
1083	 0.260957951200566 
1084	 0.260691884131362 
1085	 0.261001071977686 
1086	 0.26087849974918 
1087	 0.260933549544578 
1088	 0.260623174752472 
1089	 0.259911122347716 
1090	 0.258794106985232 
1091	 0.258322160205565 
1092	 0.25804199922922 
1093	 0.257618484363725 
1094	 0.257670474973383 
1095	 0.257111183778881 
1096	 0.255754245337562 
1097	 0.255034906292634 
1098	 0.254522920491478 
1099	 0.253897447423192 
1100	 0.253628560209081 
1101	 0.253122103756105 
1102	 0.251965356652179 
1103	 0.251408413471504 
1104	 0.2514883273016 
1105	 0.251066139797719 
1106	 0.250315412606196 
1107	 0.249762343024926 
1108	 0.248506966985345 
1109	 0.247830045227111 
1110	 0.247374565758182 
1111	 0.247612903829929 
1112	 0.247314551445061 
1113	 0.247282975107939 
1114	 0.246518864247092 
1115	 0.244876872511555 
1116	 0.244228444976035 
1117	 0.24355641893664 
1118	 0.242557586541944 
1119	 0.242527320391111 
1120	 0.24185619123189 
1121	 0.240397245089403 
1122	 0.23848270214695 
1123	 0.237225861496008 
1124	 0.235380400891668 
1125	 0.230865807406449 
1126	 0.226152466065147 
1127	 0.221916689652037 
1128	 0.216748338013238 
1129	 0.213836871407659 
1130	 0.21435257338339 
1131	 0.210381836530535 
1132	 0.205956600823957 
1133	 0.20219200476899 
1134	 0.196109834386169 
1135	 0.192639250802338 
1136	 0.191295822973138 
1137	 0.18851049127663 
1138	 0.185545076982156 
1139	 0.182977636944091 
1140	 0.178176532582459 
1141	 0.174687081467537 
1142	 0.173679970581812 
1143	 0.170922632988747 
1144	 0.167786225501226 
1145	 0.165823683094892 
1146	 0.162220150751298 
1147	 0.159396068057141 
1148	 0.156769505886455 
1149	 0.153485777075923 
1150	 0.150400116779413 
1151	 0.146115254937769 
1152	 0.14397617949987 
1153	 0.143487671157759 
1154	 0.142175644273278 
1155	 0.141309872684283 
1156	 0.139961280891389 
1157	 0.13877232493841 
1158	 0.137884201949398 
1159	 0.137385236354042 
1160	 0.137023041255436 
1161	 0.136376722488884 
1162	 0.135708545391905 
1163	 0.13541671394587 
1164	 0.134927297730109 
1165	 0.134714176427707 
1166	 0.134563054804962 
1167	 0.13433393464932 
1168	 0.134301094043387 
1169	 0.133998909592039 
1170	 0.133739721763124 
1171	 0.133491024459364 
1172	 0.132932586086475 
1173	 0.13259922476019 
1174	 0.132461882927995 
1175	 0.132432184997299 
1176	 0.131720656610909 
1177	 0.131689527215654 
1178	 0.131855831580998 
1179	 0.131584285544708 
1180	 0.131498719273697 
1181	 0.131482568109936 
1182	 0.131162568972327 
1183	 0.130860649226641 
1184	 0.130833674309418 
1185	 0.131049223473739 
1186	 0.130973492285635 
1187	 0.130698661998868 
1188	 0.130795455236279 
1189	 0.130616725066417 
1190	 0.130302578865159 
1191	 0.130438807351026 
1192	 0.130432215508243 
1193	 0.13038465135018 
1194	 0.130121242212944 
1195	 0.130153989162085 
1196	 0.130111451584569 
1197	 0.129644222882407 
1198	 0.129518960086912 
1199	 0.129767573198673 
1200	 0.129807309337319 
1201	 0.129980277300996 
1202	 0.13037085502163 
1203	 0.130358094877112 
1204	 0.1303620530738 
1205	 0.130597645634415 
1206	 0.130836201770624 
1207	 0.130997726684932 
1208	 0.130904096315282 
1209	 0.131017890268268 
1210	 0.131202538785634 
1211	 0.13125631976093 
1212	 0.131562526279361 
1213	 0.131657366376589 
1214	 0.131710899450174 
1215	 0.131604744461511 
1216	 0.131833032054962 
1217	 0.131939787478009 
1218	 0.131931312314148 
1219	 0.132107560764553 
1220	 0.132239555326758 
1221	 0.132244379863818 
1222	 0.132494158107174 
1223	 0.132776428860386 
1224	 0.133032147419922 
1225	 0.133433772991632 
1226	 0.133588635142009 
1227	 0.1335493040922 
1228	 0.133417077117273 
1229	 0.133480453379028 
1230	 0.133983642544524 
1231	 0.134095851198954 
1232	 0.134002901290535 
1233	 0.134413022681442 
1234	 0.134723599731188 
1235	 0.134833995300291 
1236	 0.135196006341861 
1237	 0.135525428880521 
1238	 0.135597722554451 
1239	 0.135487016660447 
1240	 0.135896995568198 
1241	 0.136326321188084 
1242	 0.136425894300223 
1243	 0.13660095768496 
1244	 0.136967453536581 
1245	 0.13720741504293 
1246	 0.137369899592968 
1247	 0.137819573444757 
1248	 0.138182847184754 
1249	 0.138266682590265 
1250	 0.138409440994845 
1251	 0.138676455965452 
1252	 0.138877907695687 
1253	 0.138958198464059 
1254	 0.139203916909095 
1255	 0.139447286180232 
1256	 0.139683704502607 
1257	 0.139873262748778 
1258	 0.140094779179876 
1259	 0.140386861874009 
1260	 0.140552523342099 
1261	 0.140540804162712 
1262	 0.140692632635849 
1263	 0.141021862564047 
1264	 0.141063946984485 
1265	 0.141209560095994 
1266	 0.141517205850022 
1267	 0.141814910409721 
1268	 0.141953450715711 
1269	 0.141846871038754 
1270	 0.141751787065506 
1271	 0.141877713895514 
1272	 0.141973704258343 
1273	 0.141844882416356 
1274	 0.141950973334812 
1275	 0.141794076791665 
1276	 0.141385314712754 
1277	 0.141051856103101 
1278	 0.140673566383303 
1279	 0.140323156159825 
1280	 0.140328121260685 
1281	 0.140182614671243 
1282	 0.140343572704939 
1283	 0.14014725586339 
1284	 0.139606435345658 
1285	 0.139213472961195 
1286	 0.138800469200054 
1287	 0.138554133420045 
1288	 0.138468139290118 
1289	 0.138156343867126 
1290	 0.13787744272732 
1291	 0.13742636244544 
1292	 0.13692188497074 
1293	 0.136444936322427 
1294	 0.136090035105687 
1295	 0.135899969955214 
1296	 0.135702946781502 
1297	 0.135273920654559 
1298	 0.134807089890087 
1299	 0.134605377403353 
1300	 0.134332633667951 
1301	 0.133684149232203 
1302	 0.133061202365242 
1303	 0.132795028089538 
1304	 0.132656098968235 
1305	 0.132212001944497 
1306	 0.131766471747288 
1307	 0.131287278541835 
1308	 0.130890605655735 
1309	 0.130459673988749 
1310	 0.129943365026157 
1311	 0.129360231260725 
1312	 0.128957234454857 
1313	 0.1285049745877 
1314	 0.128077227786055 
1315	 0.128141218136369 
1316	 0.127766893620483 
1317	 0.126848652502135 
1318	 0.126318935841149 
1319	 0.125943194222528 
1320	 0.12534697604395 
1321	 0.124455144255804 
1322	 0.124390879804197 
1323	 0.123662661835435 
1324	 0.122847303427619 
1325	 0.122885606731651 
1326	 0.121823285128414 
1327	 0.120169972345075 
1328	 0.119526707431448 
1329	 0.119632228384836 
1330	 0.118813859041251 
1331	 0.118346199013053 
1332	 0.118367235419019 
1333	 0.117687539070095 
1334	 0.116661008509905 
1335	 0.116048932714063 
1336	 0.116432660882297 
1337	 0.116171045389575 
1338	 0.115286529676302 
1339	 0.114805208034384 
1340	 0.114811460804437 
1341	 0.114072797794122 
1342	 0.112246767525601 
1343	 0.11157964864284 
1344	 0.111281869740369 
1345	 0.110409502929206 
1346	 0.110079387151384 
1347	 0.109804292993336 
1348	 0.10801962546363 
1349	 0.107222311984195 
1350	 0.109176349507536 
1351	 0.11101177442529 
1352	 0.11871565973307 
1353	 0.126060803842536 
1354	 0.130999029954435 
1355	 0.140305337644989 
1356	 0.156567794535416 
1357	 0.156286698959929 
1358	 0.128969956641599 
1359	 9.70706978257921E-02 
1360	 0.13127865844393 
1361	 0.243200949368241 
1362	 0.209148106920651 
1363	 0.205756023656369 
1364	 0.375371281804805 
1365	 0.301461323914988 
1366	 8.90911958115655E-02 
1367	 0.116589592587507 
1368	 0.295772230864225 
1369	 0.452556298318746 
1370	 0.397564912265057 
1371	 0.625235855755175 
1372	 0.740223264834416 
1373	 0.290797945850558 
1374	 9.37391412446309E-02 
1375	 0.147658781856197 
1376	 0.223119105332388 
1377	 0.112677300804792 
1378	 0.138066658326293 
1379	 0.634209705262794 
1380	 0.68565948353582 
1381	 0.189030783660742 
1382	 0.113539724762345 
1383	 7.88851118561237E-02 
1384	 0.110893150750041 
1385	 0.548902736257054 
1386	 0.611089999028162 
1387	 0.368296899593819 
1388	 0.33402780534349 
1389	 0.267591611030526 
1390	 0.17688885835233 
1391	 0.187915601287391 
1392	 0.138847023864134 
1393	 6.64086620593442E-02 
1394	 0.210924562870839 
1395	 0.304741073632134 
1396	 0.369909704820945 
1397	 0.319079941256045 
1398	 0.22928108003587 
1399	 0.190069830051854 
1400	 0.152070703197364 
1401	 0.184990099519658 
1402	 0.271640716738815 
1403	 0.432682836154604 
1404	 0.499850527639104 
1405	 0.431007905331423 
1406	 0.264739973518484 
1407	 0.219014237805623 
1408	 0.162903879644215 
1409	 0.130193235941937 
1410	 0.170860806890153 
1411	 0.171577600002435 
1412	 0.125399729989191 
1413	 0.120593768252358 
1414	 0.150449968651109 
1415	 0.136790414274637 
1416	 0.106020598797666 
1417	 0.102798763313644 
1418	 9.71910306702066E-02 
1419	 9.51332615798355E-02 
1420	 0.110609173475071 
1421	 0.104041435172283 
1422	 8.34948965732488E-02 
1423	 7.96733128475765E-02 
1424	 7.88171829680399E-02 
1425	 7.54835884287978E-02 
1426	 7.38355407020308E-02 
1427	 7.60695885276938E-02 
1428	 0.080656773145609 
1429	 0.078986775862816 
1430	 7.55619832067585E-02 
1431	 7.62206179662628E-02 
1432	 7.30494200348532E-02 
1433	 7.19913565495745E-02 
1434	 7.90240332555349E-02 
1435	 0.081790972125989 
1436	 8.31723460107395E-02 
1437	 7.85352068658441E-02 
1438	 7.64787208875454E-02 
1439	 7.97716634394237E-02 
1440	 7.86226623142672E-02 
1441	 7.44964837834084E-02 
1442	 7.34000237721474E-02 
1443	 7.37924881621696E-02 
1444	 7.50307434684653E-02 
1445	 7.60194681138013E-02 
1446	 7.47290029142701E-02 
1447	 7.23891958599307E-02 
1448	 7.23170213631007E-02 
1449	 7.18441095987951E-02 
1450	 6.81416743635684E-02 
1451	 6.72081304101634E-02 
1452	 6.91014173161215E-02 
1453	 6.91041774807306E-02 
1454	 6.88288610799299E-02 
1455	 0.070666019723607 
1456	 0.070682352288486 
1457	 0.068290492619409 
1458	 6.77055420879811E-02 
1459	 6.85719581973516E-02 
1460	 0.068123721105766 
1461	 6.63672136228202E-02 
1462	 6.61488957758072E-02 
1463	 6.65776231178432E-02 
1464	 6.63261631116673E-02 
1465	 6.64368599816556E-02 
1466	 6.66910889671878E-02 
1467	 6.65136456197261E-02 
1468	 6.65765839607945E-02 
1469	 6.75193936487717E-02 
1470	 6.72670265222814E-02 
1471	 6.57410295102931E-02 
1472	 6.56711760672866E-02 
1473	 6.63475966292712E-02 
1474	 6.61036617723908E-02 
1475	 6.62888240984234E-02 
1476	 6.57505524909655E-02 
1477	 6.37278069086229E-02 
1478	 6.34653365701474E-02 
1479	 6.45619410526094E-02 
1480	 6.39664127835474E-02 
1481	 6.25231895132447E-02 
1482	 6.27745460854313E-02 
1483	 6.31350930610285E-02 
1484	 6.30433233439368E-02 
1485	 6.37322070103049E-02 
1486	 6.42765992199009E-02 
1487	 6.48108773952501E-02 
1488	 6.41508407165274E-02 
1489	 6.28124383843091E-02 
1490	 6.27729503592909E-02 
1491	 0.062600362266981 
1492	 6.22339713133633E-02 
1493	 6.29439261955112E-02 
1494	 6.28916589964545E-02 
1495	 6.14249461041188E-02 
1496	 6.10916401285225E-02 
1497	 6.16352708452418E-02 
1498	 6.15950309805715E-02 
1499	 6.15742171668462E-02 
1500	 6.15865832572975E-02 
1501	 0.061320379191525 
1502	 0.061082094814099 
1503	 6.08506786822712E-02 
1504	 6.08052457059521E-02 
1505	 6.07822181858625E-02 
1506	 6.08302294764898E-02 
1507	 6.08091524390921E-02 
1508	 6.07648315124947E-02 
1509	 6.06929272492489E-02 
1510	 6.07514790691381E-02 
1511	 0.060745010098155 
1512	 6.04845435524819E-02 
1513	 6.02973990981853E-02 
1514	 6.00276107927927E-02 
1515	 5.97191980079976E-02 
1516	 6.01416671606855E-02 
1517	 0.060595583287859 
1518	 6.03271214364906E-02 
1519	 5.99982168047285E-02 
1520	 0.059904609737786 
1521	 5.99279530514602E-02 
1522	 5.98942986306372E-02 
1523	 5.99689408987553E-02 
1524	 6.02525207906472E-02 
1525	 6.01471758879783E-02 
1526	 5.99716148688849E-02 
1527	 6.02975136961674E-02 
1528	 6.02440802585898E-02 
1529	 5.97247211181001E-02 
1530	 5.97075115620605E-02 
1531	 5.99513363279703E-02 
1532	 5.97718978108183E-02 
1533	 5.95587452921529E-02 
1534	 5.97101551047309E-02 
1535	 5.97041409507132E-02 
1536	 5.95668428624757E-02 
1537	 5.96122567309879E-02 
1538	 5.95484997474204E-02 
1539	 5.95657343009223E-02 
1540	 5.97170871629351E-02 
1541	 5.96437522471177E-02 
1542	 5.94962200157773E-02 
1543	 5.94376790093425E-02 
1544	 5.94080196621966E-02 
1545	 0.059303744440915 
1546	 5.92666948513606E-02 
1547	 5.92816735898978E-02 
1548	 5.90378020797507E-02 
1549	 5.90414452790522E-02 
1550	 5.93202192141523E-02 
1551	 5.92767496100979E-02 
1552	 5.89572367604541E-02 
1553	 5.87701655980081E-02 
1554	 5.88461142433968E-02 
1555	 5.88835703281205E-02 
1556	 5.90061428013086E-02 
1557	 5.92730393711237E-02 
1558	 5.93095405129585E-02 
1559	 5.91147378496207E-02 
1560	 5.90153884035765E-02 
1561	 5.89656941715209E-02 
1562	 5.88404694594476E-02 
1563	 5.86750494910771E-02 
1564	 5.84830403624955E-02 
1565	 5.84008227613241E-02 
1566	 5.83744407751422E-02 
1567	 5.83496843332989E-02 
1568	 5.85958614466025E-02 
1569	 5.90715261381222E-02 
1570	 5.91843083390571E-02 
1571	 5.89613767194272E-02 
1572	 5.90613401852756E-02 
1573	 5.93024699020094E-02 
1574	 5.89620095604894E-02 
1575	 5.87997021689423E-02 
1576	 5.91642750789089E-02 
1577	 5.92217945578583E-02 
1578	 5.90268675550302E-02 
1579	 5.91700640623889E-02 
1580	 5.92895435168577E-02 
1581	 5.88603498593698E-02 
1582	 5.88600973880706E-02 
1583	 5.93728702844158E-02 
1584	 5.93750619622421E-02 
1585	 5.92374709561281E-02 
1586	 5.93828960100575E-02 
1587	 5.93249816221609E-02 
1588	 5.93432180357225E-02 
1589	 5.95555319243782E-02 
1590	 5.95726569354802E-02 
1591	 5.95449330955189E-02 
1592	 5.95250207171087E-02 
1593	 5.95739470719215E-02 
1594	 5.98000092658115E-02 
1595	 0.059838767913191 
1596	 5.97689796741019E-02 
1597	 5.98008588238969E-02 
1598	 5.97242671309961E-02 
1599	 5.95680315211486E-02 
1600	 5.93338387560399E-02 
1601	 5.91087214099519E-02 
1602	 5.91348085065999E-02 
1603	 5.93853044213011E-02 
1604	 5.95891564787407E-02 
1605	 0.059691365617698 
1606	 5.97129092703995E-02 
1607	 5.98315016866525E-02 
1608	 5.98164184091663E-02 
1609	 0.059562778553954 
1610	 0.059544703189316 
1611	 5.95450314859662E-02 
1612	 5.95425605035231E-02 
1613	 0.059816099426833 
1614	 5.99047539861033E-02 
1615	 5.94921333466951E-02 
1616	 5.92277530951281E-02 
1617	 5.92612098834374E-02 
1618	 5.91248664912737E-02 
1619	 5.90326419388355E-02 
1620	 0.059026001430373 
1621	 5.90017226611498E-02 
1622	 5.92846017402134E-02 
1623	 5.94847499472495E-02 
1624	 5.93642794275415E-02 
1625	 5.93306999722749E-02 
1626	 5.92019389944052E-02 
1627	 5.90622260773142E-02 
1628	 5.91625408821613E-02 
1629	 5.90641125651658E-02 
1630	 5.89708478418723E-02 
1631	 5.91100155913213E-02 
1632	 5.91328148903369E-02 
1633	 5.90861201039938E-02 
1634	 5.90499293079863E-02 
1635	 5.89237625944856E-02 
1636	 5.90884683603254E-02 
1637	 0.059680621196812 
1638	 5.92654656879502E-02 
1639	 5.82256109954922E-02 
1640	 5.84507523982764E-02 
1641	 5.89289745641545E-02 
1642	 5.88659753157127E-02 
1643	 0.059100600768532 
1644	 5.89578791602859E-02 
1645	 5.83287900082601E-02 
1646	 5.84641180305704E-02 
1647	 5.92025828368497E-02 
1648	 5.93665628494681E-02 
1649	 5.90002746692109E-02 
1650	 5.89627157915428E-02 
1651	 5.91743140172477E-02 
1652	 0.059276123025298 
1653	 5.93416614033438E-02 
1654	 5.93889576633741E-02 
1655	 0.059187456248037 
1656	 5.90994469552268E-02 
1657	 5.93572293270429E-02 
1658	 5.92268842403221E-02 
1659	 5.85512893589494E-02 
1660	 5.84828406639912E-02 
1661	 0.058833426354565 
1662	 5.87399379282164E-02 
1663	 5.84932431380495E-02 
1664	 5.86343254508261E-02 
1665	 5.87990644677144E-02 
1666	 5.86490252665994E-02 
1667	 5.87617039552009E-02 
1668	 5.88633792143427E-02 
1669	 5.84233444933972E-02 
1670	 0.058364101499003 
1671	 5.87184145634417E-02 
1672	 5.86124602831621E-02 
1673	 5.83750239755247E-02 
1674	 5.84285995799176E-02 
1675	 5.87973624765611E-02 
1676	 5.88947643455987E-02 
1677	 5.86013235841753E-02 
1678	 5.84523186489446E-02 
1679	 5.82187625433477E-02 
1680	 5.79648906132034E-02 
1681	 0.058144412132561 
1682	 0.058437563285786 
1683	 5.84110101939601E-02 
1684	 5.83209383107548E-02 
1685	 5.83374077712798E-02 
1686	 5.82495167000572E-02 
1687	 5.79894266200659E-02 
1688	 0.057760008859039 
1689	 5.78287900344956E-02 
1690	 5.79167799757009E-02 
1691	 5.79595285841561E-02 
1692	 5.81719681225878E-02 
1693	 5.80215717753499E-02 
1694	 5.75446193477291E-02 
1695	 0.057347641321068 
1696	 5.73083803011342E-02 
1697	 5.75789626878516E-02 
1698	 5.78856266039831E-02 
1699	 5.74953873969213E-02 
1700	 5.72028966589283E-02 
1701	 5.72466560198824E-02 
1702	 5.68503115004121E-02 
1703	 5.67589259750107E-02 
1704	 5.73088265529464E-02 
1705	 5.71357111017262E-02 
1706	 5.66120011349775E-02 
1707	 5.67237880264561E-02 
1708	 5.65789344395503E-02 
1709	 5.62994952585835E-02 
1710	 5.66594499244563E-02 
1711	 5.67531698134714E-02 
1712	 5.63405998922099E-02 
1713	 5.64020071117486E-02 
1714	 5.64193273597871E-02 
1715	 5.68114292498537E-02 
1716	 5.71770571159309E-02 
1717	 5.66600917362571E-02 
1718	 5.64054277859744E-02 
1719	 5.67944504483693E-02 
1720	 5.68096395380675E-02 
1721	 5.69078732989792E-02 
1722	 5.67747289228161E-02 
1723	 5.63491250304894E-02 
1724	 5.62691032601754E-02 
1725	 5.61965110394029E-02 
1726	 5.61067087099064E-02 
1727	 5.58913925608408E-02 
1728	 5.52250019943258E-02 
1729	 0.054840664852024 
1730	 5.51624423653295E-02 
1731	 0.055637609329346 
1732	 5.56467107966878E-02 
1733	 5.54214096279354E-02 
1734	 5.51275662996328E-02 
1735	 5.44569474424442E-02 
1736	 0.054460032697015 
1737	 5.51183888479273E-02 
1738	 5.49232708631333E-02 
1739	 5.48174274008402E-02 
1740	 5.48404333125027E-02 
1741	 5.36221329530359E-02 
1742	 5.34897425190113E-02 
1743	 0.054511522511234 
1744	 5.37472642695356E-02 
1745	 0.053350375892258 
1746	 0.052905361038891 
1747	 5.23230623548767E-02 
1748	 5.28364602681667E-02 
1749	 5.31349174824625E-02 
1750	 5.30552500499783E-02 
1751	 5.27942468070505E-02 
1752	 5.22698381356754E-02 
1753	 5.23026768323744E-02 
1754	 5.25080626987639E-02 
1755	 5.23860831275444E-02 
1756	 5.26184589431496E-02 
1757	 5.17683000466044E-02 
1758	 5.12499401731074E-02 
1759	 5.12083616720144E-02 
1760	 5.16979451509052E-02 
1761	 0.051626049401468 
1762	 5.07694140173161E-02 
1763	 5.09444988520729E-02 
1764	 5.12200880677994E-02 
1765	 0.051368039839933 
1766	 5.22479259645174E-02 
1767	 5.15525935875532E-02 
1768	 5.03634279508502E-02 
1769	 5.06458287471762E-02 
1770	 0.050579754113865 
1771	 5.02968685593104E-02 
1772	 5.07219239726611E-02 
1773	 5.05288143265493E-02 
1774	 4.95003800264192E-02 
1775	 4.93898807954165E-02 
1776	 4.94242850954116E-02 
1777	 0.049104781858597 
1778	 0.04965252687854 
1779	 5.22505546084651E-02 
1780	 5.21336087286726E-02 
1781	 0.050360281532301 
1782	 4.95898345624353E-02 
1783	 4.63446639746738E-02 
1784	 4.59922846352638E-02 
1785	 4.92110208954852E-02 
1786	 5.00533937550388E-02 
1787	 5.10297591048005E-02 
1788	 5.20643852296348E-02 
1789	 5.23814642905399E-02 
1790	 5.06035562351078E-02 
1791	 4.89630504574899E-02 
1792	 4.70285062257584E-02 
1793	 4.51690653005955E-02 
1794	 4.79743783339666E-02 
1795	 0.051277828451302 
1796	 4.96539872613274E-02 
1797	 0.052677512148632 
1798	 5.81898242762236E-02 
1799	 5.63169840061629E-02 
1800	 4.70168234016708E-02 
1801	 4.55235981771187E-02 
1802	 4.63438931172003E-02 
1803	 4.54801976575484E-02 
1804	 0.062372901652091 
1805	 6.80995000160498E-02 
1806	 4.44390346656294E-02 
1807	 3.99777532615914E-02 
1808	 5.36816074395718E-02 
1809	 5.49211520709109E-02 
1810	 6.54365493847019E-02 
1811	 6.04178740365067E-02 
1812	 7.07950826371817E-03 
1813	 8.16982814009252E-03 
1814	 6.38453752101222E-02 
1815	 7.73218909742187E-02 
1816	 0.123674933282847 
1817	 0.100330388463864 
1818	 8.78836963982292E-02 
1819	 0.188383542185318 
1820	 0.150540002347027 
1821	-0.217750064997812 
1822	-0.312806040048193 
1823	 0.133915231179532 
1824	 0.330200531464079 
1825	 0.815335221589276 
1826	 0.964714196434891 
1827	 0.516548006203294 
1828	 0.476922398303467 
1829	 5.56628287649169 
1830	 8.57221956952323 
1831	 0.969689304187679 
1832	 1.25718254855552 
1833	 3.59484047836699 
1834	 3.81250722875219 
1835	-0.463814129683716 
1836	-0.96980899358594 
1837	-1.75162865683485 
1838	-2.64863050536521 
1839	 2.19612754579429 
1840	 0.397154875843851 
1841	 1.14082233794322 
1842	-1.44779756864847 
1843	-113.016235438475 
1844	-0.701558113567936 
1845	-0.580614421496592 
1846	-0.566494391368782 
1847	-0.366690375677212 
1848	-1.26088264010221 
1849	-0.324942240628966 
1850	-0.150686959874668 
1851	 0.499665527710163 
1852	 1.66809823329704 
1853	 2.78526805041044 
1854	 1.14053378914477 
1855	-0.140675466862469 
1856	-0.405317920608171 
1857	-0.425745517256941 
1858	-0.361672552993709 
1859	-0.288920254227188 
1860	-0.826817568114729 
1861	-0.279670166086376 
1862	 0.368555217305192 
1863	-0.253928687927679 
1864	-5.94356553152405E-02 
1865	 2.77224398614424E-02 
1866	 0.15814435872752 
1867	-4.60426630755894E-02 
1868	-0.182828973030746 
1869	 0.181874731765343 
1870	 1.24423793913176 
1871	 2.89750811674078 
1872	 0.253558695383859 
1873	-0.549927551626865 
1874	-2.74023436157933 
1875	-2.60649094223818 
1876	-2.88437647690321 
1877	-2.70692015181697 
1878	-4.28056990032943 
1879	 275.041603031114 
1880	 12.7168253929283 
1881	 2.71506807601443 
1882	 5.97684036981342 
1883	-1.80772026537022 
1884	-8.43928250382694 
1885	 0.238306299851859 
1886	-9.05174135173667E-02 
1887	-0.175237199064147 
1888	-0.333218732527548 
1889	-2.44743533162914E-02 
1890	-4.99098039247669 
1891	-4.65064596549809 
1892	 7.39398238596942 
1893	 2.51119772566436 
1894	 0.769013705522085 
1895	-3.07148489550665 
1896	 7.84764017292664 
1897	 1.81976900835153 
1898	 7.90899282964034 
1899	-1.13967681532155 
1900	-0.224174915099359 
1901	 0.553391742537739 
1902	 0.87814355022997 
1903	-21.6885972267376 
1904	-1.05938887606903 
1905	-0.702263181622042 
1906	-7.3348649460694E-03 
1907	-0.401413234814066 
1908	-1.59621345472473 
1909	-1.05796317365953 
1910	-0.548272725852476 
1911	-0.831157843672817 
1912	-4.57294275630226 
1913	 0.87794179205518 
1914	-0.39514719898389 
1915	-0.440057695008207 
1916	-3.4140747583739 
1917	-174.759257879101 
1918	 0.667064127000648 
1919	-0.897940846763625 
1920	 91.437497379182 
1921	-0.753888427244805 
1922	-1.73406303760387 
1923	 2.35437509513004 
1924	 2.30019459122605 
1925	-1.12686675186038 
1926	-0.83362587902504 
1927	-1.11330163510885 
1928	-4.10079872438282 
1929	 0.701936373592968 
1930	 0.143639867127607 
1931	 0.322401419938228 
1932	 0.401056067291894 
1933	 7.77855135730179E-02 
1934	 0.133514071653058 
1935	 0.235898195519188 
1936	 0.222032816825889 
1937	 0.174883124813304 
1938	 0.162504145723302 
1939	 0.156161340567083 
1940	 0.116014278788218 
1941	 0.104830234540268 
1942	 0.126302479722316 
1943	 0.110480247137992 
1944	 0.116641623548559 
1945	 0.11089097606059 
1946	 9.75777725912378E-02 
1947	 0.103256393864641 
1948	 7.70064800031429E-02 
1949	 6.25438062869807E-02 
1950	 7.34081634180398E-02 
1951	 6.93860924211591E-02 
1952	 6.82252302751134E-02 
1953	 7.47300332339063E-02 
1954	 7.53463084969011E-02 
1955	 5.45505364784017E-02 
1956	 6.09262134013102E-02 
1957	 7.51468743504313E-02 
1958	 6.17182872784478E-02 
1959	 0.063706100983664 
1960	 6.81638661718153E-02 
1961	 5.83576509080145E-02 
1962	 0.061409210764371 
1963	 6.28490227703043E-02 
1964	 5.79704805624006E-02 
1965	 5.89924701008526E-02 
1966	 6.01532938928822E-02 
1967	 6.14794755431311E-02 
1968	 0.063822657381407 
1969	 6.60084992550405E-02 
1970	 6.56709133001706E-02 
1971	 6.39969901229428E-02 
1972	 6.15884572987025E-02 
1973	 6.00016802037399E-02 
1974	 5.97839456444543E-02 
1975	 5.95363364494974E-02 
1976	 5.93097666825056E-02 
1977	 6.05251050571317E-02 
1978	 6.13589231525533E-02 
1979	 6.14454587713804E-02 
1980	 6.13136593863897E-02 
1981	 6.21335512316217E-02 
1982	 6.17939374440445E-02 
1983	 6.15985453425167E-02 
1984	 6.27478008139135E-02 
1985	 6.31524465549267E-02 
1986	 6.28094530253413E-02 
1987	 6.33267065591267E-02 
1988	 6.40928349514279E-02 
1989	 6.42876257702227E-02 
1990	 6.36702317566986E-02 
1991	 0.062694418515419 
1992	 6.25086040572534E-02 
1993	 6.29093253748678E-02 
1994	 6.27158241261514E-02 
1995	 6.35971524277169E-02 
1996	 6.37062006810211E-02 
1997	 6.22976360069217E-02 
1998	 6.02363090422942E-02 
1999	 5.97000034947174E-02 
2000	 6.11339043006994E-02 
2001	 6.45097955235311E-02 
2002	 6.73556583049432E-02 
2003	 6.94368973026814E-02 
2004	 6.99132045555424E-02 
2005	 6.86342049956389E-02 
2006	 6.58124453668374E-02 
2007	 6.63250118404825E-02 
2008	 6.80859573147533E-02 
2009	 6.68188566100114E-02 
2010	 6.25857969751582E-02 
2011	 6.22917026565846E-02 
2012	 6.29071576181942E-02 
2013	 6.06260497937662E-02 
2014	 6.14250749716601E-02 
2015	 6.08655921434906E-02 
2016	 5.78864315898895E-02 
2017	 5.90068246063592E-02 
2018	 6.38064707667369E-02 
2019	 6.59350008305833E-02 
2020	 6.49278233231452E-02 
2021	 6.43128774769995E-02 
2022	 6.35685470952135E-02 
2023	 6.34304932967588E-02 
2024	 6.35758315861453E-02 
2025	 6.58394687068545E-02 
2026	 6.62086799869868E-02 
2027	 0.066166158255661 
2028	 6.43912051835694E-02 
2029	 0.062515263791152 
2030	 6.20991109817176E-02 
2031	 6.07460798274525E-02 
2032	 6.03271812144644E-02 
2033	 6.12433550767971E-02 
2034	 6.14956303832341E-02 
2035	 6.19972228796212E-02 
2036	 0.062258061185472 
2037	 6.26214828289638E-02 
2038	 6.37026786206712E-02 
2039	 6.34190873852479E-02 
2040	 6.11911100591112E-02 
2041	 6.13477892251985E-02 
2042	 6.23977348839125E-02 
2043	 6.22635755984825E-02 
2044	 6.23620797963483E-02 
2045	 6.43964474494472E-02 
2046	 6.37115525681867E-02 
2047	 6.17577266222737E-02 
2048	 6.15432332812646E-02 
2049	 6.15864551807274E-02 
2050	 6.14030688874921E-02 
2051	 6.15207086833295E-02 
2052	 6.27046257787653E-02 
2053	 0.062861594034545 
2054	 6.32557365992649E-02 
2055	 6.37106755063222E-02 
2056	 6.33062881988311E-02 
2057	 6.14048810006485E-02 
2058	 6.11109508928634E-02 
2059	 6.12203641767015E-02 
2060	 6.13340827556478E-02 
2061	 6.21687473949278E-02 
2062	 6.29564705929536E-02 
2063	 6.24719256249963E-02 
2064	 6.14167187374128E-02 
2065	 6.26279603716339E-02 
2066	 6.24796467988478E-02 
2067	 6.21283157338028E-02 
2068	 6.38228176940723E-02 
2069	 6.33210216481462E-02 
2070	 6.28659822795031E-02 
2071	 6.41786439838491E-02 
2072	 6.45067256162788E-02 
2073	 6.45028008922736E-02 
2074	 6.49364628432685E-02 
2075	 6.41422899758881E-02 
2076	 0.061152569499339 
2077	 6.05898469166665E-02 
2078	 6.10617779917919E-02 
2079	 6.09379069733815E-02 
2080	 6.12759065707519E-02 
2081	 6.24750679600347E-02 
2082	 6.20326695126555E-02 
2083	 6.16420324835797E-02 
2084	 6.29904675063636E-02 
2085	 6.33756572010161E-02 
2086	 6.34582929615506E-02 
2087	 6.37419591610153E-02 
2088	 6.31406730131653E-02 
2089	 6.33985392613902E-02 
2090	 6.41784028271687E-02 
2091	 6.30860244660714E-02 
2092	 6.25144954850474E-02 
2093	 0.061684145076524 
2094	 0.061130451848041 
2095	 0.060402239734896 
2096	 6.02786922247563E-02 
2097	 6.08874063790607E-02 
2098	 6.07863356539161E-02 
2099	 6.04348654263046E-02 
2100	 0.06033313156233 
2101	 6.02899345832873E-02 
2102	 6.04323533072943E-02 
2103	 6.06486440719159E-02 
2104	 6.09694145187392E-02 
2105	 6.14971814064726E-02 
2106	 6.13793817053923E-02 
2107	 6.08739584296583E-02 
2108	 6.11603750872613E-02 
2109	 6.16285131143019E-02 
2110	 6.15133463512803E-02 
2111	 6.21307162122802E-02 
2112	 6.27828189906326E-02 
2113	 6.26518013479845E-02 
2114	 6.15845239319206E-02 
2115	 6.12002388425418E-02 
2116	 6.03724939935619E-02 
2117	 0.060424288055952 
2118	 0.061884145357681 
2119	 6.20425425692735E-02 
2120	 6.17349793059877E-02 
2121	 6.15490722858911E-02 
2122	 6.15311486787705E-02 
2123	 0.060475415793206 
2124	 6.02570713493994E-02 
2125	 6.09112908836681E-02 
2126	 6.00052394752693E-02 
2127	 5.97539419890814E-02 
2128	 6.00719174184011E-02 
2129	 5.94165116147667E-02 
2130	 5.96594731258568E-02 
2131	 6.02530502322126E-02 
2132	 6.00854875999552E-02 
2133	 0.059299777672509 
2134	 5.90515814175933E-02 
2135	 0.058726463866834 
2136	 5.82062232740303E-02 
2137	 5.78258023377713E-02 
2138	 5.79449264366304E-02 
2139	 0.057524489198424 
2140	 5.74627631501584E-02 
2141	 5.89394057501636E-02 
2142	 5.88621272058259E-02 
2143	 5.77450382240282E-02 
2144	 5.69530742282541E-02 
2145	 5.63004272019151E-02 
2146	 5.62496725653025E-02 
2147	 5.55816910616384E-02 
2148	 0.055416651736256 
2149	 5.61995544609218E-02 
2150	 0.055476568437721 
2151	 0.055539092006298 
2152	 5.74192692213805E-02 
2153	 5.78077824607327E-02 
2154	 5.65639484760727E-02 
2155	 5.70009535937735E-02 
2156	 5.71415779083275E-02 
2157	 5.66947348598813E-02 
2158	 5.60968476315438E-02 
2159	 0.056412275134879 
2160	 5.62025851344221E-02 
2161	 5.63253243015498E-02 
2162	 5.77033773878797E-02 
2163	 5.77409830114821E-02 
2164	 0.05688291891166 
2165	 5.66427659967797E-02 
2166	 5.63224617202251E-02 
2167	 5.57367381135055E-02 
2168	 5.54555203217373E-02 
2169	 5.49303044230939E-02 
2170	 5.30389898337025E-02 
2171	 5.34291108095818E-02 
2172	 5.48196377601236E-02 
2173	 5.30861925573578E-02 
2174	 5.36275410721107E-02 
2175	 0.054342573459202 
2176	 5.31667531202943E-02 
2177	 0.053340701053945 
2178	 5.34416559136371E-02 
2179	 0.052634633551414 
2180	 5.15034624194622E-02 
2181	 5.28777313160054E-02 
2182	 5.52169835272617E-02 
2183	 5.47959852703403E-02 
2184	 5.26475961490842E-02 
2185	 5.10375046237751E-02 
2186	 5.03528096253002E-02 
2187	 4.84669921877917E-02 
2188	 0.048034992167865 
2189	 5.06749946066324E-02 
2190	 5.12658272226428E-02 
2191	 0.050419306455346 
2192	 5.02256340326867E-02 
2193	 5.08878172831197E-02 
2194	 5.04172240246878E-02 
2195	 4.80054327497252E-02 
2196	 0.047634254895049 
2197	 4.89290058564849E-02 
2198	 4.80413424841493E-02 
2199	 0.045596700668157 
2200	 0.046648098333486 
2201	 4.73829399226341E-02 
2202	 4.68875418359229E-02 
2203	 4.86146394575987E-02 
2204	 0.050342103330771 
2205	 4.94615252340963E-02 
2206	 4.84082334723115E-02 
2207	 4.79827216905622E-02 
2208	 4.83877307734176E-02 
2209	 5.02725463315566E-02 
2210	 5.05438612316125E-02 
2211	 4.99635299739282E-02 
2212	 4.96697206229095E-02 
2213	 4.92404910624428E-02 
2214	 4.95241735513886E-02 
2215	 4.90851751361553E-02 
2216	 4.83508911137694E-02 
2217	 4.84109588115032E-02 
2218	 4.79240787410411E-02 
2219	 4.78188969407934E-02 
2220	 4.88523563104596E-02 
2221	 4.89554649517381E-02 
2222	 4.88090381433512E-02 
2223	 4.78317724733156E-02 
2224	 4.56970658949323E-02 
2225	 4.54638367959991E-02 
2226	 4.52124802160861E-02 
2227	 4.50014185958723E-02 
2228	 4.71491214496865E-02 
2229	 4.74047593182729E-02 
2230	 4.55948463876423E-02 
2231	 4.47339097337418E-02 
2232	 0.043779714789104 
2233	 4.32579183271817E-02 
2234	 4.33329851677064E-02 
2235	 4.29321868447903E-02 
2236	 4.38313891918953E-02 
2237	 4.55432410873306E-02 
2238	 4.59606618578549E-02 
2239	 0.047353669530433 
2240	 4.86922997404014E-02 
2241	 4.59507025910232E-02 
2242	 4.45307230650148E-02 
2243	 4.56621358511013E-02 
2244	 4.64011914429529E-02 
2245	 4.73059051509015E-02 
2246	 4.75766543236325E-02 
2247	 0.047490961371305 
2248	 4.63359816028591E-02 
2249	 4.60948997078686E-02 
2250	 0.046949463774444 
2251	 4.49088369945965E-02 
2252	 4.38258501335173E-02 
2253	 0.045168223874662 
2254	 4.61527365525176E-02 
2255	 4.75319831559853E-02 
2256	 4.75713942861677E-02 
2257	 4.59340729078835E-02 
2258	 4.41942101186999E-02 
2259	 4.31782646281195E-02 
2260	 4.27634367577167E-02 
2261	 4.29765083124547E-02 
2262	 4.32034032825082E-02 
2263	 4.39606966423072E-02 
2264	 4.49437137174466E-02 
2265	 4.71807317228009E-02 
2266	 4.77036682167407E-02 
2267	 4.61924302523865E-02 
2268	 4.66763369195834E-02 
2269	 4.85301007911833E-02 
2270	 4.82769251204536E-02 
2271	 4.80334231244172E-02 
2272	 4.85032831712516E-02 
2273	 4.66241125188697E-02 
2274	 4.59179296907415E-02 
2275	 4.84046665210483E-02 
2276	 4.82168418150151E-02 
2277	 0.046013642375706 
2278	 4.49056483386836E-02 
2279	 4.31006318487248E-02 
2280	 4.18439309303743E-02 
2281	 4.08991811920384E-02 
2282	 4.06764875185498E-02 
2283	 4.10390716118864E-02 
2284	 4.24352089746594E-02 
2285	 4.54026303602744E-02 
2286	 4.54949385308615E-02 
2287	 4.44065454813638E-02 
2288	 4.29128240353346E-02 
2289	 4.23359387724386E-02 
2290	 4.66687224940284E-02 
2291	 4.98113452239554E-02 
2292	 0.049360430120134 
2293	 4.99204131769389E-02 
2294	 4.98212421047198E-02 
2295	 4.91850112318324E-02 
2296	 5.09905142302557E-02 
2297	 5.13737203233083E-02 
2298	 4.82603577157397E-02 
2299	 4.61059344173238E-02 
2300	 4.58566547569798E-02 
2301	 4.34087116295346E-02 
2302	 4.23878902175118E-02 
2303	 4.28573798415167E-02 
2304	 4.13613562713001E-02 
2305	 4.38843501747143E-02 
2306	 4.37032955805159E-02 
2307	 3.91589020972375E-02 
2308	 4.00379437349473E-02 
2309	 3.96753992112822E-02 
2310	 3.69483465758408E-02 
2311	 3.80124177112484E-02 
2312	 3.70348558692422E-02 
2313	 3.47156259983658E-02 
2314	 3.47042119309346E-02 
2315	 3.38473342436469E-02 
2316	 3.70595930169014E-02 
2317	 4.25221505927914E-02 
2318	 4.19736340375142E-02 
2319	 4.06840216286746E-02 
2320	 3.54245479408233E-02 
2321	 2.51306459249633E-02 
2322	 2.56301260743264E-02 
2323	 2.85784137828557E-02 
2324	 2.69323616137103E-02 
2325	 2.82920244187659E-02 
2326	 3.03585865770321E-02 
2327	 3.35024985521624E-02 
2328	 3.70005426549635E-02 
2329	 4.55378958462921E-02 
2330	 5.00107597969904E-02 
2331	 4.29115701498453E-02 
2332	 4.53517514921311E-02 
2333	 4.82362454189273E-02 
2334	 3.84963409670657E-02 
2335	 3.90785214640782E-02 
2336	 0.040530154140745 
2337	 3.46408384505109E-02 
2338	 4.12500029775133E-02 
2339	 5.26687982626818E-02 
2340	 5.74006103047652E-02 
2341	 5.65003578276668E-02 
2342	 5.42168545379387E-02 
2343	 4.74549403432446E-02 
2344	 4.37355754278803E-02 
2345	 4.92621551442673E-02 
2346	 5.02831491665802E-02 
2347	 4.50373926841913E-02 
2348	 0.038052082810111 
2349	 3.96432014893158E-02 
2350	 3.90789058722561E-02 
2351	 0.036095829453236 
2352	 4.80285495506738E-02 
2353	 4.69481394542868E-02 
2354	 4.46620066844287E-02 
2355	 0.059281479106512 
2356	 5.53358583099339E-02 
2357	 4.70876377797541E-02 
2358	 4.76382018011821E-02 
2359	 3.82594290811521E-02 
2360	 0.026514447197492 
2361	 2.45143076093536E-02 
2362	 2.26130177964206E-02 
2363	 2.30173138832765E-02 
2364	 3.45642954620272E-02 
2365	 4.13898425823865E-02 
2366	 0.044661038652786 
2367	 5.25545343870962E-02 
2368	 6.43939276092192E-02 
2369	 6.63768090871012E-02 
2370	 5.52820974653668E-02 
2371	 5.93530829575975E-02 
2372	 6.06230067522446E-02 
2373	 4.77018777671552E-02 
2374	 5.89252613601618E-02 
2375	 6.75928253621426E-02 
2376	 4.35055927227496E-02 
2377	 3.81810216185607E-02 
2378	 4.67959500941578E-02 
2379	 3.91787810239324E-02 
2380	 5.90571025759954E-02 
2381	 7.17039783334837E-02 
2382	 4.03575978692563E-02 
2383	 7.63824206566648E-03 
2384	-2.54288242211396E-02 
2385	-2.63235768142147E-02 
2386	 1.24848042490809E-03 
2387	 3.85015959678731E-03 
2388	 5.79409818214758E-03 
2389	 1.37964037201729E-02 
2390	 4.8880893315262E-03 
2391	 1.87641341649262E-02 
2392	 4.07504989014542E-02 
2393	 5.27577197740429E-02 
2394	 7.70028338420568E-02 
2395	 9.85320160695079E-02 
2396	 0.100380774691751 
2397	 7.44930988137196E-02 
2398	 0.062170492515526 
2399	 6.06861886200628E-02 
2400	 4.27435354377967E-02 
2401	 5.01087942676614E-02 
2402	 4.11054419740525E-02 
2403	-9.19845874259376E-03 
2404	-8.09876755109885E-03 
2405	-7.22458223887957E-04 
2406	-2.21728937324255E-02 
2407	-7.36516937789887E-03 
2408	 7.46648225287041E-03 
2409	 1.98320493271578E-02 
2410	 1.93170475173446E-02 
2411	-9.39600250126357E-03 
2412	 1.06634930157602E-03 
2413	-5.86529938166762E-03 
2414	-4.97148948492164E-02 
2415	-6.73152550797327E-02 
2416	-0.102049717758452 
2417	-0.152121702788849 
2418	-0.111432253204019 
2419	 0.031092297332512 
2420	 4.65957111217894E-02 
2421	 5.94639227299529E-03 
2422	 5.60729825727762E-02 
2423	 2.62696727723183E-02 
2424	 4.96995686006263E-03 
2425	 4.71715799466691E-02 
2426	 1.72573340447335E-02 
2427	-7.19909781746072E-02 
2428	-0.114299594460554 
2429	-0.145398985073548 
2430	-0.218741451933867 
2431	-0.270824845617225 
2432	-0.271083108481742 
2433	-0.211069254120608 
2434	-8.88309007367793E-02 
2435	 2.96562577266139E-02 
2436	 1.54148313454886E-02 
2437	-4.41921803865893E-03 
2438	-4.07632199963467E-02 
2439	-7.72061406823662E-02 
2440	 0.152339056175878 
2441	 0.268521560841596 
2442	 0.16772693229888 
2443	 0.144033969795047 
2444	 5.90269113462724E-02 
2445	-0.024696663554373 
2446	 2.40634383935352E-02 
2447	-0.098607422000811 
2448	-0.155978638121147 
2449	-0.155764894629165 
2450	-0.105641722331704 
2451	 0.170256874598125 
2452	 0.385281466700367 
2453	 0.251746423667738 
2454	 0.290918546399946 
2455	 0.350627962652747 
2456	 0.283554064738191 
2457	 0.275876464389304 
2458	 0.112423796774807 
2459	-7.02306268133065E-02 
2460	 2.40705425647161E-02 
2461	 0.10590009401335 
2462	 0.174023552573939 
2463	 0.35751367882207 
2464	 0.148068892169459 
2465	-0.24841059865893 
2466	-0.16248757492324 
2467	-3.51547443199395E-02 
2468	-4.60935308519581E-02 
2469	 8.11709453805771E-02 
2470	 0.136534222591837 
2471	-1.94023563787998E-03 
2472	-0.338602069710183 
2473	-0.974039543399504 
2474	-0.698526382142045 
2475	-0.218538981730481 
2476	-0.239634008037283 
2477	-0.326430752028167 
2478	-0.329826640854416 
2479	-0.338645047786313 
2480	-0.376154654946645 
2481	 0.147929530530359 
2482	-0.563182157407046 
2483	-21.2486587976199 
2484	 9.65907496246263 
2485	-19.2602329176629 
2486	-1.70243661820889 
2487	-2.97490847803412 
2488	-0.181865105410835 
2489	-3.60007977591186E-03 
2490	 5.52753203512688E-02 
2491	-5.87283560384238E-02 
2492	-0.292382286362928 
2493	 0.128232447205505 
2494	 0.992473086239409 
2495	 1.88385835992012 
2496	 4.16162331935614 
2497	-1.55316943470741 
2498	 1.39905464802214 
2499	 0.852790750814252 
2500	-4.79736320018807 
