Wavelength	rt0711a300005.asd
350	 0.231644538849138 
351	 0.233948891961152 
352	 0.236190224959197 
353	 0.237836247885328 
354	 0.239086458638073 
355	 0.241348280507998 
356	 0.243469117292118 
357	 0.245529174766318 
358	 0.247748372566416 
359	 0.249228140830632 
360	 0.251205758325001 
361	 0.253570889630203 
362	 0.255319538687803 
363	 0.256709240489808 
364	 0.258414456789376 
365	 0.260465675277137 
366	 0.2619009059757 
367	 0.263229251059853 
368	 0.264438815528559 
369	 0.265513831423637 
370	 0.266895311899547 
371	 0.267969788491925 
372	 0.269026069577164 
373	 0.27075262751345 
374	 0.272369479647073 
375	 0.273415656896496 
376	 0.274116220284084 
377	 0.275529661580728 
378	 0.276892520994042 
379	 0.277874608445678 
380	 0.278371720968802 
381	 0.27853435287979 
382	 0.279230787722747 
383	 0.280082158357062 
384	 0.280354002338869 
385	 0.281554712720377 
386	 0.282512435907134 
387	 0.28302711809672 
388	 0.284144708719821 
389	 0.284179790859589 
390	 0.283805031473897 
391	 0.283739524911719 
392	 0.28364340150246 
393	 0.283483111154517 
394	 0.283440451460452 
395	 0.283660503948194 
396	 0.283671462863891 
397	 0.283844575961317 
398	 0.28405970140352 
399	 0.283792157532749 
400	 0.283655945799791 
401	 0.283409809171141 
402	 0.282904286927217 
403	 0.28250824037848 
404	 0.281871910975392 
405	 0.281135382541794 
406	 0.280574358691565 
407	 0.280122176734481 
408	 0.279648492828012 
409	 0.279077563332847 
410	 0.278402436943656 
411	 0.27779251488983 
412	 0.277271603530724 
413	 0.276779278158069 
414	 0.27613149299117 
415	 0.275490426555615 
416	 0.274867277420929 
417	 0.274242151883984 
418	 0.273811213240254 
419	 0.273351977156351 
420	 0.272862511306599 
421	 0.272596224715148 
422	 0.272384439466857 
423	 0.272204528157335 
424	 0.272069126952423 
425	 0.271995167182559 
426	 0.272031001834352 
427	 0.272162447806929 
428	 0.272378351121255 
429	 0.272938158902624 
430	 0.273527386189044 
431	 0.274141004555234 
432	 0.275191217651017 
433	 0.275909374474589 
434	 0.276226065086565 
435	 0.276322892287453 
436	 0.276568866972395 
437	 0.276763941592979 
438	 0.276796873150889 
439	 0.276650767042918 
440	 0.276666150309793 
441	 0.276605070376696 
442	 0.276342240833316 
443	 0.276011363136254 
444	 0.275567344434012 
445	 0.27504069462158 
446	 0.274514046527245 
447	 0.274202828965221 
448	 0.273792950039413 
449	 0.273214968076293 
450	 0.272593071816172 
451	 0.271961838433408 
452	 0.271350552639647 
453	 0.270760248950925 
454	 0.270148808387938 
455	 0.26953934927665 
456	 0.268951492259234 
457	 0.26839204203251 
458	 0.267805233037388 
459	 0.26723746152818 
460	 0.266667402497096 
461	 0.266011092091417 
462	 0.265391815498854 
463	 0.264775668320782 
464	 0.26412902950716 
465	 0.26352033514051 
466	 0.262826007189745 
467	 0.262131084986162 
468	 0.261596904673269 
469	 0.261136271036175 
470	 0.260628961280988 
471	 0.260053968573024 
472	 0.259526043024855 
473	 0.258963949403244 
474	 0.258448389090448 
475	 0.258034976157631 
476	 0.257536604222646 
477	 0.257169561175513 
478	 0.256958181281967 
479	 0.256779745824959 
480	 0.256505350735367 
481	 0.256304991803461 
482	 0.256203908291721 
483	 0.255844419852623 
484	 0.255464135442032 
485	 0.255284114869817 
486	 0.255451152173943 
487	 0.255775307670714 
488	 0.256103290548961 
489	 0.256292310965595 
490	 0.256234211953037 
491	 0.256280629350753 
492	 0.256501619693248 
493	 0.256849951902582 
494	 0.257156564481878 
495	 0.257458268146726 
496	 0.257646301351664 
497	 0.257616182262918 
498	 0.257885399160665 
499	 0.258170137573788 
500	 0.258296307934481 
501	 0.258381844589382 
502	 0.25868928523765 
503	 0.25901019706105 
504	 0.259124249982376 
505	 0.259373948180785 
506	 0.259514416489572 
507	 0.259577560413735 
508	 0.259811180364648 
509	 0.260100029846322 
510	 0.260411733170908 
511	 0.260728386443148 
512	 0.261032542835143 
513	 0.261409717341292 
514	 0.26181287665625 
515	 0.262156386904548 
516	 0.26250730560976 
517	 0.263269839669889 
518	 0.264411311887576 
519	 0.26535314813425 
520	 0.266227333134108 
521	 0.267206283750604 
522	 0.268394556903098 
523	 0.269582594238958 
524	 0.27083200296508 
525	 0.272215812497175 
526	 0.273816951851347 
527	 0.275697613392915 
528	 0.277769476640728 
529	 0.279893627677849 
530	 0.281879828692051 
531	 0.283962297140655 
532	 0.286309790777394 
533	 0.288984413934262 
534	 0.291677953577436 
535	 0.294363376490162 
536	 0.297096158032867 
537	 0.299982148277292 
538	 0.302861176645905 
539	 0.305844271643102 
540	 0.309001628686498 
541	 0.312075781324725 
542	 0.315145728207131 
543	 0.31819623230042 
544	 0.321162540910521 
545	 0.323963569094824 
546	 0.326728941903511 
547	 0.329520156013375 
548	 0.332231767613796 
549	 0.334788381796772 
550	 0.337223975333675 
551	 0.339598150160845 
552	 0.341784568354169 
553	 0.343975297696004 
554	 0.346198431693732 
555	 0.348267129874244 
556	 0.350247894340435 
557	 0.352238713343767 
558	 0.35430580455834 
559	 0.356461595666842 
560	 0.358565834351858 
561	 0.360648390918765 
562	 0.362845043717983 
563	 0.36501936981961 
564	 0.367195894939262 
565	 0.369409833885661 
566	 0.371699627485225 
567	 0.373863540065062 
568	 0.375901018773334 
569	 0.377879087814968 
570	 0.379795497283592 
571	 0.381516217640517 
572	 0.383025497018687 
573	 0.384440145420898 
574	 0.385769308592928 
575	 0.387153337781164 
576	 0.388631862148678 
577	 0.389882643301418 
578	 0.391069566014264 
579	 0.392213093741154 
580	 0.393256131777256 
581	 0.394321461520177 
582	 0.395170350308297 
583	 0.395694564881406 
584	 0.396062550210833 
585	 0.396667406351511 
586	 0.397106270345531 
587	 0.39691776146906 
588	 0.397112173989973 
589	 0.397690431872183 
590	 0.398397848744555 
591	 0.398859647254044 
592	 0.399363828591955 
593	 0.399867043516702 
594	 0.400305262827754 
595	 0.400827321877749 
596	 0.401031580500699 
597	 0.40110909840379 
598	 0.401517132184281 
599	 0.401676560496422 
600	 0.401812392816716 
601	 0.402076867550436 
602	 0.4023328261976 
603	 0.4025242411516 
604	 0.402663838954544 
605	 0.402814570794616 
606	 0.403136308117283 
607	 0.403449573342145 
608	 0.403687405682025 
609	 0.403920490441863 
610	 0.404294207638966 
611	 0.404624608285169 
612	 0.404795184126787 
613	 0.405108135408266 
614	 0.4053029225533 
615	 0.405475848255459 
616	 0.405863818877626 
617	 0.406055669656032 
618	 0.406287960915383 
619	 0.406642064909721 
620	 0.406830603326634 
621	 0.407044547728355 
622	 0.407259889965146 
623	 0.407425061980553 
624	 0.407706841377392 
625	 0.407852818288303 
626	 0.407863134647079 
627	 0.407987879848709 
628	 0.408262191683141 
629	 0.408646330477587 
630	 0.409042669315672 
631	 0.409253616152309 
632	 0.409463795431216 
633	 0.409713265604192 
634	 0.409978872430476 
635	 0.410329385942158 
636	 0.410578032830271 
637	 0.410699596100317 
638	 0.410927512967831 
639	 0.411256850976395 
640	 0.411510198136985 
641	 0.411576544792984 
642	 0.411876357188885 
643	 0.411977487035463 
644	 0.411846669462556 
645	 0.411775777669016 
646	 0.411583877349977 
647	 0.411621718634629 
648	 0.412026498856181 
649	 0.412279482605378 
650	 0.412342691410738 
651	 0.412341954381381 
652	 0.41244339262232 
653	 0.412517301689141 
654	 0.412342192722616 
655	 0.411967203895599 
656	 0.411871600365754 
657	 0.411822247495459 
658	 0.411700894956377 
659	 0.411482865478305 
660	 0.41134538997675 
661	 0.411210558765922 
662	 0.411051835267726 
663	 0.410878747135561 
664	 0.410695736952731 
665	 0.410556176471268 
666	 0.41047327757369 
667	 0.410381751964263 
668	 0.410370313571544 
669	 0.410337624748293 
670	 0.410186034458665 
671	 0.410151759295917 
672	 0.410176668667967 
673	 0.410221958980962 
674	 0.410284807979516 
675	 0.410456563144504 
676	 0.41063038211238 
677	 0.410776409178365 
678	 0.411170625707149 
679	 0.411496568716344 
680	 0.411779789318869 
681	 0.412175434125903 
682	 0.412539872175453 
683	 0.413002718899821 
684	 0.413420826701003 
685	 0.413264579664116 
686	 0.413225339125542 
687	 0.413554675903175 
688	 0.414168617323151 
689	 0.41471889075953 
690	 0.415129939588804 
691	 0.415303355071401 
692	 0.415187831613483 
693	 0.415316091539396 
694	 0.415723374911811 
695	 0.416241430295053 
696	 0.416613072173414 
697	 0.416490547166979 
698	 0.416090795836757 
699	 0.415803964453447 
700	 0.415735050268101 
701	 0.415684574345196 
702	 0.415586115175951 
703	 0.415487118431019 
704	 0.415203316890827 
705	 0.414878593225626 
706	 0.41460617027562 
707	 0.414241276700129 
708	 0.413855175214884 
709	 0.413388984894526 
710	 0.412743770528822 
711	 0.411875798760608 
712	 0.410971026948131 
713	 0.409993295082333 
714	 0.408632175689269 
715	 0.406817625151823 
716	 0.404691138500861 
717	 0.40262431400532 
718	 0.400775595312242 
719	 0.399941730830489 
720	 0.399739870610201 
721	 0.399259638654203 
722	 0.397735849339319 
723	 0.39573940303246 
724	 0.393961161785386 
725	 0.392582261787032 
726	 0.39108639226885 
727	 0.389357890951647 
728	 0.387458556692515 
729	 0.385555082772242 
730	 0.383550541717806 
731	 0.38179654111394 
732	 0.380595736134638 
733	 0.379379959845927 
734	 0.377927431737718 
735	 0.376424915537312 
736	 0.375548969745869 
737	 0.374946690774311 
738	 0.374583044939417 
739	 0.374423589393483 
740	 0.374206393605941 
741	 0.373988754429154 
742	 0.373854769246965 
743	 0.373874987731351 
744	 0.373922572311975 
745	 0.373880104231975 
746	 0.37379274371347 
747	 0.373914565208227 
748	 0.373904175862869 
749	 0.373853428138904 
750	 0.373900498503431 
751	 0.373961854389668 
752	 0.373946022931594 
753	 0.373887275053193 
754	 0.373891130750562 
755	 0.373982734013816 
756	 0.374176913994415 
757	 0.374292193364242 
758	 0.373705467446855 
759	 0.371515403099571 
760	 0.369143738385504 
761	 0.369882751822013 
762	 0.370071443314492 
763	 0.370661821522221 
764	 0.371700865650165 
765	 0.372906836054289 
766	 0.373929362497117 
767	 0.374657153280731 
768	 0.375081374775329 
769	 0.375238178484655 
770	 0.375528371750488 
771	 0.375812727719307 
772	 0.375984389400978 
773	 0.376355459671796 
774	 0.376703049372381 
775	 0.376973509689015 
776	 0.377222023989736 
777	 0.37765665557293 
778	 0.377994580923758 
779	 0.378232130663049 
780	 0.378662173854058 
781	 0.378982569681896 
782	 0.379287062446006 
783	 0.379694985928564 
784	 0.380244736925397 
785	 0.380592638097128 
786	 0.380851308816802 
787	 0.381233999428649 
788	 0.381500910951696 
789	 0.381833376499227 
790	 0.38233029702023 
791	 0.382969407435754 
792	 0.383352501695629 
793	 0.383823703720339 
794	 0.384468846215319 
795	 0.384771981632616 
796	 0.385132497544533 
797	 0.385569483682657 
798	 0.385994429594421 
799	 0.386296631414247 
800	 0.386503879574553 
801	 0.386727668589613 
802	 0.387096585537628 
803	 0.387486834265815 
804	 0.387820897117347 
805	 0.388019511590563 
806	 0.388014359002012 
807	 0.388107806996812 
808	 0.388085518286541 
809	 0.387774389207694 
810	 0.3873665216838 
811	 0.38690238599105 
812	 0.386340673593379 
813	 0.385592156238631 
814	 0.384556103051281 
815	 0.383558167716515 
816	 0.382870350775225 
817	 0.382588898482956 
818	 0.382565860382505 
819	 0.382652065546407 
820	 0.382335310366331 
821	 0.38057973889575 
822	 0.378647057454835 
823	 0.377528990236676 
824	 0.377217975588302 
825	 0.375957882835114 
826	 0.373752415591512 
827	 0.371247544423941 
828	 0.369392849679439 
829	 0.367770679014496 
830	 0.366047528002978 
831	 0.36430367285382 
832	 0.362960634209674 
833	 0.362139764564658 
834	 0.361488488854163 
835	 0.360841697291706 
836	 0.360371254197378 
837	 0.3599160887515 
838	 0.359472125872959 
839	 0.359088012183086 
840	 0.358863887920736 
841	 0.358604894866287 
842	 0.358297520612733 
843	 0.357984152960724 
844	 0.357579831111987 
845	 0.357320848335034 
846	 0.357163898438425 
847	 0.356865998073496 
848	 0.356322467472562 
849	 0.356033473197231 
850	 0.356032376014738 
851	 0.355692435134299 
852	 0.35507662749095 
853	 0.354497244181499 
854	 0.35422015517862 
855	 0.35423788427022 
856	 0.354312280057843 
857	 0.354113874782299 
858	 0.353540510723145 
859	 0.353261173574168 
860	 0.353261001474387 
861	 0.35318596394557 
862	 0.352687469340819 
863	 0.352644791437997 
864	 0.352148787804163 
865	 0.351261661691565 
866	 0.35097672282338 
867	 0.35106376444911 
868	 0.350888594903642 
869	 0.350395956062288 
870	 0.3503154565294 
871	 0.349978997373892 
872	 0.349367780725799 
873	 0.34870604033709 
874	 0.348417968525433 
875	 0.348256739802925 
876	 0.347907193436958 
877	 0.347258765644304 
878	 0.346996872365525 
879	 0.3465233562522 
880	 0.345950292572996 
881	 0.345638770963244 
882	 0.345235032016232 
883	 0.344872720519064 
884	 0.344347300492489 
885	 0.343368879777089 
886	 0.34323011000646 
887	 0.343066904407332 
888	 0.3425213471754 
889	 0.342079894457531 
890	 0.341669215910147 
891	 0.341310582892838 
892	 0.340873914788661 
893	 0.339949205742491 
894	 0.339006153430293 
895	 0.33800584691286 
896	 0.336902594770454 
897	 0.336084879487429 
898	 0.335136740426204 
899	 0.334528529144479 
900	 0.334609876647336 
901	 0.334287963436463 
902	 0.334967794657455 
903	 0.335834040488198 
904	 0.335499792740973 
905	 0.334235195520306 
906	 0.332862165546119 
907	 0.331936367449824 
908	 0.331619451935341 
909	 0.331021497458313 
910	 0.33036620514556 
911	 0.329650710363404 
912	 0.328626021097707 
913	 0.327486953945726 
914	 0.326264897399371 
915	 0.325145468391725 
916	 0.324463492135292 
917	 0.324347940290761 
918	 0.324269710735396 
919	 0.323984065867914 
920	 0.323727771196346 
921	 0.322464042187949 
922	 0.321107152052901 
923	 0.320362282545306 
924	 0.319717342159247 
925	 0.318782666164449 
926	 0.317237461745964 
927	 0.315001739718857 
928	 0.312679675786925 
929	 0.309631999752179 
930	 0.306957990341573 
931	 0.305795350253159 
932	 0.300836383215887 
933	 0.294564693673744 
934	 0.29193356609757 
935	 0.295251032770499 
936	 0.296972533974122 
937	 0.296180363269962 
938	 0.295052248486538 
939	 0.295300693964485 
940	 0.293443616973268 
941	 0.290751214987212 
942	 0.288606381242773 
943	 0.287853928942039 
944	 0.285853614490683 
945	 0.284295178406198 
946	 0.282919072958517 
947	 0.280864366998419 
948	 0.282297842024263 
949	 0.279922053223666 
950	 0.275690130475474 
951	 0.276300422673062 
952	 0.276571686199981 
953	 0.272876972171681 
954	 0.269463380638671 
955	 0.273297065981175 
956	 0.273488108438542 
957	 0.273749956392967 
958	 0.272100921352443 
959	 0.264440981915419 
960	 0.266455371468252 
961	 0.267393572319254 
962	 0.26569806181041 
963	 0.267283790010813 
964	 0.267493131281088 
965	 0.267132589545276 
966	 0.267234302984718 
967	 0.26828377565289 
968	 0.268233981081706 
969	 0.269218992354533 
970	 0.269885113356738 
971	 0.2667445487936 
972	 0.267643769565148 
973	 0.267384633048538 
974	 0.265802543491083 
975	 0.268007276913703 
976	 0.268194374226735 
977	 0.268207546621677 
978	 0.268731291045821 
979	 0.268834849161099 
980	 0.26988820944422 
981	 0.269974275272188 
982	 0.269723063767914 
983	 0.27137173864068 
984	 0.271026905624693 
985	 0.27071061498459 
986	 0.271511470572134 
987	 0.272906418039122 
988	 0.27240699794376 
989	 0.272760395905289 
990	 0.274371228866765 
991	 0.275380129671231 
992	 0.274417364521216 
993	 0.274261925365455 
994	 0.274670080315085 
995	 0.273905202297253 
996	 0.27671996473242 
997	 0.277469041044138 
998	 0.276595355408019 
999	 0.277962327103851 
1000	 0.279028252079819 
1001	 0.28835051566087 
1002	 0.286948609116874 
1003	 0.285109171865347 
1004	 0.28161787525011 
1005	 0.278455136527624 
1006	 0.274386131533004 
1007	 0.270884149501383 
1008	 0.266511247782396 
1009	 0.263520864392135 
1010	 0.259856321086601 
1011	 0.25727368632047 
1012	 0.255707895873371 
1013	 0.255087639403092 
1014	 0.255178093954914 
1015	 0.25664129923084 
1016	 0.257864539501893 
1017	 0.259570357522083 
1018	 0.261249756934637 
1019	 0.263122043976908 
1020	 0.265067663161325 
1021	 0.267065478410396 
1022	 0.269452644212207 
1023	 0.27199938418865 
1024	 0.274946424305722 
1025	 0.278588701546405 
1026	 0.281861951076794 
1027	 0.284637612292808 
1028	 0.287789611258437 
1029	 0.289465394372592 
1030	 0.290586100458497 
1031	 0.290572264682334 
1032	 0.289387323653173 
1033	 0.287790471221225 
1034	 0.285042431865346 
1035	 0.282246732502404 
1036	 0.278368560765951 
1037	 0.275353151931727 
1038	 0.272469599990968 
1039	 0.269363141325219 
1040	 0.26765347793306 
1041	 0.266413660426813 
1042	 0.266156068131729 
1043	 0.266504373120552 
1044	 0.267996500966081 
1045	 0.270811925491535 
1046	 0.273598799038057 
1047	 0.277645580257594 
1048	 0.280870043826154 
1049	 0.28419515366409 
1050	 0.287117611162423 
1051	 0.289554870626554 
1052	 0.292241376149846 
1053	 0.294931990681699 
1054	 0.297451566866826 
1055	 0.299947896616569 
1056	 0.302408858726393 
1057	 0.304793457402162 
1058	 0.306752295282393 
1059	 0.30947966134781 
1060	 0.312132853580427 
1061	 0.315871457106897 
1062	 0.320418678690859 
1063	 0.325003147754729 
1064	 0.330465718227045 
1065	 0.33555773184139 
1066	 0.34088198021582 
1067	 0.345776143342283 
1068	 0.350673872469618 
1069	 0.355205714406472 
1070	 0.359589129513898 
1071	 0.363391943008831 
1072	 0.367083683210677 
1073	 0.370037097003811 
1074	 0.37237830911597 
1075	 0.374039599381085 
1076	 0.375363509606942 
1077	 0.37583517000082 
1078	 0.376696648204365 
1079	 0.377211296938544 
1080	 0.377918435296948 
1081	 0.37882070742663 
1082	 0.379557860006613 
1083	 0.380606675790153 
1084	 0.380892071005023 
1085	 0.380491404524762 
1086	 0.380393623904674 
1087	 0.380269555589745 
1088	 0.379568819545643 
1089	 0.378812592984692 
1090	 0.3779728177856 
1091	 0.376459580536265 
1092	 0.373946458024395 
1093	 0.371971519559577 
1094	 0.369796346849373 
1095	 0.367867638385535 
1096	 0.365745216883574 
1097	 0.364204108698036 
1098	 0.362708971538377 
1099	 0.362005389597797 
1100	 0.362206135162805 
1101	 0.362325325496553 
1102	 0.362904474497741 
1103	 0.363710397364544 
1104	 0.365220028384861 
1105	 0.365857141132052 
1106	 0.367346787469046 
1107	 0.369351659446231 
1108	 0.371742402568282 
1109	 0.373748250994793 
1110	 0.376083485362105 
1111	 0.379267907372917 
1112	 0.381328478507833 
1113	 0.383364647229713 
1114	 0.384799962782863 
1115	 0.385338021821553 
1116	 0.38547734134426 
1117	 0.383756154254487 
1118	 0.382664709661598 
1119	 0.38131262168676 
1120	 0.378525497291964 
1121	 0.3749586988354 
1122	 0.369699234610125 
1123	 0.362302282558241 
1124	 0.35206812726024 
1125	 0.343093889621123 
1126	 0.335666574747267 
1127	 0.330484123493289 
1128	 0.324675614546221 
1129	 0.319948954970353 
1130	 0.31595642298735 
1131	 0.315032188100536 
1132	 0.315166587814568 
1133	 0.316168581395826 
1134	 0.319183265058423 
1135	 0.322063997366493 
1136	 0.323634587920644 
1137	 0.327124486970896 
1138	 0.333257286974402 
1139	 0.33734348331412 
1140	 0.341654281415743 
1141	 0.345581884491864 
1142	 0.348027643735669 
1143	 0.350360342989008 
1144	 0.351573407726298 
1145	 0.352137558188349 
1146	 0.3495700286783 
