Wavelength	rt0711a300006.asd
350	 0.127239644140681 
351	 0.129358733843578 
352	 0.131095490531388 
353	 0.132084204537307 
354	 0.132834271638729 
355	 0.135381655725708 
356	 0.137551512221297 
357	 0.139434738236742 
358	 0.141520968544713 
359	 0.142784321162617 
360	 0.144151039121738 
361	 0.146042576160475 
362	 0.148282812693791 
363	 0.148904526791689 
364	 0.149933452372891 
365	 0.152081461799822 
366	 0.153394681306643 
367	 0.154850388138792 
368	 0.156484638613138 
369	 0.15807756592242 
370	 0.159309288441367 
371	 0.160859787384754 
372	 0.162631619298682 
373	 0.164103190780189 
374	 0.165458719774261 
375	 0.1665669217528 
376	 0.167547517030646 
377	 0.168876948912335 
378	 0.170055634831829 
379	 0.171208812923909 
380	 0.172441722212963 
381	 0.173293479846359 
382	 0.174472689486843 
383	 0.175820371247515 
384	 0.176740933254223 
385	 0.176870664026018 
386	 0.177124985543065 
387	 0.177744374927234 
388	 0.178129020007525 
389	 0.1790258208462 
390	 0.179562684635282 
391	 0.179369681946107 
392	 0.179995689502733 
393	 0.180450663808143 
394	 0.180416159285528 
395	 0.179969742159735 
396	 0.17970500713379 
397	 0.179276977634456 
398	 0.178656862733064 
399	 0.178118245651295 
400	 0.177579561644952 
401	 0.177183228479272 
402	 0.176954154477997 
403	 0.176607428499146 
404	 0.176304254636656 
405	 0.176032150530789 
406	 0.175669346061234 
407	 0.174842794531542 
408	 0.174121476009976 
409	 0.173569475474865 
410	 0.172725091354488 
411	 0.171795516985145 
412	 0.171025324323907 
413	 0.170466943178481 
414	 0.169712946437732 
415	 0.169064568978098 
416	 0.168359526121124 
417	 0.167393357709982 
418	 0.166894837869013 
419	 0.166338516427882 
420	 0.165586880294533 
421	 0.165003779607237 
422	 0.164576192747453 
423	 0.164201023830568 
424	 0.163895466677766 
425	 0.164093357778729 
426	 0.164371911282296 
427	 0.16463232243716 
428	 0.164947085868271 
429	 0.165409366695666 
430	 0.165724923143029 
431	 0.165879611280447 
432	 0.166218682693594 
433	 0.166606232137234 
434	 0.166934918478546 
435	 0.167176585694342 
436	 0.167538421310838 
437	 0.167736466806845 
438	 0.167738123030761 
439	 0.167638191209556 
440	 0.167299843072384 
441	 0.166906355349881 
442	 0.166550844230966 
443	 0.166147418182604 
444	 0.165709629694699 
445	 0.165189400350495 
446	 0.164564904190163 
447	 0.163959231099992 
448	 0.163327292870052 
449	 0.162635682870244 
450	 0.161880261670512 
451	 0.161297624564404 
452	 0.160801739361728 
453	 0.160253720434855 
454	 0.159504879499106 
455	 0.1587930121731 
456	 0.158140219681379 
457	 0.157483481625362 
458	 0.156762788777361 
459	 0.156116156583807 
460	 0.155534515764791 
461	 0.15486325136626 
462	 0.154235666154856 
463	 0.15365209701752 
464	 0.15305946077836 
465	 0.152317488902081 
466	 0.151711658875309 
467	 0.151148866233846 
468	 0.15040541675406 
469	 0.149827456510429 
470	 0.149311709860185 
471	 0.148757181606578 
472	 0.148125806185913 
473	 0.1475373721743 
474	 0.147089371798592 
475	 0.146767601915513 
476	 0.146218066054455 
477	 0.145657249005834 
478	 0.145234655573143 
479	 0.145009296328193 
480	 0.14465074150417 
481	 0.144394244318213 
482	 0.144373360303684 
483	 0.144366530596313 
484	 0.144388264392909 
485	 0.144445046326879 
486	 0.144505152552195 
487	 0.144312522836664 
488	 0.144179387717488 
489	 0.144235515468542 
490	 0.144402002904992 
491	 0.144732233479316 
492	 0.145020843911328 
493	 0.145135654646739 
494	 0.145249998761342 
495	 0.145474437293868 
496	 0.145734413039707 
497	 0.145904188129976 
498	 0.14635822505511 
499	 0.146726775330751 
500	 0.146828085238579 
501	 0.146876904712035 
502	 0.147024194825497 
503	 0.147162973214084 
504	 0.147188231433831 
505	 0.147344474147624 
506	 0.147568072644096 
507	 0.14777611155111 
508	 0.147886163764933 
509	 0.147959151764391 
510	 0.148124860720842 
511	 0.14843644730815 
512	 0.148761958893716 
513	 0.14908061215879 
514	 0.149518286478636 
515	 0.150201759277066 
516	 0.150775996927753 
517	 0.151323623857759 
518	 0.151891877611687 
519	 0.152434275880171 
520	 0.153285637782801 
521	 0.154328544383325 
522	 0.155389660564925 
523	 0.156429941818409 
524	 0.157867815808688 
525	 0.159651249823153 
526	 0.161382723744717 
527	 0.162851080267342 
528	 0.164436418922841 
529	 0.166394279818075 
530	 0.168595850264212 
531	 0.17099882637568 
532	 0.173523271828595 
533	 0.176071517437418 
534	 0.178557365379052 
535	 0.181303069597303 
536	 0.184363443455686 
537	 0.187455522845155 
538	 0.190630565169024 
539	 0.193867265355595 
540	 0.19711852987788 
541	 0.200302376497849 
542	 0.203468545634975 
543	 0.206604843462274 
544	 0.209676831235115 
545	 0.212717907678348 
546	 0.215694471960391 
547	 0.218565399388911 
548	 0.221295432607583 
549	 0.223908738881545 
550	 0.226421258193685 
551	 0.228839915886889 
552	 0.231092150840499 
553	 0.233268983056869 
554	 0.235434436795379 
555	 0.237598617319646 
556	 0.239902039532221 
557	 0.242275891308878 
558	 0.244573994884499 
559	 0.246653861334046 
560	 0.248886338192826 
561	 0.251232905064106 
562	 0.253435585287348 
563	 0.25571534096199 
564	 0.258037463596337 
565	 0.260327491165308 
566	 0.262510324255478 
567	 0.264608863485094 
568	 0.266610595008252 
569	 0.268496182835457 
570	 0.270295981866608 
571	 0.271927515589092 
572	 0.273465561491965 
573	 0.275148133518007 
574	 0.276699099231655 
575	 0.278097721127164 
576	 0.27940096031843 
577	 0.280743258248145 
578	 0.282018405617501 
579	 0.283183381826415 
580	 0.284246573809261 
581	 0.28528667432005 
582	 0.286320844600942 
583	 0.2873388406326 
584	 0.288295800729741 
585	 0.289172627555598 
586	 0.289968601016109 
587	 0.290708435905708 
588	 0.291475531839507 
589	 0.292016305924625 
590	 0.292307372684704 
591	 0.29261872724739 
592	 0.293066312108327 
593	 0.293592177660423 
594	 0.294059094269992 
595	 0.29426615026963 
596	 0.294443153134162 
597	 0.294688699052475 
598	 0.295005783940446 
599	 0.295287263227919 
600	 0.295589016711206 
601	 0.295936151086497 
602	 0.296270734504265 
603	 0.296516239431597 
604	 0.296808559719943 
605	 0.297277959422848 
606	 0.297652627897243 
607	 0.297981686785432 
608	 0.29831057086335 
609	 0.298661475440348 
610	 0.298973308613914 
611	 0.299288905604212 
612	 0.299634115476204 
613	 0.299912538412991 
614	 0.300205822794996 
615	 0.300530498299484 
616	 0.300856754727896 
617	 0.301137556328906 
618	 0.301414490819544 
619	 0.301715526561455 
620	 0.30202893935709 
621	 0.302233308773494 
622	 0.302442701397326 
623	 0.302786829661059 
624	 0.303073936243277 
625	 0.303288521817767 
626	 0.303486977564193 
627	 0.303776541642462 
628	 0.304002989270091 
629	 0.304307364724213 
630	 0.304744955619172 
631	 0.304994887003363 
632	 0.305247254059664 
633	 0.305536831127616 
634	 0.305830999345491 
635	 0.306165649620652 
636	 0.30643314563561 
637	 0.306638664701816 
638	 0.306968803583516 
639	 0.307232720319965 
640	 0.307401211101318 
641	 0.307531783254869 
642	 0.307833185783991 
643	 0.308040895031502 
644	 0.308104429209393 
645	 0.308154854349687 
646	 0.308203799779429 
647	 0.308345717885165 
648	 0.308593705132692 
649	 0.308768911306046 
650	 0.308862080410787 
651	 0.308894837451392 
652	 0.308899784518338 
653	 0.308852946362268 
654	 0.308779101274902 
655	 0.30864741429968 
656	 0.308378161337565 
657	 0.308166226162322 
658	 0.307987343052346 
659	 0.307772804455539 
660	 0.307487558175245 
661	 0.307254507900695 
662	 0.307071238084856 
663	 0.306857479926119 
664	 0.306575226690146 
665	 0.306366187264353 
666	 0.306267460409473 
667	 0.306096024590532 
668	 0.305946155693135 
669	 0.305863111454969 
670	 0.305863321355127 
671	 0.305890374069095 
672	 0.305944399949073 
673	 0.306033364676312 
674	 0.30616883896339 
675	 0.306317990752822 
676	 0.306498543714167 
677	 0.306715069291808 
678	 0.306898436522561 
679	 0.307214259949536 
680	 0.307600838597732 
681	 0.307932229884684 
682	 0.308439879331076 
683	 0.308996279457363 
684	 0.309472163812404 
685	 0.30980968304532 
686	 0.310267123617896 
687	 0.310787333484575 
688	 0.311230366144394 
689	 0.311719621596417 
690	 0.312077706726646 
691	 0.312314651943472 
692	 0.312543638065356 
693	 0.312650683038849 
694	 0.312923749135838 
695	 0.313362417710338 
696	 0.313484109686643 
697	 0.313432331236729 
698	 0.313269582645969 
699	 0.313056349960639 
700	 0.312845925837925 
701	 0.31273726659081 
702	 0.312640014422386 
703	 0.312335047313733 
704	 0.312027594012484 
705	 0.311705907915761 
706	 0.311324123748284 
707	 0.310807458927837 
708	 0.310307615980543 
709	 0.309762556643687 
710	 0.30904461877947 
711	 0.308164945916409 
712	 0.307235716923019 
713	 0.306216298862936 
714	 0.304878525452634 
715	 0.303399129840171 
716	 0.301849685558905 
717	 0.300400751370972 
718	 0.299092940210768 
719	 0.297956839747601 
720	 0.296965855493367 
721	 0.295879301321088 
722	 0.29447207177468 
723	 0.292832929509402 
724	 0.291245486422053 
725	 0.289767660124985 
726	 0.28813204537144 
727	 0.286335451039643 
728	 0.284448074405056 
729	 0.282464614855402 
730	 0.280335399433603 
731	 0.278311775560722 
732	 0.276614169162718 
733	 0.275038887405257 
734	 0.273453421993519 
735	 0.272001303774298 
736	 0.27115816667235 
737	 0.270396140952116 
738	 0.269821122627804 
739	 0.269576288739741 
740	 0.269421699295786 
741	 0.269216268138625 
742	 0.269017154328474 
743	 0.268966698415836 
744	 0.268945648572536 
745	 0.268851953384673 
746	 0.268735935587271 
747	 0.268843366017955 
748	 0.268829912334195 
749	 0.268773088882188 
750	 0.268793275938635 
751	 0.268775125981346 
752	 0.268751881006068 
753	 0.268756215482069 
754	 0.268798931968398 
755	 0.268751981623433 
756	 0.268502178751132 
757	 0.26808798254556 
758	 0.267690661922529 
759	 0.267733473735008 
760	 0.26796656484913 
761	 0.267702131929013 
762	 0.267895821771238 
763	 0.268282601187999 
764	 0.268706282369182 
765	 0.269096254445375 
766	 0.269466440087438 
767	 0.269732637697553 
768	 0.269900419094123 
769	 0.270045543962274 
770	 0.270243060113569 
771	 0.270456637862523 
772	 0.270663253761078 
773	 0.270955950101481 
774	 0.271190332198599 
775	 0.27144229097956 
776	 0.271838651662187 
777	 0.272172567345251 
778	 0.272466719714854 
779	 0.272752684764797 
780	 0.273057803082486 
781	 0.27341937781556 
782	 0.273795712573918 
783	 0.274139567718041 
784	 0.274414896963767 
785	 0.27482393412382 
786	 0.275286258187045 
787	 0.275642867920088 
788	 0.275920723662942 
789	 0.276335100168112 
790	 0.276909841497716 
791	 0.277486088841454 
792	 0.277792298700456 
793	 0.278196367344418 
794	 0.27881734032252 
795	 0.279217664476288 
796	 0.279489686155471 
797	 0.279803583529901 
798	 0.280237600013562 
799	 0.280402412207463 
800	 0.280789468693435 
801	 0.28126671855588 
802	 0.281427768005801 
803	 0.281677096376635 
804	 0.281875930177438 
805	 0.281939675282448 
806	 0.281899471333592 
807	 0.281850959404497 
808	 0.281784822840741 
809	 0.281596743535436 
810	 0.28097835438521 
811	 0.280403975452505 
812	 0.280005270739052 
813	 0.279720514809469 
814	 0.279233753837347 
815	 0.278669121981508 
816	 0.278172830754642 
817	 0.277806098380136 
818	 0.277201219199237 
819	 0.276281878785734 
820	 0.275230199815943 
821	 0.274545626221568 
822	 0.273586218571688 
823	 0.272048579528942 
824	 0.270111558304705 
825	 0.268519604989695 
826	 0.266627204368998 
827	 0.264499934989166 
828	 0.2625098296001 
829	 0.260302845611124 
830	 0.25840100666599 
831	 0.2569232736286 
832	 0.255669627516389 
833	 0.254438189540304 
834	 0.253400289320134 
835	 0.25260889676838 
836	 0.251914929609069 
837	 0.251351483291278 
838	 0.250741652824305 
839	 0.250070260047889 
840	 0.249850382395296 
841	 0.249614989373534 
842	 0.249262498452703 
843	 0.248837510816321 
844	 0.248364255443335 
845	 0.247822318288544 
846	 0.247389114348939 
847	 0.24729682172026 
848	 0.247057967550524 
849	 0.246551623968255 
850	 0.245926649453619 
851	 0.245584949752192 
852	 0.245485313194578 
853	 0.245433365303111 
854	 0.24513820899569 
855	 0.244188542129508 
856	 0.243823675204854 
857	 0.243694793765535 
858	 0.243280053157547 
859	 0.243211763905604 
860	 0.242983457920209 
861	 0.242439002319223 
862	 0.241754558600613 
863	 0.241836694435993 
864	 0.24173262244309 
865	 0.241181321644278 
866	 0.240695682407263 
867	 0.240441093516022 
868	 0.240046946116141 
869	 0.239451167831828 
870	 0.239078714591445 
871	 0.23877801163898 
872	 0.238213458256688 
873	 0.237391819199874 
874	 0.23716075077059 
875	 0.236894195869457 
876	 0.236325334906887 
877	 0.235508863593919 
878	 0.235173421984838 
879	 0.234852811912753 
880	 0.234314490689491 
881	 0.233539718282025 
882	 0.232862838791484 
883	 0.232403631700958 
884	 0.232037575822784 
885	 0.231481612073201 
886	 0.230679685350365 
887	 0.23019846636819 
888	 0.229931234919809 
889	 0.229021292502813 
890	 0.228176666348382 
891	 0.227613472244035 
892	 0.227202420920876 
893	 0.226345455790133 
894	 0.226047411037909 
895	 0.225843862460215 
896	 0.225200145740569 
897	 0.224765315094636 
898	 0.224624625751448 
899	 0.224569606908645 
900	 0.224183203311272 
901	 0.222861060761766 
902	 0.221469425916492 
903	 0.220497039552632 
904	 0.220126643277535 
905	 0.220084413915948 
906	 0.220335073809523 
907	 0.220277345396947 
908	 0.219135867389017 
909	 0.217997909489435 
910	 0.216769478367976 
911	 0.215676434219129 
912	 0.215239044893124 
913	 0.215355015589103 
914	 0.214424993759551 
915	 0.212617310202051 
916	 0.212047320337279 
917	 0.211383717411625 
918	 0.209815269047857 
919	 0.207847822572093 
920	 0.207439822350126 
921	 0.206424434410016 
922	 0.204901666363945 
923	 0.203378245949397 
924	 0.202278062037939 
925	 0.199965800593583 
926	 0.197852627301706 
927	 0.197470443808452 
928	 0.197100464249488 
929	 0.195528316097417 
930	 0.193812979590091 
931	 0.194145575166312 
932	 0.195013752151948 
933	 0.192188292243431 
934	 0.187816337943876 
935	 0.186019791296601 
936	 0.18126098268381 
937	 0.179714974461038 
938	 0.17820516963494 
939	 0.173404691874471 
940	 0.1731556591248 
941	 0.173742901662911 
942	 0.172965357882495 
943	 0.1703857543042 
944	 0.170833992687046 
945	 0.16916750598443 
946	 0.165284749473917 
947	 0.162588669807252 
948	 0.16242995373644 
949	 0.158300960943928 
950	 0.153813986352391 
951	 0.156462822689601 
952	 0.154113560361418 
953	 0.151097739826368 
954	 0.149234980777246 
955	 0.147708865008194 
956	 0.147016336810847 
957	 0.146961211989411 
958	 0.145664606133524 
959	 0.141500849520567 
960	 0.142059916315157 
961	 0.14181633919054 
962	 0.140062104364897 
963	 0.139997668816885 
964	 0.139422087021478 
965	 0.138951114363819 
966	 0.138111174130056 
967	 0.136069676112344 
968	 0.136949474811153 
969	 0.136455314958887 
970	 0.134494198942916 
971	 0.134898894861257 
972	 0.136790336749177 
973	 0.137804862987315 
974	 0.13754201549134 
975	 0.137671014296895 
976	 0.138148201201126 
977	 0.13787386278683 
978	 0.136938988122958 
979	 0.136478921104551 
980	 0.136053102108052 
981	 0.137273902502871 
982	 0.139029075458489 
983	 0.138549112168748 
984	 0.138633152273274 
985	 0.138996691919448 
986	 0.139109951444946 
987	 0.13870594448558 
988	 0.138983710221121 
989	 0.139196820909474 
990	 0.140310517205282 
991	 0.143416456432202 
992	 0.140937450447917 
993	 0.139985430601398 
994	 0.141129871631729 
995	 0.14042192725489 
996	 0.142426901172345 
997	 0.143216189901323 
998	 0.142967262168228 
999	 0.144215872589143 
1000	 0.145148670603105 
1001	 0.1205042512959 
1002	 0.121395791385784 
1003	 0.122087876917932 
1004	 0.122583573558524 
1005	 0.12318707601015 
1006	 0.123772613645127 
1007	 0.124431623823832 
1008	 0.125103476064822 
1009	 0.125858978944511 
1010	 0.126176395925496 
1011	 0.12642551580988 
1012	 0.126919993881071 
1013	 0.127049035606898 
1014	 0.127547202708754 
1015	 0.128485182753792 
1016	 0.129169553788692 
1017	 0.129658110618288 
1018	 0.130478541641355 
1019	 0.131480555899471 
1020	 0.132336132582381 
1021	 0.133328850359875 
1022	 0.134289003697833 
1023	 0.135220204382748 
1024	 0.135744737156286 
1025	 0.136155722296994 
1026	 0.136941018659948 
1027	 0.137652886567458 
1028	 0.138216483031314 
1029	 0.139068078393909 
1030	 0.140234143746771 
1031	 0.141191575851919 
1032	 0.142186093568744 
1033	 0.143130382085546 
1034	 0.144092716663668 
1035	 0.144798625220561 
1036	 0.145402312380749 
1037	 0.145970454445447 
1038	 0.146126974609024 
1039	 0.146676386335765 
1040	 0.147632150585659 
1041	 0.14794032702493 
1042	 0.148553827989283 
1043	 0.14930234913688 
1044	 0.149983998798055 
1045	 0.150712571326477 
1046	 0.151281568386316 
1047	 0.151762801900841 
1048	 0.152262858498211 
1049	 0.152580087533643 
1050	 0.153025361258049 
1051	 0.153787958972236 
1052	 0.154166672144272 
1053	 0.154110883878473 
1054	 0.154438965413035 
1055	 0.154796292762849 
1056	 0.155157919649886 
1057	 0.15562367779074 
1058	 0.156520262989409 
1059	 0.156878232694521 
1060	 0.156929923020097 
1061	 0.15713969579442 
1062	 0.157284277324452 
1063	 0.157395714249955 
1064	 0.157506077159922 
1065	 0.157608287427099 
1066	 0.157688866649793 
1067	 0.157680816251223 
1068	 0.157439557198079 
1069	 0.157545418710156 
1070	 0.157940308478091 
1071	 0.158041384241154 
1072	 0.158361977781758 
1073	 0.158531103200781 
1074	 0.158197549120353 
1075	 0.157148103924391 
1076	 0.156811794140386 
1077	 0.156450715061208 
1078	 0.15627017333355 
1079	 0.156653568538983 
1080	 0.156452231665338 
1081	 0.155813796976882 
1082	 0.15551099540585 
1083	 0.155329369433818 
1084	 0.154937310294313 
1085	 0.15458393551517 
1086	 0.154222760831176 
1087	 0.153629855863852 
1088	 0.153018260440032 
1089	 0.15236052650746 
1090	 0.151806978184872 
1091	 0.15152451423533 
1092	 0.151437390337021 
1093	 0.150936378846946 
1094	 0.150615706280518 
1095	 0.15002646863952 
1096	 0.148724197199991 
1097	 0.148064553965735 
1098	 0.14784068712482 
1099	 0.147337568683765 
1100	 0.146935122132585 
1101	 0.146299772828117 
1102	 0.145179642299323 
1103	 0.144553073559245 
1104	 0.144243348689517 
1105	 0.14377371505583 
1106	 0.143080217154641 
1107	 0.142577124299017 
1108	 0.141687326668281 
1109	 0.140528089048662 
1110	 0.139734361967227 
1111	 0.139259919409984 
1112	 0.138846162702582 
1113	 0.138725710571972 
1114	 0.138169647592916 
1115	 0.137637883155925 
1116	 0.136787952828387 
1117	 0.134577594804088 
1118	 0.133856947254108 
1119	 0.135673177270313 
1120	 0.134911112958975 
1121	 0.133418750719706 
1122	 0.131694809624969 
1123	 0.127482124316717 
1124	 0.123689483744585 
1125	 0.124165903564812 
1126	 0.125466526473505 
1127	 0.121496196654181 
1128	 0.116496494401771 
1129	 0.115597766109264 
1130	 0.116001440977367 
1131	 0.114016339856277 
1132	 0.114543529970176 
1133	 0.113051556021541 
1134	 0.108027513913455 
1135	 0.105862866981691 
1136	 0.106514137431319 
1137	 0.104766230572045 
1138	 0.10255590818384 
1139	 9.86016698793585E-02 
1140	 9.64395111276686E-02 
1141	 9.50386508803745E-02 
1142	 9.28285325908156E-02 
1143	 9.10974969925827E-02 
1144	 8.97190313326783E-02 
