Wavelength	rt0711a200008.asd
350	 0.121965983750478 
351	 0.124070129954893 
352	 0.126046773108377 
353	 0.128022806402182 
354	 0.130058660286559 
355	 0.131805371635436 
356	 0.133470629603891 
357	 0.135563955821432 
358	 0.138189677079611 
359	 0.139421244943664 
360	 0.141139700847278 
361	 0.14358517550321 
362	 0.145757559856858 
363	 0.14709194529474 
364	 0.148434274157165 
365	 0.150265752340084 
366	 0.152282171571145 
367	 0.153964163687943 
368	 0.155531612214432 
369	 0.157305918797378 
370	 0.15917720783982 
371	 0.161004333776904 
372	 0.162892245658513 
373	 0.164970321699101 
374	 0.166208576462385 
375	 0.167395051747142 
376	 0.168977135413264 
377	 0.170669547299272 
378	 0.172324921653458 
379	 0.173932481367525 
380	 0.175335499558242 
381	 0.175682928365894 
382	 0.17682349316491 
383	 0.178532634992021 
384	 0.179607952522941 
385	 0.179975797172946 
386	 0.180573992470141 
387	 0.181576761957533 
388	 0.182239412636154 
389	 0.182819922703134 
390	 0.18309777421337 
391	 0.183052058029334 
392	 0.183318494416927 
393	 0.183355686274612 
394	 0.18336360100955 
395	 0.183593488458569 
396	 0.183086160800736 
397	 0.182490606180555 
398	 0.181995593825727 
399	 0.181332614568338 
400	 0.180993852617931 
401	 0.180570723308681 
402	 0.179852693588665 
403	 0.179390482681475 
404	 0.178674879713268 
405	 0.177897262807287 
406	 0.177355604164648 
407	 0.176384735608938 
408	 0.175426896712329 
409	 0.174572726190126 
410	 0.173519929682095 
411	 0.172502644830337 
412	 0.171630503450778 
413	 0.170840553676291 
414	 0.169701352953193 
415	 0.16875879317325 
416	 0.167857067794813 
417	 0.166685289328183 
418	 0.165872641306945 
419	 0.165045153219669 
420	 0.164136565223054 
421	 0.163473405876364 
422	 0.162956138859506 
423	 0.162518103933539 
424	 0.162189336345496 
425	 0.162272573617828 
426	 0.162417036392144 
427	 0.162545486654918 
428	 0.162738340570495 
429	 0.163145483766679 
430	 0.163553528318986 
431	 0.163945589634024 
432	 0.164571236591154 
433	 0.164995271229047 
434	 0.165312996969897 
435	 0.16564055803549 
436	 0.165775303084948 
437	 0.16583724715102 
438	 0.165843304397465 
439	 0.165739642465088 
440	 0.165394636629819 
441	 0.164942889966699 
442	 0.164456776797479 
443	 0.163873525814146 
444	 0.163204165348788 
445	 0.162470778022963 
446	 0.161696687132353 
447	 0.160887528501509 
448	 0.160007652630124 
449	 0.159106293754565 
450	 0.158283091462818 
451	 0.157472119802307 
452	 0.156718198787915 
453	 0.15599115562368 
454	 0.155076719942292 
455	 0.154193046661186 
456	 0.153338734768405 
457	 0.152462669252928 
458	 0.151691578281299 
459	 0.150933520294517 
460	 0.150129308144394 
461	 0.149273399462814 
462	 0.148448698138854 
463	 0.14770711537104 
464	 0.147018288784308 
465	 0.146149110156343 
466	 0.1453530895496 
467	 0.144627056667014 
468	 0.143851778220761 
469	 0.143088876837405 
470	 0.142387272386401 
471	 0.141730300251293 
472	 0.141019660924246 
473	 0.140357826281197 
474	 0.139781935104369 
475	 0.139277622264709 
476	 0.138734310943766 
477	 0.138144809680598 
478	 0.137603280864019 
479	 0.137245955674486 
480	 0.136870976530194 
481	 0.136601640498863 
482	 0.136475220131969 
483	 0.136263213995227 
484	 0.136151366304321 
485	 0.136131260197414 
486	 0.136105642112805 
487	 0.13590802536156 
488	 0.135871715758586 
489	 0.136046682637829 
490	 0.136191767061012 
491	 0.136352285575163 
492	 0.136515900600631 
493	 0.136679837621299 
494	 0.136881372570434 
495	 0.137147051877315 
496	 0.137397038787106 
497	 0.137540512046787 
498	 0.137897425828078 
499	 0.138179573485109 
500	 0.138240545922766 
501	 0.13823707077439 
502	 0.138438954934291 
503	 0.138637481719359 
504	 0.138619540321949 
505	 0.138768164134304 
506	 0.138921748307073 
507	 0.139033475278836 
508	 0.13915569605084 
509	 0.139240536546075 
510	 0.139389687378301 
511	 0.13965723426111 
512	 0.139943903607949 
513	 0.140234005071776 
514	 0.14061873041772 
515	 0.141191185679181 
516	 0.141686198436306 
517	 0.142281454959969 
518	 0.143029664661497 
519	 0.143785184901634 
520	 0.144704188210591 
521	 0.145777324226999 
522	 0.146958131850734 
523	 0.148164371583704 
524	 0.149586708345712 
525	 0.151278640738963 
526	 0.153177607326541 
527	 0.155113322415288 
528	 0.157110333044758 
529	 0.159254485104661 
530	 0.161713457666965 
531	 0.16433221931289 
532	 0.167166985577965 
533	 0.170275186661002 
534	 0.173331972259549 
535	 0.176583412250911 
536	 0.180129562494419 
537	 0.183848466419195 
538	 0.18766896521088 
539	 0.191612097391078 
540	 0.195680119288139 
541	 0.199750960401716 
542	 0.20379719569967 
543	 0.207815308672432 
544	 0.211829003672909 
545	 0.215780156101205 
546	 0.219661565950905 
547	 0.22346314108323 
548	 0.227170420745891 
549	 0.230676106080066 
550	 0.234024064601287 
551	 0.237302310430499 
552	 0.240429706520877 
553	 0.24348052566911 
554	 0.246513998758117 
555	 0.249543699675591 
556	 0.252630065556503 
557	 0.255772145874051 
558	 0.25893014067987 
559	 0.262111545322459 
560	 0.265346608467737 
561	 0.268666030578711 
562	 0.272113078487374 
563	 0.275635412377854 
564	 0.2791897719817 
565	 0.282723586464141 
566	 0.286180229772077 
567	 0.289567219544687 
568	 0.292804094562484 
569	 0.295800937977035 
570	 0.29864044872144 
571	 0.301244557245982 
572	 0.303646913017974 
573	 0.306004825681354 
574	 0.308329798689925 
575	 0.310566224191508 
576	 0.31266404843809 
577	 0.314712281387613 
578	 0.316609011922643 
579	 0.318474468820136 
580	 0.320514421030563 
581	 0.322379373160216 
582	 0.324026707046821 
583	 0.32551785388727 
584	 0.327011702551062 
585	 0.328473497283425 
586	 0.329816357821374 
587	 0.330993785953243 
588	 0.332262201671716 
589	 0.333409291098913 
590	 0.334373438938163 
591	 0.33535383866164 
592	 0.336292251060226 
593	 0.337214536612829 
594	 0.338115898542135 
595	 0.338939776500013 
596	 0.339673412676687 
597	 0.340382737419238 
598	 0.34115312840689 
599	 0.341816422477072 
600	 0.342418183788099 
601	 0.343054962379974 
602	 0.343879825313541 
603	 0.344544429683397 
604	 0.345100754748649 
605	 0.34571565533145 
606	 0.34640595917817 
607	 0.347106898121022 
608	 0.347767638363933 
609	 0.348358244005988 
610	 0.348926374142035 
611	 0.349489775656585 
612	 0.350060183712439 
613	 0.350651356577246 
614	 0.351218810269938 
615	 0.351763892306026 
616	 0.352305751639155 
617	 0.352825088864136 
618	 0.353319568762512 
619	 0.353830810561713 
620	 0.354463298673653 
621	 0.355004455637677 
622	 0.355488216064973 
623	 0.35600076288639 
624	 0.356451887826997 
625	 0.35693972179881 
626	 0.357464980435195 
627	 0.357934294947903 
628	 0.358435098379056 
629	 0.359031418142552 
630	 0.359697264743962 
631	 0.360179089717913 
632	 0.360624281782116 
633	 0.361129034351788 
634	 0.361736509768776 
635	 0.362261807873276 
636	 0.362737153461112 
637	 0.363200945737861 
638	 0.36367181738846 
639	 0.364172174697116 
640	 0.364637667382376 
641	 0.365029028835875 
642	 0.365554591417336 
643	 0.36588683267354 
644	 0.366080011806109 
645	 0.366478065889331 
646	 0.366747471821521 
647	 0.367059214250876 
648	 0.36749712700617 
649	 0.367742211868455 
650	 0.368020087513813 
651	 0.368325141621124 
652	 0.368549549429968 
653	 0.368585998281011 
654	 0.368618705087101 
655	 0.368698526875444 
656	 0.368663094186825 
657	 0.368497647250886 
658	 0.368316488842009 
659	 0.368194848967186 
660	 0.368048738234181 
661	 0.367905284967646 
662	 0.367716721228612 
663	 0.367420435550101 
664	 0.367265698909961 
665	 0.367149995386072 
666	 0.366990039268273 
667	 0.366821688427396 
668	 0.366691179711453 
669	 0.366620186473336 
670	 0.366617399408337 
671	 0.366678119294295 
672	 0.366814786123993 
673	 0.366997440395512 
674	 0.367167559244258 
675	 0.36749757285542 
676	 0.367913632998233 
677	 0.368336956545139 
678	 0.368811327403887 
679	 0.369182363572196 
680	 0.369606714259303 
681	 0.370324182587438 
682	 0.371058811861306 
683	 0.371825414714073 
684	 0.372567784761349 
685	 0.373160370060746 
686	 0.37384050798017 
687	 0.374655041857856 
688	 0.375505560146253 
689	 0.376309412316522 
690	 0.376935192062204 
691	 0.377415350783011 
692	 0.377889689754257 
693	 0.37841196385704 
694	 0.379047130160846 
695	 0.379682581230867 
696	 0.380012402107403 
697	 0.38016640308146 
698	 0.380255449902939 
699	 0.380372437259656 
700	 0.380543558691643 
701	 0.380666365423159 
702	 0.380715606234861 
703	 0.380734731677437 
704	 0.380665107662767 
705	 0.380592957392817 
706	 0.380537032053892 
707	 0.380312302060172 
708	 0.380124376585326 
709	 0.379890899385773 
710	 0.379470072612768 
711	 0.379044983309141 
712	 0.378468564639406 
713	 0.377734142682451 
714	 0.376973196018938 
715	 0.37593463741716 
716	 0.374781499916168 
717	 0.373786061123618 
718	 0.372755649141215 
719	 0.371997857580295 
720	 0.371412932516954 
721	 0.370662984691942 
722	 0.369712832540031 
723	 0.368525388053432 
724	 0.367257236820157 
725	 0.366029058037615 
726	 0.364802416632628 
727	 0.363430527843241 
728	 0.361825627790024 
729	 0.360062402044323 
730	 0.358188330436447 
731	 0.356430681220252 
732	 0.354950681416863 
733	 0.353613684464329 
734	 0.352200779321305 
735	 0.350848148895052 
736	 0.350142839597291 
737	 0.34953913145323 
738	 0.349019561286493 
739	 0.348686370323442 
740	 0.348579803751187 
741	 0.348506994730434 
742	 0.348439835824294 
743	 0.348438842566757 
744	 0.348486022309063 
745	 0.348466131767962 
746	 0.348425190953516 
747	 0.348632909673138 
748	 0.348644894547178 
749	 0.34860678263149 
750	 0.348718057825927 
751	 0.348839303203478 
752	 0.348878711094787 
753	 0.348877898018587 
754	 0.348946036141983 
755	 0.34907213544262 
756	 0.349037611655744 
757	 0.348800770176497 
758	 0.348539914893135 
759	 0.348559727965488 
760	 0.348614700133568 
761	 0.348305692530463 
762	 0.348605019050208 
763	 0.349019254332319 
764	 0.349381365494883 
765	 0.349714548727104 
766	 0.350178115777654 
767	 0.35046993559114 
768	 0.350620341319783 
769	 0.350947090987465 
770	 0.351148298048432 
771	 0.351338844020422 
772	 0.351640893328895 
773	 0.351974257096544 
774	 0.352291925833992 
775	 0.352594728245183 
776	 0.352914608841323 
777	 0.353278818401568 
778	 0.353651744223197 
779	 0.354009158111984 
780	 0.354352155499808 
781	 0.354799669574371 
782	 0.355166429174633 
783	 0.355399249868803 
784	 0.355873391210772 
785	 0.356280632165056 
786	 0.356664754441711 
787	 0.357132967483043 
788	 0.357437431183839 
789	 0.357896262651794 
790	 0.358497449916321 
791	 0.358957461017184 
792	 0.359287626943368 
793	 0.359760507777897 
794	 0.360392927757252 
795	 0.3607223621247 
796	 0.361032066294761 
797	 0.361355575411325 
798	 0.361680265634108 
799	 0.362036622096215 
800	 0.362397561106858 
801	 0.362724391727969 
802	 0.36299131404906 
803	 0.363267553831197 
804	 0.363492445603703 
805	 0.363642546697597 
806	 0.363745635309424 
807	 0.363718016940898 
808	 0.363572043740659 
809	 0.363331258850453 
810	 0.362975872264763 
811	 0.362678446839922 
812	 0.362428830831474 
813	 0.362118489694444 
814	 0.36160146508813 
815	 0.361005681982726 
816	 0.360516449984532 
817	 0.360243538710997 
818	 0.359732030976458 
819	 0.359001331154289 
820	 0.358146944390517 
821	 0.357315181154032 
822	 0.356142561877794 
823	 0.354678213343034 
824	 0.353120680583075 
825	 0.351557397747448 
826	 0.349562029009975 
827	 0.347408375631284 
828	 0.345597280156982 
829	 0.343368384812036 
830	 0.341304274533796 
831	 0.339606217127327 
832	 0.338168764976701 
833	 0.3370164995751 
834	 0.33591373677544 
835	 0.334890897596652 
836	 0.334352059499724 
837	 0.333648459788406 
838	 0.333053342518693 
839	 0.332760182890893 
840	 0.332222578739642 
841	 0.331687720169917 
842	 0.331251647022476 
843	 0.330919221868661 
844	 0.330524831971359 
845	 0.330014290777513 
846	 0.329554365038325 
847	 0.329384052039236 
848	 0.32900919662496 
849	 0.328502174029387 
850	 0.3280113565701 
851	 0.327675288183058 
852	 0.327460179159824 
853	 0.327100633981739 
854	 0.326534670576109 
855	 0.326204467127056 
856	 0.325826297774808 
857	 0.325469660053227 
858	 0.325224292028009 
859	 0.324916777777635 
860	 0.324575888343867 
861	 0.324237887977662 
862	 0.323915313349512 
863	 0.323461772470106 
864	 0.323096003946064 
865	 0.322778801885035 
866	 0.32225988466176 
867	 0.32187448564699 
868	 0.321478457922782 
869	 0.320977589201727 
870	 0.320434512569286 
871	 0.319984602707546 
872	 0.31947383350573 
873	 0.31880571827407 
874	 0.318137649644223 
875	 0.317818166047867 
876	 0.317324616660227 
877	 0.3162885973766 
878	 0.315931696433747 
879	 0.315348832937714 
880	 0.314511342822941 
881	 0.31379871916244 
882	 0.31319502210599 
883	 0.312537331067573 
884	 0.311837205879384 
885	 0.311237465895073 
886	 0.310785967320601 
887	 0.30999284051068 
888	 0.309021899458307 
889	 0.308736093809728 
890	 0.308155395220476 
891	 0.307363487439586 
892	 0.306643565297784 
893	 0.30628736259814 
894	 0.305442104005197 
895	 0.304606284118046 
896	 0.304209216640556 
897	 0.30316141224761 
898	 0.302585138360009 
899	 0.302256765577671 
900	 0.301661758667149 
901	 0.301192780580279 
902	 0.300009935171129 
903	 0.298843711239132 
904	 0.298626531901228 
905	 0.298185886001428 
906	 0.29788775249886 
907	 0.297353175125891 
908	 0.295936325345655 
909	 0.295271932326392 
910	 0.294206410240332 
911	 0.292708068829018 
912	 0.291838195471898 
913	 0.290827735779395 
914	 0.289360151811388 
915	 0.287487534085906 
916	 0.285638240766297 
917	 0.284429808602386 
918	 0.282943272142839 
919	 0.281025467434971 
920	 0.279787794478748 
921	 0.278342258585855 
922	 0.276140825443774 
923	 0.273346475021927 
924	 0.271442461531955 
925	 0.269114467570207 
926	 0.266852598666307 
927	 0.265303612684604 
928	 0.263660943963057 
929	 0.260682996513718 
930	 0.25726257424749 
931	 0.255421663733477 
932	 0.254029907524228 
933	 0.250477988984565 
934	 0.24510171521573 
935	 0.240236041326374 
936	 0.235605383206193 
937	 0.23232824421329 
938	 0.229621345975482 
939	 0.22670446791658 
940	 0.225476269293657 
941	 0.222716941860513 
942	 0.21846602459002 
943	 0.214554690341719 
944	 0.212164045152203 
945	 0.210491775359909 
946	 0.207137282080892 
947	 0.200638276982524 
948	 0.198236750341214 
949	 0.194699867246484 
950	 0.189251309889876 
951	 0.184703776330577 
952	 0.182961617470046 
953	 0.180093599928151 
954	 0.176180594273397 
955	 0.174087633892348 
956	 0.173324054117417 
957	 0.16985109817843 
958	 0.165191007072282 
959	 0.164002363792528 
960	 0.16296209779269 
961	 0.161792219024068 
962	 0.160990308996547 
963	 0.161171273091267 
964	 0.16135008006905 
965	 0.15941075222106 
966	 0.15690463225549 
967	 0.157278913105058 
968	 0.156509553562333 
969	 0.155964622346605 
970	 0.156159418634452 
971	 0.156445780066569 
972	 0.156779312728988 
973	 0.156243638407784 
974	 0.155629777599594 
975	 0.156825323541146 
976	 0.156026777646747 
977	 0.155659871285694 
978	 0.156182913661733 
979	 0.155979755319125 
980	 0.1568700772491 
981	 0.157639064598541 
982	 0.158182072552919 
983	 0.159302609439935 
984	 0.159463591478309 
985	 0.159243771091991 
986	 0.159172118782014 
987	 0.159474338555433 
988	 0.159908486803 
989	 0.160863979202986 
990	 0.162545367128941 
991	 0.164470562870874 
992	 0.162897409212014 
993	 0.163345983696124 
994	 0.164915693884139 
995	 0.163286882230857 
996	 0.166042561823174 
997	 0.167266805689661 
998	 0.167097105851183 
999	 0.168960574917376 
1000	 0.168519774118024 
1001	 0.165568001125475 
1002	 0.166214224449331 
1003	 0.167248967624684 
1004	 0.16816812201222 
1005	 0.169249180473403 
1006	 0.170701634702689 
1007	 0.171966330312028 
1008	 0.17325861388111 
1009	 0.174328636187872 
1010	 0.174872948424768 
1011	 0.175718918334219 
1012	 0.176745606131726 
1013	 0.178110248736984 
1014	 0.179500648829103 
1015	 0.181536158446725 
1016	 0.182897035391054 
1017	 0.183668654175251 
1018	 0.184929778270194 
1019	 0.186189148818777 
1020	 0.187653526305066 
1021	 0.189331602364422 
1022	 0.191379803477171 
1023	 0.193045282397354 
1024	 0.194634159110338 
1025	 0.196112961099404 
1026	 0.197477949253973 
1027	 0.19906667980758 
1028	 0.200854645970998 
1029	 0.202194734022772 
1030	 0.203403500227503 
1031	 0.204820638387261 
1032	 0.206030591100528 
1033	 0.207325866128063 
1034	 0.208813541361958 
1035	 0.210260552777855 
1036	 0.211620354904007 
1037	 0.212974228373899 
1038	 0.214454418441916 
1039	 0.215936758136259 
1040	 0.217066263015987 
1041	 0.218482842239227 
1042	 0.219740087973965 
1043	 0.22093626736108 
1044	 0.222285991268629 
1045	 0.22386952811286 
1046	 0.224909903716298 
1047	 0.225907620888342 
1048	 0.226672170245782 
1049	 0.226467716030544 
1050	 0.227283824102536 
1051	 0.228780321873804 
1052	 0.229870842380754 
1053	 0.231528386277258 
1054	 0.232623036293077 
1055	 0.232981355140554 
1056	 0.23358857590507 
1057	 0.234177927249792 
1058	 0.234649626923543 
1059	 0.235257543685439 
1060	 0.236081330016218 
1061	 0.236566883640388 
1062	 0.236862450287181 
1063	 0.237311622772954 
1064	 0.237866181680209 
1065	 0.238029582459984 
1066	 0.237925429201393 
1067	 0.238095273633943 
1068	 0.238180709689428 
1069	 0.238137421129353 
1070	 0.238399881581303 
1071	 0.238424437243785 
1072	 0.238257575320603 
1073	 0.237591830227084 
1074	 0.237387327598242 
1075	 0.237385603414867 
1076	 0.237126738982126 
1077	 0.23682598899206 
1078	 0.236582684066542 
1079	 0.236298926249191 
1080	 0.235867190157683 
1081	 0.235685014478644 
1082	 0.234978747414309 
1083	 0.233616360389628 
1084	 0.232649273105018 
1085	 0.231351280054958 
1086	 0.230493926787986 
1087	 0.230501541807429 
1088	 0.229838384318421 
1089	 0.229156774221788 
1090	 0.227948353158626 
1091	 0.226946468545395 
1092	 0.225425298137285 
1093	 0.224451324274719 
1094	 0.224046699175012 
1095	 0.223056011415367 
1096	 0.221749877591024 
1097	 0.220434122260889 
1098	 0.218607346417732 
1099	 0.217507563333394 
1100	 0.217073872610743 
1101	 0.216104311515407 
1102	 0.21518175650916 
1103	 0.214119924701794 
1104	 0.212498746299862 
1105	 0.211025232930661 
1106	 0.209946483558019 
1107	 0.209362739266792 
1108	 0.208366235253139 
1109	 0.207155138773972 
1110	 0.20610448468067 
1111	 0.204802780561699 
1112	 0.203849436185158 
1113	 0.203259603298703 
1114	 0.202566292570798 
1115	 0.202358648113871 
1116	 0.201447829219147 
1117	 0.199743290057226 
1118	 0.198063621477001 
1119	 0.19655140379002 
1120	 0.194416454462067 
1121	 0.191773878275023 
1122	 0.188531872777886 
1123	 0.188720985750858 
1124	 0.184436711541287 
1125	 0.179414826351206 
1126	 0.179594324152197 
1127	 0.175650990656564 
1128	 0.168446714216253 
1129	 0.164363835815814 
1130	 0.162473912678051 
1131	 0.158338355836782 
1132	 0.154423780625376 
1133	 0.150892947877746 
1134	 0.146731316079202 
1135	 0.143234749484441 
1136	 0.14038198136875 
1137	 0.137903338641852 
1138	 0.135885153262283 
1139	 0.13207980253105 
1140	 0.130221782593778 
1141	 0.128729738264249 
1142	 0.124124303231398 
1143	 0.120263204878107 
1144	 0.118087008379488 
1145	 0.115068805251167 
1146	 0.112690389354975 
1147	 0.109701409742042 
1148	 0.105918434073288 
1149	 0.102502670316891 
1150	 9.94952815252687E-02 
1151	 9.78112758591154E-02 
1152	 9.63010678638246E-02 
1153	 9.45494514530488E-02 
1154	 9.32104328249117E-02 
1155	 9.23417686165473E-02 
1156	 9.21473665985005E-02 
1157	 9.16829468432427E-02 
1158	 9.07034894063538E-02 
1159	 9.07066451637689E-02 
1160	 9.08083925954554E-02 
1161	 8.98216253152094E-02 
1162	 8.94153299967868E-02 
1163	 8.93569915546966E-02 
1164	 8.90540919017386E-02 
1165	 8.87513445263628E-02 
1166	 8.84164309504571E-02 
1167	 8.84566894496685E-02 
1168	 8.82624247067998E-02 
1169	 8.79686688531139E-02 
1170	 8.83073790416134E-02 
1171	 8.83083313215097E-02 
1172	 8.77564344321345E-02 
1173	 8.75340338250378E-02 
1174	 8.74867945109312E-02 
1175	 8.74452410695111E-02 
1176	 8.73939926478866E-02 
1177	 8.74641444021207E-02 
1178	 8.75397975181874E-02 
1179	 8.75090548091692E-02 
1180	 8.73706235184143E-02 
1181	 8.71152197321417E-02 
1182	 0.086918943604939 
1183	 8.68055613533963E-02 
1184	 0.086546408447603 
1185	 0.086445058951587 
1186	 8.67615919391319E-02 
1187	 8.68579093190683E-02 
1188	 8.64611887321083E-02 
1189	 8.61184261316348E-02 
1190	 8.60369774023462E-02 
1191	 8.60844771831218E-02 
1192	 8.59669173927794E-02 
1193	 8.61323353347925E-02 
1194	 8.62847103418185E-02 
1195	 0.086075007145813 
1196	 0.085739081376542 
1197	 8.59133938316209E-02 
1198	 8.62445741305868E-02 
1199	 8.62010819638036E-02 
1200	 8.58909553058882E-02 
1201	 0.085702267216687 
1202	 8.58285045862625E-02 
1203	 8.59887243717926E-02 
1204	 8.59640124606194E-02 
1205	 8.59811035458866E-02 
1206	 8.61521743452781E-02 
1207	 0.086172253818072 
1208	 8.62999192107986E-02 
1209	 8.66343339569087E-02 
1210	 8.68132932600829E-02 
1211	 8.69708367657114E-02 
1212	 8.69719526991372E-02 
1213	 8.69578697094401E-02 
1214	 8.70936501209609E-02 
1215	 8.71723479639296E-02 
1216	 8.71636803472368E-02 
1217	 8.74430262976566E-02 
1218	 8.76517181188636E-02 
1219	 8.75946026715795E-02 
1220	 8.77317723889798E-02 
1221	 8.79249553803001E-02 
1222	 8.79421735876878E-02 
1223	 0.088051011255029 
1224	 8.82131807419339E-02 
1225	 8.82937364994612E-02 
1226	 8.86763171433144E-02 
1227	 8.90182089168205E-02 
1228	 8.89856033321449E-02 
1229	 8.90392856664601E-02 
1230	 8.91774765452829E-02 
1231	 8.92843908908841E-02 
1232	 8.94851692690061E-02 
1233	 8.97363840575665E-02 
1234	 8.98589436124837E-02 
1235	 8.99883301413492E-02 
1236	 9.01227557469876E-02 
1237	 9.03725789166988E-02 
1238	 9.07204147001874E-02 
1239	 9.07323999564447E-02 
1240	 9.08607439656661E-02 
1241	 9.10880538606504E-02 
1242	 9.11468966021462E-02 
1243	 9.13235868833097E-02 
1244	 9.14191589855034E-02 
1245	 9.14305750720237E-02 
1246	 9.17440711016439E-02 
1247	 9.20004014505835E-02 
1248	 9.21875291799235E-02 
1249	 9.24125368919517E-02 
1250	 9.24355492999859E-02 
1251	 9.24895994089057E-02 
1252	 9.26901755850243E-02 
1253	 9.29519266119612E-02 
1254	 9.30036631685947E-02 
1255	 9.28149750968714E-02 
1256	 9.28562032784921E-02 
1257	 9.31662349542201E-02 
1258	 9.33220131614867E-02 
1259	 9.34593485339102E-02 
1260	 9.35008419923986E-02 
1261	 0.093466596700007 
1262	 9.34792833799561E-02 
1263	 9.33674871074184E-02 
1264	 9.34295601891286E-02 
1265	 9.35590475055328E-02 
1266	 9.34822485949698E-02 
1267	 9.33265462582586E-02 
1268	 9.33168911686299E-02 
1269	 9.34927343400568E-02 
1270	 9.35595056426258E-02 
1271	 9.34246570293652E-02 
1272	 9.32136297311795E-02 
1273	 9.29712411686987E-02 
1274	 9.27947241274991E-02 
1275	 9.26759056364323E-02 
1276	 9.24962393574318E-02 
1277	 9.25012439045466E-02 
1278	 9.24919769842674E-02 
1279	 9.19388458845613E-02 
1280	 9.13930615959914E-02 
1281	 9.11309510436738E-02 
1282	 9.08073739780734E-02 
1283	 9.04226900470008E-02 
1284	 9.04292828639616E-02 
1285	 9.01336936716041E-02 
1286	 8.93755602820304E-02 
1287	 8.89015074340732E-02 
1288	 8.86010984511533E-02 
1289	 8.82327257998844E-02 
1290	 8.78829322402263E-02 
1291	 8.74404359004002E-02 
1292	 8.71858780386264E-02 
1293	 8.68751463303176E-02 
1294	 8.62811788558043E-02 
1295	 8.57278644563571E-02 
1296	 8.51686995055081E-02 
1297	 0.084609301226857 
1298	 8.40112963326647E-02 
1299	 0.083403596845362 
1300	 8.27309220088008E-02 
1301	 8.20329271611221E-02 
1302	 8.16946105450159E-02 
1303	 8.12668366558769E-02 
1304	 0.080586454376227 
1305	 7.99877460475147E-02 
1306	 7.93528582103024E-02 
1307	 7.87425968471471E-02 
1308	 7.79180472384151E-02 
1309	 7.68429250391598E-02 
1310	 7.61347025341336E-02 
1311	 7.57296608521265E-02 
1312	 7.48011923301975E-02 
1313	 7.33414252093463E-02 
1314	 7.27149272600901E-02 
1315	 7.24803448292613E-02 
1316	 7.17219634061938E-02 
1317	 7.15553820413664E-02 
1318	 0.071175670180195 
1319	 6.98196809470609E-02 
1320	 6.86695580328391E-02 
1321	 6.76597108020744E-02 
1322	 6.72361126842536E-02 
1323	 6.65706668884843E-02 
1324	 6.58589769484761E-02 
1325	 6.52716521343135E-02 
1326	 6.44491287295475E-02 
1327	 6.36523319933294E-02 
1328	 6.29624919674905E-02 
1329	 0.062518383242363 
1330	 6.24071737149635E-02 
1331	 6.11012800753347E-02 
1332	 5.96335689968481E-02 
1333	 5.96842700461425E-02 
1334	 5.91769772318357E-02 
1335	 5.84153481916044E-02 
1336	 5.79368627153079E-02 
1337	 0.057730247299378 
1338	 5.69911158133047E-02 
1339	 5.64397406781006E-02 
1340	 5.68011742541311E-02 
1341	 5.64840736898005E-02 
1342	 5.50218648165845E-02 
1343	 5.42666197614313E-02 
1344	 0.054062731924735 
1345	 5.36935755129018E-02 
1346	 0.052871142657807 
1347	 5.28803464989845E-02 
1348	 5.47996051663026E-02 
1349	 5.54192079746366E-02 
1350	 5.54796201297063E-02 
1351	 5.63843336677347E-02 
1352	 5.83558190566892E-02 
1353	 5.88371518103282E-02 
1354	 6.09485091000503E-02 
1355	 4.91907414376062E-02 
1356	 5.19629078964904E-02 
1357	 6.86787054498955E-02 
1358	 5.13486710085401E-02 
1359	 7.56981657812166E-02 
1360	 0.114157018512581 
1361	 8.53825679921194E-02 
1362	 0.116461430637878 
1363	 0.134279353604698 
1364	 0.119213129801571 
1365	 0.12204385666056 
1366	 8.70026878824047E-02 
1367	 0.122942247174295 
1368	 0.185314197774385 
1369	 0.220986218615597 
1370	 0.161600370954281 
1371	 7.25490002090602E-02 
1372	 0.1596200874363 
1373	 0.2869154822185 
1374	 0.249529277543116 
1375	 0.327821374051737 
1376	 0.410165371016073 
1377	 0.138597268663239 
1378	 0.120023558367641 
1379	 0.521613328331702 
1380	 0.593679908522451 
1381	 0.349403416047654 
1382	 0.29068697113265 
1383	 0.216872719948711 
1384	 0.168093462077599 
1385	 0.218079286573578 
1386	 0.205873699458609 
1387	 0.115157414516494 
1388	 3.85769110391677E-02 
1389	-2.06428711708876E-02 
1390	-0.121030128933372 
1391	-0.467591879404026 
1392	-0.409475174480714 
1393	-0.131102675562326 
1394	-8.99761312922989E-02 
1395	 0.124765810388238 
1396	 0.444648134814938 
1397	-5.71625573391471E-02 
1398	-0.213833611912704 
1399	-0.132631631880441 
1400	-0.207597861221566 
1401	-0.151138480200288 
1402	 1.62364649936977E-02 
1403	 0.022877291348083 
1404	 0.069620330134802 
1405	 9.66864879280322E-02 
1406	 0.218730148923323 
1407	 0.193890635247018 
1408	 8.45345997762843E-02 
1409	 2.61357174651712E-02 
1410	-5.16092213756617E-02 
1411	-4.97766993529531E-02 
1412	-1.08595416443107E-02 
1413	-5.60565329782435E-03 
1414	-6.64716415976077E-03 
1415	 1.25643165899873E-02 
1416	 3.15394621074577E-02 
1417	 4.13284303111051E-02 
1418	 7.08099604937341E-02 
1419	 7.02458236167088E-02 
1420	 5.00959998203863E-02 
1421	 4.05194987811879E-02 
1422	 3.03711626430851E-02 
1423	 2.49701985017831E-02 
1424	 1.95387840815921E-02 
1425	 1.92228967878452E-02 
1426	 0.02086143437296 
1427	 2.22305345445113E-02 
1428	 0.030423883642444 
1429	 3.07337594465434E-02 
1430	 2.07085557506403E-02 
1431	 2.22735832138434E-02 
1432	 3.11369318531353E-02 
1433	 3.08099179153759E-02 
1434	 2.99272940443706E-02 
1435	 3.38642918084274E-02 
1436	 3.63367621702178E-02 
1437	 3.38586700986705E-02 
1438	 3.44698292699185E-02 
1439	 3.44101427764546E-02 
1440	 3.19235265025774E-02 
1441	 2.98795178046097E-02 
1442	 2.69860758155311E-02 
1443	 2.33034534472966E-02 
1444	 2.59587960376472E-02 
1445	 0.029930468895856 
1446	 2.79670051972991E-02 
1447	 2.78231590681187E-02 
1448	 2.82081442012386E-02 
1449	 0.025029162451616 
1450	 0.022333363602815 
1451	 2.31224345349833E-02 
1452	 2.48073903857176E-02 
1453	 2.36652202520463E-02 
1454	 2.29549450239387E-02 
1455	 2.48658050975689E-02 
1456	 2.50788720103449E-02 
1457	 2.24682061856123E-02 
1458	 2.22893603964735E-02 
1459	 2.45187648537922E-02 
1460	 2.46976316297481E-02 
1461	 0.023251818743878 
1462	 2.31064258837101E-02 
1463	 2.37072871288317E-02 
1464	 2.38583940046369E-02 
1465	 0.023930360808514 
1466	 2.44119416256978E-02 
1467	 2.51065391109368E-02 
1468	 2.51900074815649E-02 
1469	 2.59467358329562E-02 
1470	 2.55954921943526E-02 
1471	 2.33598622965982E-02 
1472	 2.27480502290862E-02 
1473	 2.27290117348251E-02 
1474	 2.24375104940628E-02 
1475	 2.24094588115774E-02 
1476	 0.022326756709038 
1477	 2.20312707283545E-02 
1478	 2.21700765275327E-02 
1479	 0.0229324288885 
1480	 2.32613744965434E-02 
1481	 2.30101594855121E-02 
1482	 2.34176823815688E-02 
1483	 2.46344836503729E-02 
1484	 0.024610618447991 
1485	 0.024007541669401 
1486	 2.39405625943686E-02 
1487	 2.38404832909838E-02 
1488	 2.34732037052152E-02 
1489	 2.28089070820527E-02 
1490	 2.30060974109812E-02 
1491	 2.35605535076482E-02 
1492	 2.35946365751731E-02 
1493	 2.39759306490744E-02 
1494	 2.41617522659783E-02 
1495	 2.36930810592246E-02 
1496	 2.35115867583383E-02 
1497	 2.36874588909944E-02 
1498	 2.38975954675169E-02 
1499	 2.42129828889467E-02 
1500	 2.41874243699568E-02 
1501	 2.38639204041805E-02 
1502	 2.38521411116206E-02 
1503	 2.38104534633017E-02 
1504	 2.38601127672432E-02 
1505	 0.024201455707931 
1506	 2.45198253909891E-02 
1507	 2.43509432620415E-02 
1508	 0.024371395893968 
1509	 2.48194600958525E-02 
1510	 2.49348251003407E-02 
1511	 2.49722952966899E-02 
1512	 2.49655474289578E-02 
1513	 2.48591268709404E-02 
1514	 0.024909940013873 
1515	 2.49771712020932E-02 
1516	 2.50316215846036E-02 
1517	 2.52056968734643E-02 
1518	 2.54254864235879E-02 
1519	 2.57474883356358E-02 
1520	 0.026176288816973 
1521	 2.61441967586713E-02 
1522	 2.59058410179362E-02 
1523	 0.026019866356034 
1524	 2.61274349895956E-02 
1525	 2.60640385486534E-02 
1526	 0.026079905318715 
1527	 0.026252017769924 
1528	 2.63752308668062E-02 
1529	 2.62618982280656E-02 
1530	 2.62264149487941E-02 
1531	 2.63281081771546E-02 
1532	 2.63758735471149E-02 
1533	 2.66138156284222E-02 
1534	 2.68054319378893E-02 
1535	 2.67069171521118E-02 
1536	 2.67659122909537E-02 
1537	 2.69724898878755E-02 
1538	 2.70927735742928E-02 
1539	 2.74225972601334E-02 
1540	 2.75150429579254E-02 
1541	 2.72484204628262E-02 
1542	 2.72956477094459E-02 
1543	 2.74035045334084E-02 
1544	 2.75928923405796E-02 
1545	 0.028085926700252 
1546	 2.83928071812745E-02 
1547	 2.84070164790809E-02 
1548	 2.85619206920474E-02 
1549	 2.87042390930702E-02 
1550	 2.86582503344625E-02 
1551	 2.88316971974547E-02 
1552	 2.89998828936604E-02 
1553	 2.89799622061808E-02 
1554	 2.90337762333595E-02 
1555	 2.91842704245442E-02 
1556	 2.94563821411066E-02 
1557	 2.95559994173661E-02 
1558	 2.96076369799673E-02 
1559	 0.029847891206247 
1560	 2.97777959543716E-02 
1561	 2.97685269810441E-02 
1562	 3.01667087102153E-02 
1563	 3.00382916279294E-02 
1564	 2.96552753663998E-02 
1565	 2.98880722939491E-02 
1566	 3.02201041935287E-02 
1567	 0.030221826673534 
1568	 3.01979566244578E-02 
1569	 0.03040286073053 
1570	 3.04737019701589E-02 
1571	 3.06935148202904E-02 
1572	 3.12821059097473E-02 
1573	 3.13082690143165E-02 
1574	 3.10419298669896E-02 
1575	 3.11952437104212E-02 
1576	 3.14816478989339E-02 
1577	 3.16311538946253E-02 
1578	 3.17939619749291E-02 
1579	 3.19925713810955E-02 
1580	 3.18974705431464E-02 
1581	 3.16685276044592E-02 
1582	 3.17057589002693E-02 
1583	 0.031924639313765 
1584	 3.20648904801274E-02 
1585	 3.19475110132263E-02 
1586	 3.21171213593111E-02 
1587	 3.24592672607745E-02 
1588	 3.22304057878026E-02 
1589	 3.22370568007939E-02 
1590	 3.25183848880531E-02 
1591	 0.032580215008981 
1592	 3.29391253306895E-02 
1593	 3.31787816852021E-02 
1594	 3.29578357376991E-02 
1595	 3.26060725539122E-02 
1596	 3.23753559059441E-02 
1597	 3.26874523756229E-02 
1598	 3.31040107131689E-02 
1599	 3.30676150774312E-02 
1600	 3.31799301763868E-02 
1601	 3.34127405794755E-02 
1602	 3.32929394605391E-02 
1603	 3.34027640269153E-02 
1604	 3.36218593955831E-02 
1605	 3.33823454397806E-02 
1606	 0.033393536513271 
1607	 3.38447288651046E-02 
1608	 3.40506879665311E-02 
1609	 3.41626653816727E-02 
1610	 3.43585429270138E-02 
1611	 3.41920487610882E-02 
1612	 3.38581007982753E-02 
1613	 3.38068092004501E-02 
1614	 0.033928936791152 
1615	 3.43327582663372E-02 
1616	 3.48234026212828E-02 
1617	 3.48750162007277E-02 
1618	 3.48838170043425E-02 
1619	 3.48853550995281E-02 
1620	 3.46311461136812E-02 
1621	 0.034969878613017 
1622	 3.51736798127128E-02 
1623	 3.45506376675041E-02 
1624	 3.44813115618152E-02 
1625	 3.46882985758114E-02 
1626	 3.49932695565335E-02 
1627	 3.54790141552836E-02 
1628	 3.52982686578519E-02 
1629	 3.49912460329794E-02 
1630	 3.49267752024544E-02 
1631	 3.52763469014638E-02 
1632	 3.60208147103094E-02 
1633	 3.62588875195594E-02 
1634	 3.59417708585014E-02 
1635	 3.58145274325836E-02 
1636	 3.60314641250114E-02 
1637	 3.59750811562416E-02 
1638	 3.58435334824102E-02 
1639	 3.60659341062429E-02 
1640	 3.61550750032048E-02 
1641	 3.61634891846427E-02 
1642	 0.036210282566934 
1643	 3.60360518739906E-02 
1644	 3.57809611472226E-02 
1645	 0.035570824134144 
1646	 3.56964380784856E-02 
1647	 3.59661655624574E-02 
1648	 3.59284329321035E-02 
1649	 3.59831640398907E-02 
1650	 3.62524344641012E-02 
1651	 3.63098424378141E-02 
1652	 3.60495541852829E-02 
1653	 3.61370398785962E-02 
1654	 3.63147769597652E-02 
1655	 3.66598785683627E-02 
1656	 3.65547391855644E-02 
1657	 3.59916970639006E-02 
1658	 3.61201348172013E-02 
1659	 3.66181517055948E-02 
1660	 3.65673186692955E-02 
1661	 3.66113639428808E-02 
1662	 3.68508726778002E-02 
1663	 3.66754557586814E-02 
1664	 3.64875385367694E-02 
1665	 3.67597417978546E-02 
1666	 3.67533440480613E-02 
1667	 0.036167247568115 
1668	 3.68139657282095E-02 
1669	 3.68174041714356E-02 
1670	 3.66395188326124E-02 
1671	 3.66181670240729E-02 
1672	 0.036422658454697 
1673	 3.65778430004408E-02 
1674	 3.69057543828122E-02 
1675	 3.68770592878913E-02 
1676	 3.68020568983762E-02 
1677	 3.68084972910447E-02 
1678	 3.66181153939072E-02 
1679	 3.68785380487676E-02 
1680	 3.72472766509802E-02 
1681	 3.70553282961104E-02 
1682	 0.037213366561993 
1683	 3.74611744019204E-02 
1684	 3.67773303932219E-02 
1685	 3.59307406275045E-02 
1686	 3.58848814606867E-02 
1687	 3.62080412423538E-02 
1688	 3.64584694345138E-02 
1689	 3.67511046758153E-02 
1690	 3.66477347894026E-02 
1691	 3.62874961001842E-02 
1692	 3.66775472956396E-02 
1693	 3.72777665495536E-02 
1694	 3.74497310170703E-02 
1695	 3.71677114236196E-02 
1696	 3.61859232267734E-02 
1697	 3.56618086436053E-02 
1698	 3.61208539994399E-02 
1699	 3.60896047821458E-02 
1700	 3.57591101990514E-02 
1701	 3.61287117093981E-02 
1702	 3.63338903366697E-02 
1703	 3.63379081110661E-02 
1704	 3.66993115085898E-02 
1705	 3.65733878772636E-02 
1706	 3.63659518192043E-02 
1707	 3.64476560676933E-02 
1708	 3.62049746579586E-02 
1709	 3.62559161476785E-02 
1710	 3.62445408037329E-02 
1711	 3.60961289359666E-02 
1712	 0.036388049572394 
1713	 3.58446742085436E-02 
1714	 3.58356157782219E-02 
1715	 0.03623869453347 
1716	 3.65623962092317E-02 
1717	 3.67502422684067E-02 
1718	 0.036351340052753 
1719	 3.56666843037777E-02 
1720	 3.53626011837822E-02 
1721	 3.49934409252202E-02 
1722	 0.035021915714532 
1723	 3.51457405727954E-02 
1724	 3.51546579717403E-02 
1725	 0.03561571264883 
1726	 3.59174712012735E-02 
1727	 3.58292703868639E-02 
1728	 3.55316427091226E-02 
1729	 3.55644577991834E-02 
1730	 3.53272095725849E-02 
1731	 3.45897321433045E-02 
1732	 0.034855006699395 
1733	 3.50029520804005E-02 
1734	 3.48848263431725E-02 
1735	 3.54792673491056E-02 
1736	 3.51439024694666E-02 
1737	 0.034261799808098 
1738	 3.42599185595439E-02 
1739	 3.43943921699303E-02 
1740	 3.44688481920963E-02 
1741	 3.47008637889033E-02 
1742	 3.44676095105287E-02 
1743	 3.38204936281513E-02 
1744	 3.36715992528435E-02 
1745	 3.39942746520514E-02 
1746	 3.36377192248323E-02 
1747	 3.34438308660197E-02 
1748	 3.30248155656743E-02 
1749	 0.032850836676607 
1750	 3.32088481747789E-02 
1751	 3.32023665481576E-02 
1752	 0.033012657700566 
1753	 3.28786306187275E-02 
1754	 3.24706026498622E-02 
1755	 3.22689941850769E-02 
1756	 3.21955293932913E-02 
1757	 3.26748131811884E-02 
1758	 3.31290746949275E-02 
1759	 3.27868295570951E-02 
1760	 0.03205390341516 
1761	 3.12453880817376E-02 
1762	 3.09536951763925E-02 
1763	 3.16820397061207E-02 
1764	 3.15239654875008E-02 
1765	 3.05200801940153E-02 
1766	 3.02110742254914E-02 
1767	 3.04546011995138E-02 
1768	 3.15934396987179E-02 
1769	 3.23267020018339E-02 
1770	 3.20490141533583E-02 
1771	 3.18074519531934E-02 
1772	 3.07874380302142E-02 
1773	 3.02457577156782E-02 
1774	 3.08511103546508E-02 
1775	 0.029305291808464 
1776	 0.029219286878688 
1777	 3.04089097482322E-02 
1778	 3.04221004132184E-02 
1779	 3.08045140108337E-02 
1780	 0.031335336229524 
1781	 3.13020207103631E-02 
1782	 3.13934357579913E-02 
1783	 3.18440443511597E-02 
1784	 3.14788536092581E-02 
1785	 2.99078800720919E-02 
1786	 2.99368799511942E-02 
1787	 3.10369044996725E-02 
1788	 3.14211003548532E-02 
1789	 3.20526223089471E-02 
1790	 3.10173515374644E-02 
1791	 3.18610541930068E-02 
1792	 3.28601581728511E-02 
1793	 3.30396818696934E-02 
1794	 3.29951749511651E-02 
1795	 3.18448381820628E-02 
1796	 3.11419636199874E-02 
1797	 3.28410849566693E-02 
1798	 3.63982428806733E-02 
1799	 3.98139413342602E-02 
1800	 3.57481346585188E-02 
1801	 3.52864929374743E-02 
1802	 0.030683621944634 
1803	 2.97724941157171E-02 
1804	 4.53116054170176E-02 
1805	 5.01963020319441E-02 
1806	 4.66851688755676E-02 
1807	 4.20610075818381E-02 
1808	 7.9254826249548E-03 
1809	 4.92668183641523E-03 
1810	 4.35528077605016E-02 
1811	 4.83637638147325E-02 
1812	 7.47589290612827E-02 
1813	 7.12377866340072E-02 
1814	-2.35608496933066E-02 
1815	-7.61298828356016E-02 
1816	-0.114441925389622 
1817	-0.226223031505417 
1818	-0.220337233788612 
1819	-0.112986683314352 
1820	 0.148973783183462 
1821	 0.286642718283047 
1822	 0.460995637357409 
1823	-5.88950503244578E-02 
1824	-0.206826190336507 
1825	 6.74663777618104E-02 
1826	 0.212986833512376 
1827	 0.630732059747054 
1828	 0.798142040777169 
1829	 10.1258709303498 
1830	 3.22215048637189 
1831	 1.20334634293787 
1832	 1.78916548850808 
1833	 6.39328892369481 
1834	 8.72979042477748 
1835	 0.836829909340581 
1836	 0.67850218267863 
1837	 0.652667811678408 
1838	 0.565111788208959 
1839	-0.629847220180484 
1840	-9.53579239728996E-02 
1841	-1.34079782511312 
1842	-12.7421652662586 
1843	-241.885253387037 
1844	 2.92890047570718 
1845	 2.11559801836739 
1846	-0.988845387961147 
1847	-0.883807305620157 
1848	 1.34649908966192 
1849	 1.62652007282075 
1850	 3.46270487969255 
1851	 4.18886187233123 
1852	 6.99737801272462 
1853	 19.8839989579133 
1854	 9.0882128982764 
1855	 1.82060778986484 
1856	 1.35426871779543 
1857	 1.22038119783655 
1858	 1.18850527038999 
1859	 1.69306798733264 
1860	 1.70067849884333 
1861	 1.24927260771325 
1862	 2.48824575433313 
1863	 0.395660122569563 
1864	 3.47442840261397E-02 
1865	 5.18558698291353E-02 
1866	 0.555426368220077 
1867	 0.974453828760752 
1868	-29.4708175706429 
1869	-3.14993354110382 
1870	-2.45732937835429 
1871	-2.77356313492004 
1872	-0.55908116098392 
1873	-0.137715197226721 
1874	-1.05999337288737 
1875	-1.8307602247423 
1876	-1.56514778605696 
1877	-0.486184960538631 
1878	-0.629631604321629 
1879	-3.50248121813723 
1880	-2.22619289647265 
1881	-0.642038564556931 
1882	 0.836087249047426 
1883	 0.604545988694857 
1884	-9.20047003922708 
1885	 1.12629334733359 
1886	 1.45616307867492 
1887	 2.51161554056415 
1888	 3.52374737580824 
1889	 4.51152198823904 
1890	-7.81324716527197 
1891	-4.8100229339042 
1892	 5.27278225185174 
1893	 1.36398047104057 
1894	 2.74115557595522 
1895	 3.89528952448772 
1896	-2.76241167556017 
1897	-2.33978383874556 
1898	-27.4625771762736 
1899	 3.94433672804922 
1900	 3.13364556259771 
1901	 1.28501470878431 
1902	 1.51483699744344 
1903	-24.8535906105542 
1904	-1.32643308548263 
1905	-1.77643413816548 
1906	-2.18322688250911 
1907	-2.36719145963016 
1908	-2.26892983719283 
1909	-1.59000407287836 
1910	-1.85505681418446 
1911	-2.84570446100409 
1912	-23.7527957358814 
1913	 15.3441955816534 
1914	 2.28080603828452 
1915	 1.57934882285781 
1916	 3.69980108105753 
1917	 32.9585650779239 
1918	-1.80208259163598E-02 
1919	-0.236114344025762 
1920	-24.4383353238605 
1921	 0.105498567011369 
1922	-0.504988978722611 
1923	 2.17182324683213 
1924	 19.3169642706811 
1925	 16.8158933195439 
1926	 3.83145498543461 
1927	 0.666264492915473 
1928	-2.61144996789362 
1929	-1.28506852932348 
1930	 0.177437417564926 
1931	 0.720368579446352 
1932	 0.501136972940405 
1933	 0.401082545348479 
1934	 0.237807518736887 
1935	 7.72221100956988E-02 
1936	 5.70792080323843E-02 
1937	 2.39225878733633E-02 
1938	-0.034765587985624 
1939	-2.70736664194365E-02 
1940	 1.19091757268728E-02 
1941	 3.94020693442211E-02 
1942	 3.90900228426938E-02 
1943	 9.79975943086842E-02 
1944	 0.118445912421519 
1945	 7.89927237418089E-02 
1946	 8.87121134168464E-02 
1947	 9.36683675474802E-02 
1948	 6.15515359668126E-02 
1949	 6.15003465539524E-02 
1950	 6.18976421250834E-02 
1951	 3.98275973167323E-02 
1952	 0.032581920977285 
1953	 0.032606153562617 
1954	 4.48881698423594E-02 
1955	 5.06236414490527E-02 
1956	 3.93125376159877E-02 
1957	 3.39660775292616E-02 
1958	 3.98042625823964E-02 
1959	 3.16954174894108E-02 
1960	 2.61250298502423E-02 
1961	 2.73238301857722E-02 
1962	 0.019816888331922 
1963	 1.83821673102272E-02 
1964	 2.59305596245941E-02 
1965	 2.60959064899895E-02 
1966	 2.48456204572105E-02 
1967	 2.31455339203549E-02 
1968	 2.13891394861605E-02 
1969	 1.66366914910314E-02 
1970	 1.48779985931677E-02 
1971	 1.39466292325058E-02 
1972	 1.34629349970046E-02 
1973	 1.54058171205645E-02 
1974	 1.62897349337789E-02 
1975	 1.57751232524454E-02 
1976	 1.59008872107473E-02 
1977	 1.49213662543057E-02 
1978	 1.41400290522867E-02 
1979	 1.44761303273249E-02 
1980	 1.63637144214064E-02 
1981	 1.66457524135635E-02 
1982	 1.75245240124931E-02 
1983	 1.86962436636997E-02 
1984	 1.77921960605807E-02 
1985	 1.73640211820293E-02 
1986	 1.64990656110644E-02 
1987	 1.47624238419424E-02 
1988	 1.34484012486247E-02 
1989	 1.37734773820325E-02 
1990	 1.48911603638714E-02 
1991	 1.51280326704004E-02 
1992	 1.63930160220999E-02 
1993	 1.79870748229724E-02 
1994	 1.87932564222384E-02 
1995	 1.86258101444858E-02 
1996	 0.019215228433044 
1997	 2.05874004726855E-02 
1998	 2.16487529609752E-02 
1999	 2.05749106906181E-02 
2000	 2.10606728013669E-02 
2001	 2.20230915522211E-02 
2002	 1.74966768565575E-02 
2003	 1.85050052488591E-02 
2004	 2.15046607007631E-02 
2005	 1.78692401231893E-02 
2006	 1.62014932600205E-02 
2007	 1.34019683035259E-02 
2008	 1.03897054817773E-02 
2009	 1.12972866238082E-02 
2010	 1.93770804528063E-02 
2011	 2.12678681492818E-02 
2012	 2.30253338953026E-02 
2013	 2.17756888228385E-02 
2014	 1.97360762821185E-02 
2015	 1.85032176370745E-02 
2016	 0.019277399169718 
2017	 2.23061278598137E-02 
2018	 2.37017146658512E-02 
2019	 2.15125088810182E-02 
2020	 1.99799388344363E-02 
2021	 1.83919420707988E-02 
2022	 1.62741407294981E-02 
2023	 1.68701912819472E-02 
2024	 1.70685465612629E-02 
2025	 1.74474063213048E-02 
2026	 1.76954318765377E-02 
2027	 1.86915487843766E-02 
2028	 1.82540489367876E-02 
2029	 1.69936723595373E-02 
2030	 0.017057858255832 
2031	 1.64079994334333E-02 
2032	 1.63280718387917E-02 
2033	 1.72804229718533E-02 
2034	 1.77195996999968E-02 
2035	 1.77671363239409E-02 
2036	 1.75699850638653E-02 
2037	 1.72576432791112E-02 
2038	 1.74495357097562E-02 
2039	 1.72910776388559E-02 
2040	 1.69179442046971E-02 
2041	 0.016622359806085 
2042	 1.61286783394381E-02 
2043	 1.60752014626475E-02 
2044	 1.62175088104605E-02 
2045	 1.68889431794801E-02 
2046	 1.77511057138901E-02 
2047	 1.77482544766255E-02 
2048	 1.78920773075419E-02 
2049	 1.80194124881631E-02 
2050	 1.75292717042891E-02 
2051	 1.77404325535478E-02 
2052	 1.69704180950036E-02 
2053	 1.63212077948172E-02 
2054	 1.70024039082065E-02 
2055	 0.015953836935124 
2056	 1.58151519801023E-02 
2057	 1.66555427542295E-02 
2058	 1.75645209592854E-02 
2059	 1.82745255413681E-02 
2060	 1.88676485869074E-02 
2061	 0.019918373816617 
2062	 2.05189726196627E-02 
2063	 1.92315322801446E-02 
2064	 1.87617939374239E-02 
2065	 0.019842344614837 
2066	 1.92203041764069E-02 
2067	 1.81405163498013E-02 
2068	 1.84648155143699E-02 
2069	 1.92906397858462E-02 
2070	 1.85215522893487E-02 
2071	 1.77194958367472E-02 
2072	 0.019096638190039 
2073	 1.92179582166206E-02 
2074	 1.79562094398771E-02 
2075	 1.75333933075125E-02 
2076	 1.79642819958833E-02 
2077	 1.76012122018257E-02 
2078	 1.61835398353899E-02 
2079	 1.59455536402664E-02 
2080	 1.62132737792744E-02 
2081	 1.61434317726601E-02 
2082	 1.67126814637167E-02 
2083	 1.89444122725878E-02 
2084	 1.99002188924487E-02 
2085	 1.98542302294601E-02 
2086	 1.96303411711493E-02 
2087	 1.88943581723827E-02 
2088	 1.95001748279708E-02 
2089	 2.02523711669297E-02 
2090	 2.04369482304888E-02 
2091	 0.02054176379689 
2092	 2.01344891678979E-02 
2093	 1.82306023998836E-02 
2094	 1.81653453012705E-02 
2095	 1.90942327089749E-02 
2096	 1.91062112677285E-02 
2097	 1.95763995316869E-02 
2098	 1.96093288811435E-02 
2099	 1.85064962851211E-02 
2100	 0.018402638686633 
2101	 1.95876962365572E-02 
2102	 2.02506586386072E-02 
2103	 0.020892165676748 
2104	 2.11689060771707E-02 
2105	 2.00881258117489E-02 
2106	 0.018898948499233 
2107	 1.91417094125744E-02 
2108	 0.019968841040413 
2109	 2.07188066562026E-02 
2110	 2.16075047156525E-02 
2111	 2.20014201553652E-02 
2112	 2.15734759336731E-02 
2113	 2.12386677113654E-02 
2114	 2.06451714382375E-02 
2115	 2.09268886997607E-02 
2116	 2.14771047566206E-02 
2117	 2.16118375068703E-02 
2118	 2.26199081343128E-02 
2119	 2.27810564509543E-02 
2120	 2.18879687496913E-02 
2121	 2.13108325714561E-02 
2122	 2.17328463923416E-02 
2123	 2.12795164504253E-02 
2124	 2.18385827472753E-02 
2125	 2.32961419441738E-02 
2126	 2.33239358568641E-02 
2127	 2.29092766229018E-02 
2128	 2.26605145780031E-02 
2129	 2.19074726971881E-02 
2130	 2.16036246588924E-02 
2131	 0.022793465933524 
2132	 2.36581203815976E-02 
2133	 2.23071838201215E-02 
2134	 2.17657094451531E-02 
2135	 2.08578381685858E-02 
2136	 2.07583989484569E-02 
2137	 2.12484238317499E-02 
2138	 2.17177024303119E-02 
2139	 2.26345034013068E-02 
2140	 2.28105344481815E-02 
2141	 2.27313952488924E-02 
2142	 2.24372126719152E-02 
2143	 2.17105377211282E-02 
2144	 2.11813990869766E-02 
2145	 2.01786370479299E-02 
2146	 2.00046675661235E-02 
2147	 2.21769218377929E-02 
2148	 2.37425518017792E-02 
2149	 2.49520180566136E-02 
2150	 2.60731277643538E-02 
2151	 2.45244341279626E-02 
2152	 2.26798567703323E-02 
2153	 2.24682345364241E-02 
2154	 2.28859253343095E-02 
2155	 2.33290894400673E-02 
2156	 2.32371603223353E-02 
2157	 2.31802456525821E-02 
2158	 2.26809674769128E-02 
2159	 2.24597818780061E-02 
2160	 2.23081475037182E-02 
2161	 2.20639257388603E-02 
2162	 2.20699690004966E-02 
2163	 2.15661230129605E-02 
2164	 2.01165776444629E-02 
2165	 2.03925353504811E-02 
2166	 0.020978793408401 
2167	 2.16825338988607E-02 
2168	 2.45161547366069E-02 
2169	 2.51907919517096E-02 
2170	 0.024495012576476 
2171	 2.49654178985862E-02 
2172	 2.30935644462595E-02 
2173	 2.18853351323823E-02 
2174	 2.35645590928804E-02 
2175	 2.30717544568224E-02 
2176	 0.021800876378283 
2177	 2.24991366756205E-02 
2178	 2.22150587797245E-02 
2179	 2.14573777206236E-02 
2180	 2.11535829413426E-02 
2181	 2.08002686824756E-02 
2182	 0.021690462682703 
2183	 2.14313785935877E-02 
2184	 2.04968368671238E-02 
2185	 2.12007369539344E-02 
2186	 2.14367618663202E-02 
2187	 1.97509943251122E-02 
2188	 1.98575701252737E-02 
2189	 2.26466082011762E-02 
2190	 2.31372799232485E-02 
2191	 2.22058532373101E-02 
2192	 2.27843454947836E-02 
2193	 2.39068987484161E-02 
2194	 2.34339430778824E-02 
2195	 2.22892243876041E-02 
2196	 2.20940177879047E-02 
2197	 2.04969685271474E-02 
2198	 2.05508749225534E-02 
2199	 0.023055917074724 
2200	 2.48078007824155E-02 
2201	 2.47646079869998E-02 
2202	 2.41443105158728E-02 
2203	 2.23689648715636E-02 
2204	 2.32209164104264E-02 
2205	 0.024135948250921 
2206	 2.37361900064888E-02 
2207	 2.61845500313785E-02 
2208	 2.54448672407649E-02 
2209	 2.18998329822025E-02 
2210	 0.021848727160132 
2211	 2.07665409416262E-02 
2212	 0.019128920219806 
2213	 2.12616861000551E-02 
2214	 2.42466818430195E-02 
2215	 2.36766134952489E-02 
2216	 2.33403991741384E-02 
2217	 2.36663450250592E-02 
2218	 2.32640399413492E-02 
2219	 2.29740552803091E-02 
2220	 2.35185204602461E-02 
2221	 2.33900603624989E-02 
2222	 2.22880795064547E-02 
2223	 2.17152378144465E-02 
2224	 2.18544297201895E-02 
2225	 2.23865920203397E-02 
2226	 2.30986180147598E-02 
2227	 2.31681426259157E-02 
2228	 2.27237114853926E-02 
2229	 0.02315770648699 
2230	 2.42373006491261E-02 
2231	 2.44210761021983E-02 
2232	 2.59074200669213E-02 
2233	 2.56680884776691E-02 
2234	 2.34705833645745E-02 
2235	 2.07318894428395E-02 
2236	 1.96682442374631E-02 
2237	 1.82741297952204E-02 
2238	 1.83327943260305E-02 
2239	 1.97070748537672E-02 
2240	 2.08083082995995E-02 
2241	 2.03186989773193E-02 
2242	 1.97432936910551E-02 
2243	 1.92103189903148E-02 
2244	 1.93137143044119E-02 
2245	 2.15706086221756E-02 
2246	 2.30765261425881E-02 
2247	 2.33855398019547E-02 
2248	 2.24137806251402E-02 
2249	 2.21397828702851E-02 
2250	 0.021950519112592 
2251	 2.17321178779735E-02 
2252	 2.28389652025222E-02 
2253	 2.14592886480024E-02 
2254	 2.10384542632419E-02 
2255	 2.12291147966502E-02 
2256	 1.94084982558285E-02 
2257	 2.01209632290178E-02 
2258	 2.29519993533668E-02 
2259	 2.52361275999263E-02 
2260	 2.54462647792304E-02 
2261	 2.52551337766373E-02 
2262	 2.44393246980719E-02 
2263	 0.019865483093644 
2264	 1.81189235925196E-02 
2265	 1.90192032203263E-02 
2266	 1.88221631824238E-02 
2267	 1.83259702150836E-02 
2268	 1.83066774592248E-02 
2269	 1.76926082477747E-02 
2270	 1.76164504311562E-02 
2271	 1.80790363284389E-02 
2272	 1.96377005693113E-02 
2273	 2.35076815280016E-02 
2274	 2.43187710160757E-02 
2275	 0.023588951013443 
2276	 2.34495444184919E-02 
2277	 2.20675210230001E-02 
2278	 2.10326880713898E-02 
2279	 2.01552922687766E-02 
2280	 1.98031627757773E-02 
2281	 1.84488045488437E-02 
2282	 1.97526530070175E-02 
2283	 2.09315475656308E-02 
2284	 2.08722146396881E-02 
2285	 2.02949598489496E-02 
2286	 0.018870498082456 
2287	 1.81705069880311E-02 
2288	 2.04924690283859E-02 
2289	 2.39055436052672E-02 
2290	 2.42326861071958E-02 
2291	 2.39418746154935E-02 
2292	 2.33354656549541E-02 
2293	 1.83655226838037E-02 
2294	 1.64600175005044E-02 
2295	 1.64434594085851E-02 
2296	 1.39341558278368E-02 
2297	 1.58010348882074E-02 
2298	 1.86931769574457E-02 
2299	 1.97564674575071E-02 
2300	 2.16976454213536E-02 
2301	 2.36954798817429E-02 
2302	 2.32097123722157E-02 
2303	 2.29667234606651E-02 
2304	 2.40852010738816E-02 
2305	 2.17155381590381E-02 
2306	 1.94151578162636E-02 
2307	 1.92578791545179E-02 
2308	 2.18151823915495E-02 
2309	 2.61054373361917E-02 
2310	 2.63872255186576E-02 
2311	 2.46582608474229E-02 
2312	 2.29535760426025E-02 
2313	 2.10772188882923E-02 
2314	 2.16615332990657E-02 
2315	 2.63267983667963E-02 
2316	 2.69703652163256E-02 
2317	 2.28693992120082E-02 
2318	 2.53220666105983E-02 
2319	 2.91874417973553E-02 
2320	 2.55348810065963E-02 
2321	 0.027133082762958 
2322	 3.56267610753699E-02 
2323	 2.65846852689876E-02 
2324	 0.014689855505201 
2325	 0.016704523297395 
2326	 1.36181654603823E-02 
2327	 1.52319116824152E-02 
2328	 2.35635490881139E-02 
2329	 2.38263613060122E-02 
2330	 2.13365702940856E-02 
2331	 1.99488448565155E-02 
2332	 2.03291400390241E-02 
2333	 2.03555239882985E-02 
2334	 1.76974793030676E-02 
2335	 1.58149389449922E-02 
2336	 1.68811612193721E-02 
2337	 1.68538195629856E-02 
2338	 1.77299079931752E-02 
2339	 2.15729310274747E-02 
2340	 0.022226735636526 
2341	 2.53469582554494E-02 
2342	 2.99055224745568E-02 
2343	 2.74738496890422E-02 
2344	 2.18248801291064E-02 
2345	 2.01169502635384E-02 
2346	 2.02027082760245E-02 
2347	 2.41408784496746E-02 
2348	 3.81461385160807E-02 
2349	 4.45272342689892E-02 
2350	 3.14949652204906E-02 
2351	 2.07302293502112E-02 
2352	 2.20869037453109E-02 
2353	 1.84869101053703E-02 
2354	 1.76977222109418E-02 
2355	 2.49504892818958E-02 
2356	 2.09965832273236E-02 
2357	 1.45183804387416E-02 
2358	 1.69253612537654E-02 
2359	 0.021049088056778 
2360	 2.19984178632319E-02 
2361	 2.16975435175281E-02 
2362	 2.91187317908284E-02 
2363	 3.27680261387668E-02 
2364	 2.53728653560354E-02 
2365	 3.01064742431271E-02 
2366	 3.40387894644207E-02 
2367	 2.51218715749029E-02 
2368	 2.84232862394256E-02 
2369	 0.02712400626092 
2370	 1.92449720785975E-02 
2371	 3.20876013908251E-02 
2372	 4.53122350608683E-02 
2373	 0.042896896756076 
2374	 4.87002341839331E-02 
2375	 5.81547323994597E-02 
2376	 5.29193376994529E-02 
2377	 5.53672900155797E-02 
2378	 4.75589085561515E-02 
2379	 2.06805305320842E-02 
2380	 1.77019436803553E-02 
2381	 2.39953115140179E-02 
2382	 4.68908619086669E-02 
2383	 8.30621135419402E-02 
2384	 8.27321881468382E-02 
2385	 6.85832205351383E-02 
2386	 3.89226834925445E-02 
2387	 6.12818380151021E-03 
2388	 1.36277627875202E-02 
2389	 4.73568753469653E-02 
2390	 7.65170864203599E-02 
2391	 9.74539599205154E-02 
2392	 0.111106709722807 
2393	 9.56304258274872E-02 
2394	 7.20849296479946E-02 
2395	 7.24090031593538E-02 
2396	 7.31455742727851E-02 
2397	 4.94048719968067E-02 
2398	 4.33144338836595E-02 
2399	 5.76101330295434E-02 
2400	 6.12091222705773E-02 
2401	 9.88059833557941E-02 
2402	 0.143687720879227 
2403	 0.129512670375219 
2404	 0.105918304552178 
2405	 0.110890919645159 
2406	 9.87701790827494E-02 
2407	 9.22583380038028E-02 
2408	 9.54184629966378E-02 
2409	 0.061145918499369 
2410	 0.08054627389004 
2411	 0.144103153643624 
2412	 0.155864021412216 
2413	 0.190427552794156 
2414	 0.173976582476432 
2415	 0.139841386923495 
2416	 0.221922421708106 
2417	 0.230778260718019 
2418	 0.198776305040023 
2419	 0.160911558960822 
2420	 4.88650164575234E-02 
2421	-8.99968187986482E-03 
2422	-8.99749634524671E-03 
2423	-1.53778238630771E-02 
2424	 5.79087170380397E-02 
2425	 0.149139729541035 
2426	 0.168193939497791 
2427	 0.235016405619546 
2428	 0.251354735965445 
2429	 0.199103493875719 
2430	 0.253986197753512 
2431	 0.226374665164549 
2432	 0.148557387486843 
2433	 0.232992823239956 
2434	 0.19353611663626 
2435	 4.89139849958933E-02 
2436	 4.69675646422346E-02 
2437	 8.03652106177979E-02 
2438	 5.04071573814249E-02 
2439	 0.185509598980586 
2440	 0.29623935341833 
2441	 0.193537275417255 
2442	 0.145065113084286 
2443	 0.209672687622868 
2444	 0.220960456158023 
2445	 0.239072731452065 
2446	 0.24759041942943 
2447	 9.99188254066747E-02 
2448	 9.41160762733954E-02 
2449	 0.17238088627643 
2450	 0.120114128914595 
2451	 4.41749294546642E-02 
2452	 0.153632381452728 
2453	 0.2783112126101 
2454	 0.108671683684186 
2455	 3.19838925206282E-03 
2456	-0.174249431950991 
2457	-0.315900833581993 
2458	-0.332846115181707 
2459	-0.260036895330467 
2460	-9.70527415539816E-02 
2461	 8.19052167077828E-02 
2462	 0.412658645538939 
2463	 0.757014565394115 
2464	 0.489731491858413 
2465	 0.277119375815645 
2466	 0.265102567584794 
2467	-6.35343804861156E-02 
2468	-0.249056278181689 
2469	-0.194146638113181 
2470	-0.273624150453679 
2471	-1.14997814302814E-03 
2472	 1.18432135688164 
2473	 3.24525695391773 
2474	 3.89718746756114 
2475	 2.55672955700461 
2476	 1.52465382011751 
2477	 1.32467957733485 
2478	 2.21239697809884 
2479	 1.76336481785589 
2480	 1.03367954194207 
2481	 1.57005486347314 
2482	 1.88895874220671 
2483	 15.9450526972139 
2484	-9.98249312868655 
2485	 12.2977837112677 
2486	-0.102470878035094 
2487	 3.9024388580684 
2488	-1.78232055210566 
2489	-1.48037761814664 
2490	-1.69479798816992 
2491	-2.44427874371242 
2492	-1.7519137480409 
2493	-0.492858552542535 
2494	-0.808293637678248 
2495	-1.90221093443957 
2496	-10.8636947762437 
2497	 6.76422108474325 
2498	-3.68021631476005 
2499	-2.24497744924804 
2500	 22.2379953417775 
