Wavelength	rt0711a300005.asd
350	 0.231644538849138 
351	 0.233948891961152 
352	 0.236190224959197 
353	 0.237836247885328 
354	 0.239086458638073 
355	 0.241348280507998 
356	 0.243469117292118 
357	 0.245529174766318 
358	 0.247748372566416 
359	 0.249228140830632 
360	 0.251205758325001 
361	 0.253570889630203 
362	 0.255319538687803 
363	 0.256709240489808 
364	 0.258414456789376 
365	 0.260465675277137 
366	 0.2619009059757 
367	 0.263229251059853 
368	 0.264438815528559 
369	 0.265513831423637 
370	 0.266895311899547 
371	 0.267969788491925 
372	 0.269026069577164 
373	 0.27075262751345 
374	 0.272369479647073 
375	 0.273415656896496 
376	 0.274116220284084 
377	 0.275529661580728 
378	 0.276892520994042 
379	 0.277874608445678 
380	 0.278371720968802 
381	 0.27853435287979 
382	 0.279230787722747 
383	 0.280082158357062 
384	 0.280354002338869 
385	 0.281554712720377 
386	 0.282512435907134 
387	 0.28302711809672 
388	 0.284144708719821 
389	 0.284179790859589 
390	 0.283805031473897 
391	 0.283739524911719 
392	 0.28364340150246 
393	 0.283483111154517 
394	 0.283440451460452 
395	 0.283660503948194 
396	 0.283671462863891 
397	 0.283844575961317 
398	 0.28405970140352 
399	 0.283792157532749 
400	 0.283655945799791 
401	 0.283409809171141 
402	 0.282904286927217 
403	 0.28250824037848 
404	 0.281871910975392 
405	 0.281135382541794 
406	 0.280574358691565 
407	 0.280122176734481 
408	 0.279648492828012 
409	 0.279077563332847 
410	 0.278402436943656 
411	 0.27779251488983 
412	 0.277271603530724 
413	 0.276779278158069 
414	 0.27613149299117 
415	 0.275490426555615 
416	 0.274867277420929 
417	 0.274242151883984 
418	 0.273811213240254 
419	 0.273351977156351 
420	 0.272862511306599 
421	 0.272596224715148 
422	 0.272384439466857 
423	 0.272204528157335 
424	 0.272069126952423 
425	 0.271995167182559 
426	 0.272031001834352 
427	 0.272162447806929 
428	 0.272378351121255 
429	 0.272938158902624 
430	 0.273527386189044 
431	 0.274141004555234 
432	 0.275191217651017 
433	 0.275909374474589 
434	 0.276226065086565 
435	 0.276322892287453 
436	 0.276568866972395 
437	 0.276763941592979 
438	 0.276796873150889 
439	 0.276650767042918 
440	 0.276666150309793 
441	 0.276605070376696 
442	 0.276342240833316 
443	 0.276011363136254 
444	 0.275567344434012 
445	 0.27504069462158 
446	 0.274514046527245 
447	 0.274202828965221 
448	 0.273792950039413 
449	 0.273214968076293 
450	 0.272593071816172 
451	 0.271961838433408 
452	 0.271350552639647 
453	 0.270760248950925 
454	 0.270148808387938 
455	 0.26953934927665 
456	 0.268951492259234 
457	 0.26839204203251 
458	 0.267805233037388 
459	 0.26723746152818 
460	 0.266667402497096 
461	 0.266011092091417 
462	 0.265391815498854 
463	 0.264775668320782 
464	 0.26412902950716 
465	 0.26352033514051 
466	 0.262826007189745 
467	 0.262131084986162 
468	 0.261596904673269 
469	 0.261136271036175 
470	 0.260628961280988 
471	 0.260053968573024 
472	 0.259526043024855 
473	 0.258963949403244 
474	 0.258448389090448 
475	 0.258034976157631 
476	 0.257536604222646 
477	 0.257169561175513 
478	 0.256958181281967 
479	 0.256779745824959 
480	 0.256505350735367 
481	 0.256304991803461 
482	 0.256203908291721 
483	 0.255844419852623 
484	 0.255464135442032 
485	 0.255284114869817 
486	 0.255451152173943 
487	 0.255775307670714 
488	 0.256103290548961 
489	 0.256292310965595 
490	 0.256234211953037 
491	 0.256280629350753 
492	 0.256501619693248 
493	 0.256849951902582 
494	 0.257156564481878 
495	 0.257458268146726 
496	 0.257646301351664 
497	 0.257616182262918 
498	 0.257885399160665 
499	 0.258170137573788 
500	 0.258296307934481 
501	 0.258381844589382 
502	 0.25868928523765 
503	 0.25901019706105 
504	 0.259124249982376 
505	 0.259373948180785 
506	 0.259514416489572 
507	 0.259577560413735 
508	 0.259811180364648 
509	 0.260100029846322 
510	 0.260411733170908 
511	 0.260728386443148 
512	 0.261032542835143 
513	 0.261409717341292 
514	 0.26181287665625 
515	 0.262156386904548 
516	 0.26250730560976 
517	 0.263269839669889 
518	 0.264411311887576 
519	 0.26535314813425 
520	 0.266227333134108 
521	 0.267206283750604 
522	 0.268394556903098 
523	 0.269582594238958 
524	 0.27083200296508 
525	 0.272215812497175 
526	 0.273816951851347 
527	 0.275697613392915 
528	 0.277769476640728 
529	 0.279893627677849 
530	 0.281879828692051 
531	 0.283962297140655 
532	 0.286309790777394 
533	 0.288984413934262 
534	 0.291677953577436 
535	 0.294363376490162 
536	 0.297096158032867 
537	 0.299982148277292 
538	 0.302861176645905 
539	 0.305844271643102 
540	 0.309001628686498 
541	 0.312075781324725 
542	 0.315145728207131 
543	 0.31819623230042 
544	 0.321162540910521 
545	 0.323963569094824 
546	 0.326728941903511 
547	 0.329520156013375 
548	 0.332231767613796 
549	 0.334788381796772 
550	 0.337223975333675 
551	 0.339598150160845 
552	 0.341784568354169 
553	 0.343975297696004 
554	 0.346198431693732 
555	 0.348267129874244 
556	 0.350247894340435 
557	 0.352238713343767 
558	 0.35430580455834 
559	 0.356461595666842 
560	 0.358565834351858 
561	 0.360648390918765 
562	 0.362845043717983 
563	 0.36501936981961 
564	 0.367195894939262 
565	 0.369409833885661 
566	 0.371699627485225 
567	 0.373863540065062 
568	 0.375901018773334 
569	 0.377879087814968 
570	 0.379795497283592 
571	 0.381516217640517 
572	 0.383025497018687 
573	 0.384440145420898 
574	 0.385769308592928 
575	 0.387153337781164 
576	 0.388631862148678 
577	 0.389882643301418 
578	 0.391069566014264 
579	 0.392213093741154 
580	 0.393256131777256 
581	 0.394321461520177 
582	 0.395170350308297 
583	 0.395694564881406 
584	 0.396062550210833 
585	 0.396667406351511 
586	 0.397106270345531 
587	 0.39691776146906 
588	 0.397112173989973 
589	 0.397690431872183 
590	 0.398397848744555 
591	 0.398859647254044 
592	 0.399363828591955 
593	 0.399867043516702 
594	 0.400305262827754 
595	 0.400827321877749 
596	 0.401031580500699 
597	 0.40110909840379 
598	 0.401517132184281 
599	 0.401676560496422 
600	 0.401812392816716 
601	 0.402076867550436 
602	 0.4023328261976 
603	 0.4025242411516 
604	 0.402663838954544 
605	 0.402814570794616 
606	 0.403136308117283 
607	 0.403449573342145 
608	 0.403687405682025 
609	 0.403920490441863 
610	 0.404294207638966 
611	 0.404624608285169 
612	 0.404795184126787 
613	 0.405108135408266 
614	 0.4053029225533 
615	 0.405475848255459 
616	 0.405863818877626 
617	 0.406055669656032 
618	 0.406287960915383 
619	 0.406642064909721 
620	 0.406830603326634 
621	 0.407044547728355 
622	 0.407259889965146 
623	 0.407425061980553 
624	 0.407706841377392 
625	 0.407852818288303 
626	 0.407863134647079 
627	 0.407987879848709 
628	 0.408262191683141 
629	 0.408646330477587 
630	 0.409042669315672 
631	 0.409253616152309 
632	 0.409463795431216 
633	 0.409713265604192 
634	 0.409978872430476 
635	 0.410329385942158 
636	 0.410578032830271 
637	 0.410699596100317 
638	 0.410927512967831 
639	 0.411256850976395 
640	 0.411510198136985 
641	 0.411576544792984 
642	 0.411876357188885 
643	 0.411977487035463 
644	 0.411846669462556 
645	 0.411775777669016 
646	 0.411583877349977 
647	 0.411621718634629 
648	 0.412026498856181 
649	 0.412279482605378 
650	 0.412342691410738 
651	 0.412341954381381 
652	 0.41244339262232 
653	 0.412517301689141 
654	 0.412342192722616 
655	 0.411967203895599 
656	 0.411871600365754 
657	 0.411822247495459 
658	 0.411700894956377 
659	 0.411482865478305 
660	 0.41134538997675 
661	 0.411210558765922 
662	 0.411051835267726 
663	 0.410878747135561 
664	 0.410695736952731 
665	 0.410556176471268 
666	 0.41047327757369 
667	 0.410381751964263 
668	 0.410370313571544 
669	 0.410337624748293 
670	 0.410186034458665 
671	 0.410151759295917 
672	 0.410176668667967 
673	 0.410221958980962 
674	 0.410284807979516 
675	 0.410456563144504 
676	 0.41063038211238 
677	 0.410776409178365 
678	 0.411170625707149 
679	 0.411496568716344 
680	 0.411779789318869 
681	 0.412175434125903 
682	 0.412539872175453 
683	 0.413002718899821 
684	 0.413420826701003 
685	 0.413264579664116 
686	 0.413225339125542 
687	 0.413554675903175 
688	 0.414168617323151 
689	 0.41471889075953 
690	 0.415129939588804 
691	 0.415303355071401 
692	 0.415187831613483 
693	 0.415316091539396 
694	 0.415723374911811 
695	 0.416241430295053 
696	 0.416613072173414 
697	 0.416490547166979 
698	 0.416090795836757 
699	 0.415803964453447 
700	 0.415735050268101 
701	 0.415684574345196 
702	 0.415586115175951 
703	 0.415487118431019 
704	 0.415203316890827 
705	 0.414878593225626 
706	 0.41460617027562 
707	 0.414241276700129 
708	 0.413855175214884 
709	 0.413388984894526 
710	 0.412743770528822 
711	 0.411875798760608 
712	 0.410971026948131 
713	 0.409993295082333 
714	 0.408632175689269 
715	 0.406817625151823 
716	 0.404691138500861 
717	 0.40262431400532 
718	 0.400775595312242 
719	 0.399941730830489 
720	 0.399739870610201 
721	 0.399259638654203 
722	 0.397735849339319 
723	 0.39573940303246 
724	 0.393961161785386 
725	 0.392582261787032 
726	 0.39108639226885 
727	 0.389357890951647 
728	 0.387458556692515 
729	 0.385555082772242 
730	 0.383550541717806 
731	 0.38179654111394 
732	 0.380595736134638 
733	 0.379379959845927 
734	 0.377927431737718 
735	 0.376424915537312 
736	 0.375548969745869 
737	 0.374946690774311 
738	 0.374583044939417 
739	 0.374423589393483 
740	 0.374206393605941 
741	 0.373988754429154 
742	 0.373854769246965 
743	 0.373874987731351 
744	 0.373922572311975 
745	 0.373880104231975 
746	 0.37379274371347 
747	 0.373914565208227 
748	 0.373904175862869 
749	 0.373853428138904 
750	 0.373900498503431 
751	 0.373961854389668 
752	 0.373946022931594 
753	 0.373887275053193 
754	 0.373891130750562 
755	 0.373982734013816 
756	 0.374176913994415 
757	 0.374292193364242 
758	 0.373705467446855 
759	 0.371515403099571 
760	 0.369143738385504 
761	 0.369882751822013 
762	 0.370071443314492 
763	 0.370661821522221 
764	 0.371700865650165 
765	 0.372906836054289 
766	 0.373929362497117 
767	 0.374657153280731 
768	 0.375081374775329 
769	 0.375238178484655 
770	 0.375528371750488 
771	 0.375812727719307 
772	 0.375984389400978 
773	 0.376355459671796 
774	 0.376703049372381 
775	 0.376973509689015 
776	 0.377222023989736 
777	 0.37765665557293 
778	 0.377994580923758 
779	 0.378232130663049 
780	 0.378662173854058 
781	 0.378982569681896 
782	 0.379287062446006 
783	 0.379694985928564 
784	 0.380244736925397 
785	 0.380592638097128 
786	 0.380851308816802 
787	 0.381233999428649 
788	 0.381500910951696 
789	 0.381833376499227 
790	 0.38233029702023 
791	 0.382969407435754 
792	 0.383352501695629 
793	 0.383823703720339 
794	 0.384468846215319 
795	 0.384771981632616 
796	 0.385132497544533 
797	 0.385569483682657 
798	 0.385994429594421 
799	 0.386296631414247 
800	 0.386503879574553 
801	 0.386727668589613 
802	 0.387096585537628 
803	 0.387486834265815 
804	 0.387820897117347 
805	 0.388019511590563 
806	 0.388014359002012 
807	 0.388107806996812 
808	 0.388085518286541 
809	 0.387774389207694 
810	 0.3873665216838 
811	 0.38690238599105 
812	 0.386340673593379 
813	 0.385592156238631 
814	 0.384556103051281 
815	 0.383558167716515 
816	 0.382870350775225 
817	 0.382588898482956 
818	 0.382565860382505 
819	 0.382652065546407 
820	 0.382335310366331 
821	 0.38057973889575 
822	 0.378647057454835 
823	 0.377528990236676 
824	 0.377217975588302 
825	 0.375957882835114 
826	 0.373752415591512 
827	 0.371247544423941 
828	 0.369392849679439 
829	 0.367770679014496 
830	 0.366047528002978 
831	 0.36430367285382 
832	 0.362960634209674 
833	 0.362139764564658 
834	 0.361488488854163 
835	 0.360841697291706 
836	 0.360371254197378 
837	 0.3599160887515 
838	 0.359472125872959 
839	 0.359088012183086 
840	 0.358863887920736 
841	 0.358604894866287 
842	 0.358297520612733 
843	 0.357984152960724 
844	 0.357579831111987 
845	 0.357320848335034 
846	 0.357163898438425 
847	 0.356865998073496 
848	 0.356322467472562 
849	 0.356033473197231 
850	 0.356032376014738 
851	 0.355692435134299 
852	 0.35507662749095 
853	 0.354497244181499 
854	 0.35422015517862 
855	 0.35423788427022 
856	 0.354312280057843 
857	 0.354113874782299 
858	 0.353540510723145 
859	 0.353261173574168 
860	 0.353261001474387 
861	 0.35318596394557 
862	 0.352687469340819 
863	 0.352644791437997 
864	 0.352148787804163 
865	 0.351261661691565 
866	 0.35097672282338 
867	 0.35106376444911 
868	 0.350888594903642 
869	 0.350395956062288 
870	 0.3503154565294 
871	 0.349978997373892 
872	 0.349367780725799 
873	 0.34870604033709 
874	 0.348417968525433 
875	 0.348256739802925 
876	 0.347907193436958 
877	 0.347258765644304 
878	 0.346996872365525 
879	 0.3465233562522 
880	 0.345950292572996 
881	 0.345638770963244 
882	 0.345235032016232 
883	 0.344872720519064 
884	 0.344347300492489 
885	 0.343368879777089 
886	 0.34323011000646 
887	 0.343066904407332 
888	 0.3425213471754 
889	 0.342079894457531 
890	 0.341669215910147 
891	 0.341310582892838 
892	 0.340873914788661 
893	 0.339949205742491 
894	 0.339006153430293 
895	 0.33800584691286 
896	 0.336902594770454 
897	 0.336084879487429 
898	 0.335136740426204 
899	 0.334528529144479 
900	 0.334609876647336 
901	 0.334287963436463 
902	 0.334967794657455 
903	 0.335834040488198 
904	 0.335499792740973 
905	 0.334235195520306 
906	 0.332862165546119 
907	 0.331936367449824 
908	 0.331619451935341 
909	 0.331021497458313 
910	 0.33036620514556 
911	 0.329650710363404 
912	 0.328626021097707 
913	 0.327486953945726 
914	 0.326264897399371 
915	 0.325145468391725 
916	 0.324463492135292 
917	 0.324347940290761 
918	 0.324269710735396 
919	 0.323984065867914 
920	 0.323727771196346 
921	 0.322464042187949 
922	 0.321107152052901 
923	 0.320362282545306 
924	 0.319717342159247 
925	 0.318782666164449 
926	 0.317237461745964 
927	 0.315001739718857 
928	 0.312679675786925 
929	 0.309631999752179 
930	 0.306957990341573 
931	 0.305795350253159 
932	 0.300836383215887 
933	 0.294564693673744 
934	 0.29193356609757 
935	 0.295251032770499 
936	 0.296972533974122 
937	 0.296180363269962 
938	 0.295052248486538 
939	 0.295300693964485 
940	 0.293443616973268 
941	 0.290751214987212 
942	 0.288606381242773 
943	 0.287853928942039 
944	 0.285853614490683 
945	 0.284295178406198 
946	 0.282919072958517 
947	 0.280864366998419 
948	 0.282297842024263 
949	 0.279922053223666 
950	 0.275690130475474 
951	 0.276300422673062 
952	 0.276571686199981 
953	 0.272876972171681 
954	 0.269463380638671 
955	 0.273297065981175 
956	 0.273488108438542 
957	 0.273749956392967 
958	 0.272100921352443 
959	 0.264440981915419 
960	 0.266455371468252 
961	 0.267393572319254 
962	 0.26569806181041 
963	 0.267283790010813 
964	 0.267493131281088 
965	 0.267132589545276 
966	 0.267234302984718 
967	 0.26828377565289 
968	 0.268233981081706 
969	 0.269218992354533 
970	 0.269885113356738 
971	 0.2667445487936 
972	 0.267643769565148 
973	 0.267384633048538 
974	 0.265802543491083 
975	 0.268007276913703 
976	 0.268194374226735 
977	 0.268207546621677 
978	 0.268731291045821 
979	 0.268834849161099 
980	 0.26988820944422 
981	 0.269974275272188 
982	 0.269723063767914 
983	 0.27137173864068 
984	 0.271026905624693 
985	 0.27071061498459 
986	 0.271511470572134 
987	 0.272906418039122 
988	 0.27240699794376 
989	 0.272760395905289 
990	 0.274371228866765 
991	 0.275380129671231 
992	 0.274417364521216 
993	 0.274261925365455 
994	 0.274670080315085 
995	 0.273905202297253 
996	 0.27671996473242 
997	 0.277469041044138 
998	 0.276595355408019 
999	 0.277962327103851 
1000	 0.279028252079819 
1001	 0.28835051566087 
1002	 0.286948609116874 
1003	 0.285109171865347 
1004	 0.28161787525011 
1005	 0.278455136527624 
1006	 0.274386131533004 
1007	 0.270884149501383 
1008	 0.266511247782396 
1009	 0.263520864392135 
1010	 0.259856321086601 
1011	 0.25727368632047 
1012	 0.255707895873371 
1013	 0.255087639403092 
1014	 0.255178093954914 
1015	 0.25664129923084 
1016	 0.257864539501893 
1017	 0.259570357522083 
1018	 0.261249756934637 
1019	 0.263122043976908 
1020	 0.265067663161325 
1021	 0.267065478410396 
1022	 0.269452644212207 
1023	 0.27199938418865 
1024	 0.274946424305722 
1025	 0.278588701546405 
1026	 0.281861951076794 
1027	 0.284637612292808 
1028	 0.287789611258437 
1029	 0.289465394372592 
1030	 0.290586100458497 
1031	 0.290572264682334 
1032	 0.289387323653173 
1033	 0.287790471221225 
1034	 0.285042431865346 
1035	 0.282246732502404 
1036	 0.278368560765951 
1037	 0.275353151931727 
1038	 0.272469599990968 
1039	 0.269363141325219 
1040	 0.26765347793306 
1041	 0.266413660426813 
1042	 0.266156068131729 
1043	 0.266504373120552 
1044	 0.267996500966081 
1045	 0.270811925491535 
1046	 0.273598799038057 
1047	 0.277645580257594 
1048	 0.280870043826154 
1049	 0.28419515366409 
1050	 0.287117611162423 
1051	 0.289554870626554 
1052	 0.292241376149846 
1053	 0.294931990681699 
1054	 0.297451566866826 
1055	 0.299947896616569 
1056	 0.302408858726393 
1057	 0.304793457402162 
1058	 0.306752295282393 
1059	 0.30947966134781 
1060	 0.312132853580427 
1061	 0.315871457106897 
1062	 0.320418678690859 
1063	 0.325003147754729 
1064	 0.330465718227045 
1065	 0.33555773184139 
1066	 0.34088198021582 
1067	 0.345776143342283 
1068	 0.350673872469618 
1069	 0.355205714406472 
1070	 0.359589129513898 
1071	 0.363391943008831 
1072	 0.367083683210677 
1073	 0.370037097003811 
1074	 0.37237830911597 
1075	 0.374039599381085 
1076	 0.375363509606942 
1077	 0.37583517000082 
1078	 0.376696648204365 
1079	 0.377211296938544 
1080	 0.377918435296948 
1081	 0.37882070742663 
1082	 0.379557860006613 
1083	 0.380606675790153 
1084	 0.380892071005023 
1085	 0.380491404524762 
1086	 0.380393623904674 
1087	 0.380269555589745 
1088	 0.379568819545643 
1089	 0.378812592984692 
1090	 0.3779728177856 
1091	 0.376459580536265 
1092	 0.373946458024395 
1093	 0.371971519559577 
1094	 0.369796346849373 
1095	 0.367867638385535 
1096	 0.365745216883574 
1097	 0.364204108698036 
1098	 0.362708971538377 
1099	 0.362005389597797 
1100	 0.362206135162805 
1101	 0.362325325496553 
1102	 0.362904474497741 
1103	 0.363710397364544 
1104	 0.365220028384861 
1105	 0.365857141132052 
1106	 0.367346787469046 
1107	 0.369351659446231 
1108	 0.371742402568282 
1109	 0.373748250994793 
1110	 0.376083485362105 
1111	 0.379267907372917 
1112	 0.381328478507833 
1113	 0.383364647229713 
1114	 0.384799962782863 
1115	 0.385338021821553 
1116	 0.38547734134426 
1117	 0.383756154254487 
1118	 0.382664709661598 
1119	 0.38131262168676 
1120	 0.378525497291964 
1121	 0.3749586988354 
1122	 0.369699234610125 
1123	 0.362302282558241 
1124	 0.35206812726024 
1125	 0.343093889621123 
1126	 0.335666574747267 
1127	 0.330484123493289 
1128	 0.324675614546221 
1129	 0.319948954970353 
1130	 0.31595642298735 
1131	 0.315032188100536 
1132	 0.315166587814568 
1133	 0.316168581395826 
1134	 0.319183265058423 
1135	 0.322063997366493 
1136	 0.323634587920644 
1137	 0.327124486970896 
1138	 0.333257286974402 
1139	 0.33734348331412 
1140	 0.341654281415743 
1141	 0.345581884491864 
1142	 0.348027643735669 
1143	 0.350360342989008 
1144	 0.351573407726298 
1145	 0.352137558188349 
1146	 0.3495700286783 
1147	 0.34723064071749 
1148	 0.342372833006669 
1149	 0.33777277279213 
1150	 0.332027265388979 
1151	 0.325959990479518 
1152	 0.319736356591695 
1153	 0.314249236212695 
1154	 0.307618805284396 
1155	 0.301921363189704 
1156	 0.294198413312078 
1157	 0.287608997449727 
1158	 0.280497711091567 
1159	 0.273839567031333 
1160	 0.267299022100059 
1161	 0.261953274390568 
1162	 0.255010143329759 
1163	 0.24750866681853 
1164	 0.240357607302536 
1165	 0.231886920288617 
1166	 0.224200560295742 
1167	 0.21696896679673 
1168	 0.210925997663691 
1169	 0.205016614385491 
1170	 0.200066025834792 
1171	 0.195410554118752 
1172	 0.190691520957582 
1173	 0.186992543030032 
1174	 0.183921595645021 
1175	 0.181102092863035 
1176	 0.178328782001173 
1177	 0.176032897227565 
1178	 0.173907324091904 
1179	 0.171578196595436 
1180	 0.169927286905568 
1181	 0.168850799846732 
1182	 0.167393898365362 
1183	 0.165951675932097 
1184	 0.164803013412857 
1185	 0.163760892921608 
1186	 0.16317455680982 
1187	 0.162793186983425 
1188	 0.162401507039892 
1189	 0.161559583941625 
1190	 0.160964749741263 
1191	 0.160652183223404 
1192	 0.160152651542557 
1193	 0.159675870099027 
1194	 0.159443836447876 
1195	 0.159114166554621 
1196	 0.158626672547376 
1197	 0.158491016089932 
1198	 0.158368019615707 
1199	 0.158006036991523 
1200	 0.157696161475624 
1201	 0.157662518359189 
1202	 0.157690617919558 
1203	 0.157582611405518 
1204	 0.157420690918911 
1205	 0.157004227459386 
1206	 0.156697393108216 
1207	 0.156704211621253 
1208	 0.156721084717506 
1209	 0.156653646887494 
1210	 0.15658514186688 
1211	 0.156718641676831 
1212	 0.156703501785108 
1213	 0.156567850985576 
1214	 0.156660416503976 
1215	 0.156912665336574 
1216	 0.156959635889081 
1217	 0.156887759958415 
1218	 0.157100882318605 
1219	 0.157256191017792 
1220	 0.157216061116617 
1221	 0.157204738113298 
1222	 0.15725507399654 
1223	 0.157146130356102 
1224	 0.157075781464579 
1225	 0.157080997230831 
1226	 0.15693902597908 
1227	 0.157025753072936 
1228	 0.157189699810858 
1229	 0.157270213933734 
1230	 0.157628820038955 
1231	 0.157763873552131 
1232	 0.157556537501998 
1233	 0.157556835338562 
1234	 0.157437625469007 
1235	 0.157411691771813 
1236	 0.157522728678813 
1237	 0.157543296237998 
1238	 0.15751966728148 
1239	 0.15752867257554 
1240	 0.157580498145125 
1241	 0.157552342716744 
1242	 0.15764635047828 
1243	 0.157712269419506 
1244	 0.157717916981699 
1245	 0.157689086848718 
1246	 0.157664944542982 
1247	 0.157961226833592 
1248	 0.15823119976439 
1249	 0.158001000322362 
1250	 0.157687403761301 
1251	 0.157698891372078 
1252	 0.157754704573284 
1253	 0.157875081389666 
1254	 0.15812980743942 
1255	 0.158160892852157 
1256	 0.158186073836646 
1257	 0.158182549567633 
1258	 0.158014905517921 
1259	 0.157580480983854 
1260	 0.157481718812303 
1261	 0.157403090156023 
1262	 0.157376332130987 
1263	 0.157611979083553 
1264	 0.157835332791544 
1265	 0.157860741959653 
1266	 0.157754197332514 
1267	 0.157755068262064 
1268	 0.157678817830447 
1269	 0.15778521962902 
1270	 0.157985827591897 
1271	 0.157952759905604 
1272	 0.158096819994346 
1273	 0.158245827590913 
1274	 0.158123891397851 
1275	 0.158194072900925 
1276	 0.158536537373711 
1277	 0.158538684998508 
1278	 0.15817857894288 
1279	 0.15831157445357 
1280	 0.158718698306591 
1281	 0.158719673375234 
1282	 0.158704282148844 
1283	 0.158685600620692 
1284	 0.158313835944255 
1285	 0.158009069222927 
1286	 0.157918399446133 
1287	 0.157722711872231 
1288	 0.157180981942045 
1289	 0.156852658953326 
1290	 0.156611187199663 
1291	 0.156601435563939 
1292	 0.156215271959713 
1293	 0.155853493710984 
1294	 0.15589894675254 
1295	 0.155793572759315 
1296	 0.155275064375079 
1297	 0.155056853635531 
1298	 0.154926273257386 
1299	 0.154121276658897 
1300	 0.153325099121372 
1301	 0.152922526122676 
1302	 0.152142070979485 
1303	 0.151283462171422 
1304	 0.151106493732613 
1305	 0.150690805869529 
1306	 0.150048489149946 
1307	 0.149244076651514 
1308	 0.14849615438836 
1309	 0.147424162681404 
1310	 0.146581785049657 
1311	 0.146000973294725 
1312	 0.145136218025677 
1313	 0.144095264227192 
1314	 0.143140717913331 
1315	 0.142230902674886 
1316	 0.141132851600517 
1317	 0.139708117592159 
1318	 0.138808257650237 
1319	 0.138103547062024 
1320	 0.137346354427753 
1321	 0.136895597991042 
1322	 0.136567705879734 
1323	 0.135614635620428 
1324	 0.134411976801691 
1325	 0.133068087207021 
1326	 0.132089427443953 
1327	 0.131472937954894 
1328	 0.12979429407578 
1329	 0.127909817488549 
1330	 0.126939419893413 
1331	 0.125997625221976 
1332	 0.125644073015203 
1333	 0.12541530555939 
1334	 0.124471498085712 
1335	 0.12358130888118 
1336	 0.121899477029663 
1337	 0.121088650407849 
1338	 0.12093139668587 
1339	 0.120281267693553 
1340	 0.119523708793795 
1341	 0.11923673417786 
1342	 0.119117947176551 
1343	 0.118660306579328 
1344	 0.118585769829832 
1345	 0.118179236574474 
1346	 0.116145159931647 
1347	 0.115140072020774 
1348	 0.115525228959698 
1349	 0.115155797541846 
1350	 0.115631578247095 
1351	 0.117155335634003 
1352	 0.120684496219288 
1353	 0.123247135600449 
1354	 0.127753119656878 
1355	 0.130142609509342 
1356	 0.110172221955068 
1357	 0.119689439361201 
1358	 0.192463621035493 
1359	 0.214176903443355 
1360	 0.195506469423533 
1361	 0.207705113043372 
1362	 0.242174257471435 
1363	 0.24984541242309 
1364	 0.266038383132931 
1365	 0.431841234948403 
1366	 0.380101656388561 
1367	 0.139979054887506 
1368	 7.35357461137794E-02 
1369	 0.159154997560355 
1370	 0.230275662211653 
1371	 0.447040628289327 
1372	 0.423276054486514 
1373	 0.231835953393006 
1374	 0.233003032350257 
1375	 0.114991384119825 
1376	-1.83446293218878E-02 
1377	 0.12844409711308 
1378	 0.145681275437025 
1379	-8.88382649427973E-02 
1380	-0.188981914046585 
1381	-7.98166808127276E-02 
1382	-0.030149639892204 
1383	-0.016862165460538 
1384	 6.30762370525919E-04 
1385	 0.12378888920414 
1386	 0.131541239784628 
1387	-4.74757195960073E-02 
1388	-3.55314958211575E-02 
1389	 0.129839512137539 
1390	 0.212686006882961 
1391	 0.365997538942911 
1392	 0.467088919339557 
1393	 0.178636263484484 
1394	 8.93785354916321E-03 
1395	 0.476959007126584 
1396	 0.909068401824508 
1397	 0.418121358878022 
1398	 0.393967602776271 
1399	 0.565806498910341 
1400	 0.360949763870007 
1401	 0.223046470252488 
1402	 0.311824543348901 
1403	 0.279234757082237 
1404	 0.249473359026813 
1405	 0.195701025706187 
1406	 0.230046018268982 
1407	 0.246951356972632 
1408	 0.192922766989255 
1409	 0.120644712789508 
1410	 7.20023992867379E-02 
1411	 9.84910798757003E-02 
1412	 0.11932973936495 
1413	 0.110882119376411 
1414	 0.144546034979034 
1415	 0.141741875894036 
1416	 8.63972838138404E-02 
1417	 7.01358793514039E-02 
1418	 8.98408254945381E-02 
1419	 7.92275108972235E-02 
1420	 4.91783459032902E-02 
1421	 4.81462433672154E-02 
1422	 5.30224922602403E-02 
1423	 5.24863016706963E-02 
1424	 5.58183116986155E-02 
1425	 6.22729255098004E-02 
1426	 7.14365265036838E-02 
1427	 7.00655567914027E-02 
1428	 6.84357739758226E-02 
1429	 0.068355693474549 
1430	 6.00408212292302E-02 
1431	 5.60674341631411E-02 
1432	 5.62228450834269E-02 
1433	 5.73011386822915E-02 
1434	 0.06365910044352 
1435	 6.10849930413521E-02 
1436	 5.25401079135036E-02 
1437	 4.90008549478975E-02 
1438	 5.31950608181093E-02 
1439	 5.51947313822013E-02 
1440	 5.96436127472782E-02 
1441	 6.02883700007501E-02 
1442	 5.53640354752236E-02 
1443	 5.37885070461181E-02 
1444	 5.65059146971806E-02 
1445	 6.03587877451121E-02 
1446	 5.77279313509819E-02 
1447	 5.15984688668463E-02 
1448	 5.06961474237792E-02 
1449	 5.10624037000368E-02 
1450	 5.14223795855196E-02 
1451	 0.052744942100532 
1452	 5.50581893183604E-02 
1453	 5.62504769851489E-02 
1454	 5.57272417021037E-02 
1455	 0.054867191604783 
1456	 5.51043601198764E-02 
1457	 5.43813740314547E-02 
1458	 5.39419543244383E-02 
1459	 5.48804287336163E-02 
1460	 5.44665847286253E-02 
1461	 5.19449096186578E-02 
1462	 5.18347172344447E-02 
1463	 5.36085390368032E-02 
1464	 5.36296405264652E-02 
1465	 5.33329149470279E-02 
1466	 5.36102509076444E-02 
1467	 5.29215687217503E-02 
1468	 5.30778453676303E-02 
1469	 5.51694826875297E-02 
1470	 5.54891490465102E-02 
1471	 5.42498595148086E-02 
1472	 5.45821907810005E-02 
1473	 5.52449058126389E-02 
1474	 5.55230163622166E-02 
1475	 5.70582317539376E-02 
1476	 5.65296296246923E-02 
1477	 5.33981642493123E-02 
1478	 5.37286534617163E-02 
1479	 5.53771960909412E-02 
1480	 5.57113655402488E-02 
1481	 5.70035647446505E-02 
1482	 5.77624578814019E-02 
1483	 5.72556491024697E-02 
1484	 5.73888194273537E-02 
1485	 5.81129687558657E-02 
1486	 5.88399731590644E-02 
1487	 5.95731125860188E-02 
1488	 5.96675345353829E-02 
1489	 5.92816792093109E-02 
1490	 5.98473432573018E-02 
1491	 6.06871673075132E-02 
1492	 6.09605488431025E-02 
1493	 6.13057985552362E-02 
1494	 6.20734273845965E-02 
1495	 6.27406153364686E-02 
1496	 6.31053510779035E-02 
1497	 6.37763351101311E-02 
1498	 6.43652864447764E-02 
1499	 6.44655417948485E-02 
1500	 6.48062851691349E-02 
1501	 0.065681420557559 
1502	 6.62019603022585E-02 
1503	 6.63141368521043E-02 
1504	 6.66487849583483E-02 
1505	 6.71454388505094E-02 
1506	 0.06737682207222 
1507	 6.76539828137689E-02 
1508	 6.82656133973074E-02 
1509	 0.06877419854582 
1510	 6.94646677709734E-02 
1511	 7.00642465911289E-02 
1512	 7.02569614321689E-02 
1513	 7.04819416535681E-02 
1514	 7.07804724122926E-02 
1515	 7.13739499908943E-02 
1516	 7.21525179638714E-02 
1517	 7.27378746409833E-02 
1518	 7.33909212773003E-02 
1519	 7.43823693780881E-02 
1520	 7.51941487367451E-02 
1521	 7.62050315133088E-02 
1522	 7.73298362988748E-02 
1523	 7.82866827767925E-02 
1524	 7.94469757461262E-02 
1525	 8.12259252884927E-02 
1526	 8.30605386320626E-02 
1527	 8.48053269178693E-02 
1528	 8.69928371381718E-02 
1529	 8.94859558706445E-02 
1530	 9.18540139833127E-02 
1531	 9.45306767898866E-02 
1532	 9.78116143053573E-02 
1533	 0.101180707025014 
1534	 0.104419983253212 
1535	 0.107984054249793 
1536	 0.111821742314099 
1537	 0.115275681561984 
1538	 0.119192818323118 
1539	 0.123518011902119 
1540	 0.127517093294873 
1541	 0.131257897648215 
1542	 0.135589342890723 
1543	 0.140071244683924 
1544	 0.144038807073216 
1545	 0.14710520590516 
1546	 0.150500745371501 
1547	 0.153542074111098 
1548	 0.156068244385024 
1549	 0.158280704229509 
1550	 0.160347134165634 
1551	 0.16149494470449 
1552	 0.161949079083062 
1553	 0.162652029490659 
1554	 0.162941737670461 
1555	 0.162852965827753 
1556	 0.162701775741573 
1557	 0.162436835394949 
1558	 0.1614588040635 
1559	 0.160297491785977 
1560	 0.158991553194836 
1561	 0.157469355295013 
1562	 0.156032831477389 
1563	 0.154994241592922 
1564	 0.153678261152279 
1565	 0.152381847329387 
1566	 0.150924026074582 
1567	 0.149471542916991 
1568	 0.147939206158794 
1569	 0.146543605876856 
1570	 0.145416213800159 
1571	 0.144694886715417 
1572	 0.143891647716516 
1573	 0.143075566366609 
1574	 0.142447140449119 
1575	 0.141800836898863 
1576	 0.141144902914637 
1577	 0.140794283852669 
1578	 0.140398604991179 
1579	 0.139983203187348 
1580	 0.140060747062659 
1581	 0.140430297358989 
1582	 0.141103173632865 
1583	 0.142124960365272 
1584	 0.143189810222165 
1585	 0.144194414319475 
1586	 0.145600833150337 
1587	 0.147258428658959 
1588	 0.14905855889804 
1589	 0.150992403845039 
1590	 0.153251703416345 
1591	 0.155483860651459 
1592	 0.157414005255325 
1593	 0.159483479591347 
1594	 0.162261497975261 
1595	 0.16461920789769 
1596	 0.166837646624992 
1597	 0.169513174551551 
1598	 0.172015131221252 
1599	 0.174020846584582 
1600	 0.175974927123227 
1601	 0.178216916004271 
1602	 0.179944896665402 
1603	 0.181775870633727 
1604	 0.184321348710961 
1605	 0.187304068056608 
1606	 0.189502649646815 
1607	 0.191618993192198 
1608	 0.194487268650343 
1609	 0.196999106322803 
1610	 0.199469464591494 
1611	 0.202461522601384 
1612	 0.205102198494996 
1613	 0.208086662401487 
1614	 0.211504152780129 
1615	 0.21520203567965 
1616	 0.21945359327887 
1617	 0.223522089273724 
1618	 0.227830329565029 
1619	 0.232207969966993 
1620	 0.236648277602791 
1621	 0.241082479511155 
1622	 0.245675919220546 
1623	 0.249717041931546 
1624	 0.254009049595163 
1625	 0.257839162030886 
1626	 0.261265282625501 
1627	 0.263686673730267 
1628	 0.265823589007188 
1629	 0.267320690122474 
1630	 0.26777922653299 
1631	 0.268041896348006 
1632	 0.268025642574508 
1633	 0.267402317892977 
1634	 0.265823082399613 
1635	 0.264519107120815 
1636	 0.262787439829231 
1637	 0.261174382517105 
1638	 0.259346846866624 
1639	 0.25792254254804 
1640	 0.25639032116353 
1641	 0.254850353357546 
1642	 0.253397421820021 
1643	 0.25251173946818 
1644	 0.252064339108209 
1645	 0.252102697066515 
1646	 0.252387719089655 
1647	 0.253105283109783 
1648	 0.253915763105416 
1649	 0.25551153093737 
1650	 0.258192594529045 
1651	 0.261062981168441 
1652	 0.264029837370935 
1653	 0.267599994069477 
1654	 0.270777286218367 
1655	 0.274066826144668 
1656	 0.276824877328763 
1657	 0.279724292339623 
1658	 0.28116079766273 
1659	 0.281457575290198 
1660	 0.281498220990743 
1661	 0.280881035967086 
1662	 0.279067362477485 
1663	 0.275912646695817 
1664	 0.272814606290943 
1665	 0.268541071869067 
1666	 0.264704157878468 
1667	 0.261254856438396 
1668	 0.257981114265183 
1669	 0.254010671035195 
1670	 0.249365793312175 
1671	 0.24542113376911 
1672	 0.241998543719441 
1673	 0.237780130658019 
1674	 0.233985409861036 
1675	 0.230598753269603 
1676	 0.226791992977668 
1677	 0.223300773246072 
1678	 0.220917094024782 
1679	 0.21810858126118 
1680	 0.215341675638557 
1681	 0.213375362719557 
1682	 0.211992545717663 
1683	 0.211259744571246 
1684	 0.21203282493827 
1685	 0.213166225816212 
1686	 0.213954136213628 
1687	 0.216173646351348 
1688	 0.218029280817512 
1689	 0.219601201005825 
1690	 0.222202945815213 
1691	 0.224554303652443 
1692	 0.226203876803085 
1693	 0.229033566103925 
1694	 0.231824480551701 
1695	 0.234155532564751 
1696	 0.236633027487915 
1697	 0.239282837189048 
1698	 0.241251626143691 
1699	 0.243092624377586 
1700	 0.244161994128931 
1701	 0.245088353198121 
1702	 0.245353591718735 
1703	 0.2450217841542 
1704	 0.244468006252099 
1705	 0.242605988222611 
1706	 0.240428820327731 
1707	 0.238283142076771 
1708	 0.236071234190199 
1709	 0.233616559069918 
1710	 0.231098766039618 
1711	 0.227386620466775 
1712	 0.223871637409333 
1713	 0.221777994783832 
1714	 0.219539542319144 
1715	 0.217709719013945 
1716	 0.21562785069839 
1717	 0.212931010427752 
1718	 0.210996872731439 
1719	 0.20999799531135 
1720	 0.20879295157933 
1721	 0.207795953814881 
1722	 0.206487177061997 
1723	 0.20488342957121 
1724	 0.204018652239463 
1725	 0.202855566995147 
1726	 0.201618064350565 
1727	 0.201627738409133 
1728	 0.200827432413903 
1729	 0.200174641454951 
1730	 0.200619018811118 
1731	 0.200620766856025 
1732	 0.201388713520125 
1733	 0.204146245665156 
1734	 0.206203693255469 
1735	 0.207394869222165 
1736	 0.210291100594818 
1737	 0.212533272406584 
1738	 0.215150046176136 
1739	 0.219623132380066 
1740	 0.222950732376233 
1741	 0.224468583909931 
1742	 0.226849945166979 
1743	 0.228943131961449 
1744	 0.230437105454365 
1745	 0.232977752306705 
1746	 0.234104351919303 
1747	 0.235584468198779 
1748	 0.237405411559895 
1749	 0.238265450403408 
1750	 0.239435155902793 
1751	 0.240014052100873 
1752	 0.239221033593231 
1753	 0.239109598005012 
1754	 0.239090226690721 
1755	 0.23841224648511 
1756	 0.237902286229949 
1757	 0.236388992229165 
1758	 0.235240378592859 
1759	 0.23477385131507 
1760	 0.23310483389241 
1761	 0.231060310904873 
1762	 0.230190864131917 
1763	 0.230070712911411 
1764	 0.230580514195246 
1765	 0.231554076529208 
1766	 0.232554548984582 
1767	 0.232489876612292 
1768	 0.231874247792191 
1769	 0.232826793662608 
1770	 0.23376904170137 
1771	 0.234036565269441 
1772	 0.233853541407184 
1773	 0.234294694835095 
1774	 0.23384758401445 
1775	 0.232897307336643 
1776	 0.232095907249456 
1777	 0.230029073515839 
1778	 0.228362118308659 
1779	 0.228023975550744 
1780	 0.225759175144553 
1781	 0.221756615286364 
1782	 0.218614436854415 
1783	 0.213773943473183 
1784	 0.21126395942907 
1785	 0.210679139936897 
1786	 0.209640600986332 
1787	 0.209631523773597 
1788	 0.20949184897725 
1789	 0.209591999373162 
1790	 0.21016772796177 
1791	 0.210561189774784 
1792	 0.208888322661124 
1793	 0.209389541381313 
1794	 0.215024639601702 
1795	 0.220813946780183 
1796	 0.22714479153553 
1797	 0.234814136605612 
1798	 0.238565848062023 
1799	 0.237954883005875 
1800	 0.238031351527865 
1801	 0.24199206074718 
1802	 0.246319926891561 
1803	 0.255874669537151 
1804	 0.286784254009578 
1805	 0.299974949139352 
1806	 0.290290949585633 
1807	 0.288052891061164 
1808	 0.260135985155902 
1809	 0.247693504474447 
1810	 0.256793323693947 
1811	 0.262140148869877 
1812	 0.281825210482543 
1813	 0.286991553666957 
1814	 0.296187173225972 
1815	 0.314310448695815 
1816	 0.317328290338476 
1817	 0.282744719907917 
1818	 0.174994822427268 
1819	-3.03677417832645E-03 
1820	-0.122751550697518 
1821	 0.135371016284615 
1822	 0.359948339107534 
1823	 0.756500366392792 
1824	 0.933030024559407 
1825	 0.614903817579912 
1826	 0.505061158244335 
1827	 0.167135837736612 
1828	 5.27574146889488E-02 
1829	 2.87995459447594 
1830	 2.89267429509548 
1831	 1.48023908001247 
1832	 2.07928369092306 
1833	 3.51607583357763 
1834	 2.93812581414596 
1835	 3.51030438572872E-02 
1836	-7.02493555147746E-02 
1837	 9.30372100779017E-02 
1838	-2.72608757674118E-02 
1839	-3.93335847322338E-02 
1840	-0.214388196555244 
1841	 0.130725393775029 
1842	 14.5666749388868 
1843	 225.988819979638 
1844	 1.81430269363955 
1845	 0.871832508530128 
1846	 2.10115698184223 
1847	 1.70170825526437 
1848	-1.41204811237792 
1849	-1.03406396763372 
1850	-0.362079309957262 
1851	 0.661509239214991 
1852	 1.33816883410583 
1853	 1.83737176451066 
1854	-0.894178032922282 
1855	-1.05821830846856 
1856	-1.06685492719442 
1857	-1.11683401392548 
1858	-1.11656442240274 
1859	-0.959561861247442 
1860	-0.789427065528304 
1861	-0.678565617105278 
1862	-1.12594352903379 
1863	-0.213560080686887 
1864	 0.311114841558711 
1865	 0.572047277859402 
1866	 1.09942762398753 
1867	 1.21607803825548 
1868	-12.3303967301234 
1869	-0.842773335138811 
1870	 0.096213510379457 
1871	 8.23022678579589E-02 
1872	-0.242706032413218 
1873	 0.25995996547349 
1874	 1.21895606346908 
1875	 0.520342736616667 
1876	 0.739295643774293 
1877	 1.70829295405473 
1878	 3.31735544777239 
1879	-282.09022470169 
1880	-13.3667060315786 
1881	-2.58976384797051 
1882	-1.75517402372563 
1883	 3.74384334967574E-02 
1884	-36.306714265491 
1885	 1.40165752923745 
1886	 0.238459752556882 
1887	 0.327713778690622 
1888	-8.35960030653414E-02 
1889	 3.27852210435109E-02 
1890	-5.77042677936029 
1891	-4.08404168329183 
1892	 2.45011261155067 
1893	 0.61383281058156 
1894	-0.125074641651104 
1895	-3.11302430266139 
1896	 2.62538447996741 
1897	-0.428491657511807 
1898	-1.31044889247468 
1899	 1.35077817117422 
1900	 1.53692863668935 
1901	 0.73532345327618 
1902	 1.24750865504995 
1903	-54.4849833836846 
1904	-1.13553716440167 
1905	-0.998911319549439 
1906	-1.02715715494218 
1907	-0.554577804216733 
1908	-0.678702602821283 
1909	-0.996141079187109 
1910	-0.478606797129366 
1911	-0.773220170300049 
1912	-8.76449668315127 
1913	 6.24503126279256 
1914	 1.27486548173553 
1915	 1.12175786354871 
1916	 4.46419972144685 
1917	 180.539827205712 
1918	 0.352810659837128 
1919	 1.71603309906656 
1920	-2.07615486591748 
1921	 0.1567925320577 
1922	 0.105304695356185 
1923	 0.594243918288913 
1924	 0.341338605387762 
1925	 8.67712422004034 
1926	 2.42377105822137 
1927	 1.51984556440228 
1928	 3.16521763698876 
1929	 0.695730397321685 
1930	-0.164316700232406 
1931	-0.459242096893147 
1932	-3.08043660645909E-02 
1933	-0.142899747497727 
1934	-0.443928987885838 
1935	-0.355480272609748 
1936	-0.199593695247233 
1937	-8.82779534639187E-02 
1938	-2.91634376411378E-02 
1939	 2.11793456137444E-02 
1940	 4.69231356742889E-02 
1941	 7.57103903421678E-02 
1942	 8.17500755427467E-02 
1943	 0.104437520532552 
1944	 0.10562726912525 
1945	 0.064305518140652 
1946	 4.38726716262401E-02 
1947	 2.94103545970546E-02 
1948	 2.40466449801506E-02 
1949	 4.59497550353632E-02 
1950	 4.67370403316159E-02 
1951	 3.73793235969745E-02 
1952	 0.035280192814263 
1953	 0.02946713197344 
1954	 1.81463864996585E-02 
1955	 1.72701421810759E-02 
1956	 2.05352399928949E-02 
1957	 1.72550477210283E-02 
1958	 0.008872378707642 
1959	 1.12169602116441E-02 
1960	 1.90837441524762E-02 
1961	 2.44637213675319E-02 
1962	 3.28833390034893E-02 
1963	 3.55014675667553E-02 
1964	 3.20410938215651E-02 
1965	 3.40870482425995E-02 
1966	 3.53066465909283E-02 
1967	 3.58063006513302E-02 
1968	 3.48491245662843E-02 
1969	 3.56570849011597E-02 
1970	 3.50313868128798E-02 
1971	 3.33866058899356E-02 
1972	 0.033353849334221 
1973	 3.47886769314876E-02 
1974	 3.58726537454638E-02 
1975	 3.59863212941308E-02 
1976	 3.57449804466009E-02 
1977	 3.61486135666695E-02 
1978	 3.70862893637431E-02 
1979	 3.74171658307629E-02 
1980	 3.79588967149179E-02 
1981	 3.80698193430356E-02 
1982	 3.81825503076222E-02 
1983	 3.84901061560728E-02 
1984	 3.79455661789532E-02 
1985	 0.037803660541862 
1986	 3.71653399189909E-02 
1987	 3.58412723267882E-02 
1988	 3.66940459738951E-02 
1989	 0.038197666722098 
1990	 0.038755994464271 
1991	 3.88868770271963E-02 
1992	 3.88153647020001E-02 
1993	 3.82386430961476E-02 
1994	 3.75764904498937E-02 
1995	 3.69367294924123E-02 
1996	 3.71643723385557E-02 
1997	 3.69299501270784E-02 
1998	 3.59824248833281E-02 
1999	 3.65485535681166E-02 
2000	 3.81033445368756E-02 
2001	 3.67790691663365E-02 
2002	 0.034318485126215 
2003	 3.61895001396529E-02 
2004	 3.62816905404666E-02 
2005	 3.34200329239167E-02 
2006	 3.46445107877552E-02 
2007	 3.40277726984172E-02 
2008	 0.030263368146869 
2009	 2.97908717819185E-02 
2010	 3.40795808301115E-02 
2011	 3.55090414678764E-02 
2012	 3.66880972245315E-02 
2013	 3.57422323479334E-02 
2014	 3.64977201028803E-02 
2015	 3.75001832376789E-02 
2016	 3.76639154951458E-02 
2017	 4.09310107522345E-02 
2018	 4.16852341905012E-02 
2019	 4.01892169820701E-02 
2020	 4.22585753719152E-02 
2021	 4.33338790510228E-02 
2022	 4.27746439657129E-02 
2023	 4.31454513952805E-02 
2024	 4.34882860603307E-02 
2025	 4.26447468625899E-02 
2026	 4.24650932944138E-02 
2027	 4.27945501431053E-02 
2028	 4.39200318251153E-02 
2029	 4.46628548695885E-02 
2030	 4.44018330175525E-02 
2031	 4.47567496293386E-02 
2032	 4.50980922400053E-02 
2033	 4.41825357501502E-02 
2034	 4.36706930259417E-02 
2035	 4.41016560126539E-02 
2036	 4.40243265335714E-02 
2037	 4.43164101477129E-02 
2038	 4.46688371068475E-02 
2039	 0.04463716382147 
2040	 4.42623515503359E-02 
2041	 0.044080259520612 
2042	 0.043534116889794 
2043	 4.35909563166217E-02 
2044	 4.38898599122597E-02 
2045	 4.45286870552602E-02 
2046	 4.56851081343845E-02 
2047	 4.55561015162508E-02 
2048	 4.51957585387135E-02 
2049	 4.48859207777695E-02 
2050	 4.37685560738198E-02 
2051	 0.043601435267797 
2052	 0.045081717263633 
2053	 4.50986620873302E-02 
2054	 4.44416183354923E-02 
2055	 0.045001963159709 
2056	 4.56266438359264E-02 
2057	 4.59371679616205E-02 
2058	 4.67374729796965E-02 
2059	 4.92867194747482E-02 
2060	 4.97222402036785E-02 
2061	 4.90816532729886E-02 
2062	 4.78723405148361E-02 
2063	 4.69142572819945E-02 
2064	 4.54696531734045E-02 
2065	 4.49461698718677E-02 
2066	 4.62415655240933E-02 
2067	 4.60258491264577E-02 
2068	 4.52056811907631E-02 
2069	 4.56255852687468E-02 
2070	 4.51862171904822E-02 
2071	 4.51865013488416E-02 
2072	 0.04631904420056 
2073	 4.73106906192949E-02 
2074	 4.83176052285685E-02 
2075	 0.048982573644724 
2076	 5.01793938931449E-02 
2077	 5.06507476815594E-02 
2078	 0.050300193919952 
2079	 5.04868409705056E-02 
2080	 5.11424847598458E-02 
2081	 5.04120786075642E-02 
2082	 5.03252137209972E-02 
2083	 5.03655575821514E-02 
2084	 4.94423456340145E-02 
2085	 5.01085955461782E-02 
2086	 5.08677985545752E-02 
2087	 4.98282596995537E-02 
2088	 4.94254970006708E-02 
2089	 4.97988594956962E-02 
2090	 5.02969727639922E-02 
2091	 5.10031150689865E-02 
2092	 5.16427568331845E-02 
2093	 5.25865575712776E-02 
2094	 5.28761626888932E-02 
2095	 5.30180099742603E-02 
2096	 5.32372800618721E-02 
2097	 5.27783493665058E-02 
2098	 5.28755506244994E-02 
2099	 5.33824998853556E-02 
2100	 5.35191359113381E-02 
2101	 5.35447417324209E-02 
2102	 5.40516459463985E-02 
2103	 5.50415901198276E-02 
2104	 5.53616775740369E-02 
2105	 5.56690044052731E-02 
2106	 5.65573873500598E-02 
2107	 0.056448792021006 
2108	 5.58282207880139E-02 
2109	 5.50283434998626E-02 
2110	 5.51666948791056E-02 
2111	 5.67542964657783E-02 
2112	 5.78686137718112E-02 
2113	 5.81769433110447E-02 
2114	 5.84047346644638E-02 
2115	 5.83556755284252E-02 
2116	 5.68371557122135E-02 
2117	 5.67616015102407E-02 
2118	 5.83064558437841E-02 
2119	 5.85880365313031E-02 
2120	 5.84164806243623E-02 
2121	 5.76408816086293E-02 
2122	 5.88729590530613E-02 
2123	 5.99989599961027E-02 
2124	 6.06466875920989E-02 
2125	 6.19460391060675E-02 
2126	 6.08015551934699E-02 
2127	 0.059137363854504 
2128	 5.93401882802895E-02 
2129	 6.01584892367582E-02 
2130	 6.10530142107977E-02 
2131	 6.09671321395491E-02 
2132	 6.03220331731448E-02 
2133	 6.00238208787895E-02 
2134	 6.00478448429269E-02 
2135	 6.02395762745478E-02 
2136	 6.08178641182332E-02 
2137	 6.22753524735756E-02 
2138	 6.24879933875203E-02 
2139	 6.23710235006399E-02 
2140	 6.23881060607848E-02 
2141	 6.14982051827738E-02 
2142	 0.061224189531961 
2143	 6.10924058527406E-02 
2144	 6.17085372483915E-02 
2145	 6.21765890303893E-02 
2146	 6.28742350339627E-02 
2147	 6.42046363180044E-02 
2148	 6.41194837734758E-02 
2149	 6.29990061083442E-02 
2150	 6.25228309877541E-02 
2151	 6.11668545660103E-02 
2152	 6.04165302607345E-02 
2153	 6.17399512763367E-02 
2154	 6.22735606324172E-02 
2155	 6.23448868004721E-02 
2156	 6.24668912219654E-02 
2157	 6.25031594454624E-02 
2158	 6.15602416455063E-02 
2159	 6.16194427627442E-02 
2160	 6.24203619146383E-02 
2161	 6.30949452109184E-02 
2162	 6.43766293673186E-02 
2163	 6.40554505286119E-02 
2164	 6.28224259310199E-02 
2165	 6.23774964787587E-02 
2166	 6.14486425805169E-02 
2167	 6.10297243430055E-02 
2168	 6.06771064985184E-02 
2169	 6.11367976207457E-02 
2170	 6.26417889419907E-02 
2171	 6.23687499934308E-02 
2172	 6.23755280951794E-02 
2173	 6.37217557778333E-02 
2174	 6.42351242470914E-02 
2175	 0.063905830840094 
2176	 6.30263253383424E-02 
2177	 6.23910012966162E-02 
2178	 6.22732614168708E-02 
2179	 0.062311876381037 
2180	 6.20592212753827E-02 
2181	 6.25749305521741E-02 
2182	 6.26723982659685E-02 
2183	 6.11511908051177E-02 
2184	 6.11433411604447E-02 
2185	 6.19321108284048E-02 
2186	 6.17507066505694E-02 
2187	 6.06670413343499E-02 
2188	 6.10875633360161E-02 
2189	 6.18717314811813E-02 
2190	 6.17686485027453E-02 
2191	 6.19998727346976E-02 
2192	 6.14493436275211E-02 
2193	 5.92948230498329E-02 
2194	 5.95726122705484E-02 
2195	 6.20236103369845E-02 
2196	 6.26125781076793E-02 
2197	 6.27070910795834E-02 
2198	 6.29446959549779E-02 
2199	 0.062143904325784 
2200	 6.21945509490535E-02 
2201	 6.17147990485913E-02 
2202	 6.20479619947482E-02 
2203	 6.18118774707951E-02 
2204	 5.95979192649537E-02 
2205	 6.06833531667472E-02 
2206	 6.45858490489333E-02 
2207	 6.54653324755836E-02 
2208	 6.61587773578284E-02 
2209	 6.75276474951945E-02 
2210	 6.49661841878336E-02 
2211	 6.34737409045324E-02 
2212	 6.44012279373951E-02 
2213	 6.26943896653137E-02 
2214	 5.99044578816254E-02 
2215	 5.81487678753003E-02 
2216	 5.80525141545014E-02 
2217	 5.79584713777788E-02 
2218	 5.86693465666729E-02 
2219	 6.00195493868316E-02 
2220	 6.24880680069518E-02 
2221	 6.26520931313375E-02 
2222	 0.062301408231966 
2223	 6.25086417328139E-02 
2224	 6.06985378368204E-02 
2225	 6.13966543699807E-02 
2226	 6.58751903895007E-02 
2227	 6.63365151700515E-02 
2228	 6.51933765887985E-02 
2229	 6.48888918289895E-02 
2230	 6.23955450622923E-02 
2231	 6.08836369930522E-02 
2232	 6.04141382159544E-02 
2233	 0.060372177280551 
2234	 6.05356801769284E-02 
2235	 6.00675414276846E-02 
2236	 6.14695817033394E-02 
2237	 6.24759400248083E-02 
2238	 6.05310706299371E-02 
2239	 6.03046786586001E-02 
2240	 6.22368406518739E-02 
2241	 6.30706908340251E-02 
2242	 6.46625973815709E-02 
2243	 6.59768860959135E-02 
2244	 6.48817571047932E-02 
2245	 6.44615747402221E-02 
2246	 6.53315602023687E-02 
2247	 6.63718506407022E-02 
2248	 6.62348942207758E-02 
2249	 6.45230462845947E-02 
2250	 6.27561905019483E-02 
2251	 6.17478915610315E-02 
2252	 6.36304403204246E-02 
2253	 6.77113891131902E-02 
2254	 7.24737804733981E-02 
2255	 7.55880140960983E-02 
2256	 7.68153667879061E-02 
2257	 0.079623567131866 
2258	 8.20151608344294E-02 
2259	 8.12708302761885E-02 
2260	 8.30859187391509E-02 
2261	 8.63887547787852E-02 
2262	 8.94112112437928E-02 
2263	 9.29716332599313E-02 
2264	 9.73787632909102E-02 
2265	 0.101650254717058 
2266	 0.106595458184971 
2267	 0.114024789619106 
2268	 0.119405155962046 
2269	 0.123911828435551 
2270	 0.128970494526994 
2271	 0.132065574274402 
2272	 0.136479254705794 
2273	 0.144570859743495 
2274	 0.147803664894624 
2275	 0.148390317933948 
2276	 0.150038948230219 
2277	 0.148550318695934 
2278	 0.148798271746631 
2279	 0.150497133900783 
2280	 0.15166667333952 
2281	 0.152301812207159 
2282	 0.155113911827734 
2283	 0.155479676232758 
2284	 0.154170859317205 
2285	 0.15123638906844 
2286	 0.144290629668073 
2287	 0.141186470753433 
2288	 0.141822457215563 
2289	 0.144356377062991 
2290	 0.146824175238088 
2291	 0.144746457320889 
2292	 0.141516813558523 
2293	 0.139142922431186 
2294	 0.138871848297093 
2295	 0.136956796353639 
2296	 0.132870167426381 
2297	 0.129234708426913 
2298	 0.119848485716545 
2299	 0.113129310845864 
2300	 0.112002019483106 
2301	 0.110334467297391 
2302	 0.110712587583278 
2303	 0.111503856372863 
2304	 0.11330065966993 
2305	 0.114742215011592 
2306	 0.112531168949394 
2307	 0.114699945363959 
2308	 0.117461336494159 
2309	 0.111223736910859 
2310	 0.106496425236333 
2311	 0.108099383535274 
2312	 0.109686308951195 
2313	 0.113483026047705 
2314	 0.119513677303269 
2315	 0.119878869451729 
2316	 0.119441683832205 
2317	 0.120354216424241 
2318	 0.119296153566262 
2319	 0.119671532832492 
2320	 0.11867143897676 
2321	 0.121377837383536 
2322	 0.126136282102079 
2323	 0.125719026454661 
2324	 0.126896560794688 
2325	 0.125978177355206 
2326	 0.125297992375329 
2327	 0.131550093510004 
2328	 0.137190274634363 
2329	 0.140870760054889 
2330	 0.147437925825979 
2331	 0.150092764909507 
2332	 0.151876272564062 
2333	 0.152682753626884 
2334	 0.148135358659293 
2335	 0.150224706354638 
2336	 0.147736347641669 
2337	 0.14268772075874 
2338	 0.144114990560306 
2339	 0.137340561176131 
2340	 0.134447766934103 
2341	 0.142249938703096 
2342	 0.148245333547041 
2343	 0.152169285328098 
2344	 0.1593150011994 
2345	 0.1756140309313 
2346	 0.183443859578948 
2347	 0.184295276587818 
2348	 0.193066293974726 
2349	 0.186826366560436 
2350	 0.184890755308384 
2351	 0.20651800337273 
2352	 0.213241595064281 
2353	 0.206488678184485 
2354	 0.208517713225757 
2355	 0.206717951315772 
2356	 0.196932250492795 
2357	 0.193853720905522 
2358	 0.203014138578713 
2359	 0.198543168467955 
2360	 0.196405303564572 
2361	 0.20858897158461 
2362	 0.1959035370844 
2363	 0.188934869648997 
2364	 0.199627163437559 
2365	 0.199587472469058 
2366	 0.199487636721726 
2367	 0.199277250681195 
2368	 0.1860354109333 
2369	 0.164164647205873 
2370	 0.155339603753706 
2371	 0.156182380569009 
2372	 0.154254757333202 
2373	 0.165551821389009 
2374	 0.177695472181107 
2375	 0.17647775271863 
2376	 0.179129027808561 
2377	 0.18228059962032 
2378	 0.175822264659038 
2379	 0.1754249123264 
2380	 0.199772161192386 
2381	 0.232700595373313 
2382	 0.25358719700988 
2383	 0.265475857378963 
2384	 0.260199778188484 
2385	 0.242512140619194 
2386	 0.238615471511593 
2387	 0.251028893197001 
2388	 0.235983746607167 
2389	 0.210103868039247 
2390	 0.219599083453537 
2391	 0.23936616288383 
2392	 0.262376109781933 
2393	 0.269138425978436 
2394	 0.262854251065402 
2395	 0.264673759097846 
2396	 0.247312407261727 
2397	 0.216135009794281 
2398	 0.196850047457731 
2399	 0.16627135114029 
2400	 0.128129462305844 
2401	 0.125373330088808 
2402	 0.115173478333552 
2403	 8.69578910737637E-02 
2404	 8.54047252744064E-02 
2405	 0.100000124746333 
2406	 0.12078677988698 
2407	 0.154262254586558 
2408	 0.188834725368245 
2409	 0.177757658793412 
2410	 0.161599959571269 
2411	 0.157711341812655 
2412	 0.123757624273307 
2413	 0.121402940903092 
2414	 0.124510260200242 
2415	 0.16568998399471 
2416	 0.226086932258276 
2417	 0.241699227599514 
2418	 0.293133589876935 
2419	 0.221026586772278 
2420	 0.073977169476111 
2421	 0.105831248859984 
2422	 0.147244659494921 
2423	 0.116840449751038 
2424	 0.166343631894294 
2425	 0.189202936953425 
2426	 0.157701450289085 
2427	 0.160347523354561 
2428	 0.146524516923238 
2429	 8.75749428379229E-02 
2430	 9.82145975371939E-02 
2431	 0.204894241060097 
2432	 0.225808510163962 
2433	 0.236228239692793 
2434	 0.256215553900635 
2435	 0.178473936823465 
2436	 0.225263342286226 
2437	 0.341659087489718 
2438	 0.272992803223883 
2439	 0.212768013588619 
2440	 0.208129321069397 
2441	 0.183555526790531 
2442	 0.207810222216281 
2443	 0.182464434455326 
2444	 0.119718893426822 
2445	 9.57932288085015E-02 
2446	 6.80133969504986E-02 
2447	-0.115176573431423 
2448	-0.111205628713902 
2449	 6.49445673024173E-02 
2450	 2.48675215376008E-02 
2451	 0.153287890950833 
2452	 0.10309596321011 
2453	 2.62235693411933E-04 
2454	 0.347081900148467 
2455	 0.549912536729027 
2456	 0.458876466623977 
2457	 0.288041542206326 
2458	 0.17220074692122 
2459	 0.136755633005352 
2460	 0.176054876086466 
2461	 0.240361106542881 
2462	 0.322504656978205 
2463	 0.185962333154329 
2464	-0.10375489126796 
2465	-0.09895030612046 
2466	-9.21455748232922E-02 
2467	-9.94025272684254E-02 
2468	 9.04912989404096E-02 
2469	 0.128351976842708 
2470	 2.20281633323791E-02 
2471	-0.169012228235377 
2472	-0.76428826161398 
2473	-1.60670894191416 
2474	-2.41131565373503 
2475	-1.79101769644953 
2476	-0.850156267074819 
2477	-0.559615856856508 
2478	-0.493594674828902 
2479	-0.509620269112044 
2480	-0.255988645149734 
2481	 2.20397157981724E-02 
2482	 4.89365928388416E-02 
2483	 11.3569498834895 
2484	-3.5213119548167 
2485	-15.544127529335 
2486	-2.23944034402697 
2487	-1.71933537225291 
2488	-0.488061845201425 
2489	-0.758698290651906 
2490	-0.824001783516335 
2491	 1.85754296452222E-03 
2492	 0.408840332117805 
2493	 0.117802025445337 
2494	-0.296094651799281 
2495	-0.878147548252535 
2496	-4.00804787034807 
2497	 3.97465892497377 
2498	-1.72839426413509 
2499	-1.01771665632234 
2500	 10.9913162748561 
