Wavelength	rt0711c00007.asd
350	 0.045829959962383 
351	 4.63997515082321E-02 
352	 4.70296115206047E-02 
353	 4.71392980800087E-02 
354	 4.67879220447078E-02 
355	 4.70835473226907E-02 
356	 4.72732565139494E-02 
357	 4.73007708086577E-02 
358	 4.73222384825593E-02 
359	 0.04744071260423 
360	 4.74846165257659E-02 
361	 4.75383548904035E-02 
362	 4.78027443614477E-02 
363	 0.047781277832324 
364	 4.75665340177941E-02 
365	 4.73302993495042E-02 
366	 4.72181270900148E-02 
367	 4.78554666212602E-02 
368	 4.84490704050987E-02 
369	 4.82551321069008E-02 
370	 4.80239619495468E-02 
371	 4.81967369198644E-02 
372	 4.85831585267085E-02 
373	 4.86673696647558E-02 
374	 4.87604072830937E-02 
375	 4.89260436313098E-02 
376	 0.049140522130563 
377	 4.92968460421408E-02 
378	 4.92811022795374E-02 
379	 4.92499041053266E-02 
380	 4.93318806588242E-02 
381	 4.93158250142659E-02 
382	 4.96616164041152E-02 
383	 5.01060480989369E-02 
384	 5.01625016981716E-02 
385	 5.04803487043425E-02 
386	 5.05968654509623E-02 
387	 5.03994847758117E-02 
388	 5.02614120587069E-02 
389	 5.05946352883636E-02 
390	 5.10041996380958E-02 
391	 5.12089326193443E-02 
392	 5.16245494159855E-02 
393	 5.20261910690752E-02 
394	 5.21749715353012E-02 
395	 0.051975211181516 
396	 5.19776740280761E-02 
397	 5.19239637589873E-02 
398	 5.18892360614088E-02 
399	 5.22249379798676E-02 
400	 5.21527077528671E-02 
401	 5.19748540132989E-02 
402	 5.20437512065388E-02 
403	 5.25135957386295E-02 
404	 5.25684880004978E-02 
405	 5.24338619734016E-02 
406	 5.26302054121352E-02 
407	 0.052900983345085 
408	 5.29113561356112E-02 
409	 0.05277164201963 
410	 5.29879088306145E-02 
411	 5.30584632975369E-02 
412	 5.30668198145873E-02 
413	 5.31486155281273E-02 
414	 5.33157197796363E-02 
415	 5.34245348570317E-02 
416	 5.34745124389755E-02 
417	 5.35432750237885E-02 
418	 5.37753325939744E-02 
419	 5.39348479495275E-02 
420	 5.39834078953336E-02 
421	 5.41147956593702E-02 
422	 5.41529670590251E-02 
423	 5.42425146453064E-02 
424	 5.44772924434304E-02 
425	 5.46146912436865E-02 
426	 5.49662745277349E-02 
427	 5.53342662225838E-02 
428	 5.53758192487283E-02 
429	 5.56224946496121E-02 
430	 0.055816785796128 
431	 5.59023016444581E-02 
432	 5.61371110794745E-02 
433	 5.62727985399382E-02 
434	 5.64106637835142E-02 
435	 5.66656994808486E-02 
436	 5.69702706964414E-02 
437	 5.72840036183956E-02 
438	 5.75663770299073E-02 
439	 5.77877999302037E-02 
440	 5.80114059679043E-02 
441	 5.81792058398593E-02 
442	 5.83083417365879E-02 
443	 5.85437718986164E-02 
444	 5.87766785001462E-02 
445	 5.90043071204299E-02 
446	 5.92229480244793E-02 
447	 5.93049923781072E-02 
448	 5.94418216728058E-02 
449	 5.96187853924955E-02 
450	 5.96846043574135E-02 
451	 5.98472974783892E-02 
452	 6.00337975058245E-02 
453	 6.01814084539278E-02 
454	 6.03442367565784E-02 
455	 6.03487505794452E-02 
456	 6.02985381451506E-02 
457	 6.03687878568478E-02 
458	 6.05217774376024E-02 
459	 0.060569863561687 
460	 6.05701351201497E-02 
461	 6.08058998579817E-02 
462	 6.07840230775281E-02 
463	 6.06376563096308E-02 
464	 6.06173439900017E-02 
465	 6.09718972933385E-02 
466	 6.11023628228609E-02 
467	 6.10196370188117E-02 
468	 6.10403069675623E-02 
469	 6.12009312586967E-02 
470	 6.13098390296595E-02 
471	 6.13279093914536E-02 
472	 6.14472191768976E-02 
473	 6.16295122186126E-02 
474	 6.17606641128869E-02 
475	 6.17772663945456E-02 
476	 6.18572199561731E-02 
477	 0.062044326126434 
478	 6.22457980084109E-02 
479	 6.23044614091616E-02 
480	 0.062452479826652 
481	 6.26699807889491E-02 
482	 6.28893354070205E-02 
483	 0.063000301588586 
484	 6.33220032265036E-02 
485	 6.36759692968912E-02 
486	 6.37840150723406E-02 
487	 6.39072142790475E-02 
488	 6.41544829498319E-02 
489	 0.064463907406083 
490	 0.064634467302189 
491	 6.48720926631483E-02 
492	 0.065229266494705 
493	 6.56365098511275E-02 
494	 6.57628121769625E-02 
495	 6.60586152535839E-02 
496	 6.64724630874514E-02 
497	 6.67308491847868E-02 
498	 6.70295099427022E-02 
499	 6.74346544205045E-02 
500	 6.79065576331804E-02 
501	 6.82664068805219E-02 
502	 6.86708291197076E-02 
503	 6.90792375164901E-02 
504	 6.94124808360935E-02 
505	 6.96322993888364E-02 
506	 7.00587320887449E-02 
507	 7.05911252888032E-02 
508	 0.070829156702586 
509	 7.12513430034507E-02 
510	 7.17123586657815E-02 
511	 7.20780428949008E-02 
512	 7.24772069967327E-02 
513	 7.28896259220458E-02 
514	 7.33960540995789E-02 
515	 7.40521037563181E-02 
516	 0.074487752919465 
517	 7.49100900447241E-02 
518	 7.54271813636123E-02 
519	 7.59580223189447E-02 
520	 7.65810827985818E-02 
521	 7.71608013765648E-02 
522	 7.76294792774233E-02 
523	 7.82984452488155E-02 
524	 7.89875529189903E-02 
525	 7.96541471812113E-02 
526	 8.03529572050379E-02 
527	 8.10159271055323E-02 
528	 8.16588615358925E-02 
529	 8.23062814935588E-02 
530	 8.29752249132648E-02 
531	 0.08369974269813 
532	 8.44651542640143E-02 
533	 8.52427314838151E-02 
534	 0.086078925231461 
535	 8.68563777579714E-02 
536	 0.087575437052215 
537	 8.83713196183493E-02 
538	 0.08931461619994 
539	 9.02511417916515E-02 
540	 9.10458816427359E-02 
541	 9.18176500293152E-02 
542	 0.092597506156832 
543	 0.093409979362194 
544	 9.42667390936673E-02 
545	 9.50894340456764E-02 
546	 9.58638400357988E-02 
547	 9.66000287266695E-02 
548	 9.73342590213828E-02 
549	 9.80732584248707E-02 
550	 9.88164122334867E-02 
551	 9.95591035373863E-02 
552	 0.100302660772947 
553	 0.10098701938537 
554	 0.101641924708789 
555	 0.10239380918927 
556	 0.103130266400749 
557	 0.103816965639437 
558	 0.104462757757399 
559	 0.105178159167883 
560	 0.105871861687318 
561	 0.106536349312865 
562	 0.10721567207829 
563	 0.107843100062006 
564	 0.10852638848176 
565	 0.109257899745212 
566	 0.109766976458862 
567	 0.110255236682505 
568	 0.110719209711987 
569	 0.11109769744093 
570	 0.111440438289582 
571	 0.111726420094917 
572	 0.111961697225968 
573	 0.112185373814022 
574	 0.112501456494895 
575	 0.112776756687619 
576	 0.11291793950554 
577	 0.113161594475705 
578	 0.113317285562849 
579	 0.113398584920602 
580	 0.113532570041598 
581	 0.113614952425092 
582	 0.113691858675818 
583	 0.113769427110125 
584	 0.113748180636467 
585	 0.11366060402174 
586	 0.113572836793106 
587	 0.113534255752876 
588	 0.113435543094689 
589	 0.113121758087775 
590	 0.112728312604389 
591	 0.112635802190235 
592	 0.11231219753897 
593	 0.111871136385728 
594	 0.1114646611292 
595	 0.110919083950327 
596	 0.110260334772871 
597	 0.109506305166589 
598	 0.108700904807028 
599	 0.108091194221276 
600	 0.107493313375476 
601	 0.106878394306776 
602	 0.106582058322227 
603	 0.106346676776124 
604	 0.106173876983457 
605	 0.106135338467746 
606	 0.106250067783677 
607	 0.106128359582583 
608	 0.105867472813918 
609	 0.106053354576509 
610	 0.106006512874868 
611	 0.105875386397477 
612	 0.105874497565261 
613	 0.10588772887282 
614	 0.105869175018599 
615	 0.105808863486443 
616	 0.105731615330154 
617	 0.105717059113674 
618	 0.105702039339961 
619	 0.105644882532609 
620	 0.105562353688471 
621	 0.105484170599127 
622	 0.105494893165374 
623	 0.105604191906659 
624	 0.105386257694932 
625	 0.105307855429264 
626	 0.105395214128627 
627	 0.105247410181407 
628	 0.105210171477064 
629	 0.105213941463781 
630	 0.10515407067502 
631	 0.105042844479386 
632	 0.104932950126187 
633	 0.104883227047831 
634	 0.10492310853343 
635	 0.104869860398931 
636	 0.104774901836909 
637	 0.104692848065707 
638	 0.104646379264742 
639	 0.10461425494223 
640	 0.10458481399421 
641	 0.104533476804835 
642	 0.104369028307452 
643	 0.104224058961743 
644	 0.104144021904208 
645	 0.104097473389578 
646	 0.104051925882921 
647	 0.103981437190518 
648	 0.103858406033144 
649	 0.103632742907027 
650	 0.103448644271126 
651	 0.103215453731436 
652	 0.102806952013209 
653	 0.102464996484653 
654	 0.102121105768369 
655	 0.101661594823035 
656	 0.10101566808814 
657	 0.100386967766156 
658	 9.97859051286839E-02 
659	 9.92077568586373E-02 
660	 9.88388008074655E-02 
661	 9.84917715894027E-02 
662	 0.098114764689493 
663	 9.77538892175285E-02 
664	 9.74565340077943E-02 
665	 9.71197635047695E-02 
666	 9.67552889204334E-02 
667	 9.66338120747683E-02 
668	 9.63790015853032E-02 
669	 0.096099739616332 
670	 9.60155467181911E-02 
671	 9.60490036480838E-02 
672	 0.095903774024563 
673	 9.56690911441933E-02 
674	 9.57729906154178E-02 
675	 9.58283061658217E-02 
676	 9.58764554772642E-02 
677	 9.59735443678494E-02 
678	 9.60014521204847E-02 
679	 9.60428680933593E-02 
680	 9.61630272766019E-02 
681	 9.63992751783743E-02 
682	 9.66684038348875E-02 
683	 9.68837969002975E-02 
684	 9.70923023062501E-02 
685	 9.75508231343427E-02 
686	 0.097966862789575 
687	 9.81680697886512E-02 
688	 9.81595432908908E-02 
689	 9.83088530476527E-02 
690	 0.098201618937017 
691	 9.79203547630946E-02 
692	 0.097805232537975 
693	 9.76328666087734E-02 
694	 9.73050657211447E-02 
695	 9.68275966128363E-02 
696	 9.62798066851953E-02 
697	 9.57875558407183E-02 
698	 9.52857809293705E-02 
699	 9.46783468849621E-02 
700	 9.39014879711682E-02 
701	 9.31640091698957E-02 
702	 9.24480753529981E-02 
703	 9.15466135819039E-02 
704	 9.07585769376291E-02 
705	 8.98462736747792E-02 
706	 8.86954732610919E-02 
707	 8.75583758019535E-02 
708	 8.65257658811191E-02 
709	 8.53670962240346E-02 
710	 8.38323357285647E-02 
711	 8.23624016942722E-02 
712	 8.08632638828831E-02 
713	 7.93164993644003E-02 
714	 0.077776375550201 
715	 7.62250175641467E-02 
716	 0.074586719460519 
717	 7.29101074425215E-02 
718	 7.12968465155783E-02 
719	 6.92091756995444E-02 
720	 6.71406218976093E-02 
721	 6.54365933689644E-02 
722	 6.40729013994045E-02 
723	 0.062551373912823 
724	 6.07899643313749E-02 
725	 5.89051420657185E-02 
726	 5.70149798701682E-02 
727	 5.50608165310603E-02 
728	 5.29875192647353E-02 
729	 5.07691898050369E-02 
730	 4.85250103849802E-02 
731	 4.64429357522472E-02 
732	 4.45987680866377E-02 
733	 4.29730151710353E-02 
734	 4.16572944265126E-02 
735	 4.06433663432964E-02 
736	 3.97510801650537E-02 
737	 3.91621633568073E-02 
738	 0.038679433862137 
739	 0.03818227370607 
740	 3.80443689003221E-02 
741	 3.78757355242196E-02 
742	 3.76411131294327E-02 
743	 3.74933326464756E-02 
744	 3.74193985876728E-02 
745	 3.74293310810387E-02 
746	 3.74486850029598E-02 
747	 3.72939981569297E-02 
748	 3.72001000180389E-02 
749	 3.71525849253839E-02 
750	 3.71115352591626E-02 
751	 3.71891399836308E-02 
752	 3.71779082279237E-02 
753	 3.70699252475174E-02 
754	 3.69866429688221E-02 
755	 3.70942165288772E-02 
756	 3.70428881169751E-02 
757	 0.036828913626641 
758	 0.037083424972815 
759	 3.78115256835647E-02 
760	 3.85913003926362E-02 
761	 3.84572787285322E-02 
762	 3.83176817030737E-02 
763	 3.83618587141006E-02 
764	 3.82747081693212E-02 
765	 0.037824705028499 
766	 3.77175823896447E-02 
767	 3.76507088115821E-02 
768	 3.76023832952954E-02 
769	 0.037823617418069 
770	 3.78814519704884E-02 
771	 3.79031484691375E-02 
772	 3.80438129825859E-02 
773	 3.82178643266995E-02 
774	 3.83628541324701E-02 
775	 3.85102486535611E-02 
776	 0.038725965466974 
777	 0.038984398869844 
778	 3.91902614821163E-02 
779	 3.93611866229054E-02 
780	 3.96267706543159E-02 
781	 0.039891899386933 
782	 4.01526910521633E-02 
783	 4.03996280091104E-02 
784	 4.05564040586157E-02 
785	 4.09180138462673E-02 
786	 4.13271550084448E-02 
787	 4.15356796014803E-02 
788	 4.17604205535905E-02 
789	 4.21198091027734E-02 
790	 4.25526557539493E-02 
791	 4.28799986785996E-02 
792	 4.32876754626187E-02 
793	 4.35899044821136E-02 
794	 4.37524632934792E-02 
795	 4.40506276593591E-02 
796	 4.45624918730272E-02 
797	 0.044967087817198 
798	 4.50379244591359E-02 
799	 4.51879345539812E-02 
800	 4.55851968570011E-02 
801	 4.59365627046881E-02 
802	 0.045831183472296 
803	 4.60597864732943E-02 
804	 4.61560321556084E-02 
805	 4.60631531738768E-02 
806	 4.62636944507523E-02 
807	 4.62576882031981E-02 
808	 4.61824504057221E-02 
809	 4.61619178182374E-02 
810	 4.59406543122154E-02 
811	 4.58750243638702E-02 
812	 4.58598193915205E-02 
813	 4.56502007903217E-02 
814	 4.54683234553432E-02 
815	 4.52277944510522E-02 
816	 4.48551713109619E-02 
817	 4.43160028514838E-02 
818	 4.36351289346022E-02 
819	 4.27520736656614E-02 
820	 4.19029859359825E-02 
821	 0.041775868194373 
822	 4.10330458089706E-02 
823	 3.97804281322648E-02 
824	 3.84994315576355E-02 
825	 3.72989712579259E-02 
826	 3.61803691366408E-02 
827	 3.50925847344504E-02 
828	 3.40056810999209E-02 
829	 3.28075769903696E-02 
830	 3.16537237158811E-02 
831	 3.07827729034995E-02 
832	 3.03919858098146E-02 
833	 2.96210625533798E-02 
834	 2.90658292928931E-02 
835	 0.028881544297431 
836	 2.84443391539891E-02 
837	 2.81119574532316E-02 
838	 2.79034607825501E-02 
839	 2.77452331722587E-02 
840	 0.027516338468229 
841	 2.72844356350795E-02 
842	 2.70637742506222E-02 
843	 2.68731078663591E-02 
844	 2.68532961899022E-02 
845	 2.66550645346525E-02 
846	 2.63235828770122E-02 
847	 2.61638800505844E-02 
848	 2.60553094969947E-02 
849	 2.59691723560845E-02 
850	 2.58328262270641E-02 
851	 2.55365729788609E-02 
852	 2.56360394875794E-02 
853	 2.57616559880898E-02 
854	 2.55996426861905E-02 
855	 2.53881588701314E-02 
856	 2.54419263975252E-02 
857	 2.53414806540963E-02 
858	 2.48280261066074E-02 
859	 2.49915146292473E-02 
860	 2.49838505660404E-02 
861	 2.47797194478206E-02 
862	 2.47156579439834E-02 
863	 2.44565922806538E-02 
864	 2.43972105602543E-02 
865	 2.44749043563461E-02 
866	 2.42280338115029E-02 
867	 0.024038077924082 
868	 2.40344829419141E-02 
869	 2.40538592705996E-02 
870	 2.36433281760874E-02 
871	 2.35434352371467E-02 
872	 0.02354083317239 
873	 2.33679165187691E-02 
874	 2.31038703534865E-02 
875	 0.023072560482158 
876	 2.32114634012982E-02 
877	 2.33061359132395E-02 
878	 2.31462456943945E-02 
879	 2.28643927119734E-02 
880	 2.25620665449426E-02 
881	 2.23491408350935E-02 
882	 2.24918650808288E-02 
883	 2.24037744332318E-02 
884	 2.22120346632526E-02 
885	 0.022454337078392 
886	 2.20190071157728E-02 
887	 2.17137929345465E-02 
888	 2.17902165083237E-02 
889	 2.16625477651162E-02 
890	 2.16975523306791E-02 
891	 2.16274534348187E-02 
892	 2.13684670170444E-02 
893	 2.13695020635896E-02 
894	 2.13375198856202E-02 
895	 0.021678134479695 
896	 0.022449988570863 
897	 2.21310244006003E-02 
898	 2.16583612963999E-02 
899	 2.16450728237955E-02 
900	 2.20823534803915E-02 
901	 2.15748405689584E-02 
902	 2.08399695608711E-02 
903	 2.05408941284191E-02 
904	 2.09364059819051E-02 
905	 2.06108349666905E-02 
906	 2.04670964533131E-02 
907	 2.08480552261312E-02 
908	 2.14701005304437E-02 
909	 0.021295438198468 
910	 2.10204771169769E-02 
911	 0.021034327159912 
912	 2.11792677056002E-02 
913	 2.06207334228794E-02 
914	 2.08476728897595E-02 
915	 2.15010056188065E-02 
916	 2.02626344315545E-02 
917	 2.05485949973905E-02 
918	 2.08457376803219E-02 
919	 2.03687053975455E-02 
920	 2.02452858998639E-02 
921	 2.00532269387255E-02 
922	 1.98877920860384E-02 
923	 1.97131512572048E-02 
924	 1.90414851402701E-02 
925	 1.86903105576562E-02 
926	 1.88207848961293E-02 
927	 1.93573637095678E-02 
928	 2.02212780702551E-02 
929	 1.99882628287447E-02 
930	 1.93076608708404E-02 
931	 2.01171345047428E-02 
932	 2.26899529908652E-02 
933	 2.37874042749811E-02 
934	 2.13234714931834E-02 
935	 1.68003975945287E-02 
936	 1.58185712303323E-02 
937	 1.97781920319099E-02 
938	 2.29006380897009E-02 
939	 2.06755074121597E-02 
940	 2.01908907901111E-02 
941	 2.03861133637452E-02 
942	 2.15919650981148E-02 
943	 2.37459463613235E-02 
944	 0.020708446612255 
945	 1.85703843515146E-02 
946	 1.87388671761427E-02 
947	 1.90381244893236E-02 
948	 1.98166594155749E-02 
949	 1.88874468479928E-02 
950	 1.72471187262113E-02 
951	 1.77005688655966E-02 
952	 2.04655338657992E-02 
953	 0.022395894296716 
954	 2.15759571037887E-02 
955	 1.80985326551629E-02 
956	 1.56823986570457E-02 
957	 1.70081986533445E-02 
958	 2.05950367191539E-02 
959	 2.21978858158071E-02 
960	 1.89595580873691E-02 
961	 0.01823362284873 
962	 1.99509670243387E-02 
963	 1.88791932998966E-02 
964	 0.01821848697868 
965	 0.019907323009358 
966	 2.12771493540908E-02 
967	 1.79160980535246E-02 
968	 1.67885484976026E-02 
969	 1.82201227257231E-02 
970	 1.93691192842836E-02 
971	 1.66986281632395E-02 
972	 1.93365840397541E-02 
973	 2.06110197309151E-02 
974	 1.87420400871195E-02 
975	 1.82556303060294E-02 
976	 1.88129883515751E-02 
977	 1.95928121943271E-02 
978	 1.90783938480701E-02 
979	 1.63491086134495E-02 
980	 0.01773567234248 
981	 1.91983002404977E-02 
982	 1.83603464210748E-02 
983	 1.59949041769325E-02 
984	 1.75723326176937E-02 
985	 1.85740491772647E-02 
986	 1.74555919738568E-02 
987	 1.62468581031741E-02 
988	 0.018069724264927 
989	 1.76461377924355E-02 
990	 1.54978770714072E-02 
991	 1.65068274808674E-02 
992	 0.019182926137684 
993	 1.90344055939067E-02 
994	 1.70117936712909E-02 
995	 1.72834925207769E-02 
996	 1.73067123936584E-02 
997	 1.59683835323196E-02 
998	 1.53914635140886E-02 
999	 1.78142010235451E-02 
1000	 1.49530684333863E-02 
1001	 1.59119418203355E-02 
1002	 1.64361311139403E-02 
1003	 1.63857211641298E-02 
1004	 0.015863826878725 
1005	 1.56306076658971E-02 
1006	 1.51196606873403E-02 
1007	 1.50296474631865E-02 
1008	 1.51367545651176E-02 
1009	 1.51526971335966E-02 
1010	 1.49663567570237E-02 
1011	 1.48228604366975E-02 
1012	 1.49274571345039E-02 
1013	 1.49358164058529E-02 
1014	 1.49166412129723E-02 
1015	 1.49831616596138E-02 
1016	 1.49009492251371E-02 
1017	 1.46350046382725E-02 
1018	 1.45318825197749E-02 
1019	 1.43198465841414E-02 
1020	 1.42668193410101E-02 
1021	 1.43722438631671E-02 
1022	 1.44569750054335E-02 
1023	 0.014485815419446 
1024	 1.47254441488709E-02 
1025	 1.47893030602542E-02 
1026	 1.49016355382798E-02 
1027	 1.48905652990497E-02 
1028	 1.49007210193935E-02 
1029	 1.48244244218519E-02 
1030	 1.45453641383478E-02 
1031	 1.44406838341757E-02 
1032	 1.43971844372928E-02 
1033	 0.01424971978966 
1034	 1.38598456692022E-02 
1035	 1.39343190562665E-02 
1036	 1.43604736326075E-02 
1037	 1.46088614804784E-02 
1038	 1.50536265424899E-02 
1039	 1.55609743703442E-02 
1040	 1.56806953835385E-02 
1041	 1.55109690176706E-02 
1042	 0.015423949439094 
1043	 1.52642358839121E-02 
1044	 0.015180798566246 
1045	 1.50394353038358E-02 
1046	 1.49310504871098E-02 
1047	 1.47780652165389E-02 
1048	 0.014810236376187 
1049	 0.015008840375925 
1050	 1.50554010546934E-02 
1051	 1.52585954437637E-02 
1052	 1.53209325777863E-02 
1053	 1.51782249657722E-02 
1054	 1.50343871495137E-02 
1055	 0.014730314047015 
1056	 1.46180413658102E-02 
1057	 1.45731970799982E-02 
1058	 1.44822214953615E-02 
1059	 1.46174550436653E-02 
1060	 1.51891589451069E-02 
1061	 1.51917465157288E-02 
1062	 1.48722244180161E-02 
1063	 1.49195252350968E-02 
1064	 1.49399689215107E-02 
1065	 1.48857075797801E-02 
1066	 1.51550326829436E-02 
1067	 1.51433346288995E-02 
1068	 1.44882966492792E-02 
1069	 0.014430026302501 
1070	 1.47958536649173E-02 
1071	 1.49662021792027E-02 
1072	 1.53952560343561E-02 
1073	 1.57353955443985E-02 
1074	 0.015729083211616 
1075	 1.53878564040025E-02 
1076	 0.015222137027892 
1077	 0.014692522530259 
1078	 1.47916975904053E-02 
1079	 1.54366660048495E-02 
1080	 1.55130930969736E-02 
1081	 1.57916208406746E-02 
1082	 1.57085384686078E-02 
1083	 1.47362077112515E-02 
1084	 1.45011029707968E-02 
1085	 1.47505765940472E-02 
1086	 1.47203725565004E-02 
1087	 1.46758709912457E-02 
1088	 1.48912006543791E-02 
1089	 1.56000879509764E-02 
1090	 1.53060221771424E-02 
1091	 1.52525039226746E-02 
1092	 1.54135787715021E-02 
1093	 1.54100855688653E-02 
1094	 1.48043800864077E-02 
1095	 1.50118340878829E-02 
1096	 1.60343450399154E-02 
1097	 1.61761523719198E-02 
1098	 1.62468705416726E-02 
1099	 0.016140901872118 
1100	 1.50757112473613E-02 
1101	 0.014887809925548 
1102	 1.50696012348453E-02 
1103	 1.52531218464755E-02 
1104	 1.59130944882854E-02 
1105	 1.68677875670776E-02 
1106	 1.62308114995756E-02 
1107	 1.60192360978109E-02 
1108	 1.60250863101192E-02 
1109	 1.51199376971232E-02 
1110	 0.015181299819325 
1111	 1.68270930297629E-02 
1112	 1.69741585543543E-02 
1113	 1.63174985004353E-02 
1114	 1.61661266663356E-02 
1115	 1.50379026738438E-02 
1116	 1.48643119506486E-02 
1117	 1.65776116870935E-02 
1118	 0.016985889682955 
1119	 1.64268590802409E-02 
1120	 1.65409579113122E-02 
1121	 1.64663150968068E-02 
1122	 1.55802264518639E-02 
1123	 1.55149184533851E-02 
1124	 1.85726781193756E-02 
1125	 1.76557320415485E-02 
1126	 1.53606996622502E-02 
1127	 1.61674203362556E-02 
1128	 1.60910502339972E-02 
1129	 1.68223469712807E-02 
1130	 1.98956892440065E-02 
1131	 2.01184747985287E-02 
1132	 1.88891207485948E-02 
1133	 1.85507613266325E-02 
1134	 1.77846080935876E-02 
1135	 1.80986985978775E-02 
1136	 1.91533398408706E-02 
1137	 1.87587052047933E-02 
1138	 1.81446339780866E-02 
1139	 0.017674036617979 
1140	 1.55724504752884E-02 
1141	 1.62041127757794E-02 
1142	 1.84021434769943E-02 
1143	 1.77749528357605E-02 
1144	 0.017012375353491 
1145	 1.67127722041168E-02 
1146	 1.50997000939274E-02 
1147	 1.64134275956411E-02 
1148	 0.018755623907528 
1149	 1.71971492482588E-02 
1150	 1.65642195373043E-02 
1151	 1.51257072708362E-02 
1152	 1.49359360368734E-02 
1153	 1.53038464447816E-02 
1154	 0.015683640573074 
1155	 1.68176683076923E-02 
1156	 1.66365820715198E-02 
1157	 0.015905092802214 
1158	 1.59045653116443E-02 
1159	 1.61073335384305E-02 
1160	 1.59690095747139E-02 
1161	 1.60352390870091E-02 
1162	 1.60307809417332E-02 
1163	 1.56067984324167E-02 
1164	 1.55671665246454E-02 
1165	 1.57712269680029E-02 
1166	 1.54883296381937E-02 
1167	 1.53126684288557E-02 
1168	 0.0154672490129 
1169	 1.52882415733486E-02 
1170	 1.53505047283796E-02 
1171	 1.54096297721187E-02 
1172	 1.54840438360429E-02 
1173	 0.01542381822178 
1174	 1.52917829061506E-02 
1175	 1.53728378327908E-02 
1176	 1.53663821397308E-02 
1177	 1.55665380967702E-02 
1178	 1.58631717332522E-02 
1179	 1.57130063453463E-02 
1180	 1.55597399872116E-02 
1181	 1.58334388729047E-02 
1182	 1.58747394871477E-02 
1183	 1.55802595174548E-02 
1184	 1.55795110870668E-02 
1185	 1.54395834132983E-02 
1186	 1.49909854239412E-02 
1187	 1.50901075117093E-02 
1188	 1.54991331917451E-02 
1189	 1.55430446157986E-02 
1190	 0.015618377353307 
1191	 0.015677664495463 
1192	 1.56245309575982E-02 
1193	 1.52586253160393E-02 
1194	 1.52405731472146E-02 
1195	 1.54360029133463E-02 
1196	 1.53984926126364E-02 
1197	 1.55208399612155E-02 
1198	 1.54846451679848E-02 
1199	 1.50156418034878E-02 
1200	 1.50354667625626E-02 
1201	 1.53579613558403E-02 
1202	 1.51609160539838E-02 
1203	 1.51338113475012E-02 
1204	 1.53183445974806E-02 
1205	 1.51379731439327E-02 
1206	 1.50293744910649E-02 
1207	 1.50573645153014E-02 
1208	 1.49225872410776E-02 
1209	 1.48967885150124E-02 
1210	 1.50897625805936E-02 
1211	 1.50757654597493E-02 
1212	 1.48354938519108E-02 
1213	 1.47930668067208E-02 
1214	 1.48631852423038E-02 
1215	 1.49701010564308E-02 
1216	 1.51356635355241E-02 
1217	 1.53617184734034E-02 
1218	 1.54130699603559E-02 
1219	 1.52613380380058E-02 
1220	 1.51398506245849E-02 
1221	 1.50885377068015E-02 
1222	 1.50124600446789E-02 
1223	 0.014935355868287 
1224	 1.48978954810229E-02 
1225	 1.47823977443534E-02 
1226	 1.47382136751234E-02 
1227	 1.48892143775596E-02 
1228	 0.014873896779085 
1229	 1.49569035714101E-02 
1230	 1.50989125362143E-02 
1231	 0.014819204283176 
1232	 1.46845863226662E-02 
1233	 1.47251038049875E-02 
1234	 1.45410563223167E-02 
1235	 1.44955254470558E-02 
1236	 1.45411298273965E-02 
1237	 1.45653635155312E-02 
1238	 1.45347159143488E-02 
1239	 1.48173265453833E-02 
1240	 1.50088213033834E-02 
1241	 1.50804549847611E-02 
1242	 1.50164623132702E-02 
1243	 1.48119276032382E-02 
1244	 1.46787375509839E-02 
1245	 1.44871271979314E-02 
1246	 1.44689084273142E-02 
1247	 0.014666557833814 
1248	 1.46460273513658E-02 
1249	 1.45870781600566E-02 
1250	 1.47503581212316E-02 
1251	 1.49126647128476E-02 
1252	 1.48756412953647E-02 
1253	 1.46831568516849E-02 
1254	 1.45385413932874E-02 
1255	 1.44043369018967E-02 
1256	 1.44174992911029E-02 
1257	 0.014913247852006 
1258	 1.49318294432962E-02 
1259	 1.44319316424499E-02 
1260	 1.45625429228538E-02 
1261	 1.51344060187719E-02 
1262	 1.50398953158363E-02 
1263	 1.48885705904898E-02 
1264	 1.49548223912101E-02 
1265	 1.47967793760488E-02 
1266	 1.43155824548167E-02 
1267	 1.44948646071293E-02 
1268	 1.52753521055054E-02 
1269	 0.01526970945911 
1270	 1.48197879314066E-02 
1271	 1.48834464778299E-02 
1272	 1.48877325469947E-02 
1273	 1.46411804269356E-02 
1274	 1.47051673336058E-02 
1275	 1.48506065642163E-02 
1276	 1.45549289313302E-02 
1277	 1.44266733331962E-02 
1278	 1.45792988586598E-02 
1279	 1.42968169537774E-02 
1280	 1.40222341254529E-02 
1281	 1.41193431696421E-02 
1282	 1.44579584873796E-02 
1283	 1.44065059165143E-02 
1284	 1.43975711358508E-02 
1285	 1.45420619707487E-02 
1286	 1.45516964197442E-02 
1287	 1.44197320846882E-02 
1288	 1.44391969452063E-02 
1289	 1.45843168891175E-02 
1290	 1.47018919212304E-02 
1291	 1.43049034962146E-02 
1292	 1.41374711213805E-02 
1293	 1.42182714765028E-02 
1294	 1.40176125968246E-02 
1295	 1.39616879163686E-02 
1296	 1.41900541514347E-02 
1297	 1.44143840060273E-02 
1298	 1.44765442254035E-02 
1299	 1.41938288203359E-02 
1300	 1.40442212392618E-02 
1301	 1.41652867590874E-02 
1302	 1.42012095983572E-02 
1303	 1.42437108373595E-02 
1304	 1.43394312234635E-02 
1305	 1.44722929614416E-02 
1306	 1.46203964474598E-02 
1307	 1.48349059977682E-02 
1308	 1.48223481395695E-02 
1309	 1.45434526534007E-02 
1310	 1.45494716403279E-02 
1311	 1.46342751265689E-02 
1312	 1.45846358405193E-02 
1313	 1.48499472761038E-02 
1314	 1.48636403855023E-02 
1315	 0.014213357900324 
1316	 1.40968906526449E-02 
1317	 1.43549507707226E-02 
1318	 1.43539774629092E-02 
1319	 1.46185397237203E-02 
1320	 1.46517645331171E-02 
1321	 1.41649490449469E-02 
1322	 0.014140335487701 
1323	 1.46463108878806E-02 
1324	 1.44621875586742E-02 
1325	 1.45403069033459E-02 
1326	 1.48393569426826E-02 
1327	 1.46877444667492E-02 
1328	 1.49147534603146E-02 
1329	 1.47258481201006E-02 
1330	 1.45253092098425E-02 
1331	 1.52485378022769E-02 
1332	 1.59888729611716E-02 
1333	 1.60563916561023E-02 
1334	 1.56651773585608E-02 
1335	 1.57369938415129E-02 
1336	 1.50583610329393E-02 
1337	 1.48501537029452E-02 
1338	 1.57753213083726E-02 
1339	 1.58828019105195E-02 
1340	 1.48261246783679E-02 
1341	 1.49297156528605E-02 
1342	 1.61903464086612E-02 
1343	 1.62904528780548E-02 
1344	 1.59892030405219E-02 
1345	 0.016220536854736 
1346	 1.62328696038837E-02 
1347	 0.01518760541069 
1348	 1.25381336124937E-02 
1349	 1.30293195924383E-02 
1350	 1.57533597274049E-02 
1351	 1.54194183783907E-02 
1352	 2.32067472468605E-02 
1353	 2.81115750539028E-02 
1354	 8.37691218053739E-03 
1355	-1.28520038260405E-02 
1356	-8.70872870948069E-03 
1357	-3.78510710523761E-04 
1358	 3.13726275043283E-02 
1359	 0.051572475818705 
1360	 6.52963028384058E-02 
1361	 3.48940894434688E-02 
1362	-0.168942672526858 
1363	-0.207423945569652 
1364	-0.12525360074598 
1365	-0.203042596323088 
1366	-0.207132830035771 
1367	-0.169075041622428 
1368	-0.176522033162707 
1369	-0.325299341551481 
1370	-0.334208848894983 
1371	-0.225142344057514 
1372	-0.188336258975783 
1373	-0.154888673422072 
1374	-3.11003213789881E-02 
1375	 0.197497150103728 
1376	 0.188563354070693 
1377	-1.15511215358949E-02 
1378	-4.53771927716655E-04 
1379	 4.85209255654013E-02 
1380	-6.30419302555971E-02 
1381	-0.18635837799661 
1382	-4.26087695720679E-02 
1383	-4.81755222017422E-02 
1384	-0.14716030875032 
1385	-4.74991227342818E-02 
1386	 4.52035262711716E-02 
1387	-0.19699870816341 
1388	-0.78037540655028 
1389	-0.586359172800234 
1390	-0.595459407585295 
1391	-0.793774063909821 
1392	-0.549273191198829 
1393	-1.07443366279352E-03 
1394	 0.204226598828002 
1395	-0.105183130045365 
1396	 3.65458263937267E-02 
1397	-2.58381906410206E-02 
1398	-0.301228386750437 
1399	-0.323064202444617 
1400	-0.346216462775406 
1401	-0.381247111608253 
1402	-0.158752891524411 
1403	-0.166310565796992 
1404	-0.26972613844165 
1405	-0.172374678416794 
1406	 0.112472335561935 
1407	 3.12575567950709E-02 
1408	-0.111118879150724 
1409	-8.86958682484534E-02 
1410	-0.132988303153581 
1411	-0.13613063729563 
1412	-6.09843741441975E-02 
1413	-8.45546111550585E-03 
1414	 2.54849156210707E-02 
1415	 1.60880810265055E-04 
1416	-3.30136163741683E-02 
1417	-1.45889635478829E-02 
1418	-9.51854614812277E-03 
1419	-1.66696563241653E-02 
1420	 6.88521325390576E-03 
1421	 0.017421165340492 
1422	-2.04366073502283E-03 
1423	-8.80865457550202E-03 
1424	-2.73309397547727E-03 
1425	 6.80723221302373E-03 
1426	 1.76751272167649E-02 
1427	 1.62297179312471E-02 
1428	 1.25600140429881E-02 
1429	 1.75769436736251E-02 
1430	 2.23376766074157E-02 
1431	 1.74937555959675E-02 
1432	 1.00762586269393E-02 
1433	 1.46067042086045E-02 
1434	 2.34373215398326E-02 
1435	 1.80794501762956E-02 
1436	 1.27766398121965E-02 
1437	 1.40711764731621E-02 
1438	 1.28404738022498E-02 
1439	 8.05794712116153E-03 
1440	 7.42801958142863E-03 
1441	 1.22513379554478E-02 
1442	 1.61506997655161E-02 
1443	 1.04157842478113E-02 
1444	 7.69406519696371E-03 
1445	 1.43888230548136E-02 
1446	 1.45750480883939E-02 
1447	 1.01628380503076E-02 
1448	 1.18689999579517E-02 
1449	 1.43414386837235E-02 
1450	 1.35369550454768E-02 
1451	 1.30981371213572E-02 
1452	 1.36123582772929E-02 
1453	 1.45559845998761E-02 
1454	 1.45150100847495E-02 
1455	 1.28886067404487E-02 
1456	 1.32166957568406E-02 
1457	 1.49791907198852E-02 
1458	 1.47774422639864E-02 
1459	 1.37473372069668E-02 
1460	 1.42385485453624E-02 
1461	 1.50043619562161E-02 
1462	 1.44425635364125E-02 
1463	 1.42102390486144E-02 
1464	 1.42538525680598E-02 
1465	 1.26403988364738E-02 
1466	 1.21709411511834E-02 
1467	 1.35028144717787E-02 
1468	 1.39457495051866E-02 
1469	 1.40866943604634E-02 
1470	 1.37073948527191E-02 
1471	 1.31232843028398E-02 
1472	 1.29391843025663E-02 
1473	 1.18781189531512E-02 
1474	 1.16916560588224E-02 
1475	 1.21041052350483E-02 
1476	 0.013011222601401 
1477	 1.50190003161382E-02 
1478	 1.53558523560874E-02 
1479	 0.015425690308786 
1480	 1.51448463404691E-02 
1481	 1.34254282731936E-02 
1482	 1.29848454974296E-02 
1483	 1.34655510298673E-02 
1484	 1.35542808159461E-02 
1485	 1.38482852481933E-02 
1486	 1.36002509156935E-02 
1487	 1.28037806252747E-02 
1488	 1.25440556691953E-02 
1489	 1.27309355264896E-02 
1490	 1.22378451199137E-02 
1491	 1.10402560613482E-02 
1492	 1.10882964780022E-02 
1493	 1.17410932652386E-02 
1494	 0.011662532354035 
1495	 1.17273794385166E-02 
1496	 1.19626844972929E-02 
1497	 1.16977953599367E-02 
1498	 1.16429892385219E-02 
1499	 1.23943265028795E-02 
1500	 1.25191373151975E-02 
1501	 1.19249017528505E-02 
1502	 1.17356120807402E-02 
1503	 1.16150552959936E-02 
1504	 0.011564029904538 
1505	 0.011548439136472 
1506	 1.17704884048315E-02 
1507	 1.21950104201195E-02 
1508	 1.18834232795155E-02 
1509	 1.09545289728013E-02 
1510	 1.07198062638848E-02 
1511	 1.11346116208699E-02 
1512	 1.12621611859047E-02 
1513	 1.11316077212754E-02 
1514	 0.011080477317737 
1515	 1.09378912623991E-02 
1516	 1.07982026158648E-02 
1517	 1.08590392760966E-02 
1518	 1.09474057179417E-02 
1519	 1.09761994532487E-02 
1520	 1.08031235594599E-02 
1521	 1.06419429203587E-02 
1522	 0.010899107240315 
1523	 1.09764440604123E-02 
1524	 1.06675718211079E-02 
1525	 1.06746345168143E-02 
1526	 1.07901158738465E-02 
1527	 1.05667771837903E-02 
1528	 1.05252890170858E-02 
1529	 1.07709808389376E-02 
1530	 1.07180308518244E-02 
1531	 1.04418494468926E-02 
1532	 1.04250415672559E-02 
1533	 1.06570267802704E-02 
1534	 1.07224193936163E-02 
1535	 1.06413671600087E-02 
1536	 1.05652346915379E-02 
1537	 0.010346843749344 
1538	 0.010221428028426 
1539	 1.01685136822719E-02 
1540	 1.00633994651895E-02 
1541	 1.02701250092164E-02 
1542	 1.04570109698417E-02 
1543	 1.03169413857758E-02 
1544	 1.01409365399819E-02 
1545	 9.94953726328584E-03 
1546	 9.91390803126451E-03 
1547	 9.98085707835545E-03 
1548	 1.01028881412078E-02 
1549	 1.04148987076632E-02 
1550	 1.04350256275852E-02 
1551	 1.02897309409309E-02 
1552	 1.04208778825651E-02 
1553	 0.010261673355424 
1554	 9.77925117712333E-03 
1555	 9.81110843827319E-03 
1556	 1.01841401378278E-02 
1557	 1.02425990484997E-02 
1558	 1.02215639067917E-02 
1559	 0.010402585469287 
1560	 1.04681369664608E-02 
1561	 1.00562496529662E-02 
1562	 9.77184549024277E-03 
1563	 1.00777195604898E-02 
1564	 1.02425716762293E-02 
1565	 1.01544667433952E-02 
1566	 1.01678830052345E-02 
1567	 1.01321780492763E-02 
1568	 1.00655145702636E-02 
1569	 1.00641931052847E-02 
1570	 1.00968400376458E-02 
1571	 1.01285548190283E-02 
1572	 9.69941639469361E-03 
1573	 9.2875200332926E-03 
1574	 9.79689115339925E-03 
1575	 1.00155304701755E-02 
1576	 9.55859101476593E-03 
1577	 9.75778213466392E-03 
1578	 1.00536029889959E-02 
1579	 9.87906626588419E-03 
1580	 9.93698919117492E-03 
1581	 9.98015828490087E-03 
1582	 9.74387754579001E-03 
1583	 9.48912617741204E-03 
1584	 9.4861357548621E-03 
1585	 9.65165664047967E-03 
1586	 9.61030188438968E-03 
1587	 9.67701698528246E-03 
1588	 9.8201418933816E-03 
1589	 9.65985043697219E-03 
1590	 9.55417329887601E-03 
1591	 9.57873423446331E-03 
1592	 9.68507908760101E-03 
1593	 9.92636882851649E-03 
1594	 9.87207112577409E-03 
1595	 9.65868718144665E-03 
1596	 9.62239668436888E-03 
1597	 9.37819994313592E-03 
1598	 9.16600383003298E-03 
1599	 9.35436555722859E-03 
1600	 9.52834726668462E-03 
1601	 9.53435344141268E-03 
1602	 9.4880359050874E-03 
1603	 9.52615208672333E-03 
1604	 9.57030543154768E-03 
1605	 9.67733299576204E-03 
1606	 9.8546980701399E-03 
1607	 9.43712957000557E-03 
1608	 8.87502359332914E-03 
1609	 8.96145130338026E-03 
1610	 9.2614843092193E-03 
1611	 9.6637799408206E-03 
1612	 9.78847167960129E-03 
1613	 9.48089701531064E-03 
1614	 9.56473023798739E-03 
1615	 9.6659596614585E-03 
1616	 9.47564681876424E-03 
1617	 9.62988646129282E-03 
1618	 9.57945431752635E-03 
1619	 9.16456450706741E-03 
1620	 9.37931625726422E-03 
1621	 9.80167190409459E-03 
1622	 9.69216305734215E-03 
1623	 9.47919978519406E-03 
1624	 9.44972792520433E-03 
1625	 9.2993925313107E-03 
1626	 9.17613833264155E-03 
1627	 9.34289072470145E-03 
1628	 9.40508838683793E-03 
1629	 9.35311886810151E-03 
1630	 9.19294759945917E-03 
1631	 8.98670406560821E-03 
1632	 9.25603606015587E-03 
1633	 9.51425061306796E-03 
1634	 9.24095795254006E-03 
1635	 9.13245266749341E-03 
1636	 0.009332759638707 
1637	 9.22021303729949E-03 
1638	 9.15695332208271E-03 
1639	 9.43590234024859E-03 
1640	 9.6382224906119E-03 
1641	 9.75001774054907E-03 
1642	 9.78488814960256E-03 
1643	 9.80844791413584E-03 
1644	 9.44487895106308E-03 
1645	 8.89552652464608E-03 
1646	 9.03055126988178E-03 
1647	 9.15804121399346E-03 
1648	 8.95714297045827E-03 
1649	 9.03364242583186E-03 
1650	 8.99219758122928E-03 
1651	 8.63728279735051E-03 
1652	 8.82441250105463E-03 
1653	 8.97663222016423E-03 
1654	 9.00998766589102E-03 
1655	 9.21233381500853E-03 
1656	 9.24552252179803E-03 
1657	 9.10235957215835E-03 
1658	 9.25841253191832E-03 
1659	 9.51967646722802E-03 
1660	 9.53737252291544E-03 
1661	 9.61076591299755E-03 
1662	 9.60307388355071E-03 
1663	 9.44893405859099E-03 
1664	 9.39611020414279E-03 
1665	 9.18258001294086E-03 
1666	 9.12223937732774E-03 
1667	 9.4009098545138E-03 
1668	 9.09763735444911E-03 
1669	 8.86377611291959E-03 
1670	 9.25985169394165E-03 
1671	 8.98721149778187E-03 
1672	 8.40357240421675E-03 
1673	 8.77995147136874E-03 
1674	 9.00928267425031E-03 
1675	 8.80499713391107E-03 
1676	 9.27053793520847E-03 
1677	 9.61310977290163E-03 
1678	 8.9306918182174E-03 
1679	 8.52213144162785E-03 
1680	 8.77968816764498E-03 
1681	 8.8017012677745E-03 
1682	 8.8855129587529E-03 
1683	 9.15901436827627E-03 
1684	 9.29279149778021E-03 
1685	 9.15892264846585E-03 
1686	 9.32876264571526E-03 
1687	 9.79733866960335E-03 
1688	 9.48514660438643E-03 
1689	 8.9823016558444E-03 
1690	 8.9607296937245E-03 
1691	 8.82825450903855E-03 
1692	 8.44156687044343E-03 
1693	 8.51606634469589E-03 
1694	 9.17759316894635E-03 
1695	 9.29137294486834E-03 
1696	 9.01775898353161E-03 
1697	 9.00487165634254E-03 
1698	 8.48972265915002E-03 
1699	 8.08561984326707E-03 
1700	 8.67573791620693E-03 
1701	 8.91703986376155E-03 
1702	 8.74527118146094E-03 
1703	 8.78263153950016E-03 
1704	 8.68718042182587E-03 
1705	 9.09705039054406E-03 
1706	 9.67824280163807E-03 
1707	 9.66022571864004E-03 
1708	 9.61643841613488E-03 
1709	 9.40125220014486E-03 
1710	 8.70516478073309E-03 
1711	 8.37649694095688E-03 
1712	 8.49391169006926E-03 
1713	 8.41649450075996E-03 
1714	 8.28386711907211E-03 
1715	 8.19237134232991E-03 
1716	 7.9804992575801E-03 
1717	 8.08595220041426E-03 
1718	 8.48514501141367E-03 
1719	 8.21137104146004E-03 
1720	 8.07895279371554E-03 
1721	 8.30204504144403E-03 
1722	 8.49710917620558E-03 
1723	 8.97885284133929E-03 
1724	 8.98294747933587E-03 
1725	 8.81066017121855E-03 
1726	 8.77489468500991E-03 
1727	 8.32748977528743E-03 
1728	 7.84740097938625E-03 
1729	 7.78114732391973E-03 
1730	 8.1442806819464E-03 
1731	 8.51622393720362E-03 
1732	 9.02555386202893E-03 
1733	 9.2312476447229E-03 
1734	 8.12997010263925E-03 
1735	 7.43733691550807E-03 
1736	 7.97703933088719E-03 
1737	 8.23131503948954E-03 
1738	 8.24495298746352E-03 
1739	 8.40328923077033E-03 
1740	 8.27647444540842E-03 
1741	 7.93168935137958E-03 
1742	 8.35134661731747E-03 
1743	 8.84212807145916E-03 
1744	 8.24311195374818E-03 
1745	 7.95993057243916E-03 
1746	 8.70015760407608E-03 
1747	 8.86221090817059E-03 
1748	 9.15296660859791E-03 
1749	 9.38007526989319E-03 
1750	 9.17248106492863E-03 
1751	 8.8764273239006E-03 
1752	 8.70143989071014E-03 
1753	 8.70366006156351E-03 
1754	 8.59278371242843E-03 
1755	 0.00845755394929 
1756	 8.35951577014178E-03 
1757	 7.91367945421279E-03 
1758	 8.02114534278388E-03 
1759	 8.36490298627324E-03 
1760	 9.15351087923806E-03 
1761	 8.96315573827256E-03 
1762	 7.98739690746094E-03 
1763	 7.72984874506068E-03 
1764	 7.78689856005483E-03 
1765	 8.67642865618055E-03 
1766	 1.01617396974761E-02 
1767	 9.76170498846906E-03 
1768	 7.96178662263057E-03 
1769	 7.2333210812713E-03 
1770	 6.34044830568196E-03 
1771	 6.31349368255601E-03 
1772	 8.50471554821017E-03 
1773	 9.76100097752003E-03 
1774	 9.82483927538184E-03 
1775	 7.4875625858795E-03 
1776	 6.95204818783057E-03 
1777	 6.74126901618731E-03 
1778	 6.69879426714088E-03 
1779	 9.24204057193901E-03 
1780	 9.56428340337358E-03 
1781	 7.24670038156242E-03 
1782	 7.29380859928538E-03 
1783	 7.83325941043656E-03 
1784	 8.22721799560606E-03 
1785	 0.011041335255042 
1786	 1.08678036358169E-02 
1787	 7.60273937623628E-03 
1788	 6.94560707509779E-03 
1789	 6.13121221290846E-03 
1790	 6.83043093725662E-03 
1791	 7.63988774403447E-03 
1792	 7.87741294565604E-03 
1793	 1.04388244537852E-02 
1794	 1.34489353078992E-02 
1795	 0.017023720449599 
1796	 1.95544115217802E-02 
1797	 1.54885091646936E-02 
1798	 7.37530188644135E-03 
1799	 3.00938912981726E-03 
1800	 8.1662833516877E-03 
1801	 8.77716703696407E-03 
1802	 1.62431154635919E-02 
1803	 1.98141512776749E-02 
1804	 6.51206547261902E-03 
1805	 1.90005521468334E-03 
1806	 8.30752274893876E-03 
1807	 5.72761821664208E-03 
1808	 2.38917504729121E-03 
1809	-5.58619030260079E-05 
1810	-0.017057480799313 
1811	-1.60651263226234E-02 
1812	 1.01812292418313E-02 
1813	 1.22111822684734E-02 
1814	 3.46970894970082E-02 
1815	-1.40155835674159E-02 
1816	-0.198000902870921 
1817	-0.279907539785112 
1818	-0.515000768388612 
1819	-0.387344839930106 
1820	-0.100538193668528 
1821	 0.285536992078192 
1822	 0.403303089658382 
1823	 0.540171396446808 
1824	 0.554930882451218 
1825	-2.19087016010385 
1826	-5.08855010661151 
1827	-1.81365699447594 
1828	-1.27580077530302 
1829	-0.334134408127243 
1830	-0.118552502217702 
1831	 0.184726841342558 
1832	 0.179907823562704 
1833	 0.639479520952981 
1834	 0.781427864014088 
1835	 1.2939888213315 
1836	 1.45882185979959 
1837	 1.84767797280033 
1838	 1.24377800814973 
1839	 0.312339928497036 
1840	-0.239398893334213 
1841	-1.46824076064904 
1842	 10.5824126176966 
1843	 2.48364610222861 
1844	 0.382234202201683 
1845	 0.152639653465555 
1846	-0.383302826648451 
1847	-6.57606140715311 
1848	 1.02784201469644 
1849	 0.731137689082512 
1850	 0.628994710846234 
1851	-8.54605019093933 
1852	 1.51624832122132 
1853	 0.752939950954002 
1854	 0.949435440566193 
1855	 2.99489844886158 
1856	-7.04829713605206 
1857	 0.459893795432753 
1858	 0.436882196582032 
1859	 0.425320783312286 
1860	 0.66889361516544 
1861	 0.682501598787349 
1862	-2.74563050438844E-03 
1863	 0.329607505134382 
1864	 1.74345232481194 
1865	 2.62222811737023 
1866	 2.54136019888546 
1867	 1.50895936629717 
1868	 0.319839905359618 
1869	-2.90984843737108E-02 
1870	-0.635300458264509 
1871	-0.944073651674253 
1872	-1.64809519541408 
1873	-2.8752748302199 
1874	-0.598536233355496 
1875	 0.453455486726914 
1876	 0.668242194312911 
1877	 3.13509567225235 
1878	 10.9794498724603 
1879	-3.39694090475871 
1880	 0.394335222870702 
1881	-0.990547194026786 
1882	-0.839349369714685 
1883	-1.23323868787991 
1884	-2.26651178387294 
1885	-2.60718592801246 
1886	-3.24862401314804 
1887	-16.2994476100722 
1888	-3.61299450175677 
1889	-3.48683462691843 
1890	-3.75497837987107 
1891	-3.23609354291248 
1892	-1.95174616067599 
1893	-3.27303061012483 
1894	-2.8896905706454 
1895	-1.86803203207396 
1896	-2.63961051933249 
1897	-5.6148006046552 
1898	-2.91264263698933 
1899	 0.57217303551035 
1900	 3.59909423872793 
1901	 1.07235010881942 
1902	 0.953227741056259 
1903	 0.587342444107579 
1904	-1.1222736370614 
1905	 8.95216990649563 
1906	 1.64464159129944 
1907	 0.796015391507843 
1908	 0.430496448223454 
1909	 5.88961984273678E-02 
1910	 0.175974879217762 
1911	 0.136922332930118 
1912	-1.71648678251552 
1913	-3.92752811147763 
1914	 1.40029164365452 
1915	 0.152709222790677 
1916	 0.884456542878925 
1917	 1.38736322881308 
1918	 7.18742809489796 
1919	-0.747463766664172 
1920	 8.45205345233723E-02 
1921	-0.210645236006599 
1922	-0.593541309627319 
1923	-0.727716954627973 
1924	-0.376430241727137 
1925	 1.96680772205053E-02 
1926	 0.164033091536934 
1927	 0.30066697258848 
1928	 0.349821345920281 
1929	 0.40282768776569 
1930	 0.353112944383864 
1931	 0.308142829698258 
1932	 0.264158137288293 
1933	 0.172334309879113 
1934	 9.17408825230597E-02 
1935	 9.45723978151847E-02 
1936	 9.09916009539603E-03 
1937	 3.98220237999894E-02 
1938	 6.81188874462876E-02 
1939	 5.56357771396193E-02 
1940	 1.48078582707082E-02 
1941	 5.39337156472445E-02 
1942	 6.27792588257926E-02 
1943	 2.96852945264489E-02 
1944	 2.16280209847476E-02 
1945	 1.82626436320258E-02 
1946	 2.17996001389174E-02 
1947	 4.03715762845876E-02 
1948	 4.86577934771556E-02 
1949	 4.06015868071846E-02 
1950	 3.40435686934914E-02 
1951	 3.51686106536976E-02 
1952	 3.34119003433013E-02 
1953	 3.82220187757841E-02 
1954	 3.99520098485851E-02 
1955	 3.85461159686518E-02 
1956	 3.23572379278386E-02 
1957	 2.29420198778814E-02 
1958	 2.42846551305982E-02 
1959	 0.020997596061226 
1960	 1.57486703360683E-02 
1961	 1.67511518003201E-02 
1962	 1.59507424719533E-02 
1963	 1.77857721798849E-02 
1964	 2.06112118239429E-02 
1965	 2.09774505191237E-02 
1966	 0.019572388277327 
1967	 0.018104602818072 
1968	 1.54137817081472E-02 
1969	 1.09727425254749E-02 
1970	 8.77843369532247E-03 
1971	 1.04367222779965E-02 
1972	 1.13239130294679E-02 
1973	 1.16161537005527E-02 
1974	 1.05394105638473E-02 
1975	 8.46828516755652E-03 
1976	 7.16116735691842E-03 
1977	 6.29120208115033E-03 
1978	 7.93838260464951E-03 
1979	 9.05792304105349E-03 
1980	 1.04407000670432E-02 
1981	 0.01099042841729 
1982	 0.012219983119944 
1983	 1.28421895576577E-02 
1984	 1.28411422100277E-02 
1985	 1.23949356764617E-02 
1986	 1.24589402782778E-02 
1987	 1.17042692496408E-02 
1988	 1.14222942482515E-02 
1989	 0.012921927558452 
1990	 1.34431284254282E-02 
1991	 1.36560837974816E-02 
1992	 1.47293066314653E-02 
1993	 1.39762237081079E-02 
1994	 1.30248857785679E-02 
1995	 1.11444393316076E-02 
1996	 1.11446598542293E-02 
1997	 1.12694670212907E-02 
1998	 1.12723611513662E-02 
1999	 0.012011367155223 
2000	 0.014155226371141 
2001	 1.29410593870871E-02 
2002	 1.00266337275256E-02 
2003	 1.24994959178596E-02 
2004	 1.22740446897558E-02 
2005	 5.79269615185357E-03 
2006	 3.87263440172947E-03 
2007	 4.93407500611869E-03 
2008	 4.80435275861496E-03 
2009	 5.77746609538712E-03 
2010	 1.34826190277954E-02 
2011	 1.52754750094243E-02 
2012	 1.45852022671841E-02 
2013	 9.10557325791908E-03 
2014	 8.26136261667163E-03 
2015	 7.80932909862994E-03 
2016	 6.26962284068895E-03 
2017	 8.08482086019567E-03 
2018	 8.00830623038917E-03 
2019	 6.97191783895605E-03 
2020	 8.73471178805983E-03 
2021	 1.14214626100581E-02 
2022	 1.22376361746362E-02 
2023	 1.30217783696309E-02 
2024	 1.33556353791808E-02 
2025	 1.19058606864813E-02 
2026	 0.011386168122055 
2027	 1.15565889282975E-02 
2028	 1.15568056726958E-02 
2029	 1.08831254380007E-02 
2030	 1.16748463166343E-02 
2031	 1.28750287368424E-02 
2032	 1.35037120668108E-02 
2033	 1.32899170409829E-02 
2034	 1.28429531840882E-02 
2035	 1.18392370684378E-02 
2036	 1.04962407149978E-02 
2037	 1.15861419255542E-02 
2038	 1.25866430520947E-02 
2039	 1.23335628533417E-02 
2040	 1.14679307095498E-02 
2041	 1.16867367778258E-02 
2042	 1.14748613019733E-02 
2043	 1.09851643572881E-02 
2044	 1.12996240539193E-02 
2045	 1.14972184989678E-02 
2046	 9.72802800137977E-03 
2047	 0.008365115582871 
2048	 9.53430586513511E-03 
2049	 1.04359067488306E-02 
2050	 1.01485046561829E-02 
2051	 1.05208547520139E-02 
2052	 1.03752961273574E-02 
2053	 9.37356072234569E-03 
2054	 8.74863854322371E-03 
2055	 8.8422429863071E-03 
2056	 9.32954992783556E-03 
2057	 9.68389977046073E-03 
2058	 1.00678328058121E-02 
2059	 1.19611941182997E-02 
2060	 1.26479542426971E-02 
2061	 1.21297806793192E-02 
2062	 1.15126977433924E-02 
2063	 1.34284437837838E-02 
2064	 1.29327840239104E-02 
2065	 1.10492431574804E-02 
2066	 1.18926224984009E-02 
2067	 1.13176360157866E-02 
2068	 1.20570247266184E-02 
2069	 1.48056081340093E-02 
2070	 1.34909871752124E-02 
2071	 1.21636851201709E-02 
2072	 1.18571286924593E-02 
2073	 1.10214186085401E-02 
2074	 9.87097521844066E-03 
2075	 9.60683038952989E-03 
2076	 9.09791940253599E-03 
2077	 9.30549192243833E-03 
2078	 1.08925552448498E-02 
2079	 1.12205728748968E-02 
2080	 1.15068791182613E-02 
2081	 0.01128513488172 
2082	 1.09598359815386E-02 
2083	 1.05568993823643E-02 
2084	 1.03148231316304E-02 
2085	 1.01557964141508E-02 
2086	 1.04406482186022E-02 
2087	 1.12386688091471E-02 
2088	 1.22594566884721E-02 
2089	 0.012748121199734 
2090	 1.18897565410781E-02 
2091	 1.00427512296011E-02 
2092	 9.24357047307074E-03 
2093	 8.62772668252676E-03 
2094	 8.4919501537893E-03 
2095	 9.09667787353531E-03 
2096	 9.15848867740224E-03 
2097	 8.81811493789393E-03 
2098	 8.98761862093484E-03 
2099	 9.09274264002814E-03 
2100	 1.04794314226379E-02 
2101	 1.06402383216491E-02 
2102	 1.00369031693788E-02 
2103	 1.00785221850702E-02 
2104	 9.76410448416504E-03 
2105	 1.04216732863975E-02 
2106	 1.11433439991223E-02 
2107	 0.010398655731991 
2108	 0.010012402424709 
2109	 9.38967401811783E-03 
2110	 8.87098880422692E-03 
2111	 1.01708213955407E-02 
2112	 1.10244780337238E-02 
2113	 1.15595233475696E-02 
2114	 1.26846633386828E-02 
2115	 1.30522217129408E-02 
2116	 1.22008480021556E-02 
2117	 1.18738577931256E-02 
2118	 1.15109573743015E-02 
2119	 1.13249368281437E-02 
2120	 1.12503964293019E-02 
2121	 1.13144405591611E-02 
2122	 1.12936796695427E-02 
2123	 1.10837482964738E-02 
2124	 1.04135990200448E-02 
2125	 1.03543062853795E-02 
2126	 1.08257783896182E-02 
2127	 1.08109874634167E-02 
2128	 1.17531133758799E-02 
2129	 1.22737394638547E-02 
2130	 0.011705750130088 
2131	 0.012741234472419 
2132	 1.26667426863716E-02 
2133	 1.08234478080206E-02 
2134	 1.03039652307065E-02 
2135	 1.02132140880098E-02 
2136	 9.71928026042165E-03 
2137	 9.14354513264221E-03 
2138	 9.49919336696871E-03 
2139	 1.03318792253686E-02 
2140	 1.05713205081182E-02 
2141	 1.16941326631315E-02 
2142	 1.19047931779476E-02 
2143	 1.13311293113132E-02 
2144	 1.00503123021086E-02 
2145	 1.02686387985625E-02 
2146	 1.10585692158318E-02 
2147	 1.16493432358907E-02 
2148	 1.20402885051285E-02 
2149	 1.21296172958536E-02 
2150	 1.24572252043075E-02 
2151	 1.25975076509173E-02 
2152	 1.23641738442002E-02 
2153	 1.19490890813172E-02 
2154	 1.03580163706663E-02 
2155	 1.02144457494901E-02 
2156	 1.20424859704628E-02 
2157	 0.011926208081764 
2158	 1.12704416353911E-02 
2159	 1.09499067136371E-02 
2160	 9.51163783266782E-03 
2161	 9.12118723150803E-03 
2162	 9.54992294507856E-03 
2163	 9.95060601752294E-03 
2164	 1.07574428030495E-02 
2165	 0.010818146832706 
2166	 1.13080598425763E-02 
2167	 1.10769250219032E-02 
2168	 9.15941557684651E-03 
2169	 8.60308288288436E-03 
2170	 8.45334961795987E-03 
2171	 8.71538264226626E-03 
2172	 8.22492483759124E-03 
2173	 7.98539944028339E-03 
2174	 6.59806148480303E-03 
2175	 5.78862572199807E-03 
2176	 7.69698175391181E-03 
2177	 8.74024850974986E-03 
2178	 9.96873141885954E-03 
2179	 1.14460740602083E-02 
2180	 9.85904550721569E-03 
2181	 8.34261401163354E-03 
2182	 8.46041087951753E-03 
2183	 8.40367233549784E-03 
2184	 9.38890741371429E-03 
2185	 1.15800683236289E-02 
2186	 1.23574244721219E-02 
2187	 1.19863996562515E-02 
2188	 1.15631615120208E-02 
2189	 1.05723122493693E-02 
2190	 1.00795798832313E-02 
2191	 9.10144424530373E-03 
2192	 8.88178733534394E-03 
2193	 1.00623871456881E-02 
2194	 9.44991291181718E-03 
2195	 7.64066546964767E-03 
2196	 7.10070082394804E-03 
2197	 5.47376305661362E-03 
2198	 5.15471822434006E-03 
2199	 6.47420747147273E-03 
2200	 8.39169306529667E-03 
2201	 8.65910189017968E-03 
2202	 9.61445127146998E-03 
2203	 9.51343454434105E-03 
2204	 9.08151676542365E-03 
2205	 1.08076919690414E-02 
2206	 1.11932535954337E-02 
2207	 1.02383774290431E-02 
2208	 9.88246058904014E-03 
2209	 8.91906049267324E-03 
2210	 6.86731867106335E-03 
2211	 5.98423374822019E-03 
2212	 6.71101890025606E-03 
2213	 7.08903866090752E-03 
2214	 7.6606751979359E-03 
2215	 9.64586522775614E-03 
2216	 9.75394565692336E-03 
2217	 9.5441455956486E-03 
2218	 8.72742071767229E-03 
2219	 8.72029290761593E-03 
2220	 7.59990628770642E-03 
2221	 7.84773917112595E-03 
2222	 9.29166968113818E-03 
2223	 9.8479316057131E-03 
2224	 1.14423138383226E-02 
2225	 0.011469046036874 
2226	 9.75883509023066E-03 
2227	 0.009037354162493 
2228	 7.52740993022832E-03 
2229	 7.20156519986949E-03 
2230	 9.1201867735687E-03 
2231	 9.60212053154321E-03 
2232	 8.82129886505219E-03 
2233	 8.79328148163693E-03 
2234	 8.75498400379119E-03 
2235	 8.43858668582639E-03 
2236	 9.41837446700328E-03 
2237	 1.03641061030404E-02 
2238	 1.16184172134566E-02 
2239	 1.16582056533325E-02 
2240	 1.06196644460385E-02 
2241	 1.15443852187472E-02 
2242	 1.04981811521595E-02 
2243	 7.11527412032654E-03 
2244	 5.08843186046782E-03 
2245	 5.75006498207504E-03 
2246	 8.77006194913832E-03 
2247	 0.011527846575215 
2248	 1.37210139667538E-02 
2249	 1.43890580922317E-02 
2250	 1.26738642876917E-02 
2251	 1.11336540231579E-02 
2252	 8.84434104281184E-03 
2253	 7.09586414050247E-03 
2254	 6.50612067259378E-03 
2255	 4.43827128469939E-03 
2256	 3.62733260970543E-03 
2257	 5.94172753827772E-03 
2258	 7.79030265335992E-03 
2259	 8.72739555842932E-03 
2260	 9.80510358778067E-03 
2261	 1.22069656965244E-02 
2262	 1.07917040637692E-02 
2263	 5.38295560257233E-03 
2264	 5.25627770110066E-03 
2265	 7.19876642667593E-03 
2266	 6.74003719125499E-03 
2267	 7.46660321366961E-03 
2268	 7.46062666611703E-03 
2269	 3.88245267078169E-03 
2270	 0.002282100855202 
2271	 2.49816799563632E-03 
2272	 5.16954080403008E-03 
2273	 0.010939101287275 
2274	 1.21445030296046E-02 
2275	 1.17463979499354E-02 
2276	 1.35686575692659E-02 
2277	 1.48251892980593E-02 
2278	 1.32747045151317E-02 
2279	 0.012743927359351 
2280	 1.30216833952695E-02 
2281	 1.04771225126809E-02 
2282	 6.41209649322387E-03 
2283	 6.51524847280458E-03 
2284	 6.91415240820089E-03 
2285	 4.3961037016754E-03 
2286	 2.38324484995515E-03 
2287	 4.67419964976697E-03 
2288	 6.36817451796683E-03 
2289	 5.31842505269456E-03 
2290	 6.81730236973773E-03 
2291	 1.05074958645163E-02 
2292	 9.26848347703973E-03 
2293	 6.97495138094463E-03 
2294	 7.79508599401069E-03 
2295	 6.73138182123509E-03 
2296	 5.3259308909445E-03 
2297	 4.96338294683699E-03 
2298	 7.99371734055537E-03 
2299	 1.08484477102464E-02 
2300	 1.03954639222294E-02 
2301	 1.25990119838524E-02 
2302	 1.36160591545295E-02 
2303	 1.07559410561593E-02 
2304	 1.11466421240029E-02 
2305	 1.39585509354568E-02 
2306	 1.25198877266057E-02 
2307	 9.7194825539129E-03 
2308	 9.97095817558561E-03 
2309	 9.43217045283219E-03 
2310	 5.16455502975873E-03 
2311	 1.91775815932652E-03 
2312	 1.00374281379649E-04 
2313	-1.70252114324496E-03 
2314	-2.79169647668977E-03 
2315	-4.90962846569765E-03 
2316	-9.97007962484379E-04 
2317	 1.67187090713654E-03 
2318	 1.91349915554183E-03 
2319	 9.66094512895661E-03 
2320	 7.20264983618547E-03 
2321	 3.4141753453883E-03 
2322	 4.9981292962507E-03 
2323	-3.00377457141163E-03 
2324	 7.19969827905991E-04 
2325	 1.01764334912223E-02 
2326	 7.54207727609311E-03 
2327	 5.33099480952317E-03 
2328	 1.58860048445592E-03 
2329	-2.71299582143753E-03 
2330	-0.003559437314579 
2331	-8.26438110816739E-04 
2332	 5.53027428310785E-03 
2333	 7.72905100097748E-03 
2334	 8.31705277344097E-03 
2335	 1.40052104059934E-02 
2336	 1.26692496154126E-02 
2337	 3.89190204620129E-03 
2338	 3.14078598544135E-03 
2339	-1.56797780071888E-03 
2340	-3.49256086021743E-03 
2341	 8.56855631966492E-03 
2342	 1.35741960793858E-02 
2343	 1.60412043561001E-02 
2344	 1.81843876061626E-02 
2345	 4.1743751061526E-03 
2346	-9.50994214829269E-03 
2347	-1.03526178523986E-02 
2348	-0.010003399279628 
2349	-1.19568243205981E-03 
2350	 9.93465930978683E-03 
2351	 1.58565006069799E-02 
2352	 1.17079196051409E-02 
2353	-2.1837170419971E-03 
2354	-8.91627476469165E-03 
2355	-1.13544107337529E-02 
2356	-7.93813520963107E-03 
2357	-9.02188192576455E-03 
2358	-1.23205695935818E-02 
2359	-4.89058238444874E-03 
2360	-9.71015747509288E-03 
2361	-2.03743433253015E-02 
2362	-0.015868253833886 
2363	-1.79446044305161E-02 
2364	-1.93015729847321E-02 
2365	-3.95551854456372E-03 
2366	-2.75614717932784E-03 
2367	-1.00596294586882E-02 
2368	-1.56610269123926E-02 
2369	-2.00183903332049E-02 
2370	-1.98579400756588E-02 
2371	-3.02242391829473E-02 
2372	-2.78198349038039E-02 
2373	-2.92216500117849E-02 
2374	-3.46656992068706E-02 
2375	 3.17215909435861E-03 
2376	 2.26618513063571E-02 
2377	 8.00159324627968E-03 
2378	 1.43743860526982E-02 
2379	-1.68585210745311E-03 
2380	-3.79220782351295E-02 
2381	-3.42839237202533E-02 
2382	-0.031130220371876 
2383	-0.034716962119959 
2384	-1.90447708650052E-02 
2385	-1.34021524863154E-03 
2386	 1.38487535365417E-02 
2387	 1.69826843532324E-02 
2388	 2.25056701039678E-02 
2389	 1.72672135516722E-02 
2390	 1.50142468476311E-02 
2391	 6.49200580198382E-02 
2392	 0.104721458137778 
2393	 7.71139219659889E-02 
2394	 0.042625898414831 
2395	 3.70121073133616E-02 
2396	 2.13373691638732E-02 
2397	 3.31738604388602E-02 
2398	 6.62575009558583E-02 
2399	 6.31610002218461E-02 
2400	 1.76084821136688E-02 
2401	-4.33469061643175E-02 
2402	-3.62558490618406E-02 
2403	-1.58701473113842E-02 
2404	-3.48265521989359E-02 
2405	 8.49651445968613E-03 
2406	 3.92132606876313E-02 
2407	 3.60609937140042E-03 
2408	 8.79870844308065E-03 
2409	 1.51955042706906E-02 
2410	-4.56940685185288E-02 
2411	-0.106642164504619 
2412	-9.40077076870155E-02 
2413	-6.51422177143994E-02 
2414	 2.08889557696834E-02 
2415	 0.131192118503372 
2416	 5.45895457116617E-02 
2417	-8.88906939015598E-03 
2418	-3.45513654488471E-02 
2419	-0.142122258828721 
2420	-9.45750989077828E-02 
2421	-4.71393918911285E-02 
2422	-0.152909895402663 
2423	-0.147108084995693 
2424	-9.90277646137198E-02 
2425	-7.60644085125206E-02 
2426	-6.5336934256886E-03 
2427	-1.45218430222173E-02 
2428	-7.71676070099575E-02 
2429	-9.26551526685521E-02 
2430	-5.13909868673031E-02 
2431	-0.038298230575783 
2432	-2.92547773714994E-02 
2433	-2.83857789598623E-02 
2434	-0.112082565172793 
2435	-0.063161922000767 
2436	 1.06585376986823E-02 
2437	-3.48465949981311E-02 
2438	-3.77184217766872E-02 
2439	-6.07413809844222E-02 
2440	-8.14280654900869E-02 
2441	-6.72211110117834E-02 
2442	-4.14557440434589E-02 
2443	 9.51664401778217E-02 
2444	 0.144068502190294 
2445	 0.134448454952904 
2446	-1.15555163007173E-03 
2447	-2.57954302158866 
2448	-6.19159596949777 
2449	-1.21843189213324 
2450	-0.900917476220968 
2451	-0.280709904413667 
2452	-0.835979180186328 
2453	-1.11464708486145 
2454	-0.781956821992965 
2455	-0.591153080138569 
2456	-0.128442001179819 
2457	 6.63310037201859E-02 
2458	 0.057516585104821 
2459	 0.208048750977601 
2460	 0.292231466915206 
2461	 0.238449720522689 
2462	 0.162317891750674 
2463	-2.82676909239324E-02 
2464	-0.259436120806644 
2465	-0.186287054099014 
2466	-9.17525344924116E-02 
2467	-0.169610744867448 
2468	-0.291867735726549 
2469	-1.90325111203895 
2470	-4.43044479350676 
2471	 3.27528510019048E-02 
2472	 0.648951717161312 
2473	 0.29933200055302 
2474	 9.27197429634626E-02 
2475	-2.55916246512338E-02 
2476	 9.15384067047556E-03 
2477	 3.69433464193853E-02 
2478	 0.537550487282758 
2479	-0.131881442364904 
2480	-0.757246783250656 
2481	-0.979496389477404 
2482	-1.26833487811717 
2483	-0.792854836551401 
2484	 3.55963423428612 
2485	-0.142503656708233 
2486	-5.60607174324596 
2487	 0.243027938392402 
2488	 0.82211697507057 
2489	 1.44703127311073 
2490	 5.57917839299154E-02 
2491	-0.248492982028774 
2492	 0.150908902193259 
2493	 6.18147385397899 
2494	-2.07498760885791 
2495	-7.49766274323752 
2496	 0.8316025226046 
2497	 0.765065061276998 
2498	-0.244927683008248 
2499	-0.710359947128067 
2500	 303.108698128165 
