Wavelength	rt0711a00004.asd
350	 0.119765632968332 
351	 0.120185984844721 
352	 0.121227883648211 
353	 0.122580729536851 
354	 0.123717059047758 
355	 0.123864981843695 
356	 0.124338404332899 
357	 0.125434919240036 
358	 0.12688945325972 
359	 0.127756128013638 
360	 0.12830132147279 
361	 0.128816366850569 
362	 0.129566838347889 
363	 0.130866639376206 
364	 0.131454594452947 
365	 0.131305548547093 
366	 0.13248464762031 
367	 0.133197865419558 
368	 0.133720397600277 
369	 0.134626850746807 
370	 0.135652594087665 
371	 0.136111375502433 
372	 0.136274664288964 
373	 0.136928718729347 
374	 0.13788860372063 
375	 0.138763696893163 
376	 0.139296146687095 
377	 0.139464621363706 
378	 0.140002314806242 
379	 0.140845131494684 
380	 0.141654606160357 
381	 0.141933476354932 
382	 0.142426227794343 
383	 0.142960391431246 
384	 0.143077015806151 
385	 0.143616308040944 
386	 0.144406940469537 
387	 0.145191132251914 
388	 0.145728283694646 
389	 0.145727979523351 
390	 0.14580831730545 
391	 0.146288007854696 
392	 0.146354976162241 
393	 0.146411087954944 
394	 0.146638647923786 
395	 0.147054132035587 
396	 0.147338533457103 
397	 0.147462350644458 
398	 0.147551712874623 
399	 0.147811974911154 
400	 0.147705036065987 
401	 0.147692979212986 
402	 0.147963576070185 
403	 0.147755523352155 
404	 0.147609274446462 
405	 0.147608650250923 
406	 0.147656607502438 
407	 0.147658854817035 
408	 0.14765769166687 
409	 0.14769253645079 
410	 0.147779145663358 
411	 0.147650172141106 
412	 0.1474943022872 
413	 0.147468927287654 
414	 0.147472233889059 
415	 0.147362216182579 
416	 0.147243573174619 
417	 0.147277981029321 
418	 0.147288934628383 
419	 0.147258677759699 
420	 0.147197649797173 
421	 0.147136671019312 
422	 0.147268534407204 
423	 0.147412120706957 
424	 0.147433087620392 
425	 0.147532955335498 
426	 0.147788264913647 
427	 0.148127735213504 
428	 0.148419934866035 
429	 0.148723936187724 
430	 0.149102200759488 
431	 0.149539652642553 
432	 0.14993572288405 
433	 0.150416380284549 
434	 0.150843272394633 
435	 0.15111350999233 
436	 0.151382600625143 
437	 0.151657622216869 
438	 0.15190939221896 
439	 0.152094565111404 
440	 0.152263940172536 
441	 0.15241049737783 
442	 0.152517362339649 
443	 0.152562236382968 
444	 0.152590303258399 
445	 0.152583727395628 
446	 0.152546052209455 
447	 0.152648407247958 
448	 0.152623091595832 
449	 0.152503967103088 
450	 0.152527606954289 
451	 0.152440536399313 
452	 0.152254549306383 
453	 0.152070603004578 
454	 0.152105795508161 
455	 0.151999001393911 
456	 0.151849038777482 
457	 0.151852985778435 
458	 0.151774254777324 
459	 0.151627421761402 
460	 0.151465892917751 
461	 0.151363860580015 
462	 0.151218103170095 
463	 0.15106677119252 
464	 0.150946921060865 
465	 0.150812635773122 
466	 0.150696422654466 
467	 0.150579084013945 
468	 0.150430924949901 
469	 0.15034302841929 
470	 0.150271461759409 
471	 0.150188285345191 
472	 0.15010509196869 
473	 0.149991812680114 
474	 0.149926485119351 
475	 0.149947494197964 
476	 0.149844898575339 
477	 0.149856334124148 
478	 0.149894272457072 
479	 0.149699734737267 
480	 0.149763523297037 
481	 0.149936132059981 
482	 0.150023848445826 
483	 0.149903581828383 
484	 0.14992830121584 
485	 0.150088363966374 
486	 0.150254861242022 
487	 0.15049741201793 
488	 0.150762003013247 
489	 0.151008344087264 
490	 0.151220264930035 
491	 0.151425372686202 
492	 0.151695211258454 
493	 0.152042908617165 
494	 0.152307008256446 
495	 0.15262785559321 
496	 0.152909132020228 
497	 0.153004900450151 
498	 0.153408449403343 
499	 0.153796380002956 
500	 0.154031529795894 
501	 0.154392537965726 
502	 0.1547290149804 
503	 0.1550530181072 
504	 0.15538533359641 
505	 0.155589338692347 
506	 0.155838342079673 
507	 0.156129472016214 
508	 0.156325660105269 
509	 0.156565134494036 
510	 0.156873597214392 
511	 0.157230208657307 
512	 0.157555728279722 
513	 0.157906168098262 
514	 0.158299517133096 
515	 0.15872704429774 
516	 0.159104700116782 
517	 0.159649733322255 
518	 0.160360152938973 
519	 0.160943402940919 
520	 0.161601233895903 
521	 0.162290845654259 
522	 0.16298987961055 
523	 0.163935454570212 
524	 0.164827134817915 
525	 0.165687332923408 
526	 0.166759025298597 
527	 0.167930318964029 
528	 0.169099628646412 
529	 0.170253165440976 
530	 0.171550319192065 
531	 0.172932660287246 
532	 0.174394631789759 
533	 0.175933482654104 
534	 0.177515230851843 
535	 0.179159378353883 
536	 0.180870986354086 
537	 0.18262499156246 
538	 0.184394472305053 
539	 0.186251875279181 
540	 0.188221001601419 
541	 0.190106468515448 
542	 0.19194936756143 
543	 0.19377119775849 
544	 0.195582256372415 
545	 0.197318250154191 
546	 0.199001838733968 
547	 0.200670879859288 
548	 0.202385049136557 
549	 0.203970987524522 
550	 0.205448898223643 
551	 0.206907596533023 
552	 0.208348585201947 
553	 0.209754396837313 
554	 0.211115998099878 
555	 0.212428165524835 
556	 0.213726152477735 
557	 0.215067431085028 
558	 0.216465954435081 
559	 0.217831496590171 
560	 0.219267331083016 
561	 0.220764166603412 
562	 0.222247431067622 
563	 0.2236531117409 
564	 0.225087948014093 
565	 0.226583121954061 
566	 0.227990066039296 
567	 0.229325251168456 
568	 0.230622309342502 
569	 0.231887430280949 
570	 0.232932743798975 
571	 0.23387602604556 
572	 0.234748598983308 
573	 0.235471310435392 
574	 0.236282682852912 
575	 0.237121124752554 
576	 0.237882593986947 
577	 0.238597337400388 
578	 0.239252159175681 
579	 0.239879852015385 
580	 0.240527410151812 
581	 0.24108655212404 
582	 0.241554658180684 
583	 0.241976226985245 
584	 0.242447861386346 
585	 0.242960289443757 
586	 0.243515484101699 
587	 0.244099339280339 
588	 0.244585115961865 
589	 0.245038206487277 
590	 0.245439298692567 
591	 0.245702331400288 
592	 0.245857874546293 
593	 0.246019659900884 
594	 0.246220284352104 
595	 0.246212740182855 
596	 0.246185491774792 
597	 0.246145367741449 
598	 0.246004637617812 
599	 0.245821996292256 
600	 0.245731659860009 
601	 0.245796539206413 
602	 0.245949442669134 
603	 0.246112801763852 
604	 0.24626155056187 
605	 0.246404854719249 
606	 0.246590461396059 
607	 0.246859131925119 
608	 0.247172088031837 
609	 0.24741063675397 
610	 0.247580821325786 
611	 0.247778958479375 
612	 0.248048765311207 
613	 0.248211077874996 
614	 0.24841711987346 
615	 0.248677781343454 
616	 0.248920430052309 
617	 0.249126706274966 
618	 0.249363549005637 
619	 0.249621341188902 
620	 0.24974228958659 
621	 0.249890988689877 
622	 0.250127966792321 
623	 0.250450163688169 
624	 0.250750988240419 
625	 0.250946807190977 
626	 0.251127914299135 
627	 0.251520222188759 
628	 0.251705687996823 
629	 0.251798159310928 
630	 0.251937910694321 
631	 0.252023992886479 
632	 0.252225730780429 
633	 0.252460909400638 
634	 0.25256554586358 
635	 0.252766978860305 
636	 0.252979211564662 
637	 0.253147323245168 
638	 0.253304381727121 
639	 0.253495472216214 
640	 0.253686954879975 
641	 0.25384090450515 
642	 0.254018546382459 
643	 0.254164072850408 
644	 0.254319127641299 
645	 0.254593030159259 
646	 0.254856188505245 
647	 0.255009101034928 
648	 0.255021921737961 
649	 0.254987406436184 
650	 0.255086982597937 
651	 0.255145118394733 
652	 0.254916757388513 
653	 0.254733277412597 
654	 0.254574174818778 
655	 0.254332613934513 
656	 0.253865677247244 
657	 0.253475902580854 
658	 0.253163496921262 
659	 0.25284806517336 
660	 0.252458345451595 
661	 0.252119089275029 
662	 0.251816288814148 
663	 0.251471441337214 
664	 0.251256121529944 
665	 0.25101473049609 
666	 0.25070585130405 
667	 0.250575818291949 
668	 0.250393758036919 
669	 0.250222218178459 
670	 0.250172285151784 
671	 0.250082244063962 
672	 0.250051831493558 
673	 0.250088941191846 
674	 0.250117938815018 
675	 0.250386126786199 
676	 0.250596801795924 
677	 0.250627014940007 
678	 0.251059244074286 
679	 0.251473071026567 
680	 0.251853412945987 
681	 0.25233624717429 
682	 0.252753685161307 
683	 0.253205220717174 
684	 0.253786372193077 
685	 0.254626317143148 
686	 0.255453626924317 
687	 0.256113853717313 
688	 0.256559864928105 
689	 0.256976363926568 
690	 0.257238243090958 
691	 0.257464732709466 
692	 0.257873771752293 
693	 0.258072936353928 
694	 0.257981641799429 
695	 0.257694484970642 
696	 0.257441601091302 
697	 0.257348114064094 
698	 0.257299715874304 
699	 0.257115243096856 
700	 0.25675313003929 
701	 0.256277929048996 
702	 0.25575404881147 
703	 0.255218773030299 
704	 0.254692769498248 
705	 0.254030889615359 
706	 0.253214934205391 
707	 0.252522285873406 
708	 0.251723555912091 
709	 0.250743332730976 
710	 0.249593281095801 
711	 0.248429628136906 
712	 0.24721413948997 
713	 0.24594864579767 
714	 0.244665578099461 
715	 0.243681494588714 
716	 0.242679830924035 
717	 0.241281807318777 
718	 0.239462209774935 
719	 0.23735123170662 
720	 0.235407555191333 
721	 0.233677932846926 
722	 0.232152430296187 
723	 0.230473354168588 
724	 0.228590302236967 
725	 0.226452036305925 
726	 0.224186768686921 
727	 0.221690790316814 
728	 0.218931830665475 
729	 0.216153051314388 
730	 0.212926066971643 
731	 0.209550381317248 
732	 0.206518702887309 
733	 0.204156919682615 
734	 0.202120700851081 
735	 0.200289316469878 
736	 0.198850562028643 
737	 0.197589520905051 
738	 0.196602968145931 
739	 0.195971784013484 
740	 0.195441195035494 
741	 0.195026295989362 
742	 0.194703566137621 
743	 0.194444972839228 
744	 0.194385115556305 
745	 0.194355198597434 
746	 0.194267842511296 
747	 0.194185092621541 
748	 0.194227171377342 
749	 0.194269779543124 
750	 0.194205447447153 
751	 0.194207903143051 
752	 0.19417093917157 
753	 0.194137809417163 
754	 0.194214913067097 
755	 0.194300084863475 
756	 0.194424693919951 
757	 0.194665615062965 
758	 0.195282856256807 
759	 0.196551188933747 
760	 0.197926625160238 
761	 0.197949578061736 
762	 0.198082002077807 
763	 0.197637032617838 
764	 0.197008993843063 
765	 0.196708764900259 
766	 0.196412135896687 
767	 0.196245383842975 
768	 0.196229508174904 
769	 0.196287775766932 
770	 0.196536684808722 
771	 0.196858421743415 
772	 0.197152769980452 
773	 0.197506518980339 
774	 0.197842692445485 
775	 0.19816804139937 
776	 0.198534815877924 
777	 0.199005310650792 
778	 0.199422322229129 
779	 0.199796571280962 
780	 0.200314810687805 
781	 0.200838996166732 
782	 0.201373902905038 
783	 0.201939630054643 
784	 0.20253793809614 
785	 0.203131166726085 
786	 0.203771017504445 
787	 0.204503900514133 
788	 0.205199491228138 
789	 0.205832316631141 
790	 0.206367478334671 
791	 0.206794780349004 
792	 0.207342189654975 
793	 0.207987527473467 
794	 0.208641880321192 
795	 0.209159961856487 
796	 0.209793979159192 
797	 0.210356481132943 
798	 0.210697574605354 
799	 0.211145736838805 
800	 0.21163454253063 
801	 0.212091787256706 
802	 0.212444504686937 
803	 0.212632116548144 
804	 0.21271480948417 
805	 0.212805136144071 
806	 0.213036763798181 
807	 0.213042458318747 
808	 0.213029232203986 
809	 0.213156548391263 
810	 0.21316805843929 
811	 0.213111909429489 
812	 0.213047865330599 
813	 0.212996218312567 
814	 0.212705003804612 
815	 0.212134382545244 
816	 0.211362633860857 
817	 0.210529735438575 
818	 0.209507148060343 
819	 0.208590466924478 
820	 0.207722869134957 
821	 0.206426987944625 
822	 0.204593759408222 
823	 0.202659212140982 
824	 0.200935862867712 
825	 0.198943639402838 
826	 0.196454615451776 
827	 0.193694724425201 
828	 0.191187209018233 
829	 0.188780697685036 
830	 0.186368213009728 
831	 0.184087263340297 
832	 0.18226871241885 
833	 0.180769265861636 
834	 0.179407357067793 
835	 0.178194594772632 
836	 0.177407214784044 
837	 0.176800217408453 
838	 0.176132083478817 
839	 0.175308763136364 
840	 0.174555157079507 
841	 0.174135479481847 
842	 0.173752694752146 
843	 0.173071620440329 
844	 0.172687336001814 
845	 0.17227516790491 
846	 0.171746262362859 
847	 0.171221995855866 
848	 0.170941190545576 
849	 0.170541843399957 
850	 0.169978360359486 
851	 0.169670463272681 
852	 0.169404925239544 
853	 0.169009249601864 
854	 0.168504065144793 
855	 0.168276107982503 
856	 0.167970716037688 
857	 0.167637019100464 
858	 0.167381367345857 
859	 0.167112051284167 
860	 0.166715506962311 
861	 0.166286780969436 
862	 0.165972442243066 
863	 0.165535959040944 
864	 0.165111721181357 
865	 0.164768078470968 
866	 0.164467309563588 
867	 0.164029512709847 
868	 0.16354241958835 
869	 0.163093453735381 
870	 0.162714738052312 
871	 0.162348836100599 
872	 0.161909387097314 
873	 0.161363937702928 
874	 0.160785128219029 
875	 0.160548140101366 
876	 0.160317796433187 
877	 0.159664935813132 
878	 0.158637716434599 
879	 0.158176805405159 
880	 0.157974256053672 
881	 0.157292438871898 
882	 0.156794581944638 
883	 0.156409779603539 
884	 0.156050410528939 
885	 0.155627427177057 
886	 0.154933306287367 
887	 0.154354465817473 
888	 0.153983569737755 
889	 0.153525574711533 
890	 0.153214227393633 
891	 0.153014591275168 
892	 0.152876801610471 
893	 0.152807573528107 
894	 0.152642421425085 
895	 0.152274397304772 
896	 0.151792945768474 
897	 0.151785883250901 
898	 0.151477718757336 
899	 0.150858707424005 
900	 0.150261778559064 
901	 0.150008215555324 
902	 0.149769603714114 
903	 0.149419533845307 
904	 0.148933946723405 
905	 0.148326466177381 
906	 0.147518787028901 
907	 0.146867257036943 
908	 0.146840938214065 
909	 0.146287868212267 
910	 0.14569777271151 
911	 0.145260161504914 
912	 0.144744107752045 
913	 0.143992744290724 
914	 0.142946442224637 
915	 0.141576515971617 
916	 0.139959631377823 
917	 0.139570374379865 
918	 0.139038408871654 
919	 0.137931861509974 
920	 0.137560692543049 
921	 0.136456090211834 
922	 0.13524848655427 
923	 0.134469744858171 
924	 0.133579796178595 
925	 0.133030423268769 
926	 0.132796684077845 
927	 0.132568708965744 
928	 0.131556718499951 
929	 0.13106018065678 
930	 0.130983437738429 
931	 0.130363179227496 
932	 0.128748193470702 
933	 0.126588574205263 
934	 0.127164230280979 
935	 0.131045310342611 
936	 0.127162003492239 
937	 0.124422232861206 
938	 0.124605999982275 
939	 0.126221581673793 
940	 0.126841532007042 
941	 0.12507561799534 
942	 0.123187944582858 
943	 0.124126793713628 
944	 0.122838094869905 
945	 0.121513481878232 
946	 0.120823068187514 
947	 0.120401803103199 
948	 0.122026910724534 
949	 0.121715388629851 
950	 0.119897899157555 
951	 0.119576362397131 
952	 0.119682926137186 
953	 0.119826219021663 
954	 0.119441920705093 
955	 0.118295173396083 
956	 0.118847282777125 
957	 0.118629551352661 
958	 0.117504171171547 
959	 0.117126985055803 
960	 0.117222432220437 
961	 0.117205733851398 
962	 0.117012152431597 
963	 0.116922250617164 
964	 0.116496244848559 
965	 0.116494495650955 
966	 0.116158447262577 
967	 0.114208284369738 
968	 0.114664992597892 
969	 0.114793616611896 
970	 0.1143062673293 
971	 0.115188135943546 
972	 0.115167762757286 
973	 0.114414290241815 
974	 0.113508564976654 
975	 0.113152322019992 
976	 0.113894849168827 
977	 0.114882572585512 
978	 0.114948540049311 
979	 0.113515066865095 
980	 0.114573274633764 
981	 0.114174378799819 
982	 0.112171414908463 
983	 0.111900331609086 
984	 0.113066857254906 
985	 0.11286966604172 
986	 0.112082500313902 
987	 0.113716974233142 
988	 0.11391355703176 
989	 0.113621536381242 
990	 0.11362849578566 
991	 0.113954660875022 
992	 0.112747268915359 
993	 0.113107742156797 
994	 0.114177029263705 
995	 0.112791179590524 
996	 0.1112127398416 
997	 0.112263787603715 
998	 0.113795529001997 
999	 0.112217793472511 
1000	 0.11431145057948 
1001	 9.43232834888326E-02 
1002	 9.37169993551085E-02 
1003	 9.33280123230887E-02 
1004	 9.26404963457391E-02 
1005	 9.22667660023206E-02 
1006	 9.20317090971216E-02 
1007	 9.16700167796478E-02 
1008	 9.17885715021196E-02 
1009	 9.28158323214545E-02 
1010	 0.094924977013011 
1011	 9.64976444438106E-02 
1012	 9.86710038187901E-02 
1013	 9.93882852573055E-02 
1014	 9.96594562358907E-02 
1015	 9.92193047769585E-02 
1016	 9.86470867842333E-02 
1017	 9.73265538364715E-02 
1018	 9.61792021289771E-02 
1019	 9.46449766681116E-02 
1020	 9.35668468336663E-02 
1021	 0.092023957831173 
1022	 9.14951185821185E-02 
1023	 9.16525860315222E-02 
1024	 9.14244414962837E-02 
1025	 9.20139590213235E-02 
1026	 9.18703586165786E-02 
1027	 0.091741355743373 
1028	 9.15468668522399E-02 
1029	 9.11217745634323E-02 
1030	 9.01166334226775E-02 
1031	 9.00311428662906E-02 
1032	 8.96575099914941E-02 
1033	 9.05238214468938E-02 
1034	 0.093674821197889 
1035	 9.42325291280442E-02 
1036	 9.40167348824025E-02 
1037	 9.40330491996926E-02 
1038	 9.16670625411463E-02 
1039	 9.13548514138234E-02 
1040	 0.093652476524289 
1041	 9.46210284682924E-02 
1042	 9.52834895045608E-02 
1043	 9.64336887697388E-02 
1044	 0.096469968967725 
1045	 0.094914187725218 
1046	 9.47952815607241E-02 
1047	 9.50478279406057E-02 
1048	 9.51476052395667E-02 
1049	 0.095214557414701 
1050	 9.59435369510066E-02 
1051	 0.097129021762956 
1052	 9.79924424495358E-02 
1053	 9.98337229538891E-02 
1054	 0.100687158434969 
1055	 0.100318591636082 
1056	 0.100501256008884 
1057	 0.100704952616848 
1058	 0.100394153794958 
1059	 0.101364854389058 
1060	 0.103391754053499 
1061	 0.104426911094844 
1062	 0.10593591721805 
1063	 0.106726613980501 
1064	 0.106549857158097 
1065	 0.106804754238979 
1066	 0.107164003450133 
1067	 0.107379852704648 
1068	 0.107472846052339 
1069	 0.107552768545189 
1070	 0.107683539500627 
1071	 0.107626840026772 
1072	 0.107362809770928 
1073	 0.107209463086512 
1074	 0.106883921976596 
1075	 0.10634902054359 
1076	 0.105964068457788 
1077	 0.105470217332078 
1078	 0.105277029004593 
1079	 0.105308677403153 
1080	 0.10520564306622 
1081	 0.105189003732704 
1082	 0.105183442669172 
1083	 0.105016595903988 
1084	 0.105049322436583 
1085	 0.10522835950765 
1086	 0.105542323835228 
1087	 0.10608038464887 
1088	 0.106472480052785 
1089	 0.107189323060258 
1090	 0.107462747351941 
1091	 0.107564835983303 
1092	 0.107465552090479 
1093	 0.10731997839534 
1094	 0.106682967621682 
1095	 0.106619937717011 
1096	 0.106772621587139 
1097	 0.106772278917905 
1098	 0.107312599430122 
1099	 0.107188583463614 
1100	 0.10627637852488 
1101	 0.105919804589118 
1102	 0.105775233167542 
1103	 0.105185650236636 
1104	 0.10455839450347 
1105	 0.104068079777669 
1106	 0.102704370372589 
1107	 0.101422052745609 
1108	 0.100201543363251 
1109	 9.91525596609611E-02 
1110	 9.85305883574155E-02 
1111	 9.82168543587316E-02 
1112	 9.80752670879369E-02 
1113	 9.90824511105352E-02 
1114	 9.91233907223153E-02 
1115	 9.84066296699439E-02 
1116	 9.82296999965403E-02 
1117	 9.77743340841889E-02 
1118	 9.79838314367544E-02 
1119	 9.96000918605801E-02 
1120	 0.100648263183951 
1121	 0.102121114888479 
1122	 0.102591257269522 
1123	 0.103109047380567 
1124	 0.103829678045151 
1125	 0.104223469155537 
1126	 0.104513188507727 
1127	 0.104858609493881 
1128	 0.106149370584723 
1129	 0.106657327608524 
1130	 0.107513790437373 
1131	 0.107521759226154 
1132	 0.105845473005741 
1133	 0.106385362861202 
1134	 0.108328367388171 
1135	 0.108872273234063 
1136	 0.109446813668503 
1137	 0.11032469313913 
1138	 0.111010688162836 
1139	 0.110984464177445 
1140	 0.111743991238229 
1141	 0.112805054029781 
1142	 0.112580553879274 
1143	 0.112053124833508 
1144	 0.11192484665013 
1145	 0.110937701159024 
1146	 0.11011502353686 
1147	 0.109255401798762 
1148	 0.108471813332465 
1149	 0.107947801229064 
1150	 0.107858949271437 
1151	 0.108268442533298 
1152	 0.108201844381915 
1153	 0.107999775772514 
1154	 0.108400851511073 
1155	 0.108835973995095 
1156	 0.109171690602942 
1157	 0.11004692894295 
1158	 0.110515163496469 
1159	 0.110358614321943 
1160	 0.111268395596089 
1161	 0.112606415237539 
1162	 0.113358990012427 
1163	 0.114814469028811 
1164	 0.116171766337162 
1165	 0.116378042410202 
1166	 0.117024871713141 
1167	 0.117867579748761 
1168	 0.118637692016915 
1169	 0.119493545508071 
1170	 0.120310819112858 
1171	 0.121268104394677 
1172	 0.122275124600067 
1173	 0.123074598019244 
1174	 0.123888851785203 
1175	 0.124787926445433 
1176	 0.125626201381985 
1177	 0.126511889885621 
1178	 0.127958723023535 
1179	 0.129964042748196 
1180	 0.131762629785259 
1181	 0.132973305625329 
1182	 0.133914141421936 
1183	 0.134928838667579 
1184	 0.13600826020382 
1185	 0.137158424330844 
1186	 0.138355864982458 
1187	 0.139394088382976 
1188	 0.140299382900335 
1189	 0.141392560874985 
1190	 0.142515386155185 
1191	 0.143655834717932 
1192	 0.144856908797798 
1193	 0.146082960412506 
1194	 0.147496935008238 
1195	 0.148719322446213 
1196	 0.149872957447383 
1197	 0.15122142441441 
1198	 0.152207607259955 
1199	 0.153006195469951 
1200	 0.154081215609869 
1201	 0.154882266395584 
1202	 0.155179102815536 
1203	 0.156244603406929 
1204	 0.157088365142371 
1205	 0.157412167740481 
1206	 0.15795247491951 
1207	 0.158767549931824 
1208	 0.159522559720323 
1209	 0.160243353810701 
1210	 0.161167980523454 
1211	 0.161955625571714 
1212	 0.162688263773953 
1213	 0.163839820722557 
1214	 0.165050364209199 
1215	 0.166624773149884 
1216	 0.167664430401364 
1217	 0.168575628671591 
1218	 0.170014881545299 
1219	 0.171277274031671 
1220	 0.172348557662812 
1221	 0.173732564108411 
1222	 0.17468180616697 
1223	 0.175421016942227 
1224	 0.176326779952463 
1225	 0.176971501714534 
1226	 0.177227884359361 
1227	 0.177510570697859 
1228	 0.177876530973334 
1229	 0.178063333136429 
1230	 0.178432222043547 
1231	 0.179086726529899 
1232	 0.179255582611493 
1233	 0.179293330033686 
1234	 0.179535068216645 
1235	 0.179692623008237 
1236	 0.179511666669732 
1237	 0.179508828015713 
1238	 0.179682906398408 
1239	 0.179950342480711 
1240	 0.179799289207649 
1241	 0.179788650540855 
1242	 0.180156217867802 
1243	 0.180443920251899 
1244	 0.180819063253157 
1245	 0.18117467772505 
1246	 0.181416926940514 
1247	 0.18132161155707 
1248	 0.181119391189598 
1249	 0.181346043482243 
1250	 0.181562810761331 
1251	 0.181753836702362 
1252	 0.181993566288257 
1253	 0.182597423882457 
1254	 0.183233126756277 
1255	 0.183723144091832 
1256	 0.184400631654064 
1257	 0.185293585886942 
1258	 0.185972406167111 
1259	 0.186631345768383 
1260	 0.1873321030597 
1261	 0.18804501931656 
1262	 0.188598883704101 
1263	 0.18894330537093 
1264	 0.189718134383788 
1265	 0.19007864434229 
1266	 0.190739149503465 
1267	 0.191714069161511 
1268	 0.192945394178457 
1269	 0.194182031429088 
1270	 0.195260973791955 
1271	 0.196781406268117 
1272	 0.198443684322222 
1273	 0.200255099965725 
1274	 0.202033041162581 
1275	 0.203814775359841 
1276	 0.205301422084378 
1277	 0.20729751807574 
1278	 0.209560774577434 
1279	 0.21196187807679 
1280	 0.214174657629206 
1281	 0.216323571071996 
1282	 0.218478070350252 
1283	 0.220545983989052 
1284	 0.222376053330094 
1285	 0.224368739923324 
1286	 0.226693835039866 
1287	 0.228488557231029 
1288	 0.230144079705765 
1289	 0.231654273516708 
1290	 0.232956075911671 
1291	 0.233865769558632 
1292	 0.234823232613248 
1293	 0.235797805809754 
1294	 0.236260426810199 
1295	 0.236447674631915 
1296	 0.236598382567512 
1297	 0.236902373000436 
1298	 0.236960786384645 
1299	 0.236900016631445 
1300	 0.236749335044425 
1301	 0.236436028989782 
1302	 0.235870982637086 
1303	 0.235538959939856 
1304	 0.235183361337792 
1305	 0.234967396846012 
1306	 0.234500183833125 
1307	 0.234068702642002 
1308	 0.233682594494106 
1309	 0.233050450736949 
1310	 0.232398775065677 
1311	 0.232157633985471 
1312	 0.231498689908107 
1313	 0.230114095764225 
1314	 0.229268448897011 
1315	 0.22849299217834 
1316	 0.227952580746496 
1317	 0.227766651864414 
1318	 0.227539899322985 
1319	 0.22723703242079 
1320	 0.227346682679305 
1321	 0.227549317779368 
1322	 0.228466202880613 
1323	 0.229766084758256 
1324	 0.230662904764178 
1325	 0.231674811314151 
1326	 0.232878952137293 
1327	 0.234395040360337 
1328	 0.236408081072636 
1329	 0.237404818820487 
1330	 0.239666097119345 
1331	 0.24114968722848 
1332	 0.242186130750666 
1333	 0.244723177130007 
1334	 0.246940210995258 
1335	 0.248992115876 
1336	 0.250259509586893 
1337	 0.253038919151538 
1338	 0.256743864978928 
1339	 0.259673923150055 
1340	 0.263709816325498 
1341	 0.267251341382292 
1342	 0.271092417210477 
1343	 0.273295121454888 
1344	 0.275854213724725 
1345	 0.277202517519265 
1346	 0.273459567266444 
1347	 0.27149919174363 
1348	 0.270617739613186 
1349	 0.267248196431734 
1350	 0.254950192675009 
1351	 0.248168279462475 
1352	 0.248827562326451 
1353	 0.235431887850418 
1354	 0.217837398220226 
1355	 0.207346463235353 
1356	 0.194846319126922 
1357	 0.134476731829466 
1358	 0.172417828689247 
1359	 0.212047949153796 
1360	 0.174481271516135 
1361	 0.115051548512305 
1362	 0.151566298972767 
1363	 0.272523938743887 
1364	 0.265755404727106 
1365	 7.93239300911334E-02 
1366	 0.10154947578778 
1367	 0.212221616818166 
1368	 0.198853850857548 
1369	 0.319225618248153 
1370	 0.37856317515252 
1371	 0.230993297294655 
1372	 0.156284483496771 
1373	 0.173121855311759 
1374	 0.225341970481446 
1375	 0.198039043843242 
1376	 6.73914529776442E-02 
1377	 7.79828513067841E-02 
1378	 0.110901841426945 
1379	-1.69105320157011E-02 
1380	-0.125189256930807 
1381	-5.96415470065137E-02 
1382	 5.15618050623512E-03 
1383	-0.188916582141964 
1384	-0.181710259174946 
1385	 0.248407846778841 
1386	 0.293030128473258 
1387	 0.115302564838169 
1388	 0.163453417997899 
1389	 0.327214388210701 
1390	 0.326396290076128 
1391	 0.319679150285911 
1392	 0.551430951729643 
1393	 0.325619533502138 
1394	 5.92840981841791E-02 
1395	 0.152394092918043 
1396	 0.35751008323385 
1397	 0.357290137372601 
1398	 0.252378672128599 
1399	 0.129382216806143 
1400	 0.101586277890138 
1401	 0.159275520276869 
1402	 0.160059116600646 
1403	 0.212725435160433 
1404	 0.216013195720158 
1405	 0.147207293622574 
1406	 4.25368363373456E-02 
1407	 0.130919195932493 
1408	 0.256089890094038 
1409	 0.222838829172574 
1410	 0.233452751421736 
1411	 0.251845237447998 
1412	 0.181564127778374 
1413	 0.174276838276269 
1414	 0.236015913215184 
1415	 0.248388535984296 
1416	 0.22345008683855 
1417	 0.219434350612296 
1418	 0.233873262315652 
1419	 0.232206159406128 
1420	 0.218347847969866 
1421	 0.214695988705238 
1422	 0.214162216005063 
1423	 0.213201848628213 
1424	 0.208580358475577 
1425	 0.212838878755461 
1426	 0.22664547087919 
1427	 0.227853643334059 
1428	 0.222255336147732 
1429	 0.226368760588624 
1430	 0.230208858265968 
1431	 0.232125687675496 
1432	 0.243699672742355 
1433	 0.249140622431317 
1434	 0.246753780204128 
1435	 0.247273695683544 
1436	 0.250702345939693 
1437	 0.24883519485271 
1438	 0.246981882333333 
1439	 0.246790073916445 
1440	 0.245537231822463 
1441	 0.249195372596247 
1442	 0.252714545784742 
1443	 0.252669721683249 
1444	 0.249978394727247 
1445	 0.250841574887262 
1446	 0.253675362161907 
1447	 0.255674840257812 
1448	 0.256426577214588 
1449	 0.257146374811147 
1450	 0.258057435647901 
1451	 0.257946149303217 
1452	 0.260001562619181 
1453	 0.261404131294399 
1454	 0.263216998473889 
1455	 0.264469536455901 
1456	 0.266381325719956 
1457	 0.268597452583505 
1458	 0.271215859978613 
1459	 0.274515604561893 
1460	 0.276860336734419 
1461	 0.280079956820266 
1462	 0.281893454521191 
1463	 0.283040757998815 
1464	 0.284062412298323 
1465	 0.285881877578388 
1466	 0.284754458488479 
1467	 0.281621840889784 
1468	 0.278119833575168 
1469	 0.272132734067976 
1470	 0.266119660928553 
1471	 0.259609719112817 
1472	 0.254127257572333 
1473	 0.248496111040419 
1474	 0.243277003161557 
1475	 0.239865585344272 
1476	 0.235666542897264 
1477	 0.231932334235353 
1478	 0.22686294556892 
1479	 0.221833397490751 
1480	 0.216373858830068 
1481	 0.210403574730998 
1482	 0.204093171912195 
1483	 0.198375009117536 
1484	 0.191774156084368 
1485	 0.185714761071361 
1486	 0.178173985724647 
1487	 0.169229006920388 
1488	 0.162725452891931 
1489	 0.156732456444936 
1490	 0.150938542101699 
1491	 0.146602438694183 
1492	 0.142076425806478 
1493	 0.136974170979512 
1494	 0.132505389962546 
1495	 0.128912085166797 
1496	 0.12478270216688 
1497	 0.120535749131838 
1498	 0.115926321814494 
1499	 0.111173540198245 
1500	 0.105933511729113 
1501	 9.95407755704956E-02 
1502	 9.43129425779687E-02 
1503	 8.88473271084191E-02 
1504	 8.42408577817465E-02 
1505	 8.03489869158663E-02 
1506	 7.68775188700991E-02 
1507	 7.41260015141934E-02 
1508	 7.10277359558862E-02 
1509	 6.79234669995168E-02 
1510	 6.55688711408435E-02 
1511	 0.063300985434486 
1512	 6.10058422189995E-02 
1513	 5.89082283529179E-02 
1514	 5.69456177996343E-02 
1515	 5.49151167386262E-02 
1516	 0.0529326381206 
1517	 0.050943019600259 
1518	 0.049199162664631 
1519	 4.75379887353503E-02 
1520	 4.61439144272183E-02 
1521	 4.52719763924216E-02 
1522	 4.45529583303557E-02 
1523	 4.39790146710136E-02 
1524	 4.34667504791963E-02 
1525	 4.31415142049974E-02 
1526	 4.28014576201452E-02 
1527	 4.26297488941454E-02 
1528	 4.23279532049394E-02 
1529	 4.19779850807135E-02 
1530	 0.04196974570471 
1531	 0.042006190026437 
1532	 4.20554672838946E-02 
1533	 4.22603954737215E-02 
1534	 4.23833361821365E-02 
1535	 4.20374775413468E-02 
1536	 4.16586806379321E-02 
1537	 4.11873805961586E-02 
1538	 4.05954851202144E-02 
1539	 4.01905275245018E-02 
1540	 3.95453327153495E-02 
1541	 3.91365467175307E-02 
1542	 3.88276270050146E-02 
1543	 3.82803117521185E-02 
1544	 3.78096995943232E-02 
1545	 3.77115232640378E-02 
1546	 3.76493110185086E-02 
1547	 3.73049027395604E-02 
1548	 3.71682721934113E-02 
1549	 3.72527664579185E-02 
1550	 3.70050744662958E-02 
1551	 3.68794084277776E-02 
1552	 3.71733081261786E-02 
1553	 0.037145402262733 
1554	 3.69295593994151E-02 
1555	 0.037166293056209 
1556	 3.73432098369275E-02 
1557	 3.70934367434518E-02 
1558	 3.71136042703005E-02 
1559	 3.74001413160144E-02 
1560	 3.76363645483422E-02 
1561	 3.80261016422467E-02 
1562	 3.84154771362229E-02 
1563	 3.86455116932161E-02 
1564	 3.89227418451288E-02 
1565	 3.93543729701027E-02 
1566	 3.98150757395282E-02 
1567	 3.99173449479054E-02 
1568	 4.01105259884998E-02 
1569	 0.040768418516859 
1570	 0.041130321790716 
1571	 4.12602532960311E-02 
1572	 0.041823854918641 
1573	 4.23533281734421E-02 
1574	 0.042657352285338 
1575	 4.32057440872011E-02 
1576	 4.38686723292559E-02 
1577	 4.42649285931865E-02 
1578	 4.46992472346203E-02 
1579	 4.54988166204612E-02 
1580	 4.60911430467939E-02 
1581	 0.046384032673493 
1582	 4.68844085560828E-02 
1583	 4.72768022730412E-02 
1584	 4.79031166705501E-02 
1585	 4.87062689572209E-02 
1586	 4.93546891779826E-02 
1587	 5.01574995973963E-02 
1588	 5.08653794147058E-02 
1589	 5.14391628568634E-02 
1590	 5.22144061670629E-02 
1591	 5.31027146087921E-02 
1592	 5.37676492542238E-02 
1593	 5.43351613988651E-02 
1594	 5.49358099369441E-02 
1595	 5.56753290022619E-02 
1596	 0.056269038197791 
1597	 5.68504564210615E-02 
1598	 5.77020803247361E-02 
1599	 5.83046151976252E-02 
1600	 5.89546581077925E-02 
1601	 0.059759591565514 
1602	 6.04344131784363E-02 
1603	 0.061149809643156 
1604	 6.20339337672018E-02 
1605	 6.33394083451765E-02 
1606	 6.45385050000059E-02 
1607	 6.55992468933248E-02 
1608	 6.69963072820491E-02 
1609	 6.81077281276685E-02 
1610	 6.89259845954862E-02 
1611	 7.02077028994371E-02 
1612	 7.12606916125837E-02 
1613	 7.18263683987549E-02 
1614	 7.28842362990149E-02 
1615	 7.39802283518568E-02 
1616	 7.47150589052335E-02 
1617	 7.57152687661673E-02 
1618	 7.73160357698986E-02 
1619	 7.87342329861423E-02 
1620	 0.079981474574718 
1621	 8.18331278487075E-02 
1622	 8.33839916022925E-02 
1623	 8.46200707269037E-02 
1624	 0.085704758439398 
1625	 8.68621329735088E-02 
1626	 8.82214344560961E-02 
1627	 8.92862101793629E-02 
1628	 9.06616208172211E-02 
1629	 9.24059499472898E-02 
1630	 9.40331567497546E-02 
1631	 0.095743434110757 
1632	 9.76870126910505E-02 
1633	 9.96287265018043E-02 
1634	 0.100904679636301 
1635	 0.102333987690361 
1636	 0.103856798780942 
1637	 0.104614271160029 
1638	 0.105452662524781 
1639	 0.106376345564003 
1640	 0.107556043616542 
1641	 0.108737270318783 
1642	 0.109940145685521 
1643	 0.111300416497876 
1644	 0.112337128484982 
1645	 0.113566838333766 
1646	 0.114733569246366 
1647	 0.115501066153677 
1648	 0.116667347345833 
1649	 0.118295181143087 
1650	 0.119166373989664 
1651	 0.119646738823058 
1652	 0.120226145643986 
1653	 0.120834096963658 
1654	 0.12113748200417 
1655	 0.121601308988483 
1656	 0.121988076189997 
1657	 0.121635652545212 
1658	 0.121761884440466 
1659	 0.122449064463228 
1660	 0.123034155201942 
1661	 0.123427425147305 
1662	 0.124170392445375 
1663	 0.12558309278029 
1664	 0.125883837271292 
1665	 0.125706927418569 
1666	 0.125680959151509 
1667	 0.124985053591633 
1668	 0.125393570469286 
1669	 0.125812340118854 
1670	 0.126050877006229 
1671	 0.126365725183172 
1672	 0.126785344527868 
1673	 0.126858981721748 
1674	 0.127121852153557 
1675	 0.127220694902064 
1676	 0.127082011560402 
1677	 0.127561943975456 
1678	 0.128040337141811 
1679	 0.128515081748187 
1680	 0.129024549436369 
1681	 0.129157714929175 
1682	 0.129421891167403 
1683	 0.130405647852138 
1684	 0.131548371288507 
1685	 0.132490821856779 
1686	 0.133619635373157 
1687	 0.134720771418231 
1688	 0.135855515341337 
1689	 0.137934049403845 
1690	 0.14037221698844 
1691	 0.143082079589039 
1692	 0.145756087333146 
1693	 0.148776914517591 
1694	 0.152724611085341 
1695	 0.155461876388005 
1696	 0.158730296609634 
1697	 0.161595863264714 
1698	 0.163154036109594 
1699	 0.165010407242919 
1700	 0.167610548156285 
1701	 0.167180237099899 
1702	 0.166143271305018 
1703	 0.163056194156954 
1704	 0.157694325679648 
1705	 0.1516124989777 
1706	 0.143611041315833 
1707	 0.135649637568269 
1708	 0.125578386378562 
1709	 0.115951670727754 
1710	 0.106478899011699 
1711	 9.75466320011169E-02 
1712	 8.85527366163048E-02 
1713	 8.08726322137994E-02 
1714	 7.35412672440926E-02 
1715	 6.65616653593429E-02 
1716	 6.12839155140612E-02 
1717	 5.68781675278827E-02 
1718	 5.29374466270369E-02 
1719	 5.00981228132342E-02 
1720	 4.75637310189741E-02 
1721	 0.045332962432152 
1722	 4.35127222743767E-02 
1723	 4.23924438034273E-02 
1724	 4.09916819217037E-02 
1725	 3.97785617841263E-02 
1726	 3.90780890365046E-02 
1727	 3.88256162075094E-02 
1728	 3.80936868658061E-02 
1729	 3.71794354329835E-02 
1730	 3.63987600098868E-02 
1731	 3.54678042674614E-02 
1732	 3.45622543694735E-02 
1733	 3.36443525074121E-02 
1734	 3.27458613941209E-02 
1735	 3.19572047229885E-02 
1736	 3.13209684279379E-02 
1737	 3.14259815596059E-02 
1738	 3.13164518407439E-02 
1739	 3.03111267634671E-02 
1740	 2.96419842495445E-02 
1741	 2.93248776851353E-02 
1742	 2.93719517323155E-02 
1743	 3.01192621435496E-02 
1744	 3.03943984191333E-02 
1745	 0.030018595784715 
1746	 2.96270976986074E-02 
1747	 2.96061277518931E-02 
1748	 2.99184384848402E-02 
1749	 3.00491368085253E-02 
1750	 3.03645086445439E-02 
1751	 3.04111355572391E-02 
1752	 3.03917302999637E-02 
1753	 3.01141883006195E-02 
1754	 2.90752895397822E-02 
1755	 2.89269558453673E-02 
1756	 2.91973824901943E-02 
1757	 2.92988509405215E-02 
1758	 3.00481845968967E-02 
1759	 2.95054824534576E-02 
1760	 2.81249076051333E-02 
1761	 2.81665305307112E-02 
1762	 2.85051515236566E-02 
1763	 2.89279917231115E-02 
1764	 3.03811333841199E-02 
1765	 3.05275495540778E-02 
1766	 2.89409853735168E-02 
1767	 2.77483992997067E-02 
1768	 2.74150314485857E-02 
1769	 2.82688733034852E-02 
1770	 2.95910964465961E-02 
1771	 2.97576823575441E-02 
1772	 2.87717792166125E-02 
1773	 2.76224601605619E-02 
1774	 2.67608049141574E-02 
1775	 2.80347648577479E-02 
1776	 2.87353822286016E-02 
1777	 2.95355398540459E-02 
1778	 2.95165527957102E-02 
1779	 2.87584355298168E-02 
1780	 2.80549066572129E-02 
1781	 2.58805999275646E-02 
1782	 2.55458586183062E-02 
1783	 2.73133615596492E-02 
1784	 2.74168887514473E-02 
1785	 2.74721792549756E-02 
1786	 2.74200490329136E-02 
1787	 2.57419230532634E-02 
1788	 2.53234357604409E-02 
1789	 2.63307991114091E-02 
1790	 0.027384646506355 
1791	 2.71916809545749E-02 
1792	 2.77907460260189E-02 
1793	 2.84376104805209E-02 
1794	 2.54476998330656E-02 
1795	 0.024181934729884 
1796	 0.027079697327667 
1797	 2.62303918090948E-02 
1798	 2.59374968183034E-02 
1799	 2.91785413372598E-02 
1800	 3.07875350817322E-02 
1801	 3.08745069832151E-02 
1802	 3.29215350603209E-02 
1803	 3.43377437757517E-02 
1804	 0.025192963519983 
1805	 2.53082562146595E-02 
1806	 4.95867025942927E-02 
1807	 5.57282982100983E-02 
1808	 4.51265869661153E-02 
1809	 4.34006118973977E-02 
1810	 1.71494694035188E-02 
1811	 3.40828101698028E-03 
1812	 2.20406800993334E-02 
1813	 3.31517404775193E-02 
1814	 4.56114990866235E-02 
1815	 4.75219056748996E-02 
1816	 7.00159513739357E-02 
1817	 5.52720973346563E-02 
1818	-1.09619905033293E-02 
1819	-4.76570468932815E-03 
1820	-0.279024704235648 
1821	-0.671904802520641 
1822	-0.69356400855452 
1823	-8.11404997328825E-03 
1824	 0.298054749218072 
1825	 1.06038458607864 
1826	 1.1512247229085 
1827	 0.453942614049488 
1828	 0.223216502486831 
1829	-0.312896563761287 
1830	-0.622320243687013 
1831	-0.184182882238774 
1832	-0.223934879241138 
1833	-0.899824609874217 
1834	-1.46320633779812 
1835	-0.322377406872835 
1836	-0.616261817164588 
1837	-12.6919453578711 
1838	 4.82814804459674 
1839	 1.09169363195972 
1840	-5.63660136246136E-02 
1841	-0.424038778429236 
1842	 0.492882204485441 
1843	 2.41813468392177 
1844	-11.7256941743205 
1845	-25.0055252864216 
1846	 2.00084713391305 
1847	 3.06171933749224 
1848	-3.21552447804618 
1849	-0.856043109241014 
1850	-1.44052977198014 
1851	-1.35451899786443 
1852	 0.30582571355154 
1853	-0.162415116459044 
1854	-0.318356778606432 
1855	-0.892332620553459 
1856	-0.891341502265024 
1857	-0.236032240672278 
1858	-9.31572649070969E-02 
1859	-0.183767790305535 
1860	 0.808292826764389 
1861	 5.23250286811156 
1862	 3.59621318727864 
1863	 18.7830092756454 
1864	 4.16369630189959 
1865	 2.39625555527497 
1866	 0.799215444623905 
1867	 0.426398096262913 
1868	 0.1195982438637 
1869	-0.119142250529479 
1870	-0.451718013037344 
1871	-1.55332743226553 
1872	-1.21890208373117 
1873	-1.76949326653088 
1874	 0.476335809419097 
1875	 17.0153859786572 
1876	 23.5693758775095 
1877	-1.50803034255836 
1878	-2.02885040345676 
1879	 7.06593968679647 
1880	-13.7578567255724 
1881	-0.207381758354863 
1882	 0.681195384439532 
1883	 2.1619223682983 
1884	 2.31720100263229 
1885	 1.33111473446628 
1886	 1.21882362769214 
1887	 1.01449206910877 
1888	 0.614234528276286 
1889	 0.442003322302911 
1890	 0.747046671371969 
1891	 0.802666537108453 
1892	 0.490744001557853 
1893	 0.351848752281994 
1894	 0.432799580914221 
1895	 0.648311232901508 
1896	 0.688671241423288 
1897	 1.02908194351235 
1898	 1.03489739881324 
1899	 1.47830331167117 
1900	 2.43390776849702 
1901	-1.0396375150236 
1902	-1.10866859447003 
1903	 0.781775199246819 
1904	-0.557217744588353 
1905	-1.949722465013 
1906	-0.528609604067615 
1907	-1.35549030913067 
1908	 11.7320315403031 
1909	 0.793011732017117 
1910	 0.679374995666073 
1911	 0.773675792207656 
1912	 0.847057505972789 
1913	 0.855089670934741 
1914	-0.115254485195699 
1915	 0.406682517725173 
1916	 0.459281858923346 
1917	 0.908159460834769 
1918	 0.997845482041744 
1919	-3.28319722954626E-02 
1920	-0.284567512061156 
1921	 6.72559777396388E-02 
1922	 0.361607863033457 
1923	 0.40999648543264 
1924	-0.742756825880961 
1925	 2.89549869066983 
1926	 3.68251385087656 
1927	 62.3299516839259 
1928	-2.56801039400291 
1929	-0.571125034050873 
1930	-0.170173719129826 
1931	 0.107808423874052 
1932	 0.319341982608816 
1933	 0.166210738176186 
1934	 0.179817780420407 
1935	 0.298655185301277 
1936	 0.284043069343206 
1937	 0.243418948989432 
1938	 0.230020306489312 
1939	 0.232946337995757 
1940	 0.207972213586985 
1941	 0.221009960810886 
1942	 0.226128873272055 
1943	 0.215294452753748 
1944	 0.205150052627852 
1945	 0.186254165633042 
1946	 0.186005624027722 
1947	 0.197811592896506 
1948	 0.179711069845421 
1949	 0.156406429380294 
1950	 0.153497523699776 
1951	 0.161188109124149 
1952	 0.171916748015917 
1953	 0.1925918120706 
1954	 0.212111573037598 
1955	 0.232090641294125 
1956	 0.227440118286565 
1957	 0.213327399414265 
1958	 0.215965437786717 
1959	 0.225465231376772 
1960	 0.224510280514851 
1961	 0.22546501343148 
1962	 0.228702166530341 
1963	 0.221366665418535 
1964	 0.216609115460269 
1965	 0.217913484198417 
1966	 0.219951557631472 
1967	 0.222362197769176 
1968	 0.224013917803165 
1969	 0.227224089610981 
1970	 0.229666998752664 
1971	 0.230318433000087 
1972	 0.231606719508381 
1973	 0.233855417146988 
1974	 0.234880529668625 
1975	 0.235428872561016 
1976	 0.234900494759339 
1977	 0.234614266323902 
1978	 0.235024814503551 
1979	 0.234632798769338 
1980	 0.234066748409751 
1981	 0.233639081413211 
1982	 0.233038766770955 
1983	 0.233133869857062 
1984	 0.235080328531218 
1985	 0.235909713775927 
1986	 0.236350877056623 
1987	 0.23687918109107 
1988	 0.236207040213471 
1989	 0.236373102824657 
1990	 0.237825510404732 
1991	 0.237700763635394 
1992	 0.238262602494187 
1993	 0.238830859456345 
1994	 0.238998441693564 
1995	 0.238632005570093 
1996	 0.239733249840353 
1997	 0.238608101749 
1998	 0.238678323712499 
1999	 0.239434960918902 
2000	 0.241596343208188 
2001	 0.242348052000959 
2002	 0.242775936776231 
2003	 0.243019116251095 
2004	 0.243401857337589 
2005	 0.243404481136078 
2006	 0.242646727441863 
2007	 0.242651043428681 
2008	 0.243115052291035 
2009	 0.245564521839768 
2010	 0.252406989871903 
2011	 0.255709900649875 
2012	 0.25830234822786 
2013	 0.261202605618124 
2014	 0.262453359821609 
2015	 0.262721905886209 
2016	 0.26359300037124 
2017	 0.265179304417982 
2018	 0.264020151255538 
2019	 0.264313301536055 
2020	 0.267789699451632 
2021	 0.26905041080486 
2022	 0.270480422546203 
2023	 0.272854632373342 
2024	 0.274842490466638 
2025	 0.276425254409041 
2026	 0.277326735978699 
2027	 0.280702503725159 
2028	 0.277617715354686 
2029	 0.273296328254742 
2030	 0.268945611865057 
2031	 0.260675665788916 
2032	 0.255765767500419 
2033	 0.250974195387894 
2034	 0.246898149283191 
2035	 0.244083364572141 
2036	 0.241126455900064 
2037	 0.238677855718082 
2038	 0.237642945185509 
2039	 0.237043151625861 
2040	 0.236878639571353 
2041	 0.23776390759603 
2042	 0.239924111872722 
2043	 0.241815845786215 
2044	 0.244122601547246 
2045	 0.247058555238991 
2046	 0.250540720855593 
2047	 0.254944209516668 
2048	 0.259898678130879 
2049	 0.265527518037897 
2050	 0.271628297838122 
2051	 0.277649268056173 
2052	 0.283811185093321 
2053	 0.289022515084859 
2054	 0.292967638335351 
2055	 0.296634179544269 
2056	 0.299133704936241 
2057	 0.299977339835001 
2058	 0.300878983358311 
2059	 0.30128536498764 
2060	 0.300224930515683 
2061	 0.297682562951674 
2062	 0.29607043104971 
2063	 0.294620157450155 
2064	 0.292713748466057 
2065	 0.291598107613785 
2066	 0.291154544836064 
2067	 0.288636487164911 
2068	 0.285606876012268 
2069	 0.281696581520759 
2070	 0.276050789020544 
2071	 0.271427612581176 
2072	 0.267057581146012 
2073	 0.26256856239322 
2074	 0.259201236309203 
2075	 0.254715773396817 
2076	 0.248756333685856 
2077	 0.244437734584463 
2078	 0.240553691842545 
2079	 0.236635197398981 
2080	 0.232893505245825 
2081	 0.23003981102002 
2082	 0.227431123546354 
2083	 0.225909517233017 
2084	 0.225002990444943 
2085	 0.224067499350725 
2086	 0.222476958241312 
2087	 0.219896976475039 
2088	 0.21890099185325 
2089	 0.218801288659867 
2090	 0.218110404623546 
2091	 0.218431780330491 
2092	 0.218679513906476 
2093	 0.218902960983963 
2094	 0.21896232775259 
2095	 0.219456276505817 
2096	 0.219521124847101 
2097	 0.219092156027736 
2098	 0.218555650857839 
2099	 0.217868876613864 
2100	 0.217510130249777 
2101	 0.216208573020943 
2102	 0.21536440088886 
2103	 0.21475698942207 
2104	 0.214008403529315 
2105	 0.213845340705608 
2106	 0.213152734153674 
2107	 0.212669598257099 
2108	 0.213185989846155 
2109	 0.21233521945864 
2110	 0.211669137019354 
2111	 0.211983634758923 
2112	 0.211387184679555 
2113	 0.21095137131366 
2114	 0.211101419097768 
2115	 0.211027387306662 
2116	 0.210225535245097 
2117	 0.210011462930047 
2118	 0.210373674458561 
2119	 0.210742179346992 
2120	 0.211501091751763 
2121	 0.211639057762704 
2122	 0.21076647409394 
2123	 0.210994463623661 
2124	 0.211558939420385 
2125	 0.211431816381898 
2126	 0.212154666262968 
2127	 0.212865834025327 
2128	 0.212585787252118 
2129	 0.212078934414727 
2130	 0.211265488195747 
2131	 0.210759309082402 
2132	 0.20989041341962 
2133	 0.208859796223298 
2134	 0.208315494176809 
2135	 0.207863119646956 
2136	 0.207935366451577 
2137	 0.208692204306499 
2138	 0.209195989818213 
2139	 0.210173126318928 
2140	 0.211024014345161 
2141	 0.211612867494004 
2142	 0.212292907196064 
2143	 0.213089298941144 
2144	 0.213858694219391 
2145	 0.215310843987032 
2146	 0.216377366246401 
2147	 0.217267268664713 
2148	 0.219273347370443 
2149	 0.221379108118944 
2150	 0.223358607602384 
2151	 0.226100413261337 
2152	 0.227948385054623 
2153	 0.228081338196103 
2154	 0.228447553473569 
2155	 0.229317903769968 
2156	 0.229798758566072 
2157	 0.231013256672348 
2158	 0.23366524219141 
2159	 0.234498132295397 
2160	 0.234706110507887 
2161	 0.23530586550709 
2162	 0.234988951013769 
2163	 0.235438687829579 
2164	 0.236755935181566 
2165	 0.237315361330168 
2166	 0.237256117909412 
2167	 0.23772692277076 
2168	 0.237929326839435 
2169	 0.238613833031529 
2170	 0.240021697984291 
2171	 0.241447111152033 
2172	 0.242127598055873 
2173	 0.242976102609475 
2174	 0.242996578379265 
2175	 0.24318446132455 
2176	 0.243054896660796 
2177	 0.243630044271095 
2178	 0.245305739470121 
2179	 0.246166399291863 
2180	 0.247843477379674 
2181	 0.250886908536401 
2182	 0.253774339687874 
2183	 0.256966288518473 
2184	 0.259431751167815 
2185	 0.259878972846925 
2186	 0.261092391836679 
2187	 0.261283136797381 
2188	 0.261853852718212 
2189	 0.263254971269821 
2190	 0.264001884197571 
2191	 0.263691220226059 
2192	 0.263855975102491 
2193	 0.264925673491901 
2194	 0.264976483294189 
2195	 0.26448795102755 
2196	 0.264074321373414 
2197	 0.263035362785023 
2198	 0.261499277686102 
2199	 0.259858320272669 
2200	 0.257947621840632 
2201	 0.254071736949182 
2202	 0.250371155988422 
2203	 0.24563987835461 
2204	 0.24190190054021 
2205	 0.239418996598912 
2206	 0.235670270522658 
2207	 0.232854636580851 
2208	 0.228950622994295 
2209	 0.224202364263197 
2210	 0.220233631299268 
2211	 0.215543656747914 
2212	 0.210365133873135 
2213	 0.205971607358665 
2214	 0.202821004229433 
2215	 0.200005389440215 
2216	 0.198257444307823 
2217	 0.196096141116324 
2218	 0.193643818529684 
2219	 0.191287882053098 
2220	 0.189609758512124 
2221	 0.186437615101793 
2222	 0.182095937479267 
2223	 0.179101302704431 
2224	 0.176320296964453 
2225	 0.173043669628072 
2226	 0.170595840620354 
2227	 0.167016415767786 
2228	 0.161257075836216 
2229	 0.157506370190771 
2230	 0.155498117736833 
2231	 0.151976458874157 
2232	 0.149143359604753 
2233	 0.144637966837618 
2234	 0.1382544131562 
2235	 0.13105815466674 
2236	 0.126700008481063 
2237	 0.120509141258169 
2238	 0.113586957459528 
2239	 0.108758182144957 
2240	 0.101131018423515 
2241	 9.49305762674483E-02 
2242	 8.99807595159183E-02 
2243	 0.085709142245749 
2244	 8.33027391121026E-02 
2245	 7.97253236381061E-02 
2246	 7.54208557169273E-02 
2247	 6.90782635951524E-02 
2248	 6.25330075471328E-02 
2249	 5.80093215835149E-02 
2250	 5.29915305579893E-02 
2251	 5.10326142180078E-02 
2252	 4.98326267565601E-02 
2253	 4.57744820013609E-02 
2254	 4.49784398321958E-02 
2255	 4.62356292900798E-02 
2256	 4.62845079455523E-02 
2257	 4.59638692110444E-02 
2258	 4.43123386700492E-02 
2259	 4.21468720817561E-02 
2260	 4.09595414075704E-02 
2261	 3.91488121301573E-02 
2262	 3.89658779894404E-02 
2263	 4.13873943145485E-02 
2264	 4.16070287821046E-02 
2265	 4.24610651840169E-02 
2266	 4.19307009201087E-02 
2267	 3.80063006433115E-02 
2268	 3.72773902045408E-02 
2269	 3.79379018386092E-02 
2270	 0.03692249943658 
2271	 3.74332005800701E-02 
2272	 3.71398724700359E-02 
2273	 3.39540098985547E-02 
2274	 3.32604663301333E-02 
2275	 3.50442669305672E-02 
2276	 3.52063970368422E-02 
2277	 3.55556689988932E-02 
2278	 3.42961607547445E-02 
2279	 3.00191216386644E-02 
2280	 2.89371489944438E-02 
2281	 2.75573846564521E-02 
2282	 3.01571906546151E-02 
2283	 3.21746743787584E-02 
2284	 3.19779170864684E-02 
2285	 3.55949645216546E-02 
2286	 3.56541130677979E-02 
2287	 3.26586309529834E-02 
2288	 3.61057275462095E-02 
2289	 3.37606271036874E-02 
2290	 2.94522400952805E-02 
2291	 3.29043283307238E-02 
2292	 3.22494551010753E-02 
2293	 0.030005296590463 
2294	 3.13794590534798E-02 
2295	 3.23262104496192E-02 
2296	 3.32976702681067E-02 
2297	 3.46651496203397E-02 
2298	 3.31204638110307E-02 
2299	 3.08444632459613E-02 
2300	 3.23256463521179E-02 
2301	 3.27828763391044E-02 
2302	 3.33239497601175E-02 
2303	 3.65198063098564E-02 
2304	 3.54969838266807E-02 
2305	 3.24154963827228E-02 
2306	 3.21137776813478E-02 
2307	 3.06992482278786E-02 
2308	 2.93938623367369E-02 
2309	 3.25188904337458E-02 
2310	 3.38474984234678E-02 
2311	 3.20119458708851E-02 
2312	 3.24911738109385E-02 
2313	 3.04967537453677E-02 
2314	 0.030161103473581 
2315	 3.36431910902713E-02 
2316	 3.05097983449256E-02 
2317	 0.030112382865423 
2318	 3.44369556195919E-02 
2319	 3.32613678165248E-02 
2320	 3.34529330943722E-02 
2321	 3.25811525494213E-02 
2322	 3.02343432482469E-02 
2323	 3.42081397292444E-02 
2324	 3.80231257468455E-02 
2325	 3.69609280066135E-02 
2326	 3.61491429279549E-02 
2327	 3.69345617972327E-02 
2328	 3.48301736385727E-02 
2329	 3.65369151590933E-02 
2330	 4.24150328813391E-02 
2331	 3.87396310500278E-02 
2332	 3.60146570516306E-02 
2333	 3.73820985433547E-02 
2334	 3.16285559073751E-02 
2335	 2.90947891493835E-02 
2336	 2.90476519436495E-02 
2337	 3.09776481249152E-02 
2338	 3.61034367924828E-02 
2339	 3.83167148385467E-02 
2340	 4.31471531384245E-02 
2341	 4.62069961867397E-02 
2342	 0.044584268920597 
2343	 4.64631946715679E-02 
2344	 5.20664063744023E-02 
2345	 5.25277910327098E-02 
2346	 4.87545239624404E-02 
2347	 5.06996323240521E-02 
2348	 5.17858675189711E-02 
2349	 4.89142253152112E-02 
2350	 5.56190650696727E-02 
2351	 6.39022744395452E-02 
2352	 5.64031258777959E-02 
2353	 5.01092927064732E-02 
2354	 5.39559537219066E-02 
2355	 5.38803479140755E-02 
2356	 6.21345210688877E-02 
2357	 7.98190153712819E-02 
2358	 8.21032297008283E-02 
2359	 7.55843857049945E-02 
2360	 7.62067286983979E-02 
2361	 7.14991075664103E-02 
2362	 6.60840207288387E-02 
2363	 7.51222543745403E-02 
2364	 7.57671726653344E-02 
2365	 6.78310130779961E-02 
2366	 7.32031452276241E-02 
2367	 7.31109080847356E-02 
2368	 7.26105103358082E-02 
2369	 8.46509082423729E-02 
2370	 8.91705305795943E-02 
2371	 8.69916127275866E-02 
2372	 8.84883749877772E-02 
2373	 9.44683357883551E-02 
2374	 9.05381166544157E-02 
2375	 8.50626408475299E-02 
2376	 8.35557411799122E-02 
2377	 6.60587696987025E-02 
2378	 6.34979237872116E-02 
2379	 7.09246193995646E-02 
2380	 6.30153039555964E-02 
2381	 7.23386784483638E-02 
2382	 0.078156635281354 
2383	 7.46545064361657E-02 
2384	 8.54640675474958E-02 
2385	 8.30553554271477E-02 
2386	 7.54883792383281E-02 
2387	 7.50863672430642E-02 
2388	 0.078649980892272 
2389	 7.85636114975168E-02 
2390	 7.29889355592378E-02 
2391	 7.57074305416381E-02 
2392	 7.24143343139425E-02 
2393	 7.70935992996454E-02 
2394	 8.58403612503033E-02 
2395	 8.51897403715205E-02 
2396	 8.34819582660761E-02 
2397	 6.59487543921815E-02 
2398	 6.29720995216761E-02 
2399	 6.83961043037056E-02 
2400	 6.61937377820379E-02 
2401	 7.52217284340691E-02 
2402	 4.72108885091028E-02 
2403	 2.17565878623468E-02 
2404	 2.24425819021568E-02 
2405	 1.49290848682917E-02 
2406	 1.45260860134936E-02 
2407	-5.81581787801413E-04 
2408	-2.18904469300652E-02 
2409	-2.94975815362688E-02 
2410	 0.010812300352508 
2411	 8.86920998589056E-02 
2412	 0.124438635833763 
2413	 0.10942905234702 
2414	 8.71814148050804E-02 
2415	 9.47933679378171E-02 
2416	 0.098677590059243 
2417	 9.18563053908022E-02 
2418	 0.104625952866869 
2419	 0.107484124948805 
2420	 6.57489791266943E-02 
2421	 2.89584868794965E-02 
2422	 5.03689237234217E-02 
2423	 1.92560793548083E-02 
2424	 2.95544980715559E-02 
2425	 8.62803657958941E-02 
2426	 3.42840010433829E-02 
2427	 2.21363009448316E-02 
2428	 0.030722943690115 
2429	-6.26978505819426E-03 
2430	 1.28042344165829E-02 
2431	-8.21019197700287E-03 
2432	-6.23722996803911E-02 
2433	 1.06717914614105E-02 
2434	 0.140088088620857 
2435	 0.199428362583976 
2436	 0.178128963494298 
2437	 0.147526366653441 
2438	 0.059493946290905 
2439	-5.10083040138845E-02 
2440	-5.12657123483056E-02 
2441	-5.30674266326102E-02 
2442	-9.47067934237356E-02 
2443	 4.79883476113618E-02 
2444	 0.185158911328111 
2445	 0.100448944960906 
2446	 3.39177746617916E-02 
2447	-7.87614525190659E-02 
2448	-0.176132622069936 
2449	-0.187489684848857 
2450	-0.137434728433783 
2451	-0.221759204003468 
2452	-0.349172222433704 
2453	-0.240366105037304 
2454	-0.235832679881629 
2455	-0.140723801706294 
2456	 4.98538413990267E-02 
2457	 6.77157756715558E-02 
2458	 2.54341974676547E-02 
2459	-1.68764732636842E-02 
2460	-1.76030075320249E-02 
2461	 0.129292660497156 
2462	 0.297348119592087 
2463	 0.350618271511229 
2464	 0.360609341180478 
2465	 0.23749076771278 
2466	 0.188304094250538 
2467	 7.36851585533835E-02 
2468	-0.044663281621782 
2469	-8.40869801162929E-03 
2470	-0.335229799987892 
2471	 1.15293905920441 
2472	 0.715418448635018 
2473	 0.155207247615516 
2474	 0.101571436099673 
2475	 1.78150195653646E-02 
2476	-0.247560547792769 
2477	-0.205595074366107 
2478	-0.17606681616368 
2479	-0.46880694892851 
2480	-0.145381254452307 
2481	 0.470286266986848 
2482	-0.263984192147949 
2483	-0.466571393362091 
2484	-0.378870177868352 
2485	-1.93531076145289 
2486	 3.00951445955589 
2487	 1.49247722027483 
2488	 0.959540153603834 
2489	 1.21544846668784 
2490	 2.45306654941882 
2491	 0.442377947733353 
2492	-3.0913440613983 
2493	 3.05241239248845E-03 
2494	 0.826413326444564 
2495	 0.527546791337087 
2496	-8.42601513156825E-02 
2497	-0.284306587405683 
2498	-0.414211323690804 
2499	 3.11767519734776 
2500	 2.41171199503652 
