Wavelength	rt0711a300003.asd
350	 0.182024032485949 
351	 0.183959297393095 
352	 0.185859302998949 
353	 0.187494821983008 
354	 0.18886186815027 
355	 0.190308312556744 
356	 0.192161280405152 
357	 0.194110145471411 
358	 0.19577117387204 
359	 0.197462248789284 
360	 0.198913006599286 
361	 0.200464469092691 
362	 0.20266831141767 
363	 0.203867476847281 
364	 0.204724893376455 
365	 0.205877674194902 
366	 0.207496612412552 
367	 0.208605252764981 
368	 0.209779451238467 
369	 0.211493782059194 
370	 0.212312813558079 
371	 0.213453622159005 
372	 0.214897511749687 
373	 0.215950397873307 
374	 0.216990942095042 
375	 0.217760600774447 
376	 0.218451113539509 
377	 0.219903162686157 
378	 0.22061640015073 
379	 0.221085364428662 
380	 0.221919490161623 
381	 0.222519766220987 
382	 0.223084868844019 
383	 0.223622823862643 
384	 0.22405669788185 
385	 0.224337096311402 
386	 0.224676541652748 
387	 0.225213689689673 
388	 0.225951230506157 
389	 0.225983959525848 
390	 0.225720620227723 
391	 0.225687201380301 
392	 0.226090260869104 
393	 0.225805928952674 
394	 0.225410287869908 
395	 0.225676815094304 
396	 0.224758016248232 
397	 0.224372800161273 
398	 0.224567379138346 
399	 0.223895888071235 
400	 0.223393946365623 
401	 0.222902578519351 
402	 0.222315979040831 
403	 0.222118309733744 
404	 0.221616135744715 
405	 0.220921672892922 
406	 0.220376106460771 
407	 0.219755442705365 
408	 0.218983063255315 
409	 0.218130079943234 
410	 0.217388544503198 
411	 0.216643401782666 
412	 0.215987689890737 
413	 0.215416120871288 
414	 0.214592847067749 
415	 0.213896515714106 
416	 0.213246986895181 
417	 0.212449857051965 
418	 0.211839756483076 
419	 0.211272283401337 
420	 0.21074934652449 
421	 0.210453884696873 
422	 0.210137383623761 
423	 0.209815004851195 
424	 0.209592670980342 
425	 0.20966601552904 
426	 0.209835293711726 
427	 0.210031936701563 
428	 0.210266835312413 
429	 0.210619336907296 
430	 0.211028961280864 
431	 0.211440070941754 
432	 0.2118245146433 
433	 0.212174877904665 
434	 0.212495863179606 
435	 0.212778844926896 
436	 0.212970954424524 
437	 0.213041926015216 
438	 0.213017409547228 
439	 0.212938701773748 
440	 0.212676166404926 
441	 0.212385975712241 
442	 0.212097436943181 
443	 0.21160609063038 
444	 0.211217423801233 
445	 0.210755514500037 
446	 0.210050917266105 
447	 0.20947762674297 
448	 0.208894809481143 
449	 0.208276778066889 
450	 0.207678105498378 
451	 0.206985003694606 
452	 0.206348890958107 
453	 0.205791474075058 
454	 0.204989224593408 
455	 0.204254778937137 
456	 0.203613531222573 
457	 0.202979417394231 
458	 0.202269547345749 
459	 0.201606801938118 
460	 0.200972149983526 
461	 0.200209173797529 
462	 0.199527788268236 
463	 0.198893904991899 
464	 0.198240870923811 
465	 0.197552626562664 
466	 0.196902672486969 
467	 0.196274517203406 
468	 0.195611325695956 
469	 0.19494348232925 
470	 0.194317283392138 
471	 0.193704331530503 
472	 0.192977890611501 
473	 0.192459598899963 
474	 0.192033039686486 
475	 0.191520619076844 
476	 0.19097298915359 
477	 0.190458061399924 
478	 0.190043469270529 
479	 0.189773219336769 
480	 0.189489539826155 
481	 0.189269334262193 
482	 0.189130615885905 
483	 0.188902872593752 
484	 0.188708249448281 
485	 0.188608133478111 
486	 0.188613678007844 
487	 0.188608839430221 
488	 0.188620067848229 
489	 0.188673579091169 
490	 0.188788002978467 
491	 0.189011318074068 
492	 0.189230224718056 
493	 0.189352768337228 
494	 0.189404285082517 
495	 0.18964491776218 
496	 0.189951638543133 
497	 0.190056851542253 
498	 0.190329749010649 
499	 0.190527547302287 
500	 0.190562952643903 
501	 0.190674706981661 
502	 0.190875802554395 
503	 0.191003379100077 
504	 0.190967862799609 
505	 0.191187436236542 
506	 0.191441435442949 
507	 0.191622000910895 
508	 0.19173547597312 
509	 0.191896111610176 
510	 0.192134975900202 
511	 0.192434268066909 
512	 0.192700375778314 
513	 0.193046503661292 
514	 0.19348489708041 
515	 0.193973821524409 
516	 0.194446512200999 
517	 0.195061730687911 
518	 0.195848543257213 
519	 0.196658152958838 
520	 0.197503586641059 
521	 0.198432758809198 
522	 0.199494830016706 
523	 0.200663054167879 
524	 0.202054717665728 
525	 0.203621344068888 
526	 0.205207468264368 
527	 0.206857472283289 
528	 0.208623687545861 
529	 0.210537397496114 
530	 0.212605022086732 
531	 0.214825708292267 
532	 0.217188638791274 
533	 0.219658114292692 
534	 0.222152072939631 
535	 0.224773987299387 
536	 0.227558575172162 
537	 0.230435896837581 
538	 0.233272280571378 
539	 0.236175809659317 
540	 0.239224218945559 
541	 0.242200298747845 
542	 0.245196602632957 
543	 0.248160994877619 
544	 0.250980984805903 
545	 0.253784602972432 
546	 0.256515313807385 
547	 0.259133812084107 
548	 0.261687488972974 
549	 0.26410774285365 
550	 0.266435262598131 
551	 0.268726733543393 
552	 0.270852933550401 
553	 0.2729062259373 
554	 0.274945186629264 
555	 0.276963030566345 
556	 0.279020735447916 
557	 0.281121473408647 
558	 0.283215541370906 
559	 0.285208342847983 
560	 0.287256837557365 
561	 0.289378122309253 
562	 0.291506403750504 
563	 0.293568737378994 
564	 0.295650183688356 
565	 0.297765389760977 
566	 0.299760109265554 
567	 0.301720299360597 
568	 0.303604097314775 
569	 0.305347845463531 
570	 0.307054092329046 
571	 0.308619557607589 
572	 0.310044579987813 
573	 0.311448397877949 
574	 0.312718187090485 
575	 0.313985267650467 
576	 0.315311793539711 
577	 0.316383155488555 
578	 0.317450325747844 
579	 0.318554366646308 
580	 0.319595482399072 
581	 0.320495731958133 
582	 0.321317971815581 
583	 0.32209698769648 
584	 0.322778810241739 
585	 0.323349049270429 
586	 0.323775459851008 
587	 0.324066137088387 
588	 0.324426041597402 
589	 0.324885192890201 
590	 0.325349742594666 
591	 0.325661540050487 
592	 0.326163365495293 
593	 0.32661643149713 
594	 0.326819346509214 
595	 0.327086321680692 
596	 0.327351858609515 
597	 0.327570054738054 
598	 0.327715744931118 
599	 0.327904360905603 
600	 0.328101326521719 
601	 0.328300773035726 
602	 0.328590542131436 
603	 0.328752481598105 
604	 0.328901116160809 
605	 0.329202575754076 
606	 0.329481508907487 
607	 0.329802732271858 
608	 0.330114259519204 
609	 0.330248707928075 
610	 0.330559970291418 
611	 0.330923856934683 
612	 0.331173862684684 
613	 0.331319518960656 
614	 0.331521327262786 
615	 0.331765560635824 
616	 0.331950542495955 
617	 0.332215990879587 
618	 0.332443314393404 
619	 0.332606565585409 
620	 0.332867929667262 
621	 0.333095743479371 
622	 0.333237555065328 
623	 0.333315087311738 
624	 0.333585275871294 
625	 0.333712976765712 
626	 0.333709028913571 
627	 0.333915094243121 
628	 0.334095226473584 
629	 0.334387704665081 
630	 0.33481739776912 
631	 0.33492129568504 
632	 0.335083502851591 
633	 0.335345890569882 
634	 0.335589485468688 
635	 0.33580717482454 
636	 0.336020022427165 
637	 0.33622111909911 
638	 0.33635723594076 
639	 0.336591632824565 
640	 0.336788843528214 
641	 0.336819261668889 
642	 0.336961807984408 
643	 0.337058365033454 
644	 0.337054907300123 
645	 0.336988960729064 
646	 0.336848181060868 
647	 0.336849982478989 
648	 0.337086097715461 
649	 0.3373084635315 
650	 0.337307470695124 
651	 0.33726821840669 
652	 0.337440669584743 
653	 0.337341293541138 
654	 0.337067699517657 
655	 0.336762369918284 
656	 0.336614529457467 
657	 0.336505879571868 
658	 0.336360630945607 
659	 0.336139442384359 
660	 0.33586320435181 
661	 0.335707610809598 
662	 0.335591494498349 
663	 0.335302580908762 
664	 0.335066690060515 
665	 0.334903851417925 
666	 0.334782123117833 
667	 0.334630548897268 
668	 0.334515196637404 
669	 0.334458166531024 
670	 0.334451764567384 
671	 0.334427257953048 
672	 0.334349462874099 
673	 0.334304387074949 
674	 0.334471127650692 
675	 0.334628964938572 
676	 0.334760833644967 
677	 0.334916162778848 
678	 0.335221666138181 
679	 0.335438432269173 
680	 0.335626880806309 
681	 0.335970266578996 
682	 0.336450503830091 
683	 0.336903289298612 
684	 0.337198962438129 
685	 0.337283630786169 
686	 0.337329673245404 
687	 0.337642207469567 
688	 0.338304920880064 
689	 0.338794394766807 
690	 0.339174232463255 
691	 0.339386561310017 
692	 0.339347207234299 
693	 0.339429253044128 
694	 0.339746717639793 
695	 0.340183685477691 
696	 0.340408803502172 
697	 0.340349473442226 
698	 0.340047090857294 
699	 0.339660097017262 
700	 0.339567677527633 
701	 0.339498661456074 
702	 0.339330494659275 
703	 0.339090447534629 
704	 0.338729052818987 
705	 0.338345241687289 
706	 0.337978604306051 
707	 0.337462158934085 
708	 0.336994128681313 
709	 0.336439407686588 
710	 0.335611728246975 
711	 0.334792033240581 
712	 0.333882985766422 
713	 0.332789384452378 
714	 0.331410273676215 
715	 0.32966728970649 
716	 0.327713478642755 
717	 0.325932939553592 
718	 0.324555292984155 
719	 0.323593589163465 
720	 0.322935865140943 
721	 0.322232523737824 
722	 0.32075937838535 
723	 0.318953718074984 
724	 0.317348903850432 
725	 0.315990817423945 
726	 0.314599701886151 
727	 0.312933163794693 
728	 0.310986315206767 
729	 0.309283213695607 
730	 0.307493657370251 
731	 0.305849901131885 
732	 0.30463988524391 
733	 0.30340306115382 
734	 0.302048638306871 
735	 0.300782348890151 
736	 0.300146862926773 
737	 0.2995867964204 
738	 0.299148974189602 
739	 0.298946660046438 
740	 0.298825566154682 
741	 0.298640208359722 
742	 0.298528708110922 
743	 0.298697127009131 
744	 0.298601165841931 
745	 0.29846380636729 
746	 0.298428314287213 
747	 0.298420749456696 
748	 0.298421637954788 
749	 0.298406405365672 
750	 0.298376772013618 
751	 0.298418099569232 
752	 0.29842322940328 
753	 0.298394552319466 
754	 0.29839116543025 
755	 0.298399414735952 
756	 0.298323439615431 
757	 0.298089353941213 
758	 0.297540386965936 
759	 0.296317471845613 
760	 0.295017152012695 
761	 0.295187638673291 
762	 0.295470294355732 
763	 0.296019763700587 
764	 0.296778098165127 
765	 0.297617621664671 
766	 0.298283304440062 
767	 0.29875665231112 
768	 0.29907518744261 
769	 0.299296364854804 
770	 0.299482404137049 
771	 0.299643823917912 
772	 0.299800952252795 
773	 0.300035417800989 
774	 0.300294773767679 
775	 0.300568946775054 
776	 0.300855803769521 
777	 0.301075698117507 
778	 0.301282812855689 
779	 0.301531551691072 
780	 0.30185687640242 
781	 0.302109647478521 
782	 0.302358193217969 
783	 0.302681300190104 
784	 0.303110865910997 
785	 0.30331521466304 
786	 0.303464350282744 
787	 0.303819600120912 
788	 0.304054818902189 
789	 0.304379095771656 
790	 0.30485594398137 
791	 0.305392934842268 
792	 0.305760551102638 
793	 0.30612203622472 
794	 0.306549209129414 
795	 0.306863032216138 
796	 0.307082891738831 
797	 0.307394035650036 
798	 0.307875919483256 
799	 0.308064341934174 
800	 0.308242396800321 
801	 0.308466883414841 
802	 0.308670659745982 
803	 0.308891649383218 
804	 0.30909705235633 
805	 0.309261485812471 
806	 0.309374642911628 
807	 0.309378508515159 
808	 0.309247083455548 
809	 0.308951907321158 
810	 0.308407569872895 
811	 0.307972260950183 
812	 0.307475866299857 
813	 0.306664497152542 
814	 0.306229795754574 
815	 0.305601885250492 
816	 0.304889232717169 
817	 0.30468424432401 
818	 0.304431373422896 
819	 0.303987131675123 
820	 0.30331327505811 
821	 0.302436441111276 
822	 0.301335805413756 
823	 0.300166055907788 
824	 0.299030795170035 
825	 0.297726546309977 
826	 0.296111966985619 
827	 0.294300175479745 
828	 0.292588323662406 
829	 0.290880101402283 
830	 0.289435660711631 
831	 0.288242815390178 
832	 0.2871299066364 
833	 0.286264882946274 
834	 0.28562122697423 
835	 0.285112455122372 
836	 0.28462489192082 
837	 0.284135669538732 
838	 0.283768888410359 
839	 0.283569587094811 
840	 0.283302455319244 
841	 0.283020921430024 
842	 0.282780435812637 
843	 0.282586548740725 
844	 0.28218226797514 
845	 0.281799342853374 
846	 0.281535135207348 
847	 0.281352657892076 
848	 0.281074122351787 
849	 0.280720409938742 
850	 0.280393161275697 
851	 0.28023986705952 
852	 0.280020889407403 
853	 0.279842136381592 
854	 0.279687411320691 
855	 0.279114534470527 
856	 0.278918142825937 
857	 0.278830409304718 
858	 0.278490870071869 
859	 0.278347655595408 
860	 0.278227451226672 
861	 0.277936923908731 
862	 0.277422822573739 
863	 0.277499712782449 
864	 0.277502614317172 
865	 0.277139695591633 
866	 0.276620052868681 
867	 0.276406110537199 
868	 0.276214683663418 
869	 0.275878077070984 
870	 0.275529447030222 
871	 0.275286940924815 
872	 0.274923009839361 
873	 0.274374542460476 
874	 0.274103821250806 
875	 0.273976776776792 
876	 0.273653685739382 
877	 0.272989485184598 
878	 0.272763063679001 
879	 0.272417666220235 
880	 0.27199734470154 
881	 0.271729713483211 
882	 0.271115225113488 
883	 0.270453113864803 
884	 0.270039762013117 
885	 0.270015998834699 
886	 0.269677628745549 
887	 0.269216319284775 
888	 0.268871593058515 
889	 0.268759410848958 
890	 0.268136949277326 
891	 0.267517868411857 
892	 0.267179941693793 
893	 0.266541940741098 
894	 0.265726194795177 
895	 0.265105489324101 
896	 0.264823088275146 
897	 0.264041326866289 
898	 0.263880831264366 
899	 0.263541775109145 
900	 0.262413342364364 
901	 0.262853699498581 
902	 0.262540216286286 
903	 0.261828413378244 
904	 0.261800980017944 
905	 0.261492894299253 
906	 0.261404560514082 
907	 0.261229979053818 
908	 0.260249961810028 
909	 0.259378351467575 
910	 0.25887257007195 
911	 0.25842662304678 
912	 0.257495512362392 
913	 0.257546825346931 
914	 0.25737380463623 
915	 0.256461194056618 
916	 0.255489517227192 
917	 0.25459145000406 
918	 0.253900629465964 
919	 0.253594220268058 
920	 0.253888021024332 
921	 0.252996324932335 
922	 0.251800727251515 
923	 0.251157353643456 
924	 0.250755981610025 
925	 0.248796177826937 
926	 0.246895349482354 
927	 0.246696636087779 
928	 0.24569373370971 
929	 0.24381988606223 
930	 0.241986017899531 
931	 0.241344238229981 
932	 0.239209199434017 
933	 0.235224452855867 
934	 0.232613764705792 
935	 0.233881920395345 
936	 0.232725490878067 
937	 0.233043637003574 
938	 0.231719425138387 
939	 0.226740043738391 
940	 0.228994064226685 
941	 0.228805714925467 
942	 0.226226971993495 
943	 0.225703218107394 
944	 0.225453107724668 
945	 0.223597104091725 
946	 0.221009843179752 
947	 0.220014237892873 
948	 0.220788754822653 
949	 0.218443620501298 
950	 0.214268784952088 
951	 0.212944529916968 
952	 0.212496904519196 
953	 0.210385599154976 
954	 0.208602518386489 
955	 0.210827610523183 
956	 0.210736016704503 
957	 0.20917684862464 
958	 0.207111915532805 
959	 0.205280019515144 
960	 0.205919351722981 
961	 0.2054847485283 
962	 0.204438892203051 
963	 0.205715944139262 
964	 0.205647188605733 
965	 0.205561993934906 
966	 0.205332172376948 
967	 0.203892304937132 
968	 0.20406036691108 
969	 0.204678574176135 
970	 0.204479474396973 
971	 0.203049319690511 
972	 0.205059687400999 
973	 0.205938055268746 
974	 0.204976466414582 
975	 0.205676586586803 
976	 0.204139785039499 
977	 0.203826710484961 
978	 0.204868464502671 
979	 0.20435140623587 
980	 0.205566447917223 
981	 0.206433178657098 
982	 0.206542092887264 
983	 0.207087159558346 
984	 0.206662394743302 
985	 0.207761780812977 
986	 0.209284717251871 
987	 0.207941875102301 
988	 0.208080180964258 
989	 0.208851147079719 
990	 0.209924198179182 
991	 0.211201390907387 
992	 0.208951955378655 
993	 0.207679623024872 
994	 0.208391870643083 
995	 0.209288424969815 
996	 0.211615229436829 
997	 0.212055000027183 
998	 0.211448813572798 
999	 0.212586884081452 
1000	 0.212492901346462 
1001	 0.210404604883298 
1002	 0.210689407198776 
1003	 0.21089442411448 
1004	 0.21093276658874 
1005	 0.211360484886179 
1006	 0.211947236344064 
1007	 0.212339565122397 
1008	 0.213142016206362 
1009	 0.21397585620382 
1010	 0.214373479443809 
1011	 0.214729360886997 
1012	 0.215289798998945 
1013	 0.215634078111248 
1014	 0.216019441831178 
1015	 0.216517813019301 
1016	 0.21694657678203 
1017	 0.217082690581114 
1018	 0.217637213118591 
1019	 0.218483982910373 
1020	 0.21914163098365 
1021	 0.219885965048428 
1022	 0.220664438871075 
1023	 0.221386469391571 
1024	 0.222039704205041 
1025	 0.222602018219861 
1026	 0.223114898874218 
1027	 0.223583731150732 
1028	 0.223760886244207 
1029	 0.224295506097376 
1030	 0.225266298278142 
1031	 0.225608174068069 
1032	 0.225643107576942 
1033	 0.225905719410636 
1034	 0.225667318477915 
1035	 0.225957647396151 
1036	 0.226991420662214 
1037	 0.227507810567129 
1038	 0.227724744250919 
1039	 0.228297461340588 
1040	 0.228876732585084 
1041	 0.229289932495696 
1042	 0.229778244717744 
1043	 0.230540723568902 
1044	 0.231046396266919 
1045	 0.231428432643256 
1046	 0.231641217196328 
1047	 0.231724687835312 
1048	 0.2318714283313 
1049	 0.231649823372005 
1050	 0.231833519088343 
1051	 0.232447147871064 
1052	 0.232787228179181 
1053	 0.233254392220984 
1054	 0.233495357075363 
1055	 0.233432140458272 
1056	 0.23346844219933 
1057	 0.233484304214618 
1058	 0.233377251828022 
1059	 0.23347370140675 
1060	 0.233639510482722 
1061	 0.233871231637194 
1062	 0.234406782927828 
1063	 0.234489413549494 
1064	 0.234304223997633 
1065	 0.234347660791998 
1066	 0.234251314298841 
1067	 0.234204516263771 
1068	 0.234445181371471 
1069	 0.234490587434411 
1070	 0.234318599891933 
1071	 0.234185040868291 
1072	 0.234128207708513 
1073	 0.233831867074205 
1074	 0.233823193208897 
1075	 0.233955231351804 
1076	 0.233852004063506 
1077	 0.233779939201433 
1078	 0.233682328945335 
1079	 0.233467666214417 
1080	 0.233136639202686 
1081	 0.23276503132959 
1082	 0.232460746452004 
1083	 0.231925898717937 
1084	 0.231564462105806 
1085	 0.231582748943485 
1086	 0.231280870502356 
1087	 0.230505746985108 
1088	 0.230202207330698 
1089	 0.230107916229782 
1090	 0.230060760498118 
1091	 0.22974492251573 
1092	 0.229562452557823 
1093	 0.229191811212898 
1094	 0.228384878602377 
1095	 0.227840761631884 
1096	 0.227554447782083 
1097	 0.227217257596944 
1098	 0.226758536186385 
1099	 0.226198452293686 
1100	 0.225785847825038 
1101	 0.225133462157895 
1102	 0.223957025757278 
1103	 0.223340233120529 
1104	 0.223134223895574 
1105	 0.22234365162251 
1106	 0.222627739476645 
1107	 0.222762954149891 
1108	 0.221838690599677 
1109	 0.221516396551193 
1110	 0.220932809639071 
1111	 0.219475689540594 
1112	 0.218725679048836 
1113	 0.21869818146193 
1114	 0.217995371655805 
1115	 0.217180607891213 
1116	 0.216288576665569 
1117	 0.214564576218006 
1118	 0.213566852721458 
1119	 0.213479904422689 
1120	 0.212290910438938 
1121	 0.210526902182506 
1122	 0.210175148833888 
1123	 0.209708846533304 
1124	 0.208045321972722 
1125	 0.205686152187397 
1126	 0.204526443489391 
1127	 0.202568781351386 
1128	 0.199095437567296 
1129	 0.197444745567273 
1130	 0.197856832108789 
1131	 0.196338842396969 
1132	 0.195146661038678 
1133	 0.193466645404259 
1134	 0.190247928941223 
1135	 0.188873448999549 
1136	 0.188194277774342 
1137	 0.187030880240258 
1138	 0.186646416638003 
1139	 0.185822134497107 
1140	 0.182987622285442 
1141	 0.180244018181231 
1142	 0.178133505259965 
1143	 0.176935448510749 
1144	 0.17645051950334 
1145	 0.17540718413884 
