Wavelength	rt0711a200007.asd
350	 0.125630630506763 
351	 0.126976263126947 
352	 0.129284753410236 
353	 0.13133766187129 
354	 0.132502074517788 
355	 0.133923753760573 
356	 0.135912523500936 
357	 0.138277810082109 
358	 0.140555970913785 
359	 0.142092120553655 
360	 0.143711412031727 
361	 0.145837526806269 
362	 0.148353699084105 
363	 0.14914945823655 
364	 0.150114113165687 
365	 0.152157736127034 
366	 0.154019451721786 
367	 0.155624406848658 
368	 0.157218293047713 
369	 0.159036823847251 
370	 0.16087231035279 
371	 0.162574619662346 
372	 0.164305176651517 
373	 0.166278895640685 
374	 0.167420647123214 
375	 0.168593069567439 
376	 0.17028709351426 
377	 0.172199901276084 
378	 0.173549320182429 
379	 0.174760046367746 
380	 0.176239873331805 
381	 0.177355158038983 
382	 0.178416088561302 
383	 0.179446831038681 
384	 0.180353760567229 
385	 0.181241109367608 
386	 0.181871664405603 
387	 0.182364287743846 
388	 0.18321643470713 
389	 0.183584517740814 
390	 0.183852380823817 
391	 0.184370788876861 
392	 0.184862081878318 
393	 0.184942828476054 
394	 0.18474993283512 
395	 0.184565870216041 
396	 0.184205595892895 
397	 0.18384029302438 
398	 0.183371233301905 
399	 0.182495236144022 
400	 0.181797815792002 
401	 0.181191855354927 
402	 0.180624695539053 
403	 0.180427643223611 
404	 0.180103914456809 
405	 0.17950822604427 
406	 0.178679942232735 
407	 0.177820802956269 
408	 0.176953768254839 
409	 0.176055789549353 
410	 0.175078956948828 
411	 0.174139327231052 
412	 0.173292776294129 
413	 0.17249187420292 
414	 0.171465724631366 
415	 0.170565985584233 
416	 0.169687978415332 
417	 0.168632795292227 
418	 0.167853555051067 
419	 0.167080826828078 
420	 0.166256886460903 
421	 0.165597080572306 
422	 0.165003028671133 
423	 0.164554441578536 
424	 0.164346074222135 
425	 0.164443917931669 
426	 0.16458837242063 
427	 0.16468915256756 
428	 0.164799096411791 
429	 0.165287473983464 
430	 0.165740075951541 
431	 0.166027018081245 
432	 0.166437155340019 
433	 0.166797466046471 
434	 0.167048105149599 
435	 0.167211540401132 
436	 0.167487708898593 
437	 0.167617629314148 
438	 0.167523580038619 
439	 0.167252873874952 
440	 0.166953059293885 
441	 0.166556170307212 
442	 0.16604902445674 
443	 0.165535870236976 
444	 0.164934733956422 
445	 0.164217366403926 
446	 0.163405015903935 
447	 0.162629319429393 
448	 0.161843935120659 
449	 0.161034093672982 
450	 0.160214314983032 
451	 0.159464838167105 
452	 0.158769382174878 
453	 0.158061032704462 
454	 0.15720116300938 
455	 0.156358591638125 
456	 0.155543560342993 
457	 0.154730808275097 
458	 0.154030030782057 
459	 0.153344518406416 
460	 0.152609510110278 
461	 0.151811079478288 
462	 0.150986883911353 
463	 0.150239953766894 
464	 0.149601339625402 
465	 0.148888531633106 
466	 0.148158993209864 
467	 0.147430506632249 
468	 0.146702678052095 
469	 0.145965240980351 
470	 0.14532229185195 
471	 0.144729367883407 
472	 0.143938628639668 
473	 0.143231979813879 
474	 0.142752824210888 
475	 0.14245623652291 
476	 0.141789940390923 
477	 0.141268801945902 
478	 0.140920738704903 
479	 0.140447513090431 
480	 0.139975876281322 
481	 0.139701019207369 
482	 0.139675162902483 
483	 0.139657833585281 
484	 0.139644416369905 
485	 0.139621752095015 
486	 0.139564195308531 
487	 0.139321276708916 
488	 0.139193619681856 
489	 0.139304082324442 
490	 0.139570607931258 
491	 0.139778837554421 
492	 0.139937910162224 
493	 0.140081000460399 
494	 0.140140240663278 
495	 0.140352557047454 
496	 0.140655652857894 
497	 0.140866149918476 
498	 0.141235316001868 
499	 0.141468001789587 
500	 0.141506132952004 
501	 0.141732749608666 
502	 0.141877553580881 
503	 0.141905763919983 
504	 0.141890420964252 
505	 0.142042101060251 
506	 0.142221015998748 
507	 0.142349597931203 
508	 0.142417533255796 
509	 0.142526460587691 
510	 0.142682803403195 
511	 0.14288799140355 
512	 0.143180011894288 
513	 0.143510207011628 
514	 0.143938351306897 
515	 0.144520492615279 
516	 0.144955516269006 
517	 0.145520456174183 
518	 0.146264369672498 
519	 0.146900187791307 
520	 0.147697585034143 
521	 0.148650517493211 
522	 0.14971651684233 
523	 0.150917499894114 
524	 0.152365956317597 
525	 0.154035357557835 
526	 0.155796388408367 
527	 0.157556308409714 
528	 0.159361499330675 
529	 0.161339135785912 
530	 0.163771510787718 
531	 0.166294538817822 
532	 0.168904507676147 
533	 0.171694100290538 
534	 0.17453323275481 
535	 0.177576725444433 
536	 0.180879354311229 
537	 0.184350055171519 
538	 0.187942582576743 
539	 0.191598542132049 
540	 0.195275500111149 
541	 0.198993540012443 
542	 0.202698763401349 
543	 0.206376248840001 
544	 0.210045460557389 
545	 0.213641769932779 
546	 0.217167934641417 
547	 0.220588217769701 
548	 0.223769045203355 
549	 0.226912476452795 
550	 0.229984044058891 
551	 0.232883424798351 
552	 0.235611408190023 
553	 0.238271451774678 
554	 0.2409385586908 
555	 0.243630826266772 
556	 0.246378686496795 
557	 0.249173520831192 
558	 0.251955700754572 
559	 0.254626178576177 
560	 0.257428442629224 
561	 0.260375487160015 
562	 0.263364552704655 
563	 0.266548023219369 
564	 0.269744878472877 
565	 0.272816329157087 
566	 0.275796054628767 
567	 0.278742177064337 
568	 0.28151509404681 
569	 0.283960054846699 
570	 0.286332326380785 
571	 0.288421534851023 
572	 0.290290930553773 
573	 0.292310630683815 
574	 0.294248015882106 
575	 0.296004502887083 
576	 0.2975943914515 
577	 0.299347562899358 
578	 0.300914497465398 
579	 0.302398818323451 
580	 0.304134357402866 
581	 0.305770746374422 
582	 0.307271330306336 
583	 0.308679069533505 
584	 0.310102987525417 
585	 0.311382954876949 
586	 0.312565890551181 
587	 0.313753601072889 
588	 0.314848306284159 
589	 0.315686480764591 
590	 0.316302180967107 
591	 0.316982269692246 
592	 0.317772705071249 
593	 0.318516349316112 
594	 0.31910345762068 
595	 0.319785066199383 
596	 0.320367199893692 
597	 0.320869118574113 
598	 0.32141885973121 
599	 0.321940030112308 
600	 0.322494967095049 
601	 0.323093427443532 
602	 0.323630290697212 
603	 0.324172304838205 
604	 0.324720751419182 
605	 0.325250009224212 
606	 0.325702891762131 
607	 0.326254540483624 
608	 0.326858848782027 
609	 0.327242844161397 
610	 0.327673521564031 
611	 0.328182537638046 
612	 0.328710003000849 
613	 0.329076981190125 
614	 0.329417225508357 
615	 0.329855243815679 
616	 0.330449362994496 
617	 0.330790429601887 
618	 0.331115082276732 
619	 0.331579528281525 
620	 0.332095137948425 
621	 0.332504790127904 
622	 0.332864419371624 
623	 0.333273510314847 
624	 0.333643573885717 
625	 0.334024079195235 
626	 0.334442412545974 
627	 0.334894520621288 
628	 0.335295787472974 
629	 0.335726920953462 
630	 0.336223525868825 
631	 0.336612585007937 
632	 0.336919008434574 
633	 0.337260039728358 
634	 0.337757883715085 
635	 0.338172894489098 
636	 0.338533145667286 
637	 0.338892991329207 
638	 0.339309123630561 
639	 0.339724445289196 
640	 0.340083502575039 
641	 0.340363764566355 
642	 0.340680633150618 
643	 0.340947784106198 
644	 0.341180368331717 
645	 0.341464469603133 
646	 0.341627299533945 
647	 0.341844884444292 
648	 0.342203373362264 
649	 0.342452517690354 
650	 0.342626412873352 
651	 0.342745844588657 
652	 0.342834088026776 
653	 0.342933920658381 
654	 0.343007364107399 
655	 0.342993627358489 
656	 0.342827203400995 
657	 0.342630398858493 
658	 0.342448320018051 
659	 0.342277024589931 
660	 0.342050532286296 
661	 0.341933514670118 
662	 0.341801965682756 
663	 0.341408495027967 
664	 0.341221151292931 
665	 0.341084744866424 
666	 0.340885193474732 
667	 0.340736103604645 
668	 0.340523850592679 
669	 0.340417584815651 
670	 0.340572273923936 
671	 0.340601261278172 
672	 0.340607304586058 
673	 0.340696297420846 
674	 0.34094277284805 
675	 0.341157508645439 
676	 0.341405488329519 
677	 0.341728567030533 
678	 0.341970409598827 
679	 0.342277747053024 
680	 0.342739066708385 
681	 0.343366007911087 
682	 0.343849727542081 
683	 0.344450445383072 
684	 0.345177775249778 
685	 0.345698220796719 
686	 0.346387896950591 
687	 0.347073697418876 
688	 0.347544016393179 
689	 0.348202543392882 
690	 0.348837917785938 
691	 0.349347967522742 
692	 0.349713505945423 
693	 0.350030755668038 
694	 0.350498898597009 
695	 0.351043682378255 
696	 0.35120589052128 
697	 0.351288621370263 
698	 0.351355236071463 
699	 0.351399870620336 
700	 0.351429305688339 
701	 0.351515670900322 
702	 0.35157435023387 
703	 0.351423212396501 
704	 0.351303535894341 
705	 0.351153224424365 
706	 0.350911005726184 
707	 0.350604070185805 
708	 0.350327601289002 
709	 0.350007388496094 
710	 0.349537592051784 
711	 0.349058856582843 
712	 0.348438532929095 
713	 0.347637079540976 
714	 0.346706323262285 
715	 0.345624425475027 
716	 0.344566373587298 
717	 0.343747984825494 
718	 0.342869298640581 
719	 0.342033233890161 
720	 0.341231792069146 
721	 0.34030378576925 
722	 0.339352326111634 
723	 0.3381408808503 
724	 0.336850304053028 
725	 0.335931797953881 
726	 0.334688726035382 
727	 0.333104399288654 
728	 0.331391918296794 
729	 0.329890671663359 
730	 0.328155077605414 
731	 0.326394574069629 
732	 0.324958330642521 
733	 0.323512280486671 
734	 0.322141264759874 
735	 0.320991654926044 
736	 0.320237198418721 
737	 0.319597354140015 
738	 0.319074345343309 
739	 0.318741301754941 
740	 0.318647981176678 
741	 0.318517408649784 
742	 0.318360923740997 
743	 0.318325755189452 
744	 0.318271291277732 
745	 0.318224233242946 
746	 0.318212151602289 
747	 0.318240888477828 
748	 0.31820559074055 
749	 0.318158581361434 
750	 0.318179884466529 
751	 0.318317442598824 
752	 0.318268113349808 
753	 0.318147021733044 
754	 0.318248497740541 
755	 0.318291276428862 
756	 0.31798349853603 
757	 0.317415979859369 
758	 0.317207345700744 
759	 0.317781109074683 
760	 0.318479330143808 
761	 0.318007446252118 
762	 0.318492330795822 
763	 0.318721262030532 
764	 0.318779674086083 
765	 0.319062090905688 
766	 0.319243152436932 
767	 0.319347297692088 
768	 0.319413507979306 
769	 0.31948077927676 
770	 0.319672459134476 
771	 0.319865861781284 
772	 0.32000300446709 
773	 0.320364222117819 
774	 0.320593165232732 
775	 0.320743534875884 
776	 0.321029136759732 
777	 0.32142330862892 
778	 0.321705821455482 
779	 0.32189631575015 
780	 0.322252226069177 
781	 0.322471959155023 
782	 0.322736649925774 
783	 0.323155969526154 
784	 0.323491595978934 
785	 0.323769285656272 
786	 0.324098237503446 
787	 0.324544852062213 
788	 0.324750724091846 
789	 0.325166471793888 
790	 0.325775854338465 
791	 0.326179036065633 
792	 0.326450443601346 
793	 0.326768311972263 
794	 0.32719916020456 
795	 0.327597615493749 
796	 0.327835495873693 
797	 0.328058353090183 
798	 0.32839981373725 
799	 0.328631991157703 
800	 0.32888210601515 
801	 0.329197912833815 
802	 0.32955344515254 
803	 0.329779185339021 
804	 0.329808703986771 
805	 0.329743705431041 
806	 0.329831353335807 
807	 0.329802332937515 
808	 0.329646034654002 
809	 0.329378577412095 
810	 0.328921423035294 
811	 0.328590415185676 
812	 0.328362783063908 
813	 0.328068866863709 
814	 0.327624207678583 
815	 0.327248253297611 
816	 0.326999771181134 
817	 0.326729389593498 
818	 0.326086944092804 
819	 0.325150375757289 
820	 0.324194770756041 
821	 0.323731228317494 
822	 0.322799761632562 
823	 0.321341956061169 
824	 0.319683635278638 
825	 0.318128620910647 
826	 0.316559135801647 
827	 0.314781594541569 
828	 0.312753940831255 
829	 0.310861090369679 
830	 0.309078935815946 
831	 0.307493563990576 
832	 0.306276090069264 
833	 0.305122409492856 
834	 0.304182033582374 
835	 0.303453399524788 
836	 0.302688733753249 
837	 0.301951597440264 
838	 0.301320885215206 
839	 0.300873567713841 
840	 0.300709604336264 
841	 0.300306377051584 
842	 0.299821190227097 
843	 0.299551010417988 
844	 0.299097976146542 
845	 0.298547593857186 
846	 0.298060967540985 
847	 0.297792916456509 
848	 0.297480490956105 
849	 0.297127549234241 
850	 0.296708711578682 
851	 0.296143253064379 
852	 0.295967125443952 
853	 0.295961422915218 
854	 0.295740230487523 
855	 0.294943116163509 
856	 0.294555966799943 
857	 0.294299222562734 
858	 0.293782045382257 
859	 0.293609413218496 
860	 0.293445416498324 
861	 0.293042398874466 
862	 0.292373304051337 
863	 0.29236101102427 
864	 0.292326850421272 
865	 0.291933099193298 
866	 0.291321194448879 
867	 0.290888210037682 
868	 0.290475092601483 
869	 0.289991873460425 
870	 0.289551554885302 
871	 0.289161078380166 
872	 0.288672878253407 
873	 0.288047098358778 
874	 0.287550584132429 
875	 0.28712860114151 
876	 0.28655920337508 
877	 0.28579134175212 
878	 0.285600757538725 
879	 0.285046219837339 
880	 0.284253742040489 
881	 0.28376382393657 
882	 0.283201162554912 
883	 0.282549481149053 
884	 0.281873308689516 
885	 0.281278926685786 
886	 0.280793358521574 
887	 0.28025302963171 
888	 0.27955542512378 
889	 0.278722281281009 
890	 0.278105056051558 
891	 0.277771178915292 
892	 0.277543179430351 
893	 0.276913863192048 
894	 0.27628263395436 
895	 0.275660504003063 
896	 0.275050170742172 
897	 0.274737751636254 
898	 0.274601424120424 
899	 0.274345719050529 
900	 0.27365062668123 
901	 0.272243836298652 
902	 0.271185888920979 
903	 0.270639147040272 
904	 0.270300230879785 
905	 0.269632484844361 
906	 0.269496677153515 
907	 0.269350647821152 
908	 0.267924782318131 
909	 0.266767705471041 
910	 0.266170388420614 
911	 0.265545807616504 
912	 0.263960794055298 
913	 0.263644398697534 
914	 0.262739497876304 
915	 0.260961131452586 
916	 0.260167757618844 
917	 0.258811162986589 
918	 0.2570163979721 
919	 0.255320869115903 
920	 0.254399884574205 
921	 0.253213081913674 
922	 0.251362383357846 
923	 0.249058782843038 
924	 0.247478170690729 
925	 0.245557495320117 
926	 0.243261414445939 
927	 0.241166362651268 
928	 0.240894637578084 
929	 0.239330271225479 
930	 0.236995104278294 
931	 0.236325062116275 
932	 0.236754388505984 
933	 0.233425106000169 
934	 0.227429793994401 
935	 0.22330187586393 
936	 0.220334910966486 
937	 0.218594036216126 
938	 0.214999663511684 
939	 0.208630883275567 
940	 0.210289208752385 
941	 0.208196611575213 
942	 0.203839490486027 
943	 0.203756104449865 
944	 0.200683662463776 
945	 0.196755601364201 
946	 0.193696026886795 
947	 0.191933747089542 
948	 0.189303037532464 
949	 0.185866723938753 
950	 0.181800341667697 
951	 0.17762555609907 
952	 0.175044573756463 
953	 0.172530666382002 
954	 0.170076469731829 
955	 0.168702168945013 
956	 0.167945681108944 
957	 0.165455315276368 
958	 0.161401015872132 
959	 0.157934765700552 
960	 0.156993976235825 
961	 0.156577946034398 
962	 0.156054816657234 
963	 0.155962685658818 
964	 0.155112489205943 
965	 0.153746839283628 
966	 0.152235141200315 
967	 0.151072657919383 
968	 0.151791455561143 
969	 0.151828192794686 
970	 0.150896023919036 
971	 0.150847859147897 
972	 0.15124090034725 
973	 0.151924233472408 
974	 0.152016678566768 
975	 0.150507436004858 
976	 0.150837344905638 
977	 0.151150261391341 
978	 0.150976530193889 
979	 0.151493806874462 
980	 0.151962809652746 
981	 0.153046707407527 
982	 0.153926867760337 
983	 0.15313222576879 
984	 0.154277462766601 
985	 0.1537969340957 
986	 0.152639587837917 
987	 0.154841991462349 
988	 0.155733961130316 
989	 0.156591184515885 
990	 0.15763208898813 
991	 0.157892491850312 
992	 0.156699524333497 
993	 0.156781405749352 
994	 0.157741123053014 
995	 0.157456589901229 
996	 0.159037321078206 
997	 0.159674644565305 
998	 0.159998763574846 
999	 0.162093263382918 
1000	 0.162207274018917 
1001	 0.155772927937593 
1002	 0.156166302310585 
1003	 0.156828748993986 
1004	 0.15754943621182 
1005	 0.158475100202492 
1006	 0.1595218654038 
1007	 0.160843896200291 
1008	 0.16214177373056 
1009	 0.163214861931637 
1010	 0.16414329504655 
1011	 0.165110613959282 
1012	 0.165861637226537 
1013	 0.166589038120888 
1014	 0.167451435971748 
1015	 0.168151200155263 
1016	 0.169106764847326 
1017	 0.17034137352001 
1018	 0.171557059152035 
1019	 0.172731557265927 
1020	 0.174123735438743 
1021	 0.175847225898769 
1022	 0.177338253959642 
1023	 0.178578673200226 
1024	 0.179992525138487 
1025	 0.181060866461303 
1026	 0.181970501455616 
1027	 0.183103124694915 
1028	 0.18444366535444 
1029	 0.185540190016721 
1030	 0.186529725368148 
1031	 0.187580656131731 
1032	 0.188318920786878 
1033	 0.189587274415642 
1034	 0.191430854120489 
1035	 0.192816832358203 
1036	 0.194256722540852 
1037	 0.195614876140336 
1038	 0.19678452157567 
1039	 0.197693734885558 
1040	 0.19889532242189 
1041	 0.200024933808682 
1042	 0.200964629496699 
1043	 0.201648390171093 
1044	 0.202494700978255 
1045	 0.203296633413203 
1046	 0.20419754266671 
1047	 0.20513193122087 
1048	 0.206096514930807 
1049	 0.207354128395114 
1050	 0.208122047230372 
1051	 0.208670795053758 
1052	 0.209252698106261 
1053	 0.209296600888847 
1054	 0.209781705316489 
1055	 0.210876706829918 
1056	 0.211471716621812 
1057	 0.211928173194691 
1058	 0.212330289189284 
1059	 0.212742912848609 
1060	 0.212749266727882 
1061	 0.213167209742322 
1062	 0.213940570616576 
1063	 0.214486171139151 
1064	 0.215257108992704 
1065	 0.215478561031625 
1066	 0.215340647348387 
1067	 0.21530030882677 
1068	 0.214836100097938 
1069	 0.214602890498763 
1070	 0.214626176138226 
1071	 0.214520037365013 
1072	 0.214323120675863 
1073	 0.214139777485092 
1074	 0.214031245173838 
1075	 0.214007800475441 
1076	 0.213790356194915 
1077	 0.213545116473657 
1078	 0.213265179763172 
1079	 0.212920414376428 
1080	 0.212428363100144 
1081	 0.211816619223336 
1082	 0.211300014625059 
1083	 0.210600216083187 
1084	 0.210037125003359 
1085	 0.209848301125727 
1086	 0.2092439494367 
1087	 0.208196545147713 
1088	 0.207470493722226 
1089	 0.206545989425202 
1090	 0.206058144761624 
1091	 0.205365483953158 
1092	 0.204982866108767 
1093	 0.204183528236637 
1094	 0.202843937392729 
1095	 0.201963335220309 
1096	 0.201381485272004 
1097	 0.200480857990088 
1098	 0.199649002656852 
1099	 0.198678230833656 
1100	 0.196962217101172 
1101	 0.19591048621176 
1102	 0.195650706367566 
1103	 0.194769350520462 
1104	 0.193758161016318 
1105	 0.192835215079871 
1106	 0.191942343801986 
1107	 0.190302094233313 
1108	 0.189434539620351 
1109	 0.189831104435607 
1110	 0.189138729595968 
1111	 0.187943467033431 
1112	 0.187040449040148 
1113	 0.185427779551103 
1114	 0.184177362361252 
1115	 0.183749366342052 
1116	 0.182893070080864 
1117	 0.181806586262746 
1118	 0.180530726065768 
1119	 0.1787950456107 
1120	 0.177011320906834 
1121	 0.174588480723249 
1122	 0.174261868913592 
1123	 0.173215619525777 
1124	 0.170337660466689 
1125	 0.167244022135399 
1126	 0.163148814036747 
1127	 0.159530289470311 
1128	 0.15575102453189 
1129	 0.151395176103656 
1130	 0.146629964267106 
1131	 0.143563015467592 
1132	 0.141333632480862 
1133	 0.138645498998817 
1134	 0.137492123515592 
1135	 0.13467245482506 
1136	 0.128925827371756 
1137	 0.126757147648306 
1138	 0.126599298733794 
1139	 0.124770320279233 
1140	 0.121484908062963 
1141	 0.12056659592493 
1142	 0.117088976253677 
1143	 0.111329465407367 
1144	 0.109731000606236 
1145	 0.109377795691798 
