Wavelength	rt0711a200003.asd
350	 0.106438276722704 
351	 0.107375850638004 
352	 0.108800009854703 
353	 0.110029788473442 
354	 0.110824477973408 
355	 0.112413255969571 
356	 0.1138239932115 
357	 0.115560462653354 
358	 0.11795516932495 
359	 0.1186977691492 
360	 0.119892656420706 
361	 0.121917397826277 
362	 0.12380459639822 
363	 0.124752685447915 
364	 0.125732032508274 
365	 0.127239882358369 
366	 0.128752316876721 
367	 0.129917764648997 
368	 0.131117153516496 
369	 0.132665539345629 
370	 0.133897722541657 
371	 0.135049665311683 
372	 0.136340081144446 
373	 0.137877416715728 
374	 0.13896040377499 
375	 0.139867135304 
376	 0.140898298206011 
377	 0.142221056098226 
378	 0.143186532666602 
379	 0.144225758393962 
380	 0.145567542252416 
381	 0.145966080155888 
382	 0.146666625690178 
383	 0.147570170153899 
384	 0.148048738690479 
385	 0.148764367223791 
386	 0.14938678516733 
387	 0.149932783788541 
388	 0.150839103621879 
389	 0.150741182805249 
390	 0.150470298057526 
391	 0.150735192231642 
392	 0.150920740882049 
393	 0.150755702827135 
394	 0.150649361096975 
395	 0.151011389839538 
396	 0.150877647341367 
397	 0.150448201906103 
398	 0.149983334838907 
399	 0.149691703408754 
400	 0.14921342785309 
401	 0.148651151207261 
402	 0.148166705998305 
403	 0.147942670643711 
404	 0.147394946909827 
405	 0.146780927305343 
406	 0.146497568309809 
407	 0.145793714364757 
408	 0.144973618328935 
409	 0.144244202793608 
410	 0.143635074334879 
411	 0.142961167179204 
412	 0.142255994030235 
413	 0.141555466365948 
414	 0.14079141925144 
415	 0.140069225666796 
416	 0.139271292633317 
417	 0.138314572699037 
418	 0.137918847178733 
419	 0.137387714458378 
420	 0.136583605515919 
421	 0.136057128667077 
422	 0.135706691259245 
423	 0.135359557375722 
424	 0.134984184749463 
425	 0.135000237277969 
426	 0.135134809624775 
427	 0.135220786978363 
428	 0.135215110099823 
429	 0.135535465960573 
430	 0.135977258173955 
431	 0.136357971034995 
432	 0.136604728558117 
433	 0.136942109618332 
434	 0.137200581100453 
435	 0.137280215988999 
436	 0.137560956171182 
437	 0.137716492621776 
438	 0.137660702133819 
439	 0.137459766351158 
440	 0.137228672955248 
441	 0.136907820872066 
442	 0.136509857435443 
443	 0.13618685078667 
444	 0.135703854385687 
445	 0.135106578304312 
446	 0.134500867478718 
447	 0.133878808143366 
448	 0.133320004075273 
449	 0.13275418152986 
450	 0.132024129354936 
451	 0.131375703352423 
452	 0.130807174775644 
453	 0.130235083859017 
454	 0.129480992202414 
455	 0.12882353690941 
456	 0.128259064332857 
457	 0.127676980706575 
458	 0.127009665414161 
459	 0.126365460371959 
460	 0.125763118573564 
461	 0.125128294860796 
462	 0.124507745927323 
463	 0.123971868969327 
464	 0.123497976042938 
465	 0.122792325179741 
466	 0.12215242638567 
467	 0.121591638462367 
468	 0.120991421677346 
469	 0.120395494722274 
470	 0.119877952274137 
471	 0.11940352784942 
472	 0.118792929528336 
473	 0.118239328893133 
474	 0.117804916290871 
475	 0.117464143870746 
476	 0.117035610612573 
477	 0.116562019719506 
478	 0.116155514888262 
479	 0.11594537459203 
480	 0.115728528772635 
481	 0.115525450748092 
482	 0.115351537448845 
483	 0.115138725717404 
484	 0.115039007414532 
485	 0.115018863767007 
486	 0.114977341897371 
487	 0.114872589795317 
488	 0.114876134326853 
489	 0.115009655980652 
490	 0.115143820464389 
491	 0.115297344737835 
492	 0.115458063954731 
493	 0.115604570791852 
494	 0.115687301022443 
495	 0.115857930010504 
496	 0.116070536358888 
497	 0.116208590279176 
498	 0.116507641470357 
499	 0.116735171005749 
500	 0.116798576822962 
501	 0.116886070966784 
502	 0.11704588821679 
503	 0.117148406768553 
504	 0.117125368174972 
505	 0.117395767775723 
506	 0.117554819550381 
507	 0.117544199980679 
508	 0.117594170398042 
509	 0.117669883373627 
510	 0.117859035561511 
511	 0.11815588852635 
512	 0.118292470144768 
513	 0.118564893850656 
514	 0.11895026080605 
515	 0.11930069161963 
516	 0.119661928492084 
517	 0.120175439061177 
518	 0.120834267730544 
519	 0.121446473471505 
520	 0.122140853338278 
521	 0.122934721281439 
522	 0.123835120292553 
523	 0.124870742154357 
524	 0.126095270904766 
525	 0.127454383346177 
526	 0.128828280944696 
527	 0.130256350320754 
528	 0.131821726636767 
529	 0.133560417765417 
530	 0.135424914559681 
531	 0.137426883240022 
532	 0.139616904890109 
533	 0.142006054350377 
534	 0.144351383072831 
535	 0.146819839816895 
536	 0.149492845268502 
537	 0.15231121902259 
538	 0.155108266222398 
539	 0.157986855987151 
540	 0.161023866130524 
541	 0.163996043769419 
542	 0.166959745602603 
543	 0.169901120970857 
544	 0.172780648663178 
545	 0.175647450493985 
546	 0.178396648324742 
547	 0.180990876401127 
548	 0.183564743888191 
549	 0.186003098667693 
550	 0.18831427023662 
551	 0.190544720948676 
552	 0.192652827965654 
553	 0.194686842609665 
554	 0.196710480541326 
555	 0.19878441008229 
556	 0.200888488026336 
557	 0.203029668926405 
558	 0.205182228911216 
559	 0.207267441768942 
560	 0.209451038676429 
561	 0.211749789867617 
562	 0.214095237994033 
563	 0.216461931816293 
564	 0.218761672393952 
565	 0.220971445405432 
566	 0.22321443175476 
567	 0.225418186177692 
568	 0.227464100001143 
569	 0.229254965012715 
570	 0.230952325353019 
571	 0.232500204589782 
572	 0.23392284621796 
573	 0.235339481960626 
574	 0.236741381288706 
575	 0.238125085908282 
576	 0.239468702161478 
577	 0.240736712255116 
578	 0.241911534239213 
579	 0.243044530965489 
580	 0.244213792312718 
581	 0.2453136812194 
582	 0.246334363679773 
583	 0.247296622888385 
584	 0.248249513967407 
585	 0.249142213101841 
586	 0.24991490719338 
587	 0.250557048056978 
588	 0.251311239364163 
589	 0.251987894412914 
590	 0.252490981848292 
591	 0.252905504282701 
592	 0.253394986967459 
593	 0.253896766117298 
594	 0.254322722371875 
595	 0.254718380159771 
596	 0.255020797254085 
597	 0.255266509235416 
598	 0.25554444640812 
599	 0.255858671489131 
600	 0.256128585781561 
601	 0.256372920087537 
602	 0.256812157933153 
603	 0.257133403573312 
604	 0.257373072073509 
605	 0.2576713738125 
606	 0.258063249393217 
607	 0.258489076813947 
608	 0.258853358728821 
609	 0.259043680182325 
610	 0.25937265753257 
611	 0.259731278668907 
612	 0.259998349347585 
613	 0.260293022166479 
614	 0.260582471366552 
615	 0.260891712709712 
616	 0.261252534722558 
617	 0.261520706949127 
618	 0.261720011663599 
619	 0.26194137656759 
620	 0.262354217905536 
621	 0.262664373321945 
622	 0.262897603836307 
623	 0.263171472444864 
624	 0.263501727630155 
625	 0.263754905172391 
626	 0.263944922345116 
627	 0.264221128445294 
628	 0.264446173544955 
629	 0.264775252688815 
630	 0.265242222750403 
631	 0.265413243218836 
632	 0.26559719032054 
633	 0.265897538453746 
634	 0.266285568026843 
635	 0.266520478321453 
636	 0.266708286698556 
637	 0.266955647565661 
638	 0.267323630565058 
639	 0.267662320119639 
640	 0.267867156904648 
641	 0.267945819991081 
642	 0.268284626051761 
643	 0.268505594607829 
644	 0.26858266837684 
645	 0.268769713511898 
646	 0.268837987774836 
647	 0.268917241909433 
648	 0.26911645816812 
649	 0.269379223698921 
650	 0.269465413755712 
651	 0.269467615797578 
652	 0.269560772602289 
653	 0.269487733948321 
654	 0.269404694326746 
655	 0.269330658854635 
656	 0.269082119698631 
657	 0.268875095059154 
658	 0.268685612923459 
659	 0.268451781296447 
660	 0.26817755513602 
661	 0.267969521333312 
662	 0.267774306127268 
663	 0.267463149878659 
664	 0.267210619390615 
665	 0.26704791224438 
666	 0.266932571771773 
667	 0.266732346120783 
668	 0.26653921872075 
669	 0.266399799188868 
670	 0.266342108596066 
671	 0.266369297335196 
672	 0.266432774858306 
673	 0.266504670648816 
674	 0.26658581880565 
675	 0.266785613231526 
676	 0.267007998814188 
677	 0.267197804035011 
678	 0.267504164442285 
679	 0.267833243641921 
680	 0.268198002703791 
681	 0.26864880574569 
682	 0.269135459596844 
683	 0.269721926501029 
684	 0.270333442712445 
685	 0.270742440822888 
686	 0.271362583927384 
687	 0.272024923533375 
688	 0.272476214986822 
689	 0.273030744221796 
690	 0.273465567548386 
691	 0.273794950116737 
692	 0.274169003761192 
693	 0.27453772990776 
694	 0.274918284999764 
695	 0.275243191395903 
696	 0.275337537370676 
697	 0.275346477247794 
698	 0.275302946632498 
699	 0.275229198146872 
700	 0.275250650126538 
701	 0.275232680002545 
702	 0.275153383575861 
703	 0.275077658090649 
704	 0.274796287493787 
705	 0.274498034653168 
706	 0.274273216246287 
707	 0.273839486081822 
708	 0.273448298888321 
709	 0.273075565133806 
710	 0.272596219895175 
711	 0.27196461742922 
712	 0.271155166740336 
713	 0.270250519732923 
714	 0.269410956552562 
715	 0.268405165289632 
716	 0.267312727851506 
717	 0.266307452550662 
718	 0.26524818267635 
719	 0.26411817883821 
720	 0.263121330302716 
721	 0.26224881994141 
722	 0.261193906205179 
723	 0.259869729619121 
724	 0.258483998696512 
725	 0.257277638382646 
726	 0.255866301572087 
727	 0.254158907435159 
728	 0.252258105601628 
729	 0.25055569016795 
730	 0.248515564043229 
731	 0.246415719031923 
732	 0.244726282587068 
733	 0.243162130483714 
734	 0.241681289720142 
735	 0.240360618624957 
736	 0.239392777604242 
737	 0.238684927109474 
738	 0.238182287007503 
739	 0.237831548823432 
740	 0.237523864681409 
741	 0.237345817301882 
742	 0.237252441422023 
743	 0.237145630900626 
744	 0.237133225086102 
745	 0.237128518604609 
746	 0.237098864180545 
747	 0.237108619662063 
748	 0.237117305319779 
749	 0.237088458009894 
750	 0.237034095336896 
751	 0.237128155758618 
752	 0.237124916362084 
753	 0.237062883208873 
754	 0.23711422782323 
755	 0.237151262852802 
756	 0.237000159420105 
757	 0.236752237185186 
758	 0.236945361064224 
759	 0.237410755589462 
760	 0.237668753594058 
761	 0.237301951760349 
762	 0.237517592166768 
763	 0.237739170241433 
764	 0.237876216531959 
765	 0.238014076708716 
766	 0.238118282657454 
767	 0.238230213707952 
768	 0.23839318736761 
769	 0.238646901498108 
770	 0.238867917689866 
771	 0.238991798761956 
772	 0.239070585236936 
773	 0.239425977789636 
774	 0.239814961201988 
775	 0.240095017865743 
776	 0.240232402896426 
777	 0.24050337505438 
778	 0.240893434631521 
779	 0.241299080571291 
780	 0.241568503873254 
781	 0.241884181490069 
782	 0.242210891448963 
783	 0.242528366086268 
784	 0.242950766576634 
785	 0.243306148868618 
786	 0.243644360654111 
787	 0.244065545161673 
788	 0.244477848743316 
789	 0.244938926568059 
790	 0.245442733521449 
791	 0.245923397850203 
792	 0.24623754685616 
793	 0.246674979513798 
794	 0.247262390332749 
795	 0.247495621207919 
796	 0.247803453987593 
797	 0.248180437812809 
798	 0.248517254484685 
799	 0.248730163042582 
800	 0.249082004145025 
801	 0.249492384687068 
802	 0.249719950556581 
803	 0.249914498155151 
804	 0.250022438421904 
805	 0.250066251069353 
806	 0.25015663377853 
807	 0.250097956370629 
808	 0.249957582653217 
809	 0.249790026040525 
810	 0.24946839092789 
811	 0.249122737739504 
812	 0.248856562008372 
813	 0.248707019137057 
814	 0.248392065675678 
815	 0.247790914520062 
816	 0.247155434739637 
817	 0.246881694866119 
818	 0.246204595706005 
819	 0.245302120981296 
820	 0.244382703430202 
821	 0.243610240368829 
822	 0.242481482271576 
823	 0.241048615940553 
824	 0.239495141513001 
825	 0.237695007420556 
826	 0.235901898784029 
827	 0.234005801577019 
828	 0.231901852095534 
829	 0.229692389561218 
830	 0.227741332660673 
831	 0.226133356166871 
832	 0.224751573849997 
833	 0.223446713053103 
834	 0.222347495510999 
835	 0.221566954439562 
836	 0.221154937192859 
837	 0.220437650002389 
838	 0.219614976682613 
839	 0.219014081683207 
840	 0.218769288200236 
841	 0.218372955080321 
842	 0.21791592808776 
843	 0.217625586683455 
844	 0.217188842425439 
845	 0.21665265777024 
846	 0.216180118000868 
847	 0.21594746240706 
848	 0.215599595403221 
849	 0.215203087194775 
850	 0.214811046727103 
851	 0.21439735121701 
852	 0.214124396878734 
853	 0.213949734486146 
854	 0.213681014737695 
855	 0.212905936967128 
856	 0.212558797639553 
857	 0.212393023289107 
858	 0.211998098642439 
859	 0.211652976538538 
860	 0.211531039283189 
861	 0.211311169215394 
862	 0.210628759746416 
863	 0.210511440842167 
864	 0.210332302364839 
865	 0.209869595104916 
866	 0.209394065692201 
867	 0.209032484772381 
868	 0.208646232526653 
869	 0.208197584515063 
870	 0.207831129608346 
871	 0.207470390869205 
872	 0.206918732212991 
873	 0.206175137457251 
874	 0.205712939162188 
875	 0.205309167097479 
876	 0.204784366486982 
877	 0.204104483998938 
878	 0.203707376791565 
879	 0.203231265090134 
880	 0.202730776308049 
881	 0.202379789270037 
882	 0.201831869205192 
883	 0.201012146057256 
884	 0.200206437025138 
885	 0.199845135199503 
886	 0.199329836159811 
887	 0.198841681256462 
888	 0.198381174747731 
889	 0.197683210859777 
890	 0.197018368861685 
891	 0.196702905455942 
892	 0.196643091194509 
893	 0.195994183988235 
894	 0.195454135616949 
895	 0.195089543746725 
896	 0.194700588412295 
897	 0.193847755436659 
898	 0.193546920677402 
899	 0.193066667864575 
900	 0.1917851584203 
901	 0.191584726216224 
902	 0.191059421467988 
903	 0.190427631362702 
904	 0.190242013926766 
905	 0.189268130421173 
906	 0.189167428952455 
907	 0.189455897865583 
908	 0.18831467221026 
909	 0.187017281158906 
910	 0.186060313329443 
911	 0.185563700815328 
912	 0.185250222991487 
913	 0.184130240942386 
914	 0.183021670140985 
915	 0.18219311855435 
916	 0.181049240010684 
917	 0.179815182735912 
918	 0.178426426479244 
919	 0.177069410785474 
920	 0.176267410811645 
921	 0.175054371751617 
922	 0.173687958935777 
923	 0.172482531839373 
924	 0.171372822550612 
925	 0.169782199037904 
926	 0.16846260504943 
927	 0.167925569388128 
928	 0.166166343450298 
929	 0.164507125588403 
930	 0.163787305959689 
931	 0.164171247764458 
932	 0.162885523103735 
933	 0.161347594440231 
934	 0.159864483811944 
935	 0.157791810841191 
936	 0.153677255321618 
937	 0.151017180634627 
938	 0.148779608852047 
939	 0.145720606001219 
940	 0.146195124535476 
941	 0.145568963351131 
942	 0.143580951633496 
943	 0.142045392951958 
944	 0.14029084927877 
945	 0.140011256112448 
946	 0.13948756856455 
947	 0.136229044552549 
948	 0.135777400131711 
949	 0.133724842701105 
950	 0.130065658030635 
951	 0.127553144147559 
952	 0.124287571798103 
953	 0.122420817900501 
954	 0.122064950178398 
955	 0.121824343570608 
956	 0.122454704724514 
957	 0.121210351311606 
958	 0.118021532781979 
959	 0.115235861384185 
960	 0.116668586194834 
961	 0.11607423863204 
962	 0.113906482831987 
963	 0.115072741101023 
964	 0.115313344528557 
965	 0.113895283690685 
966	 0.111666657298364 
967	 0.110378331292966 
968	 0.111334206052339 
969	 0.110983763986422 
970	 0.10948655398979 
971	 0.110115055482033 
972	 0.110705610226783 
973	 0.111024712573046 
974	 0.1110853888924 
975	 0.111006979020977 
976	 0.111113441252561 
977	 0.111074947457125 
978	 0.11047019227966 
979	 0.109228243681328 
980	 0.109552969673684 
981	 0.110931920054943 
982	 0.112193160828152 
983	 0.112218677456672 
984	 0.111770805020869 
985	 0.112428596672537 
986	 0.113021982574781 
987	 0.111113212613568 
988	 0.111535529620656 
989	 0.113086193968923 
990	 0.114660905738665 
991	 0.115533344755663 
992	 0.113554291136944 
993	 0.112967404167876 
994	 0.113745667447356 
995	 0.113224518786391 
996	 0.114969086373559 
997	 0.116403424565276 
998	 0.116390077855549 
999	 0.115637042687703 
1000	 0.117437741403968 
1001	 0.111544876309376 
1002	 0.112507257531781 
1003	 0.112971559493933 
1004	 0.113183848968217 
1005	 0.11354918387753 
1006	 0.113675643671666 
1007	 0.113925763506928 
1008	 0.114545152032493 
1009	 0.115139209971504 
1010	 0.115502250382535 
1011	 0.116059355635665 
1012	 0.116666841839603 
1013	 0.117111019034084 
1014	 0.117779316587494 
1015	 0.118688808239927 
1016	 0.119455640538868 
1017	 0.120368823451112 
1018	 0.121011009461745 
1019	 0.121472631954392 
1020	 0.121993191438692 
1021	 0.122363257349895 
1022	 0.122770241812466 
1023	 0.123282043252984 
1024	 0.123638597363816 
1025	 0.124248713027545 
1026	 0.125163319904 
1027	 0.125974299209548 
1028	 0.127108243739296 
1029	 0.127897225339516 
1030	 0.128491233853487 
1031	 0.129102695393902 
1032	 0.129471571641131 
1033	 0.130157909954922 
1034	 0.13108999330699 
1035	 0.131769925863878 
1036	 0.132663879115943 
1037	 0.133248402885826 
1038	 0.133214108868065 
1039	 0.133635224224009 
1040	 0.134328514680644 
1041	 0.134983293558601 
1042	 0.135934857543817 
1043	 0.1375254049242 
1044	 0.138270157780273 
1045	 0.138897698680434 
1046	 0.139248079743381 
1047	 0.138869785651943 
1048	 0.139166634032232 
1049	 0.139688751865567 
1050	 0.140051836969711 
1051	 0.140537023007668 
1052	 0.141051808485965 
1053	 0.141594509476713 
1054	 0.141940507668292 
1055	 0.142282432842994 
1056	 0.142686283955436 
1057	 0.143025401664669 
1058	 0.143135882411775 
1059	 0.14330840198358 
1060	 0.143447927864561 
1061	 0.14390062105111 
1062	 0.14462815886305 
1063	 0.144811956089086 
1064	 0.145116963610083 
1065	 0.145166290034434 
1066	 0.144444907751769 
1067	 0.144194395583255 
1068	 0.144142997394433 
1069	 0.14416708017473 
1070	 0.144420835472054 
1071	 0.144468979319182 
1072	 0.144589843234722 
1073	 0.144605859037015 
1074	 0.144517661418806 
1075	 0.144190349021751 
1076	 0.143994663137244 
1077	 0.143838108503481 
1078	 0.143588692022324 
1079	 0.143155530849913 
1080	 0.143005296685887 
1081	 0.14313840641963 
1082	 0.142873734765451 
1083	 0.142779362006752 
1084	 0.142245363360916 
1085	 0.140656189830527 
1086	 0.140030879190609 
1087	 0.139960128428976 
1088	 0.139580110197741 
1089	 0.139570337174183 
1090	 0.139544720132695 
1091	 0.139133776064435 
1092	 0.138000260890813 
1093	 0.137500955583088 
1094	 0.137393958622269 
1095	 0.13684032505826 
1096	 0.136165033421425 
1097	 0.135677062998995 
1098	 0.134751587501279 
1099	 0.134292699902958 
1100	 0.134629699511602 
1101	 0.134299344656618 
1102	 0.133864205174029 
1103	 0.133272607986096 
1104	 0.132153296699284 
1105	 0.131002129593605 
1106	 0.130489310860529 
1107	 0.130079584534575 
1108	 0.129702312473201 
1109	 0.129475536550318 
1110	 0.129236392035246 
1111	 0.128910178015569 
1112	 0.128430854983267 
1113	 0.127991189547979 
1114	 0.127567310145074 
1115	 0.12649014575247 
1116	 0.126046776645702 
1117	 0.127188764294014 
1118	 0.126696735492026 
1119	 0.124130183913454 
1120	 0.12321083437677 
1121	 0.120936833488645 
1122	 0.122488872150556 
1123	 0.127195646369928 
1124	 0.127140258436232 
1125	 0.123997149693844 
1126	 0.118120442936677 
1127	 0.111625527947765 
1128	 0.112677600755202 
1129	 0.111687194082818 
1130	 0.113247633795921 
1131	 0.111577173580348 
1132	 0.108490395205246 
1133	 0.106309205774801 
1134	 0.104685776415147 
1135	 0.102633837744618 
1136	 0.1002811514519 
1137	 9.81240774367093E-02 
1138	 9.56170687504829E-02 
1139	 9.30320573219823E-02 
1140	 9.08648108905412E-02 
1141	 0.090824762126494 
1142	 9.10960672581462E-02 
1143	 8.87607346671394E-02 
1144	 8.74967656582724E-02 
