Wavelength	rt0711a200003.asd
350	 0.106438276722704 
351	 0.107375850638004 
352	 0.108800009854703 
353	 0.110029788473442 
354	 0.110824477973408 
355	 0.112413255969571 
356	 0.1138239932115 
357	 0.115560462653354 
358	 0.11795516932495 
359	 0.1186977691492 
360	 0.119892656420706 
361	 0.121917397826277 
362	 0.12380459639822 
363	 0.124752685447915 
364	 0.125732032508274 
365	 0.127239882358369 
366	 0.128752316876721 
367	 0.129917764648997 
368	 0.131117153516496 
369	 0.132665539345629 
370	 0.133897722541657 
371	 0.135049665311683 
372	 0.136340081144446 
373	 0.137877416715728 
374	 0.13896040377499 
375	 0.139867135304 
376	 0.140898298206011 
377	 0.142221056098226 
378	 0.143186532666602 
379	 0.144225758393962 
380	 0.145567542252416 
381	 0.145966080155888 
382	 0.146666625690178 
383	 0.147570170153899 
384	 0.148048738690479 
385	 0.148764367223791 
386	 0.14938678516733 
387	 0.149932783788541 
388	 0.150839103621879 
389	 0.150741182805249 
390	 0.150470298057526 
391	 0.150735192231642 
392	 0.150920740882049 
393	 0.150755702827135 
394	 0.150649361096975 
395	 0.151011389839538 
396	 0.150877647341367 
397	 0.150448201906103 
398	 0.149983334838907 
399	 0.149691703408754 
400	 0.14921342785309 
401	 0.148651151207261 
402	 0.148166705998305 
403	 0.147942670643711 
404	 0.147394946909827 
405	 0.146780927305343 
406	 0.146497568309809 
407	 0.145793714364757 
408	 0.144973618328935 
409	 0.144244202793608 
410	 0.143635074334879 
411	 0.142961167179204 
412	 0.142255994030235 
413	 0.141555466365948 
414	 0.14079141925144 
415	 0.140069225666796 
416	 0.139271292633317 
417	 0.138314572699037 
418	 0.137918847178733 
419	 0.137387714458378 
420	 0.136583605515919 
421	 0.136057128667077 
422	 0.135706691259245 
423	 0.135359557375722 
424	 0.134984184749463 
425	 0.135000237277969 
426	 0.135134809624775 
427	 0.135220786978363 
428	 0.135215110099823 
429	 0.135535465960573 
430	 0.135977258173955 
431	 0.136357971034995 
432	 0.136604728558117 
433	 0.136942109618332 
434	 0.137200581100453 
435	 0.137280215988999 
436	 0.137560956171182 
437	 0.137716492621776 
438	 0.137660702133819 
439	 0.137459766351158 
440	 0.137228672955248 
441	 0.136907820872066 
442	 0.136509857435443 
443	 0.13618685078667 
444	 0.135703854385687 
445	 0.135106578304312 
446	 0.134500867478718 
447	 0.133878808143366 
448	 0.133320004075273 
449	 0.13275418152986 
450	 0.132024129354936 
451	 0.131375703352423 
452	 0.130807174775644 
453	 0.130235083859017 
454	 0.129480992202414 
455	 0.12882353690941 
456	 0.128259064332857 
457	 0.127676980706575 
458	 0.127009665414161 
459	 0.126365460371959 
460	 0.125763118573564 
461	 0.125128294860796 
462	 0.124507745927323 
463	 0.123971868969327 
464	 0.123497976042938 
465	 0.122792325179741 
466	 0.12215242638567 
467	 0.121591638462367 
468	 0.120991421677346 
469	 0.120395494722274 
470	 0.119877952274137 
471	 0.11940352784942 
472	 0.118792929528336 
473	 0.118239328893133 
474	 0.117804916290871 
475	 0.117464143870746 
476	 0.117035610612573 
477	 0.116562019719506 
478	 0.116155514888262 
479	 0.11594537459203 
480	 0.115728528772635 
481	 0.115525450748092 
482	 0.115351537448845 
483	 0.115138725717404 
484	 0.115039007414532 
485	 0.115018863767007 
486	 0.114977341897371 
487	 0.114872589795317 
488	 0.114876134326853 
489	 0.115009655980652 
490	 0.115143820464389 
491	 0.115297344737835 
492	 0.115458063954731 
493	 0.115604570791852 
494	 0.115687301022443 
495	 0.115857930010504 
496	 0.116070536358888 
497	 0.116208590279176 
498	 0.116507641470357 
499	 0.116735171005749 
500	 0.116798576822962 
501	 0.116886070966784 
502	 0.11704588821679 
503	 0.117148406768553 
504	 0.117125368174972 
505	 0.117395767775723 
506	 0.117554819550381 
507	 0.117544199980679 
508	 0.117594170398042 
509	 0.117669883373627 
510	 0.117859035561511 
511	 0.11815588852635 
512	 0.118292470144768 
513	 0.118564893850656 
514	 0.11895026080605 
515	 0.11930069161963 
516	 0.119661928492084 
517	 0.120175439061177 
518	 0.120834267730544 
519	 0.121446473471505 
520	 0.122140853338278 
521	 0.122934721281439 
522	 0.123835120292553 
523	 0.124870742154357 
524	 0.126095270904766 
525	 0.127454383346177 
526	 0.128828280944696 
527	 0.130256350320754 
528	 0.131821726636767 
529	 0.133560417765417 
530	 0.135424914559681 
531	 0.137426883240022 
532	 0.139616904890109 
533	 0.142006054350377 
534	 0.144351383072831 
535	 0.146819839816895 
536	 0.149492845268502 
537	 0.15231121902259 
538	 0.155108266222398 
539	 0.157986855987151 
540	 0.161023866130524 
541	 0.163996043769419 
542	 0.166959745602603 
543	 0.169901120970857 
544	 0.172780648663178 
545	 0.175647450493985 
546	 0.178396648324742 
547	 0.180990876401127 
548	 0.183564743888191 
549	 0.186003098667693 
550	 0.18831427023662 
551	 0.190544720948676 
552	 0.192652827965654 
553	 0.194686842609665 
554	 0.196710480541326 
555	 0.19878441008229 
556	 0.200888488026336 
557	 0.203029668926405 
558	 0.205182228911216 
559	 0.207267441768942 
560	 0.209451038676429 
561	 0.211749789867617 
562	 0.214095237994033 
563	 0.216461931816293 
564	 0.218761672393952 
565	 0.220971445405432 
566	 0.22321443175476 
567	 0.225418186177692 
568	 0.227464100001143 
569	 0.229254965012715 
570	 0.230952325353019 
571	 0.232500204589782 
572	 0.23392284621796 
573	 0.235339481960626 
574	 0.236741381288706 
575	 0.238125085908282 
576	 0.239468702161478 
577	 0.240736712255116 
578	 0.241911534239213 
579	 0.243044530965489 
580	 0.244213792312718 
581	 0.2453136812194 
582	 0.246334363679773 
583	 0.247296622888385 
584	 0.248249513967407 
585	 0.249142213101841 
586	 0.24991490719338 
587	 0.250557048056978 
588	 0.251311239364163 
589	 0.251987894412914 
590	 0.252490981848292 
591	 0.252905504282701 
592	 0.253394986967459 
593	 0.253896766117298 
594	 0.254322722371875 
595	 0.254718380159771 
596	 0.255020797254085 
597	 0.255266509235416 
598	 0.25554444640812 
599	 0.255858671489131 
600	 0.256128585781561 
601	 0.256372920087537 
602	 0.256812157933153 
603	 0.257133403573312 
604	 0.257373072073509 
605	 0.2576713738125 
606	 0.258063249393217 
607	 0.258489076813947 
608	 0.258853358728821 
609	 0.259043680182325 
610	 0.25937265753257 
611	 0.259731278668907 
612	 0.259998349347585 
613	 0.260293022166479 
614	 0.260582471366552 
615	 0.260891712709712 
616	 0.261252534722558 
617	 0.261520706949127 
618	 0.261720011663599 
619	 0.26194137656759 
620	 0.262354217905536 
621	 0.262664373321945 
622	 0.262897603836307 
623	 0.263171472444864 
624	 0.263501727630155 
625	 0.263754905172391 
626	 0.263944922345116 
627	 0.264221128445294 
628	 0.264446173544955 
629	 0.264775252688815 
630	 0.265242222750403 
631	 0.265413243218836 
632	 0.26559719032054 
633	 0.265897538453746 
634	 0.266285568026843 
635	 0.266520478321453 
636	 0.266708286698556 
637	 0.266955647565661 
638	 0.267323630565058 
639	 0.267662320119639 
640	 0.267867156904648 
641	 0.267945819991081 
642	 0.268284626051761 
643	 0.268505594607829 
644	 0.26858266837684 
645	 0.268769713511898 
646	 0.268837987774836 
647	 0.268917241909433 
648	 0.26911645816812 
649	 0.269379223698921 
650	 0.269465413755712 
651	 0.269467615797578 
652	 0.269560772602289 
653	 0.269487733948321 
654	 0.269404694326746 
655	 0.269330658854635 
656	 0.269082119698631 
657	 0.268875095059154 
658	 0.268685612923459 
659	 0.268451781296447 
660	 0.26817755513602 
661	 0.267969521333312 
662	 0.267774306127268 
663	 0.267463149878659 
664	 0.267210619390615 
665	 0.26704791224438 
666	 0.266932571771773 
667	 0.266732346120783 
668	 0.26653921872075 
669	 0.266399799188868 
670	 0.266342108596066 
671	 0.266369297335196 
672	 0.266432774858306 
673	 0.266504670648816 
674	 0.26658581880565 
675	 0.266785613231526 
676	 0.267007998814188 
677	 0.267197804035011 
678	 0.267504164442285 
679	 0.267833243641921 
680	 0.268198002703791 
681	 0.26864880574569 
682	 0.269135459596844 
683	 0.269721926501029 
684	 0.270333442712445 
685	 0.270742440822888 
686	 0.271362583927384 
687	 0.272024923533375 
688	 0.272476214986822 
689	 0.273030744221796 
690	 0.273465567548386 
691	 0.273794950116737 
692	 0.274169003761192 
693	 0.27453772990776 
694	 0.274918284999764 
695	 0.275243191395903 
696	 0.275337537370676 
697	 0.275346477247794 
698	 0.275302946632498 
699	 0.275229198146872 
700	 0.275250650126538 
701	 0.275232680002545 
702	 0.275153383575861 
703	 0.275077658090649 
704	 0.274796287493787 
705	 0.274498034653168 
706	 0.274273216246287 
707	 0.273839486081822 
708	 0.273448298888321 
709	 0.273075565133806 
710	 0.272596219895175 
711	 0.27196461742922 
712	 0.271155166740336 
713	 0.270250519732923 
714	 0.269410956552562 
715	 0.268405165289632 
716	 0.267312727851506 
717	 0.266307452550662 
718	 0.26524818267635 
719	 0.26411817883821 
720	 0.263121330302716 
721	 0.26224881994141 
722	 0.261193906205179 
723	 0.259869729619121 
724	 0.258483998696512 
725	 0.257277638382646 
726	 0.255866301572087 
727	 0.254158907435159 
728	 0.252258105601628 
729	 0.25055569016795 
730	 0.248515564043229 
731	 0.246415719031923 
732	 0.244726282587068 
733	 0.243162130483714 
734	 0.241681289720142 
735	 0.240360618624957 
736	 0.239392777604242 
737	 0.238684927109474 
738	 0.238182287007503 
739	 0.237831548823432 
740	 0.237523864681409 
741	 0.237345817301882 
742	 0.237252441422023 
743	 0.237145630900626 
744	 0.237133225086102 
745	 0.237128518604609 
746	 0.237098864180545 
747	 0.237108619662063 
748	 0.237117305319779 
749	 0.237088458009894 
750	 0.237034095336896 
751	 0.237128155758618 
752	 0.237124916362084 
753	 0.237062883208873 
754	 0.23711422782323 
755	 0.237151262852802 
756	 0.237000159420105 
757	 0.236752237185186 
758	 0.236945361064224 
759	 0.237410755589462 
760	 0.237668753594058 
761	 0.237301951760349 
762	 0.237517592166768 
763	 0.237739170241433 
764	 0.237876216531959 
765	 0.238014076708716 
766	 0.238118282657454 
767	 0.238230213707952 
768	 0.23839318736761 
769	 0.238646901498108 
770	 0.238867917689866 
771	 0.238991798761956 
772	 0.239070585236936 
773	 0.239425977789636 
774	 0.239814961201988 
775	 0.240095017865743 
776	 0.240232402896426 
777	 0.24050337505438 
778	 0.240893434631521 
779	 0.241299080571291 
780	 0.241568503873254 
781	 0.241884181490069 
782	 0.242210891448963 
783	 0.242528366086268 
784	 0.242950766576634 
785	 0.243306148868618 
786	 0.243644360654111 
787	 0.244065545161673 
788	 0.244477848743316 
789	 0.244938926568059 
790	 0.245442733521449 
791	 0.245923397850203 
792	 0.24623754685616 
793	 0.246674979513798 
794	 0.247262390332749 
795	 0.247495621207919 
796	 0.247803453987593 
797	 0.248180437812809 
798	 0.248517254484685 
799	 0.248730163042582 
800	 0.249082004145025 
801	 0.249492384687068 
802	 0.249719950556581 
803	 0.249914498155151 
804	 0.250022438421904 
805	 0.250066251069353 
806	 0.25015663377853 
807	 0.250097956370629 
808	 0.249957582653217 
809	 0.249790026040525 
810	 0.24946839092789 
811	 0.249122737739504 
812	 0.248856562008372 
813	 0.248707019137057 
814	 0.248392065675678 
815	 0.247790914520062 
816	 0.247155434739637 
817	 0.246881694866119 
818	 0.246204595706005 
819	 0.245302120981296 
820	 0.244382703430202 
821	 0.243610240368829 
822	 0.242481482271576 
823	 0.241048615940553 
824	 0.239495141513001 
825	 0.237695007420556 
826	 0.235901898784029 
827	 0.234005801577019 
828	 0.231901852095534 
829	 0.229692389561218 
830	 0.227741332660673 
831	 0.226133356166871 
832	 0.224751573849997 
833	 0.223446713053103 
834	 0.222347495510999 
835	 0.221566954439562 
836	 0.221154937192859 
837	 0.220437650002389 
838	 0.219614976682613 
839	 0.219014081683207 
840	 0.218769288200236 
841	 0.218372955080321 
842	 0.21791592808776 
843	 0.217625586683455 
844	 0.217188842425439 
845	 0.21665265777024 
846	 0.216180118000868 
847	 0.21594746240706 
848	 0.215599595403221 
849	 0.215203087194775 
850	 0.214811046727103 
851	 0.21439735121701 
852	 0.214124396878734 
853	 0.213949734486146 
854	 0.213681014737695 
855	 0.212905936967128 
856	 0.212558797639553 
857	 0.212393023289107 
858	 0.211998098642439 
859	 0.211652976538538 
860	 0.211531039283189 
861	 0.211311169215394 
862	 0.210628759746416 
863	 0.210511440842167 
864	 0.210332302364839 
865	 0.209869595104916 
866	 0.209394065692201 
867	 0.209032484772381 
868	 0.208646232526653 
869	 0.208197584515063 
870	 0.207831129608346 
871	 0.207470390869205 
872	 0.206918732212991 
873	 0.206175137457251 
874	 0.205712939162188 
875	 0.205309167097479 
876	 0.204784366486982 
877	 0.204104483998938 
878	 0.203707376791565 
879	 0.203231265090134 
880	 0.202730776308049 
881	 0.202379789270037 
882	 0.201831869205192 
883	 0.201012146057256 
884	 0.200206437025138 
885	 0.199845135199503 
886	 0.199329836159811 
887	 0.198841681256462 
888	 0.198381174747731 
889	 0.197683210859777 
890	 0.197018368861685 
891	 0.196702905455942 
892	 0.196643091194509 
893	 0.195994183988235 
894	 0.195454135616949 
895	 0.195089543746725 
896	 0.194700588412295 
897	 0.193847755436659 
898	 0.193546920677402 
899	 0.193066667864575 
900	 0.1917851584203 
901	 0.191584726216224 
902	 0.191059421467988 
903	 0.190427631362702 
904	 0.190242013926766 
905	 0.189268130421173 
906	 0.189167428952455 
907	 0.189455897865583 
908	 0.18831467221026 
909	 0.187017281158906 
910	 0.186060313329443 
911	 0.185563700815328 
912	 0.185250222991487 
913	 0.184130240942386 
914	 0.183021670140985 
915	 0.18219311855435 
916	 0.181049240010684 
917	 0.179815182735912 
918	 0.178426426479244 
919	 0.177069410785474 
920	 0.176267410811645 
921	 0.175054371751617 
922	 0.173687958935777 
923	 0.172482531839373 
924	 0.171372822550612 
925	 0.169782199037904 
926	 0.16846260504943 
927	 0.167925569388128 
928	 0.166166343450298 
929	 0.164507125588403 
930	 0.163787305959689 
931	 0.164171247764458 
932	 0.162885523103735 
933	 0.161347594440231 
934	 0.159864483811944 
935	 0.157791810841191 
936	 0.153677255321618 
937	 0.151017180634627 
938	 0.148779608852047 
939	 0.145720606001219 
940	 0.146195124535476 
941	 0.145568963351131 
942	 0.143580951633496 
943	 0.142045392951958 
944	 0.14029084927877 
945	 0.140011256112448 
946	 0.13948756856455 
947	 0.136229044552549 
948	 0.135777400131711 
949	 0.133724842701105 
950	 0.130065658030635 
951	 0.127553144147559 
952	 0.124287571798103 
953	 0.122420817900501 
954	 0.122064950178398 
955	 0.121824343570608 
956	 0.122454704724514 
957	 0.121210351311606 
958	 0.118021532781979 
959	 0.115235861384185 
960	 0.116668586194834 
961	 0.11607423863204 
962	 0.113906482831987 
963	 0.115072741101023 
964	 0.115313344528557 
965	 0.113895283690685 
966	 0.111666657298364 
967	 0.110378331292966 
968	 0.111334206052339 
969	 0.110983763986422 
970	 0.10948655398979 
971	 0.110115055482033 
972	 0.110705610226783 
973	 0.111024712573046 
974	 0.1110853888924 
975	 0.111006979020977 
976	 0.111113441252561 
977	 0.111074947457125 
978	 0.11047019227966 
979	 0.109228243681328 
980	 0.109552969673684 
981	 0.110931920054943 
982	 0.112193160828152 
983	 0.112218677456672 
984	 0.111770805020869 
985	 0.112428596672537 
986	 0.113021982574781 
987	 0.111113212613568 
988	 0.111535529620656 
989	 0.113086193968923 
990	 0.114660905738665 
991	 0.115533344755663 
992	 0.113554291136944 
993	 0.112967404167876 
994	 0.113745667447356 
995	 0.113224518786391 
996	 0.114969086373559 
997	 0.116403424565276 
998	 0.116390077855549 
999	 0.115637042687703 
1000	 0.117437741403968 
1001	 0.111544876309376 
1002	 0.112507257531781 
1003	 0.112971559493933 
1004	 0.113183848968217 
1005	 0.11354918387753 
1006	 0.113675643671666 
1007	 0.113925763506928 
1008	 0.114545152032493 
1009	 0.115139209971504 
1010	 0.115502250382535 
1011	 0.116059355635665 
1012	 0.116666841839603 
1013	 0.117111019034084 
1014	 0.117779316587494 
1015	 0.118688808239927 
1016	 0.119455640538868 
1017	 0.120368823451112 
1018	 0.121011009461745 
1019	 0.121472631954392 
1020	 0.121993191438692 
1021	 0.122363257349895 
1022	 0.122770241812466 
1023	 0.123282043252984 
1024	 0.123638597363816 
1025	 0.124248713027545 
1026	 0.125163319904 
1027	 0.125974299209548 
1028	 0.127108243739296 
1029	 0.127897225339516 
1030	 0.128491233853487 
1031	 0.129102695393902 
1032	 0.129471571641131 
1033	 0.130157909954922 
1034	 0.13108999330699 
1035	 0.131769925863878 
1036	 0.132663879115943 
1037	 0.133248402885826 
1038	 0.133214108868065 
1039	 0.133635224224009 
1040	 0.134328514680644 
1041	 0.134983293558601 
1042	 0.135934857543817 
1043	 0.1375254049242 
1044	 0.138270157780273 
1045	 0.138897698680434 
1046	 0.139248079743381 
1047	 0.138869785651943 
1048	 0.139166634032232 
1049	 0.139688751865567 
1050	 0.140051836969711 
1051	 0.140537023007668 
1052	 0.141051808485965 
1053	 0.141594509476713 
1054	 0.141940507668292 
1055	 0.142282432842994 
1056	 0.142686283955436 
1057	 0.143025401664669 
1058	 0.143135882411775 
1059	 0.14330840198358 
1060	 0.143447927864561 
1061	 0.14390062105111 
1062	 0.14462815886305 
1063	 0.144811956089086 
1064	 0.145116963610083 
1065	 0.145166290034434 
1066	 0.144444907751769 
1067	 0.144194395583255 
1068	 0.144142997394433 
1069	 0.14416708017473 
1070	 0.144420835472054 
1071	 0.144468979319182 
1072	 0.144589843234722 
1073	 0.144605859037015 
1074	 0.144517661418806 
1075	 0.144190349021751 
1076	 0.143994663137244 
1077	 0.143838108503481 
1078	 0.143588692022324 
1079	 0.143155530849913 
1080	 0.143005296685887 
1081	 0.14313840641963 
1082	 0.142873734765451 
1083	 0.142779362006752 
1084	 0.142245363360916 
1085	 0.140656189830527 
1086	 0.140030879190609 
1087	 0.139960128428976 
1088	 0.139580110197741 
1089	 0.139570337174183 
1090	 0.139544720132695 
1091	 0.139133776064435 
1092	 0.138000260890813 
1093	 0.137500955583088 
1094	 0.137393958622269 
1095	 0.13684032505826 
1096	 0.136165033421425 
1097	 0.135677062998995 
1098	 0.134751587501279 
1099	 0.134292699902958 
1100	 0.134629699511602 
1101	 0.134299344656618 
1102	 0.133864205174029 
1103	 0.133272607986096 
1104	 0.132153296699284 
1105	 0.131002129593605 
1106	 0.130489310860529 
1107	 0.130079584534575 
1108	 0.129702312473201 
1109	 0.129475536550318 
1110	 0.129236392035246 
1111	 0.128910178015569 
1112	 0.128430854983267 
1113	 0.127991189547979 
1114	 0.127567310145074 
1115	 0.12649014575247 
1116	 0.126046776645702 
1117	 0.127188764294014 
1118	 0.126696735492026 
1119	 0.124130183913454 
1120	 0.12321083437677 
1121	 0.120936833488645 
1122	 0.122488872150556 
1123	 0.127195646369928 
1124	 0.127140258436232 
1125	 0.123997149693844 
1126	 0.118120442936677 
1127	 0.111625527947765 
1128	 0.112677600755202 
1129	 0.111687194082818 
1130	 0.113247633795921 
1131	 0.111577173580348 
1132	 0.108490395205246 
1133	 0.106309205774801 
1134	 0.104685776415147 
1135	 0.102633837744618 
1136	 0.1002811514519 
1137	 9.81240774367093E-02 
1138	 9.56170687504829E-02 
1139	 9.30320573219823E-02 
1140	 9.08648108905412E-02 
1141	 0.090824762126494 
1142	 9.10960672581462E-02 
1143	 8.87607346671394E-02 
1144	 8.74967656582724E-02 
1145	 8.59965293160062E-02 
1146	 8.09031288076178E-02 
1147	 7.91938992143719E-02 
1148	 8.10911356670116E-02 
1149	 0.079487839192117 
1150	 7.75568267509853E-02 
1151	 7.66248560892005E-02 
1152	 7.50462819980752E-02 
1153	 7.11214270982699E-02 
1154	 7.03336480879259E-02 
1155	 7.15597539182134E-02 
1156	 7.09287588795809E-02 
1157	 7.07620327959596E-02 
1158	 7.06039456334167E-02 
1159	 6.88707036100376E-02 
1160	 6.83752674110984E-02 
1161	 6.89722270544038E-02 
1162	 6.87226503992261E-02 
1163	 6.83077853493082E-02 
1164	 6.83677163017358E-02 
1165	 6.81955659218629E-02 
1166	 6.75193180941322E-02 
1167	 6.70833839663993E-02 
1168	 6.69713769370366E-02 
1169	 6.69044780602618E-02 
1170	 6.68923326486156E-02 
1171	 6.66860268777579E-02 
1172	 6.64773278361085E-02 
1173	 6.64847795436903E-02 
1174	 6.63838237433981E-02 
1175	 6.62491231011494E-02 
1176	 6.64381054801188E-02 
1177	 6.67778199531461E-02 
1178	 6.67718285400712E-02 
1179	 6.65914379619892E-02 
1180	 6.64028465753534E-02 
1181	 6.62940142512356E-02 
1182	 0.066321542848576 
1183	 6.63904586686758E-02 
1184	 0.066427889992571 
1185	 6.63875160848956E-02 
1186	 6.60522005480744E-02 
1187	 6.57132391067236E-02 
1188	 6.57836543578101E-02 
1189	 6.57611942321635E-02 
1190	 6.57397350340437E-02 
1191	 6.57990575724423E-02 
1192	 6.56948793005094E-02 
1193	 6.53983626487401E-02 
1194	 6.53510093528805E-02 
1195	 0.065330411447745 
1196	 6.50405899298791E-02 
1197	 6.50601420564422E-02 
1198	 6.52282854880307E-02 
1199	 0.06528747883513 
1200	 6.54756305497486E-02 
1201	 0.065584653598846 
1202	 6.55489452786965E-02 
1203	 6.54643660273113E-02 
1204	 6.53968749272949E-02 
1205	 6.54337108354877E-02 
1206	 6.54468211136627E-02 
1207	 6.53233861755262E-02 
1208	 6.55558208048478E-02 
1209	 6.58306658178973E-02 
1210	 6.54936548365281E-02 
1211	 6.55259810364092E-02 
1212	 6.58573509574231E-02 
1213	 6.57498644961133E-02 
1214	 6.57076315681376E-02 
1215	 6.58660724791623E-02 
1216	 6.61267810667103E-02 
1217	 6.61922123820136E-02 
1218	 6.62437928179137E-02 
1219	 0.066296242584749 
1220	 6.63486883249436E-02 
1221	 6.63015409349103E-02 
1222	 6.61349983307775E-02 
1223	 6.64529497484102E-02 
1224	 6.69390695173988E-02 
1225	 6.67357532359376E-02 
1226	 0.06679668730437 
1227	 6.72397773110122E-02 
1228	 6.70457175990317E-02 
1229	 6.70112988240868E-02 
1230	 6.74286221514977E-02 
1231	 6.75357729163903E-02 
1232	 6.75305777910632E-02 
1233	 6.75904487632093E-02 
1234	 6.75838997284061E-02 
1235	 6.76186800062801E-02 
1236	 6.75821457572531E-02 
1237	 6.76423654669776E-02 
1238	 0.067866430850417 
1239	 6.79537869620294E-02 
1240	 6.77994646585071E-02 
1241	 6.79702428039795E-02 
1242	 6.82771497848854E-02 
1243	 6.83186306399362E-02 
1244	 6.84445602142562E-02 
1245	 6.86176753631608E-02 
1246	 6.86863163080384E-02 
1247	 0.068732833927336 
1248	 6.88635555036995E-02 
1249	 6.89670577484284E-02 
1250	 6.88687211107863E-02 
1251	 6.89095512596786E-02 
1252	 6.90945745358647E-02 
1253	 6.90574068135027E-02 
1254	 6.89723230797693E-02 
1255	 0.069150414842612 
1256	 6.93176415949086E-02 
1257	 6.95997727641848E-02 
1258	 6.96306414589436E-02 
1259	 6.94797518958507E-02 
1260	 6.95162576261432E-02 
1261	 6.95599467907727E-02 
1262	 0.069489978762101 
1263	 6.95092479343238E-02 
1264	 6.95968433069186E-02 
1265	 6.94631445461018E-02 
1266	 6.92669480499941E-02 
1267	 0.069297211241186 
1268	 6.93934854201422E-02 
1269	 6.94991837519591E-02 
1270	 6.95796412295021E-02 
1271	 6.96050220936682E-02 
1272	 6.96795667281757E-02 
1273	 6.94805361996032E-02 
1274	 6.90283015993393E-02 
1275	 6.89180737373442E-02 
1276	 6.90226554852681E-02 
1277	 6.88769956031854E-02 
1278	 6.86388591782939E-02 
1279	 6.84618299020221E-02 
1280	 6.82778509717665E-02 
1281	 6.80626666549031E-02 
1282	 6.79883568158808E-02 
1283	 6.78361188066796E-02 
1284	 6.74617760611906E-02 
1285	 6.72058087796139E-02 
1286	 6.71074535617917E-02 
1287	 6.69602326918548E-02 
1288	 0.066912124837431 
1289	 6.65774245831921E-02 
1290	 6.59451786896579E-02 
1291	 6.56350342255664E-02 
1292	 6.54103727188194E-02 
1293	 6.49814201071336E-02 
1294	 6.48070440716396E-02 
1295	 6.45276691310194E-02 
1296	 6.40102974078228E-02 
1297	 0.06389061187106 
1298	 6.38273499061167E-02 
1299	 6.34579733723403E-02 
1300	 6.31535271260846E-02 
1301	 6.27767973134264E-02 
1302	 6.23263938946606E-02 
1303	 0.061928424688908 
1304	 6.14081688905818E-02 
1305	 6.08692045656707E-02 
1306	 6.03404533147598E-02 
1307	 5.99342485503287E-02 
1308	 5.94989334130921E-02 
1309	 5.89653242266563E-02 
1310	 5.84755597784046E-02 
1311	 5.82234430083341E-02 
1312	 5.77452226169154E-02 
1313	 5.68666205635679E-02 
1314	 5.63734024480679E-02 
1315	 5.62528967176423E-02 
1316	 5.57957012601283E-02 
1317	 5.51951082381277E-02 
1318	 5.48635741356883E-02 
1319	 5.44801881436387E-02 
1320	 5.40265054699801E-02 
1321	 5.36757298256965E-02 
1322	 5.37491525715599E-02 
1323	 5.33492101959718E-02 
1324	 5.23032756695266E-02 
1325	 0.05169391191185 
1326	 5.13507250263042E-02 
1327	 5.10246932195897E-02 
1328	 5.11184542057418E-02 
1329	 5.08741529518468E-02 
1330	 5.04223423168449E-02 
1331	 5.00505212615102E-02 
1332	 4.91752951476713E-02 
1333	 4.84257736263105E-02 
1334	 4.79928919411659E-02 
1335	 4.74735741956445E-02 
1336	 0.046991398835776 
1337	 0.046467281990246 
1338	 0.045805356480756 
1339	 4.54905743384249E-02 
1340	 4.50898467801495E-02 
1341	 4.53260146907618E-02 
1342	 4.70314758617258E-02 
1343	 4.72898432705277E-02 
1344	 4.64813983107058E-02 
1345	 4.66767934535926E-02 
1346	 4.67014936211575E-02 
1347	 4.64503612528911E-02 
1348	 4.78865510338127E-02 
1349	 4.89649514412903E-02 
1350	 4.72101372706636E-02 
1351	 0.045636130143614 
1352	 4.43982174278332E-02 
1353	 4.55904558565488E-02 
1354	 5.27333100635092E-02 
1355	 5.17886814583663E-02 
1356	 0.065038158728526 
1357	 0.10890963210584 
1358	 0.151261501142791 
1359	 0.191514792055517 
1360	 0.190553388570752 
1361	 0.142487374753319 
1362	 7.64676455390513E-02 
1363	 6.60170745461958E-02 
1364	 9.23225895583448E-02 
1365	 0.122556599847573 
1366	 0.252091225387574 
1367	 0.206674336270586 
1368	 0.166737649544733 
1369	 0.106744157464029 
1370	 0.160900980908533 
1371	 0.199125378059564 
1372	 0.195535693898649 
1373	 0.312857521232538 
1374	 0.314941397962117 
1375	 0.113686619989097 
1376	 3.52030680465042E-02 
1377	 7.23716268275862E-02 
1378	 0.131717621013454 
1379	 0.293849743279082 
1380	 0.421098997079398 
1381	 0.655849316334423 
1382	 0.638943633809896 
1383	 0.252030187062582 
1384	 0.295047459688028 
1385	 0.610977932482526 
1386	 0.652709799890105 
1387	 0.785029595491867 
1388	 0.768701521927749 
1389	 0.267856648870141 
1390	 0.109188559201311 
1391	 0.149529768777877 
1392	 0.228854336475563 
1393	 0.253486978652072 
1394	 0.320690572586212 
1395	 0.25348317751599 
1396	 1.70037749185457E-03 
1397	 0.112212847752689 
1398	 0.375422046483456 
1399	 0.57235536264262 
1400	 0.478614325666076 
1401	 0.289535356612115 
1402	 0.200555038809654 
1403	 0.266332257790227 
1404	 0.386381875713274 
1405	 0.305961997004233 
1406	 0.125101818600031 
1407	 0.118332565969786 
1408	 0.109741172459559 
1409	 9.51628824613706E-02 
1410	 0.180125898792029 
1411	 0.162923039936698 
1412	 0.049447330996414 
1413	 5.71785034963263E-02 
1414	 0.130089698636265 
1415	 0.123787521289158 
1416	 0.113846757733813 
1417	 0.10056212899079 
1418	 6.07866847518214E-02 
1419	 4.05915626540825E-02 
1420	 3.35503603916587E-02 
1421	 2.88304370397299E-02 
1422	 2.67940003206899E-02 
1423	 2.26616994064524E-02 
1424	 8.30039048576033E-03 
1425	 1.58666947188268E-02 
1426	 4.43706983651454E-02 
1427	 4.32433801297257E-02 
1428	 3.14485020858385E-02 
1429	 3.53716878674239E-02 
1430	 3.57064044016868E-02 
1431	 3.06728099890839E-02 
1432	 3.25977455129662E-02 
1433	 3.89497454174413E-02 
1434	 4.16610193519181E-02 
1435	 3.86732726486724E-02 
1436	 3.90108651742741E-02 
1437	 4.23826648620067E-02 
1438	 0.038513532184818 
1439	 3.21986179949163E-02 
1440	 2.94674640352934E-02 
1441	 3.25681937588434E-02 
1442	 3.33279009713693E-02 
1443	 3.08598783449084E-02 
1444	 2.88713738379335E-02 
1445	 2.67287261596623E-02 
1446	 2.41785294573475E-02 
1447	 2.10372198670633E-02 
1448	 1.98040263297866E-02 
1449	 2.22743818799825E-02 
1450	 2.35613577060229E-02 
1451	 2.33710583279631E-02 
1452	 2.64728153391599E-02 
1453	 2.70235942515357E-02 
1454	 2.57840674754598E-02 
1455	 2.30713915573923E-02 
1456	 2.31632878207261E-02 
1457	 2.28723552553011E-02 
1458	 2.24793199324043E-02 
1459	 2.37820269851928E-02 
1460	 2.38742606290752E-02 
1461	 2.20146577962156E-02 
1462	 2.16806193895402E-02 
1463	 2.28699185321262E-02 
1464	 2.30233332378936E-02 
1465	 2.22436979414322E-02 
1466	 2.22619747882198E-02 
1467	 2.30412156082158E-02 
1468	 0.023272140687378 
1469	 2.35804212839621E-02 
1470	 2.35614134336149E-02 
1471	 2.25130285923342E-02 
1472	 0.022732649488867 
1473	 2.38066197482955E-02 
1474	 2.38857669039173E-02 
1475	 2.46313390687928E-02 
1476	 2.43951165624439E-02 
1477	 2.24913937736562E-02 
1478	 2.19122987377451E-02 
1479	 2.20501326057088E-02 
1480	 2.16119000353243E-02 
1481	 2.06400990448614E-02 
1482	 2.10161349453438E-02 
1483	 2.24945034669097E-02 
1484	 2.23086219435788E-02 
1485	 2.19674205695421E-02 
1486	 2.19304838386334E-02 
1487	 2.10361639981895E-02 
1488	 2.05133694383988E-02 
1489	 2.02584123490269E-02 
1490	 2.05038502517908E-02 
1491	 2.14722591465619E-02 
1492	 2.12847620545584E-02 
1493	 2.04651853249821E-02 
1494	 2.05746683963305E-02 
1495	 2.05102865351362E-02 
1496	 2.03410617555011E-02 
1497	 2.07319866668946E-02 
1498	 0.0211768242387 
1499	 2.15460177595966E-02 
1500	 2.15080641243769E-02 
1501	 2.15613457481517E-02 
1502	 2.16884455102134E-02 
1503	 0.021309832836486 
1504	 2.10738483983177E-02 
1505	 2.11155292168153E-02 
1506	 2.11951966460363E-02 
1507	 2.09630436874315E-02 
1508	 2.09671254722954E-02 
1509	 2.12040333159712E-02 
1510	 2.14343642734896E-02 
1511	 2.14995781408903E-02 
1512	 2.13585344983194E-02 
1513	 0.021329090158797 
1514	 2.14159222682993E-02 
1515	 2.12872149379204E-02 
1516	 2.13894106646064E-02 
1517	 2.18946943711515E-02 
1518	 2.18286139055667E-02 
1519	 2.16600092312231E-02 
1520	 2.19875164652248E-02 
1521	 2.19062327123055E-02 
1522	 2.16754384972328E-02 
1523	 2.19521865586969E-02 
1524	 2.22454490241342E-02 
1525	 2.21783978959553E-02 
1526	 2.21690253203276E-02 
1527	 2.25753295227395E-02 
1528	 2.26981641903205E-02 
1529	 2.23672842577985E-02 
1530	 2.23063719010352E-02 
1531	 2.23105654381164E-02 
1532	 2.24287507864059E-02 
1533	 2.27736241908093E-02 
1534	 2.28619537102668E-02 
1535	 0.022836041898351 
1536	 0.022917383999606 
1537	 0.023151921394309 
1538	 2.34889320300679E-02 
1539	 2.36735967351877E-02 
1540	 2.36726614797539E-02 
1541	 0.023606105212535 
1542	 0.023637514341445 
1543	 2.37319399532739E-02 
1544	 2.36174454079642E-02 
1545	 2.35476638772938E-02 
1546	 2.37384730202757E-02 
1547	 2.39222690052551E-02 
1548	 2.40172485382939E-02 
1549	 0.023935029677104 
1550	 2.38290735495373E-02 
1551	 2.40423417313631E-02 
1552	 0.024207916923446 
1553	 2.41894738806633E-02 
1554	 2.44195550583867E-02 
1555	 2.45735631602761E-02 
1556	 2.43612337658156E-02 
1557	 2.42135934751906E-02 
1558	 2.43620584024033E-02 
1559	 2.44852640520016E-02 
1560	 2.44022690723266E-02 
1561	 2.44321630595762E-02 
1562	 2.45942697993677E-02 
1563	 2.48996763905218E-02 
1564	 2.51481047197963E-02 
1565	 2.51463426951082E-02 
1566	 2.53739562519157E-02 
1567	 2.54004757302267E-02 
1568	 2.51891324611168E-02 
1569	 2.54623865868207E-02 
1570	 2.56894379824235E-02 
1571	 2.55954651227442E-02 
1572	 0.0256152338905 
1573	 2.57355615402822E-02 
1574	 2.57394087042938E-02 
1575	 2.56758919220163E-02 
1576	 2.57897863931644E-02 
1577	 2.60001294165543E-02 
1578	 2.60574635741781E-02 
1579	 0.026136213819457 
1580	 0.026216543473157 
1581	 2.61920546148241E-02 
1582	 2.62086057190701E-02 
1583	 2.63443592136566E-02 
1584	 0.026556639731205 
1585	 2.65333528409247E-02 
1586	 2.64062894721912E-02 
1587	 2.64615933549783E-02 
1588	 2.65905570753718E-02 
1589	 2.66153858208163E-02 
1590	 2.66156928957803E-02 
1591	 2.68130462759571E-02 
1592	 2.69353683334245E-02 
1593	 2.69691137402399E-02 
1594	 2.71572461304483E-02 
1595	 0.027132384954741 
1596	 0.027010589269971 
1597	 2.70655448907938E-02 
1598	 2.70606083224726E-02 
1599	 2.71440457653638E-02 
1600	 2.72343318300585E-02 
1601	 2.71813536021692E-02 
1602	 2.73556980032639E-02 
1603	 2.76210148289801E-02 
1604	 2.76778925024903E-02 
1605	 0.027798519675505 
1606	 2.78961674666333E-02 
1607	 2.78170145105509E-02 
1608	 0.027801634470059 
1609	 2.80926276838933E-02 
1610	 0.028429867840623 
1611	 2.83075942404317E-02 
1612	 2.81274466067684E-02 
1613	 2.79881631986726E-02 
1614	 2.77356858576419E-02 
1615	 2.78466452949801E-02 
1616	 2.80395197516267E-02 
1617	 2.81137693303319E-02 
1618	 2.83718828701559E-02 
1619	 2.85104310991014E-02 
1620	 2.85217048649911E-02 
1621	 2.83388261000704E-02 
1622	 2.81713868715696E-02 
1623	 2.84724475845855E-02 
1624	 2.86416205785896E-02 
1625	 2.87032845236383E-02 
1626	 2.88402239442351E-02 
1627	 2.87964324402676E-02 
1628	 2.89269243475286E-02 
1629	 2.90930761762094E-02 
1630	 2.89148313415842E-02 
1631	 2.88102336836351E-02 
1632	 2.88244935892209E-02 
1633	 2.87341505806382E-02 
1634	 2.88494717264892E-02 
1635	 2.90020348776677E-02 
1636	 2.89017618559361E-02 
1637	 2.88925914075848E-02 
1638	 2.90434563267845E-02 
1639	 2.90721382804535E-02 
1640	 0.028996021862713 
1641	 2.88901223389472E-02 
1642	 2.89125951628644E-02 
1643	 2.89132366030001E-02 
1644	 2.89013850339202E-02 
1645	 2.92053380884031E-02 
1646	 2.95127206529088E-02 
1647	 2.96142299556298E-02 
1648	 0.029388345470545 
1649	 2.92097132371273E-02 
1650	 2.94650386335135E-02 
1651	 2.95986938385975E-02 
1652	 2.97339720214656E-02 
1653	 2.98814752812892E-02 
1654	 2.97566113361615E-02 
1655	 2.95497302615877E-02 
1656	 2.95679299315256E-02 
1657	 2.94405783798937E-02 
1658	 2.94045060588327E-02 
1659	 2.96616001334418E-02 
1660	 2.96885822837977E-02 
1661	 2.94132673550598E-02 
1662	 2.95584612416341E-02 
1663	 3.00921334835084E-02 
1664	 3.00158762834061E-02 
1665	 2.97070062148462E-02 
1666	 2.97813716684873E-02 
1667	 2.96137202251305E-02 
1668	 0.029982940932675 
1669	 0.030398616834026 
1670	 3.03632363232374E-02 
1671	 3.00158688941821E-02 
1672	 2.97917283619603E-02 
1673	 2.97639644682732E-02 
1674	 2.97758578244232E-02 
1675	 2.97872810674173E-02 
1676	 0.029644590242827 
1677	 2.96219509678854E-02 
1678	 2.97691151983202E-02 
1679	 2.98682256305684E-02 
1680	 2.99834486326707E-02 
1681	 3.00456226592332E-02 
1682	 0.030229355738284 
1683	 3.04310313425807E-02 
1684	 3.00840347369577E-02 
1685	 0.029735300688722 
1686	 2.99165843588191E-02 
1687	 2.98138023451119E-02 
1688	 0.029717025131854 
1689	 3.00028573941587E-02 
1690	 0.029743502303949 
1691	 2.95555954390955E-02 
1692	 2.99921054798963E-02 
1693	 2.99466720261633E-02 
1694	 2.96550841851085E-02 
1695	 2.95985528137708E-02 
1696	 2.95404916192384E-02 
1697	 2.98274080934637E-02 
1698	 3.02407553421913E-02 
1699	 0.030205933526891 
1700	 2.98658525171869E-02 
1701	 2.98818667601692E-02 
1702	 2.98958212662453E-02 
1703	 2.96265764871005E-02 
1704	 2.98489025410237E-02 
1705	 2.99970365441036E-02 
1706	 2.98423535115839E-02 
1707	 2.98467695799363E-02 
1708	 2.98450179972973E-02 
1709	 2.97821741401563E-02 
1710	 2.93663451502915E-02 
1711	 0.029194308379183 
1712	 2.93611432572702E-02 
1713	 2.93153296766197E-02 
1714	 2.93061560064482E-02 
1715	 2.93689320231284E-02 
1716	 2.94702232027659E-02 
1717	 2.92434782397957E-02 
1718	 2.90279954146906E-02 
1719	 2.91164551902285E-02 
1720	 2.93048903509923E-02 
1721	 2.93728392878909E-02 
1722	 2.88836952331742E-02 
1723	 2.88165693312492E-02 
1724	 0.028895115615314 
1725	 2.81687400695377E-02 
1726	 2.84160055943947E-02 
1727	 2.92359686727551E-02 
1728	 2.88257101022902E-02 
1729	 2.84672695564428E-02 
1730	 2.85364287426737E-02 
1731	 2.79877572138537E-02 
1732	 2.75334712338339E-02 
1733	 2.83753504827845E-02 
1734	 2.94181921110549E-02 
1735	 2.86430644008822E-02 
1736	 2.75274265077079E-02 
1737	 2.75129728131242E-02 
1738	 2.73205454867719E-02 
1739	 2.75334098793977E-02 
1740	 2.81993257926378E-02 
1741	 2.75490580665196E-02 
1742	 2.64601813026904E-02 
1743	 2.63103686280834E-02 
1744	 2.67308839488788E-02 
1745	 2.74354083494187E-02 
1746	 2.83857903558461E-02 
1747	 2.84798929382169E-02 
1748	 2.81091779075213E-02 
1749	 2.78555661940929E-02 
1750	 2.69322135663184E-02 
1751	 2.65463703303954E-02 
1752	 2.65755979228977E-02 
1753	 2.64447781686216E-02 
1754	 2.63894864542407E-02 
1755	 2.62920803636736E-02 
1756	 2.61945773901321E-02 
1757	 2.66402883207034E-02 
1758	 2.64652644520553E-02 
1759	 2.60681814763997E-02 
1760	 2.62026266807826E-02 
1761	 2.61261360204164E-02 
1762	 2.61247694814969E-02 
1763	 2.63375754458342E-02 
1764	 2.58917227803736E-02 
1765	 2.57768589232487E-02 
1766	 2.60845650522468E-02 
1767	 2.66452080095727E-02 
1768	 2.74429664048296E-02 
1769	 2.67182747362003E-02 
1770	 2.59905982864143E-02 
1771	 2.62988738324724E-02 
1772	 2.56339811170714E-02 
1773	 2.58078734460347E-02 
1774	 2.66799781105559E-02 
1775	 2.60778534503115E-02 
1776	 2.62390880739025E-02 
1777	 2.71866793499799E-02 
1778	 2.71535256997101E-02 
1779	 2.67538023031986E-02 
1780	 2.65177332919864E-02 
1781	 2.51668068875811E-02 
1782	 2.56035569394105E-02 
1783	 2.76250325224015E-02 
1784	 0.028147066395905 
1785	 2.89263525752873E-02 
1786	 2.95390644386269E-02 
1787	 2.97034360694574E-02 
1788	 2.92394545180228E-02 
1789	 2.84958136709575E-02 
1790	 2.84361300280598E-02 
1791	 2.58091553315664E-02 
1792	 2.53056824694058E-02 
1793	 2.65314771251295E-02 
1794	 0.02556423106524 
1795	 2.76993008140586E-02 
1796	 3.07428786292876E-02 
1797	 3.05820808592903E-02 
1798	 0.028087153856595 
1799	 2.53111057435609E-02 
1800	 2.50621554293322E-02 
1801	 0.025772898240545 
1802	 3.43528407835967E-02 
1803	 0.037779371067024 
1804	 3.73728641398579E-02 
1805	 0.035679215947963 
1806	 1.96241099571904E-02 
1807	 2.24829352775325E-02 
1808	 5.27787934300378E-02 
1809	 5.06007448007754E-02 
1810	 3.39996455172937E-02 
1811	 3.07043585814589E-02 
1812	-2.90834508504785E-02 
1813	-3.20619651318593E-02 
1814	 8.97823002085806E-02 
1815	 0.137821081681073 
1816	 0.129548906392721 
1817	 0.408141488224026 
1818	 0.444361975370111 
1819	 0.291375893098843 
1820	 0.144261220957289 
1821	-0.62043237900755 
1822	-1.04353674718956 
1823	 0.383678353515857 
1824	 0.872249829995563 
1825	 1.03917402553542 
1826	 1.08693928221073 
1827	 0.31636636960145 
1828	-4.85607569228209E-02 
1829	-9.85127856510356 
1830	-17.0185643288547 
1831	-1.28986788247421 
1832	-1.62353105114225 
1833	-4.00079703345721 
1834	-3.93673421538972 
1835	-0.638036288690477 
1836	-0.303960487419871 
1837	 0.86026428420153 
1838	 1.6723451636087 
1839	-1.65685615732445 
1840	-0.392512939959533 
1841	 0.66928214734133 
1842	 17.1333694781513 
1843	 394.35062825003 
1844	-2.49314339915032 
1845	-1.14922993217308 
1846	-2.96903622983222 
1847	-3.42836586745746 
1848	 2.11888752757409 
1849	 0.64384660896099 
1850	 0.115857038344531 
1851	-1.50762684900392 
1852	-2.21229001768875 
1853	-2.01262934806883 
1854	-0.66863768287188 
1855	 0.260027512476154 
1856	 0.107586746299994 
1857	-0.752241216951909 
1858	-0.825293092161307 
1859	-0.785988047462331 
1860	-1.15394604388747 
1861	-0.108926223288445 
1862	 1.35418597870126 
1863	 0.62898342771857 
1864	 2.69355622325831E-02 
1865	-0.167057654329795 
1866	-1.66292934665618 
1867	-2.11933072780892 
1868	 14.1607721506737 
1869	 0.914253865347852 
1870	-0.260459344080414 
1871	 0.641686561487405 
1872	 3.53521696418733E-02 
1873	-0.362644327646955 
1874	-0.811871866652751 
1875	-1.10715413639039 
1876	-1.40345223982659 
1877	-1.98510309874703 
1878	-3.32235980169877 
1879	 206.254805755792 
1880	 8.84799517805772 
1881	 1.3785993048946 
1882	-0.538839909835214 
1883	 1.06845194058026 
1884	 24.1832180321151 
1885	-1.64987955708917 
1886	-0.97339627870003 
1887	-0.4240701914831 
1888	 0.582154513181861 
1889	 0.9793857667974 
1890	-1.80070639736321 
1891	-1.45224876821139 
1892	-1.85840743377913 
1893	-1.01171595162616 
1894	 0.995872225351456 
1895	 1.48833353985119 
1896	-3.53502885912732 
1897	-1.36453012970718 
1898	-8.02994956367821 
1899	 4.6117876219041 
1900	 4.35186729102614 
1901	 2.18330368629451 
1902	 1.90980692120547 
1903	-10.1537258404581 
1904	 0.52760417761475 
1905	 0.6452920091829 
1906	-4.82171504598217E-03 
1907	-0.191628254677466 
1908	 0.872858369051456 
1909	 0.500860059995594 
1910	 1.24985165996016 
1911	 2.27382921093893 
1912	 3.32981247462812 
1913	-0.28991554761521 
1914	 0.503054896585303 
1915	 0.554252670337369 
1916	 2.29131424119211 
1917	-281.23976984332 
1918	 2.77385812164124 
1919	 4.39107687658537 
1920	-152.380635802055 
1921	 1.18593359377464 
1922	 0.887797645540637 
1923	 0.191289880755552 
1924	-7.58840855563786 
1925	-13.1855903378502 
1926	-3.76047260701996 
1927	-2.27233497656338 
1928	-15.8125492846815 
1929	-3.93744938604729 
1930	-0.867496228483477 
1931	-0.327640374750178 
1932	-0.496996449001974 
1933	-0.411190861836102 
1934	-0.303248967584188 
1935	-0.259566198559517 
1936	-0.206181004558922 
1937	-0.171704613594127 
1938	-8.87286881744352E-02 
1939	-2.59468572913441E-02 
1940	 2.70517654479243E-02 
1941	 2.44791996159131E-02 
1942	 5.07550601656297E-02 
1943	 6.77570609494214E-02 
1944	 1.00820022946937E-02 
1945	 1.10027109515912E-02 
1946	 6.56844420738078E-02 
1947	 6.48155668835159E-02 
1948	 3.87946584076522E-02 
1949	 2.18766116207411E-02 
1950	-7.79378011836871E-03 
1951	-0.027868227950725 
1952	-3.44870757931089E-02 
1953	-1.88888830441503E-02 
1954	-7.0816970478767E-04 
1955	-3.89022547488029E-03 
1956	-1.17015176608936E-02 
1957	 2.55497647591617E-04 
1958	-3.11974760358288E-04 
1959	-7.18302661379888E-03 
1960	 1.57121183435083E-03 
1961	 3.00516555216372E-03 
1962	-1.56256308978936E-04 
1963	 9.20910296890774E-03 
1964	 1.17283366177825E-02 
1965	 1.05329632643902E-02 
1966	 1.18203037308896E-02 
1967	 0.015381850555563 
1968	 1.30740809744564E-02 
1969	 1.33339291324326E-02 
1970	 1.57012212114463E-02 
1971	 1.48177525313751E-02 
1972	 1.61742987793427E-02 
1973	 1.64935551019391E-02 
1974	 1.51840711690917E-02 
1975	 1.55494213442156E-02 
1976	 1.44638983841689E-02 
1977	 1.38067873133281E-02 
1978	 0.014079341570018 
1979	 1.40495200625526E-02 
1980	 1.34749778455309E-02 
1981	 1.48215453319386E-02 
1982	 1.58133185532565E-02 
1983	 1.59211750635331E-02 
1984	 1.68610371163612E-02 
1985	 1.61104665528484E-02 
1986	 1.59384685780179E-02 
1987	 0.015916847732096 
1988	 1.39396689528215E-02 
1989	 1.38828100582921E-02 
1990	 1.45528551491687E-02 
1991	 1.40075834392469E-02 
1992	 1.53668788433825E-02 
1993	 0.017450472846649 
1994	 1.77521739865978E-02 
1995	 1.62258152540145E-02 
1996	 1.53952981706296E-02 
1997	 1.48181214560109E-02 
1998	 1.26682570899615E-02 
1999	 1.08012304221831E-02 
2000	 1.14105726604453E-02 
2001	 1.22822907973494E-02 
2002	 0.01191515893582 
2003	 1.59760973581553E-02 
2004	 1.93550425444218E-02 
2005	 1.79493333415202E-02 
2006	 1.67943931309072E-02 
2007	 1.43950509133972E-02 
2008	 1.09147521858232E-02 
2009	 9.5751538886386E-03 
2010	 1.08057418175183E-02 
2011	 1.22669892420326E-02 
2012	 1.55172088353105E-02 
2013	 1.56978648979788E-02 
2014	 1.50182992213367E-02 
2015	 1.37387856848445E-02 
2016	 0.011074036250609 
2017	 1.26336756028813E-02 
2018	 1.48876726542478E-02 
2019	 0.015614675514317 
2020	 1.67632574476389E-02 
2021	 1.47842125214143E-02 
2022	 0.013868222292298 
2023	 1.55143645747498E-02 
2024	 1.51063790779172E-02 
2025	 1.36561205302551E-02 
2026	 1.36983931817447E-02 
2027	 1.43175545836631E-02 
2028	 0.01305871212815 
2029	 1.25955905880404E-02 
2030	 1.25959702365223E-02 
2031	 1.19752540482287E-02 
2032	 1.23305962906187E-02 
2033	 1.23056641440044E-02 
2034	 1.17967068526421E-02 
2035	 1.26679385974764E-02 
2036	 1.36153286403435E-02 
2037	 1.35564168419991E-02 
2038	 1.32792974649218E-02 
2039	 1.35064120451233E-02 
2040	 1.24654687289034E-02 
2041	 1.22654663234103E-02 
2042	 1.43400617383965E-02 
2043	 1.48284988501364E-02 
2044	 1.43355430514649E-02 
2045	 1.36403106737393E-02 
2046	 0.013544290831205 
2047	 1.26053246064734E-02 
2048	 0.012470308617443 
2049	 1.29003190591128E-02 
2050	 1.35470908998916E-02 
2051	 1.37941241861011E-02 
2052	 1.29840569300556E-02 
2053	 1.31535983544363E-02 
2054	 0.013286545364189 
2055	 1.26588499215336E-02 
2056	 1.29505264413108E-02 
2057	 1.48259942568152E-02 
2058	 1.55362376333123E-02 
2059	 1.58780205447122E-02 
2060	 1.62084927298416E-02 
2061	 1.65770089585437E-02 
2062	 1.66684003503224E-02 
2063	 1.60510564718764E-02 
2064	 1.54457279930999E-02 
2065	 1.49849439930765E-02 
2066	 1.52491675496403E-02 
2067	 1.57392405250071E-02 
2068	 1.51279265397753E-02 
2069	 1.53805720910764E-02 
2070	 1.51169421475679E-02 
2071	 1.35743509918305E-02 
2072	 1.44522993147591E-02 
2073	 1.46636763244349E-02 
2074	 1.43815864916455E-02 
2075	 1.46573904314177E-02 
2076	 1.56068234754176E-02 
2077	 1.57503441338658E-02 
2078	 0.015992175448153 
2079	 1.60554604503082E-02 
2080	 1.55246076538678E-02 
2081	 0.015569473730072 
2082	 1.57929088330005E-02 
2083	 1.53712073515677E-02 
2084	 0.015064678710552 
2085	 1.44047998958358E-02 
2086	 1.41331508158364E-02 
2087	 1.40363783158852E-02 
2088	 1.37039050914253E-02 
2089	 1.49243663287372E-02 
2090	 1.54108495842484E-02 
2091	 0.014795842100379 
2092	 1.48113412336682E-02 
2093	 1.46610600361185E-02 
2094	 1.47272737197901E-02 
2095	 1.54030108167482E-02 
2096	 1.57699325474252E-02 
2097	 1.60969037952395E-02 
2098	 1.65700237900603E-02 
2099	 1.69291398290497E-02 
2100	 1.71133409862889E-02 
2101	 1.78889740729795E-02 
2102	 1.77662788544992E-02 
2103	 1.70002578720973E-02 
2104	 0.016644456095178 
2105	 1.53158370813758E-02 
2106	 0.015027597402484 
2107	 1.68079266023577E-02 
2108	 1.69879873455374E-02 
2109	 1.66681920966107E-02 
2110	 1.68967387652137E-02 
2111	 1.61032770416631E-02 
2112	 0.015695058837391 
2113	 1.57759848407157E-02 
2114	 1.71174822257461E-02 
2115	 1.77471652871317E-02 
2116	 1.89197506651306E-02 
2117	 0.018738139434512 
2118	 1.69105580848962E-02 
2119	 1.65742889540217E-02 
2120	 1.63531495406516E-02 
2121	 1.57131559561596E-02 
2122	 0.015476886736161 
2123	 1.68482393753142E-02 
2124	 1.66365538324669E-02 
2125	 1.52898184147304E-02 
2126	 1.69105793166928E-02 
2127	 0.018750059118451 
2128	 1.82596831784275E-02 
2129	 1.82026881652774E-02 
2130	 1.83972433576872E-02 
2131	 1.75405046541512E-02 
2132	 1.72572633704832E-02 
2133	 1.84927310682588E-02 
2134	 1.85865247077885E-02 
2135	 1.68361079181446E-02 
2136	 1.67656092942433E-02 
2137	 1.79614396861594E-02 
2138	 0.017922570353907 
2139	 1.78329781011723E-02 
2140	 1.77467951047377E-02 
2141	 1.64857972947386E-02 
2142	 1.66409441225577E-02 
2143	 1.78425689070113E-02 
2144	 1.86503374133659E-02 
2145	 1.91956172640509E-02 
2146	 1.98128134217686E-02 
2147	 1.94747432078133E-02 
2148	 1.81580458419093E-02 
2149	 1.70258843656834E-02 
2150	 1.66552985980845E-02 
2151	 1.61024397735476E-02 
2152	 1.50299112256897E-02 
2153	 1.49184214625032E-02 
2154	 1.46289874631218E-02 
2155	 1.39270900346824E-02 
2156	 1.50999621386333E-02 
2157	 1.60415261947164E-02 
2158	 1.81294296945783E-02 
2159	 1.84062551181039E-02 
2160	 1.78721958716689E-02 
2161	 1.75349412082239E-02 
2162	 0.015778294339261 
2163	 1.50764903072084E-02 
2164	 1.51843499227604E-02 
2165	 1.55838573339374E-02 
2166	 1.71528407486248E-02 
2167	 0.017234193069745 
2168	 1.61492225228652E-02 
2169	 1.62685970628816E-02 
2170	 1.58639484686883E-02 
2171	 1.61038140782064E-02 
2172	 1.78798939060122E-02 
2173	 1.94048424498993E-02 
2174	 2.03798651615434E-02 
2175	 0.020577198834689 
2176	 1.86635849112961E-02 
2177	 1.64659902054247E-02 
2178	 1.59910807582297E-02 
2179	 1.50088391344822E-02 
2180	 1.54341810742254E-02 
2181	 1.79158563377027E-02 
2182	 1.87019003908547E-02 
2183	 1.83677018669073E-02 
2184	 1.80368254194109E-02 
2185	 1.82516969346794E-02 
2186	 1.79226806136405E-02 
2187	 1.60807455022936E-02 
2188	 1.62594038009146E-02 
2189	 0.018218498768503 
2190	 1.80376465866025E-02 
2191	 1.76305739438102E-02 
2192	 1.81066585312368E-02 
2193	 1.70017424204004E-02 
2194	 1.71456482462672E-02 
2195	 2.04598855610813E-02 
2196	 2.11085915755369E-02 
2197	 1.90509422342421E-02 
2198	 1.89755679134654E-02 
2199	 1.98594340381572E-02 
2200	 1.88364554363377E-02 
2201	 1.77056936144805E-02 
2202	 1.96775489918564E-02 
2203	 2.02990629292341E-02 
2204	 1.85244531747156E-02 
2205	 1.67058402312095E-02 
2206	 0.016838107586969 
2207	 1.81983667004183E-02 
2208	 0.017792849409658 
2209	 1.81268937916101E-02 
2210	 1.96109601171572E-02 
2211	 1.84431059951019E-02 
2212	 0.017826507780613 
2213	 1.79411049458857E-02 
2214	 1.73013463371636E-02 
2215	 1.67067348340953E-02 
2216	 1.47506668268859E-02 
2217	 1.43024496594607E-02 
2218	 1.53412155704382E-02 
2219	 1.51385720270418E-02 
2220	 1.45598870891053E-02 
2221	 1.45897630423276E-02 
2222	 1.52471069125143E-02 
2223	 1.46883318090737E-02 
2224	 1.23506193776974E-02 
2225	 1.33486016229078E-02 
2226	 1.51092299420294E-02 
2227	 1.59435799070171E-02 
2228	 2.09929878216768E-02 
2229	 2.19799866463357E-02 
2230	 1.83612214921528E-02 
2231	 1.77571124716175E-02 
2232	 1.73585300144777E-02 
2233	 1.63857103680128E-02 
2234	 1.56761872218497E-02 
2235	 1.61264512972882E-02 
2236	 1.71337344932582E-02 
2237	 1.57218893172712E-02 
2238	 1.72154112000135E-02 
2239	 1.92023142317742E-02 
2240	 1.67710676608763E-02 
2241	 1.61821585606907E-02 
2242	 1.63524083268392E-02 
2243	 1.48290408723903E-02 
2244	 0.015761151821428 
2245	 1.75901231040839E-02 
2246	 1.60939646412621E-02 
2247	 1.47566555985047E-02 
2248	 1.40826684973927E-02 
2249	 1.37788130803006E-02 
2250	 1.44191987666147E-02 
2251	 1.39003592695865E-02 
2252	 1.31936228719582E-02 
2253	 1.19282930184148E-02 
2254	 1.11926950750431E-02 
2255	 0.013393192807269 
2256	 1.65039424887813E-02 
2257	 1.84336484508649E-02 
2258	 1.90709463188576E-02 
2259	 1.78889252085037E-02 
2260	 1.74751927084982E-02 
2261	 1.51394105535177E-02 
2262	 1.55044416962669E-02 
2263	 1.93509347723458E-02 
2264	 1.97480381431285E-02 
2265	 1.87639555050976E-02 
2266	 1.87901358458321E-02 
2267	 1.64709908993739E-02 
2268	 1.58368298904191E-02 
2269	 1.85679719986875E-02 
2270	 1.91355966446751E-02 
2271	 1.83464374716037E-02 
2272	 1.74628687489007E-02 
2273	 1.52267582960923E-02 
2274	 1.47366937203475E-02 
2275	 1.59341998391995E-02 
2276	 1.65947015467982E-02 
2277	 1.63785421752675E-02 
2278	 1.69585947397101E-02 
2279	 0.017810721984643 
2280	 1.78654386722082E-02 
2281	 1.79891124052924E-02 
2282	 2.12971715757962E-02 
2283	 2.09085111019986E-02 
2284	 0.019579158012544 
2285	 1.83053884071379E-02 
2286	 1.68773823495331E-02 
2287	 1.74673071503099E-02 
2288	 1.81411892675839E-02 
2289	 1.52871981792493E-02 
2290	 1.36811565540485E-02 
2291	 1.46319892204853E-02 
2292	 1.13467117943922E-02 
2293	 8.59484405914674E-03 
2294	 1.00592859540762E-02 
2295	 9.81526066130636E-03 
2296	 9.93312650451477E-03 
2297	 1.52302093040505E-02 
2298	 1.91747637768723E-02 
2299	 1.65362881675346E-02 
2300	 1.35157931463105E-02 
2301	 0.013194067149324 
2302	 1.47947722644896E-02 
2303	 0.021737959480565 
2304	 2.77631112390299E-02 
2305	 2.71265885670284E-02 
2306	 0.025668507733144 
2307	 2.11138837360278E-02 
2308	 1.38060609780367E-02 
2309	 1.59562164281255E-02 
2310	 1.89176278532784E-02 
2311	 1.60786167731841E-02 
2312	 1.99472224584214E-02 
2313	 2.03648128193995E-02 
2314	 1.73062608978274E-02 
2315	 1.54712692015863E-02 
2316	 8.94357812048666E-03 
2317	 1.10083872907088E-02 
2318	 1.41267133382507E-02 
2319	 0.013075361677737 
2320	 1.57219973055199E-02 
2321	 1.58689971602632E-02 
2322	 9.23458882066094E-03 
2323	 1.0285330034465E-03 
2324	-9.93171332417174E-05 
2325	-3.26748103955504E-04 
2326	 1.24044054358504E-03 
2327	 8.67279011935148E-03 
2328	 0.017907163234466 
2329	 1.97306530690888E-02 
2330	 1.39743681484805E-02 
2331	 7.03426572725434E-03 
2332	 1.61134471106014E-04 
2333	 2.44675798696357E-03 
2334	 2.96922854331534E-03 
2335	 5.89551899165852E-03 
2336	 1.36473478692744E-02 
2337	 1.01829507683742E-02 
2338	 1.09838063766238E-02 
2339	 1.69749409721152E-02 
2340	 2.25153886258158E-02 
2341	 2.94389363312244E-02 
2342	 3.31100629355162E-02 
2343	 0.0374908514652 
2344	 3.75774162374745E-02 
2345	 0.032350313721807 
2346	 3.19222886218977E-02 
2347	 3.22623178686806E-02 
2348	 2.43324894686976E-02 
2349	 1.27600318560367E-02 
2350	 9.94108292049546E-03 
2351	 1.05858113830051E-02 
2352	 3.70914365569475E-03 
2353	 1.32467893248022E-03 
2354	 5.53280997130296E-03 
2355	-7.0046446103444E-04 
2356	-3.20663451806444E-04 
2357	 4.50127143400274E-03 
2358	-1.47181531483741E-03 
2359	-3.11315116475556E-03 
2360	-1.07636432639547E-03 
2361	 1.02432971617494E-02 
2362	 2.17982856180236E-02 
2363	 1.80737343245626E-02 
2364	 1.56108211843005E-02 
2365	 2.01271391985401E-02 
2366	 1.18244763095437E-02 
2367	 0.006884279006121 
2368	 1.63990391004027E-02 
2369	 2.31474372626874E-02 
2370	 3.86206378761188E-02 
2371	 5.66814284637456E-02 
2372	 5.31893561850725E-02 
2373	 3.84588430612739E-02 
2374	 2.63529000206396E-02 
2375	-8.18459062875558E-04 
2376	-1.68694199509797E-02 
2377	-1.88468832035624E-02 
2378	-2.11948784031705E-02 
2379	-4.91572315246603E-03 
2380	 5.85742940860825E-03 
2381	 3.68997929901042E-03 
2382	-6.74246436884077E-03 
2383	-1.10543773146625E-02 
2384	 4.25776084212984E-03 
2385	 7.18004056466146E-03 
2386	 2.11498564335587E-02 
2387	 3.10648117303129E-02 
2388	 2.31614053781823E-02 
2389	 2.88436235339047E-02 
2390	 1.28150564039828E-02 
2391	 1.21507938888636E-02 
2392	 2.73136624953156E-02 
2393	 0.041441811094342 
2394	 0.044825711745718 
2395	 1.80933290422182E-02 
2396	-3.18927042160532E-03 
2397	-1.76639706749577E-02 
2398	-2.10254023082767E-02 
2399	-2.17029052784177E-03 
2400	 2.16486803916122E-02 
2401	 0.024097705129541 
2402	 2.21401938163549E-04 
2403	-1.03170056174915E-02 
2404	-9.07843645942972E-03 
2405	-2.41431943451426E-02 
2406	-5.23390550448596E-03 
2407	 1.97926344874872E-02 
2408	-0.002719269128425 
2409	-7.61979832439329E-03 
2410	 2.58561642178073E-02 
2411	 2.60265919393842E-02 
2412	-2.78816648932086E-02 
2413	-6.72373450378927E-02 
2414	-0.107455735871233 
2415	-0.16589866865938 
2416	-8.00192455731462E-02 
2417	 5.09769662812599E-02 
2418	 3.28746027907379E-02 
2419	 8.82713677099703E-02 
2420	 0.140230260729508 
2421	 0.073935858409533 
2422	 8.83855770870536E-02 
2423	 8.15347240494538E-02 
2424	 0.061716591847176 
2425	 6.87400258000083E-02 
2426	 5.58230788223335E-02 
2427	 6.01461955066271E-02 
2428	-5.75315888062976E-02 
2429	-0.204483692669757 
2430	-0.221726719075085 
2431	-0.264209422174576 
2432	-0.223353397671695 
2433	-0.041954875607426 
2434	 4.88801668226567E-02 
2435	 8.69373332236865E-02 
2436	 0.155616637587071 
2437	 0.306187786396437 
2438	 0.27609479131964 
2439	 9.49440120181395E-02 
2440	 0.097191384226761 
2441	 5.62357974327361E-02 
2442	-4.97601469622084E-02 
2443	 3.8967631566249E-03 
2444	 1.80804756622372E-02 
2445	-9.40550904264039E-02 
2446	-0.085775244366663 
2447	 0.163975986503414 
2448	 0.201478203030279 
2449	 0.163089566618564 
2450	 0.11069337832465 
2451	-0.341035460171613 
2452	-0.568348857592875 
2453	-0.317333639960753 
2454	-5.24344215985271E-02 
2455	-3.41003176470844E-02 
2456	 0.156109221807994 
2457	 0.286420288131541 
2458	 0.245486873074434 
2459	 0.264161674314842 
2460	 0.28666336056114 
2461	 6.81144752173925E-02 
2462	-0.255449986477808 
2463	-0.383141875018868 
2464	-0.420623689779017 
2465	-0.34357231477016 
2466	-6.09842475413445E-03 
2467	 0.124806148820033 
2468	 0.135842190397973 
2469	 0.196463172996906 
2470	 0.141873677599218 
2471	 7.17786125264155E-02 
2472	 0.288219147084238 
2473	 0.466290815581934 
2474	 0.496953023285806 
2475	 0.337892027415029 
2476	-0.277329576243168 
2477	-0.696297053715347 
2478	-0.94238335037316 
2479	-1.35223857951823 
2480	-1.05738316997249 
2481	 0.478620340373267 
2482	 1.41673568397036 
2483	 5.84101143566517 
2484	-2.3606444205166 
2485	-9.07207677040557 
2486	-3.15658026631672 
2487	-5.47951445980157 
2488	 0.612998515937118 
2489	 0.926296581400052 
2490	 0.438802757876953 
2491	 5.09659014971003E-02 
2492	 9.90499523273556E-02 
2493	-0.401138340520469 
2494	-0.349382802541732 
2495	-0.80495203914445 
2496	-1.34093037550218 
2497	-1.25524219761161 
2498	 0.918906203207283 
2499	 0.472778434643287 
2500	-5.36583952559626 
