Wavelength	rt0711a300003.asd
350	 0.182024032485949 
351	 0.183959297393095 
352	 0.185859302998949 
353	 0.187494821983008 
354	 0.18886186815027 
355	 0.190308312556744 
356	 0.192161280405152 
357	 0.194110145471411 
358	 0.19577117387204 
359	 0.197462248789284 
360	 0.198913006599286 
361	 0.200464469092691 
362	 0.20266831141767 
363	 0.203867476847281 
364	 0.204724893376455 
365	 0.205877674194902 
366	 0.207496612412552 
367	 0.208605252764981 
368	 0.209779451238467 
369	 0.211493782059194 
370	 0.212312813558079 
371	 0.213453622159005 
372	 0.214897511749687 
373	 0.215950397873307 
374	 0.216990942095042 
375	 0.217760600774447 
376	 0.218451113539509 
377	 0.219903162686157 
378	 0.22061640015073 
379	 0.221085364428662 
380	 0.221919490161623 
381	 0.222519766220987 
382	 0.223084868844019 
383	 0.223622823862643 
384	 0.22405669788185 
385	 0.224337096311402 
386	 0.224676541652748 
387	 0.225213689689673 
388	 0.225951230506157 
389	 0.225983959525848 
390	 0.225720620227723 
391	 0.225687201380301 
392	 0.226090260869104 
393	 0.225805928952674 
394	 0.225410287869908 
395	 0.225676815094304 
396	 0.224758016248232 
397	 0.224372800161273 
398	 0.224567379138346 
399	 0.223895888071235 
400	 0.223393946365623 
401	 0.222902578519351 
402	 0.222315979040831 
403	 0.222118309733744 
404	 0.221616135744715 
405	 0.220921672892922 
406	 0.220376106460771 
407	 0.219755442705365 
408	 0.218983063255315 
409	 0.218130079943234 
410	 0.217388544503198 
411	 0.216643401782666 
412	 0.215987689890737 
413	 0.215416120871288 
414	 0.214592847067749 
415	 0.213896515714106 
416	 0.213246986895181 
417	 0.212449857051965 
418	 0.211839756483076 
419	 0.211272283401337 
420	 0.21074934652449 
421	 0.210453884696873 
422	 0.210137383623761 
423	 0.209815004851195 
424	 0.209592670980342 
425	 0.20966601552904 
426	 0.209835293711726 
427	 0.210031936701563 
428	 0.210266835312413 
429	 0.210619336907296 
430	 0.211028961280864 
431	 0.211440070941754 
432	 0.2118245146433 
433	 0.212174877904665 
434	 0.212495863179606 
435	 0.212778844926896 
436	 0.212970954424524 
437	 0.213041926015216 
438	 0.213017409547228 
439	 0.212938701773748 
440	 0.212676166404926 
441	 0.212385975712241 
442	 0.212097436943181 
443	 0.21160609063038 
444	 0.211217423801233 
445	 0.210755514500037 
446	 0.210050917266105 
447	 0.20947762674297 
448	 0.208894809481143 
449	 0.208276778066889 
450	 0.207678105498378 
451	 0.206985003694606 
452	 0.206348890958107 
453	 0.205791474075058 
454	 0.204989224593408 
455	 0.204254778937137 
456	 0.203613531222573 
457	 0.202979417394231 
458	 0.202269547345749 
459	 0.201606801938118 
460	 0.200972149983526 
461	 0.200209173797529 
462	 0.199527788268236 
463	 0.198893904991899 
464	 0.198240870923811 
465	 0.197552626562664 
466	 0.196902672486969 
467	 0.196274517203406 
468	 0.195611325695956 
469	 0.19494348232925 
470	 0.194317283392138 
471	 0.193704331530503 
472	 0.192977890611501 
473	 0.192459598899963 
474	 0.192033039686486 
475	 0.191520619076844 
476	 0.19097298915359 
477	 0.190458061399924 
478	 0.190043469270529 
479	 0.189773219336769 
480	 0.189489539826155 
481	 0.189269334262193 
482	 0.189130615885905 
483	 0.188902872593752 
484	 0.188708249448281 
485	 0.188608133478111 
486	 0.188613678007844 
487	 0.188608839430221 
488	 0.188620067848229 
489	 0.188673579091169 
490	 0.188788002978467 
491	 0.189011318074068 
492	 0.189230224718056 
493	 0.189352768337228 
494	 0.189404285082517 
495	 0.18964491776218 
496	 0.189951638543133 
497	 0.190056851542253 
498	 0.190329749010649 
499	 0.190527547302287 
500	 0.190562952643903 
501	 0.190674706981661 
502	 0.190875802554395 
503	 0.191003379100077 
504	 0.190967862799609 
505	 0.191187436236542 
506	 0.191441435442949 
507	 0.191622000910895 
508	 0.19173547597312 
509	 0.191896111610176 
510	 0.192134975900202 
511	 0.192434268066909 
512	 0.192700375778314 
513	 0.193046503661292 
514	 0.19348489708041 
515	 0.193973821524409 
516	 0.194446512200999 
517	 0.195061730687911 
518	 0.195848543257213 
519	 0.196658152958838 
520	 0.197503586641059 
521	 0.198432758809198 
522	 0.199494830016706 
523	 0.200663054167879 
524	 0.202054717665728 
525	 0.203621344068888 
526	 0.205207468264368 
527	 0.206857472283289 
528	 0.208623687545861 
529	 0.210537397496114 
530	 0.212605022086732 
531	 0.214825708292267 
532	 0.217188638791274 
533	 0.219658114292692 
534	 0.222152072939631 
535	 0.224773987299387 
536	 0.227558575172162 
537	 0.230435896837581 
538	 0.233272280571378 
539	 0.236175809659317 
540	 0.239224218945559 
541	 0.242200298747845 
542	 0.245196602632957 
543	 0.248160994877619 
544	 0.250980984805903 
545	 0.253784602972432 
546	 0.256515313807385 
547	 0.259133812084107 
548	 0.261687488972974 
549	 0.26410774285365 
550	 0.266435262598131 
551	 0.268726733543393 
552	 0.270852933550401 
553	 0.2729062259373 
554	 0.274945186629264 
555	 0.276963030566345 
556	 0.279020735447916 
557	 0.281121473408647 
558	 0.283215541370906 
559	 0.285208342847983 
560	 0.287256837557365 
561	 0.289378122309253 
562	 0.291506403750504 
563	 0.293568737378994 
564	 0.295650183688356 
565	 0.297765389760977 
566	 0.299760109265554 
567	 0.301720299360597 
568	 0.303604097314775 
569	 0.305347845463531 
570	 0.307054092329046 
571	 0.308619557607589 
572	 0.310044579987813 
573	 0.311448397877949 
574	 0.312718187090485 
575	 0.313985267650467 
576	 0.315311793539711 
577	 0.316383155488555 
578	 0.317450325747844 
579	 0.318554366646308 
580	 0.319595482399072 
581	 0.320495731958133 
582	 0.321317971815581 
583	 0.32209698769648 
584	 0.322778810241739 
585	 0.323349049270429 
586	 0.323775459851008 
587	 0.324066137088387 
588	 0.324426041597402 
589	 0.324885192890201 
590	 0.325349742594666 
591	 0.325661540050487 
592	 0.326163365495293 
593	 0.32661643149713 
594	 0.326819346509214 
595	 0.327086321680692 
596	 0.327351858609515 
597	 0.327570054738054 
598	 0.327715744931118 
599	 0.327904360905603 
600	 0.328101326521719 
601	 0.328300773035726 
602	 0.328590542131436 
603	 0.328752481598105 
604	 0.328901116160809 
605	 0.329202575754076 
606	 0.329481508907487 
607	 0.329802732271858 
608	 0.330114259519204 
609	 0.330248707928075 
610	 0.330559970291418 
611	 0.330923856934683 
612	 0.331173862684684 
613	 0.331319518960656 
614	 0.331521327262786 
615	 0.331765560635824 
616	 0.331950542495955 
617	 0.332215990879587 
618	 0.332443314393404 
619	 0.332606565585409 
620	 0.332867929667262 
621	 0.333095743479371 
622	 0.333237555065328 
623	 0.333315087311738 
624	 0.333585275871294 
625	 0.333712976765712 
626	 0.333709028913571 
627	 0.333915094243121 
628	 0.334095226473584 
629	 0.334387704665081 
630	 0.33481739776912 
631	 0.33492129568504 
632	 0.335083502851591 
633	 0.335345890569882 
634	 0.335589485468688 
635	 0.33580717482454 
636	 0.336020022427165 
637	 0.33622111909911 
638	 0.33635723594076 
639	 0.336591632824565 
640	 0.336788843528214 
641	 0.336819261668889 
642	 0.336961807984408 
643	 0.337058365033454 
644	 0.337054907300123 
645	 0.336988960729064 
646	 0.336848181060868 
647	 0.336849982478989 
648	 0.337086097715461 
649	 0.3373084635315 
650	 0.337307470695124 
651	 0.33726821840669 
652	 0.337440669584743 
653	 0.337341293541138 
654	 0.337067699517657 
655	 0.336762369918284 
656	 0.336614529457467 
657	 0.336505879571868 
658	 0.336360630945607 
659	 0.336139442384359 
660	 0.33586320435181 
661	 0.335707610809598 
662	 0.335591494498349 
663	 0.335302580908762 
664	 0.335066690060515 
665	 0.334903851417925 
666	 0.334782123117833 
667	 0.334630548897268 
668	 0.334515196637404 
669	 0.334458166531024 
670	 0.334451764567384 
671	 0.334427257953048 
672	 0.334349462874099 
673	 0.334304387074949 
674	 0.334471127650692 
675	 0.334628964938572 
676	 0.334760833644967 
677	 0.334916162778848 
678	 0.335221666138181 
679	 0.335438432269173 
680	 0.335626880806309 
681	 0.335970266578996 
682	 0.336450503830091 
683	 0.336903289298612 
684	 0.337198962438129 
685	 0.337283630786169 
686	 0.337329673245404 
687	 0.337642207469567 
688	 0.338304920880064 
689	 0.338794394766807 
690	 0.339174232463255 
691	 0.339386561310017 
692	 0.339347207234299 
693	 0.339429253044128 
694	 0.339746717639793 
695	 0.340183685477691 
696	 0.340408803502172 
697	 0.340349473442226 
698	 0.340047090857294 
699	 0.339660097017262 
700	 0.339567677527633 
701	 0.339498661456074 
702	 0.339330494659275 
703	 0.339090447534629 
704	 0.338729052818987 
705	 0.338345241687289 
706	 0.337978604306051 
707	 0.337462158934085 
708	 0.336994128681313 
709	 0.336439407686588 
710	 0.335611728246975 
711	 0.334792033240581 
712	 0.333882985766422 
713	 0.332789384452378 
714	 0.331410273676215 
715	 0.32966728970649 
716	 0.327713478642755 
717	 0.325932939553592 
718	 0.324555292984155 
719	 0.323593589163465 
720	 0.322935865140943 
721	 0.322232523737824 
722	 0.32075937838535 
723	 0.318953718074984 
724	 0.317348903850432 
725	 0.315990817423945 
726	 0.314599701886151 
727	 0.312933163794693 
728	 0.310986315206767 
729	 0.309283213695607 
730	 0.307493657370251 
731	 0.305849901131885 
732	 0.30463988524391 
733	 0.30340306115382 
734	 0.302048638306871 
735	 0.300782348890151 
736	 0.300146862926773 
737	 0.2995867964204 
738	 0.299148974189602 
739	 0.298946660046438 
740	 0.298825566154682 
741	 0.298640208359722 
742	 0.298528708110922 
743	 0.298697127009131 
744	 0.298601165841931 
745	 0.29846380636729 
746	 0.298428314287213 
747	 0.298420749456696 
748	 0.298421637954788 
749	 0.298406405365672 
750	 0.298376772013618 
751	 0.298418099569232 
752	 0.29842322940328 
753	 0.298394552319466 
754	 0.29839116543025 
755	 0.298399414735952 
756	 0.298323439615431 
757	 0.298089353941213 
758	 0.297540386965936 
759	 0.296317471845613 
760	 0.295017152012695 
761	 0.295187638673291 
762	 0.295470294355732 
763	 0.296019763700587 
764	 0.296778098165127 
765	 0.297617621664671 
766	 0.298283304440062 
767	 0.29875665231112 
768	 0.29907518744261 
769	 0.299296364854804 
770	 0.299482404137049 
771	 0.299643823917912 
772	 0.299800952252795 
773	 0.300035417800989 
774	 0.300294773767679 
775	 0.300568946775054 
776	 0.300855803769521 
777	 0.301075698117507 
778	 0.301282812855689 
779	 0.301531551691072 
780	 0.30185687640242 
781	 0.302109647478521 
782	 0.302358193217969 
783	 0.302681300190104 
784	 0.303110865910997 
785	 0.30331521466304 
786	 0.303464350282744 
787	 0.303819600120912 
788	 0.304054818902189 
789	 0.304379095771656 
790	 0.30485594398137 
791	 0.305392934842268 
792	 0.305760551102638 
793	 0.30612203622472 
794	 0.306549209129414 
795	 0.306863032216138 
796	 0.307082891738831 
797	 0.307394035650036 
798	 0.307875919483256 
799	 0.308064341934174 
800	 0.308242396800321 
801	 0.308466883414841 
802	 0.308670659745982 
803	 0.308891649383218 
804	 0.30909705235633 
805	 0.309261485812471 
806	 0.309374642911628 
807	 0.309378508515159 
808	 0.309247083455548 
809	 0.308951907321158 
810	 0.308407569872895 
811	 0.307972260950183 
812	 0.307475866299857 
813	 0.306664497152542 
814	 0.306229795754574 
815	 0.305601885250492 
816	 0.304889232717169 
817	 0.30468424432401 
818	 0.304431373422896 
819	 0.303987131675123 
820	 0.30331327505811 
821	 0.302436441111276 
822	 0.301335805413756 
823	 0.300166055907788 
824	 0.299030795170035 
825	 0.297726546309977 
826	 0.296111966985619 
827	 0.294300175479745 
828	 0.292588323662406 
829	 0.290880101402283 
830	 0.289435660711631 
831	 0.288242815390178 
832	 0.2871299066364 
833	 0.286264882946274 
834	 0.28562122697423 
835	 0.285112455122372 
836	 0.28462489192082 
837	 0.284135669538732 
838	 0.283768888410359 
839	 0.283569587094811 
840	 0.283302455319244 
841	 0.283020921430024 
842	 0.282780435812637 
843	 0.282586548740725 
844	 0.28218226797514 
845	 0.281799342853374 
846	 0.281535135207348 
847	 0.281352657892076 
848	 0.281074122351787 
849	 0.280720409938742 
850	 0.280393161275697 
851	 0.28023986705952 
852	 0.280020889407403 
853	 0.279842136381592 
854	 0.279687411320691 
855	 0.279114534470527 
856	 0.278918142825937 
857	 0.278830409304718 
858	 0.278490870071869 
859	 0.278347655595408 
860	 0.278227451226672 
861	 0.277936923908731 
862	 0.277422822573739 
863	 0.277499712782449 
864	 0.277502614317172 
865	 0.277139695591633 
866	 0.276620052868681 
867	 0.276406110537199 
868	 0.276214683663418 
869	 0.275878077070984 
870	 0.275529447030222 
871	 0.275286940924815 
872	 0.274923009839361 
873	 0.274374542460476 
874	 0.274103821250806 
875	 0.273976776776792 
876	 0.273653685739382 
877	 0.272989485184598 
878	 0.272763063679001 
879	 0.272417666220235 
880	 0.27199734470154 
881	 0.271729713483211 
882	 0.271115225113488 
883	 0.270453113864803 
884	 0.270039762013117 
885	 0.270015998834699 
886	 0.269677628745549 
887	 0.269216319284775 
888	 0.268871593058515 
889	 0.268759410848958 
890	 0.268136949277326 
891	 0.267517868411857 
892	 0.267179941693793 
893	 0.266541940741098 
894	 0.265726194795177 
895	 0.265105489324101 
896	 0.264823088275146 
897	 0.264041326866289 
898	 0.263880831264366 
899	 0.263541775109145 
900	 0.262413342364364 
901	 0.262853699498581 
902	 0.262540216286286 
903	 0.261828413378244 
904	 0.261800980017944 
905	 0.261492894299253 
906	 0.261404560514082 
907	 0.261229979053818 
908	 0.260249961810028 
909	 0.259378351467575 
910	 0.25887257007195 
911	 0.25842662304678 
912	 0.257495512362392 
913	 0.257546825346931 
914	 0.25737380463623 
915	 0.256461194056618 
916	 0.255489517227192 
917	 0.25459145000406 
918	 0.253900629465964 
919	 0.253594220268058 
920	 0.253888021024332 
921	 0.252996324932335 
922	 0.251800727251515 
923	 0.251157353643456 
924	 0.250755981610025 
925	 0.248796177826937 
926	 0.246895349482354 
927	 0.246696636087779 
928	 0.24569373370971 
929	 0.24381988606223 
930	 0.241986017899531 
931	 0.241344238229981 
932	 0.239209199434017 
933	 0.235224452855867 
934	 0.232613764705792 
935	 0.233881920395345 
936	 0.232725490878067 
937	 0.233043637003574 
938	 0.231719425138387 
939	 0.226740043738391 
940	 0.228994064226685 
941	 0.228805714925467 
942	 0.226226971993495 
943	 0.225703218107394 
944	 0.225453107724668 
945	 0.223597104091725 
946	 0.221009843179752 
947	 0.220014237892873 
948	 0.220788754822653 
949	 0.218443620501298 
950	 0.214268784952088 
951	 0.212944529916968 
952	 0.212496904519196 
953	 0.210385599154976 
954	 0.208602518386489 
955	 0.210827610523183 
956	 0.210736016704503 
957	 0.20917684862464 
958	 0.207111915532805 
959	 0.205280019515144 
960	 0.205919351722981 
961	 0.2054847485283 
962	 0.204438892203051 
963	 0.205715944139262 
964	 0.205647188605733 
965	 0.205561993934906 
966	 0.205332172376948 
967	 0.203892304937132 
968	 0.20406036691108 
969	 0.204678574176135 
970	 0.204479474396973 
971	 0.203049319690511 
972	 0.205059687400999 
973	 0.205938055268746 
974	 0.204976466414582 
975	 0.205676586586803 
976	 0.204139785039499 
977	 0.203826710484961 
978	 0.204868464502671 
979	 0.20435140623587 
980	 0.205566447917223 
981	 0.206433178657098 
982	 0.206542092887264 
983	 0.207087159558346 
984	 0.206662394743302 
985	 0.207761780812977 
986	 0.209284717251871 
987	 0.207941875102301 
988	 0.208080180964258 
989	 0.208851147079719 
990	 0.209924198179182 
991	 0.211201390907387 
992	 0.208951955378655 
993	 0.207679623024872 
994	 0.208391870643083 
995	 0.209288424969815 
996	 0.211615229436829 
997	 0.212055000027183 
998	 0.211448813572798 
999	 0.212586884081452 
1000	 0.212492901346462 
1001	 0.210404604883298 
1002	 0.210689407198776 
1003	 0.21089442411448 
1004	 0.21093276658874 
1005	 0.211360484886179 
1006	 0.211947236344064 
1007	 0.212339565122397 
1008	 0.213142016206362 
1009	 0.21397585620382 
1010	 0.214373479443809 
1011	 0.214729360886997 
1012	 0.215289798998945 
1013	 0.215634078111248 
1014	 0.216019441831178 
1015	 0.216517813019301 
1016	 0.21694657678203 
1017	 0.217082690581114 
1018	 0.217637213118591 
1019	 0.218483982910373 
1020	 0.21914163098365 
1021	 0.219885965048428 
1022	 0.220664438871075 
1023	 0.221386469391571 
1024	 0.222039704205041 
1025	 0.222602018219861 
1026	 0.223114898874218 
1027	 0.223583731150732 
1028	 0.223760886244207 
1029	 0.224295506097376 
1030	 0.225266298278142 
1031	 0.225608174068069 
1032	 0.225643107576942 
1033	 0.225905719410636 
1034	 0.225667318477915 
1035	 0.225957647396151 
1036	 0.226991420662214 
1037	 0.227507810567129 
1038	 0.227724744250919 
1039	 0.228297461340588 
1040	 0.228876732585084 
1041	 0.229289932495696 
1042	 0.229778244717744 
1043	 0.230540723568902 
1044	 0.231046396266919 
1045	 0.231428432643256 
1046	 0.231641217196328 
1047	 0.231724687835312 
1048	 0.2318714283313 
1049	 0.231649823372005 
1050	 0.231833519088343 
1051	 0.232447147871064 
1052	 0.232787228179181 
1053	 0.233254392220984 
1054	 0.233495357075363 
1055	 0.233432140458272 
1056	 0.23346844219933 
1057	 0.233484304214618 
1058	 0.233377251828022 
1059	 0.23347370140675 
1060	 0.233639510482722 
1061	 0.233871231637194 
1062	 0.234406782927828 
1063	 0.234489413549494 
1064	 0.234304223997633 
1065	 0.234347660791998 
1066	 0.234251314298841 
1067	 0.234204516263771 
1068	 0.234445181371471 
1069	 0.234490587434411 
1070	 0.234318599891933 
1071	 0.234185040868291 
1072	 0.234128207708513 
1073	 0.233831867074205 
1074	 0.233823193208897 
1075	 0.233955231351804 
1076	 0.233852004063506 
1077	 0.233779939201433 
1078	 0.233682328945335 
1079	 0.233467666214417 
1080	 0.233136639202686 
1081	 0.23276503132959 
1082	 0.232460746452004 
1083	 0.231925898717937 
1084	 0.231564462105806 
1085	 0.231582748943485 
1086	 0.231280870502356 
1087	 0.230505746985108 
1088	 0.230202207330698 
1089	 0.230107916229782 
1090	 0.230060760498118 
1091	 0.22974492251573 
1092	 0.229562452557823 
1093	 0.229191811212898 
1094	 0.228384878602377 
1095	 0.227840761631884 
1096	 0.227554447782083 
1097	 0.227217257596944 
1098	 0.226758536186385 
1099	 0.226198452293686 
1100	 0.225785847825038 
1101	 0.225133462157895 
1102	 0.223957025757278 
1103	 0.223340233120529 
1104	 0.223134223895574 
1105	 0.22234365162251 
1106	 0.222627739476645 
1107	 0.222762954149891 
1108	 0.221838690599677 
1109	 0.221516396551193 
1110	 0.220932809639071 
1111	 0.219475689540594 
1112	 0.218725679048836 
1113	 0.21869818146193 
1114	 0.217995371655805 
1115	 0.217180607891213 
1116	 0.216288576665569 
1117	 0.214564576218006 
1118	 0.213566852721458 
1119	 0.213479904422689 
1120	 0.212290910438938 
1121	 0.210526902182506 
1122	 0.210175148833888 
1123	 0.209708846533304 
1124	 0.208045321972722 
1125	 0.205686152187397 
1126	 0.204526443489391 
1127	 0.202568781351386 
1128	 0.199095437567296 
1129	 0.197444745567273 
1130	 0.197856832108789 
1131	 0.196338842396969 
1132	 0.195146661038678 
1133	 0.193466645404259 
1134	 0.190247928941223 
1135	 0.188873448999549 
1136	 0.188194277774342 
1137	 0.187030880240258 
1138	 0.186646416638003 
1139	 0.185822134497107 
1140	 0.182987622285442 
1141	 0.180244018181231 
1142	 0.178133505259965 
1143	 0.176935448510749 
1144	 0.17645051950334 
1145	 0.17540718413884 
1146	 0.172295292719801 
1147	 0.167638397297174 
1148	 0.164710024183519 
1149	 0.164482717890076 
1150	 0.163310271758664 
1151	 0.163150411568158 
1152	 0.162702935119473 
1153	 0.161867486651635 
1154	 0.160821241988124 
1155	 0.159432923784571 
1156	 0.160063324046869 
1157	 0.160509269580388 
1158	 0.159978592382729 
1159	 0.160057826262602 
1160	 0.160098579876049 
1161	 0.159298012227107 
1162	 0.159194169664613 
1163	 0.159986216995857 
1164	 0.159830180649233 
1165	 0.15916176046324 
1166	 0.159149702967952 
1167	 0.159040132358547 
1168	 0.158870062430752 
1169	 0.159167779072243 
1170	 0.159296493943169 
1171	 0.159277942158474 
1172	 0.158879708985469 
1173	 0.158864593615488 
1174	 0.159099747158738 
1175	 0.158983458323648 
1176	 0.158792304018236 
1177	 0.158717648427683 
1178	 0.158660095382309 
1179	 0.158714041252795 
1180	 0.158680957255132 
1181	 0.158467624263457 
1182	 0.158357097492068 
1183	 0.158359950380799 
1184	 0.158499538718281 
1185	 0.158652395464594 
1186	 0.158447454189582 
1187	 0.157964707695604 
1188	 0.157502794980461 
1189	 0.15728574104109 
1190	 0.157395351806887 
1191	 0.157589198360597 
1192	 0.157650216606899 
1193	 0.157799732227464 
1194	 0.157741317542617 
1195	 0.157486135665269 
1196	 0.157335574130291 
1197	 0.157378989273073 
1198	 0.157592650451948 
1199	 0.157669300905835 
1200	 0.157646926431245 
1201	 0.157750319513477 
1202	 0.157781240699493 
1203	 0.157838237201256 
1204	 0.15789485490576 
1205	 0.157864662066449 
1206	 0.157988810918964 
1207	 0.158044098090951 
1208	 0.158100399338751 
1209	 0.158263186347611 
1210	 0.158308490820701 
1211	 0.158563985977911 
1212	 0.158857201754175 
1213	 0.158951924095272 
1214	 0.15904266084988 
1215	 0.158990297428279 
1216	 0.158959049215564 
1217	 0.159248171611214 
1218	 0.159496231265144 
1219	 0.159607615685392 
1220	 0.159721575507576 
1221	 0.159811861287299 
1222	 0.160000632383028 
1223	 0.160102163483043 
1224	 0.16020387275632 
1225	 0.160334974336472 
1226	 0.160392101541777 
1227	 0.16058844926874 
1228	 0.160863058631317 
1229	 0.161013691376848 
1230	 0.160928881816163 
1231	 0.160941017457062 
1232	 0.161282486631759 
1233	 0.161497071575412 
1234	 0.161641072205716 
1235	 0.161802268805056 
1236	 0.161937445005929 
1237	 0.162000288417813 
1238	 0.16195185368551 
1239	 0.162156954352693 
1240	 0.162290628803137 
1241	 0.162423406136429 
1242	 0.162765864464466 
1243	 0.163016540431241 
1244	 0.163105916140188 
1245	 0.163086213327459 
1246	 0.163005789446319 
1247	 0.163193041277243 
1248	 0.163383517816218 
1249	 0.163258177315847 
1250	 0.163299820103317 
1251	 0.163510092065005 
1252	 0.163445539653896 
1253	 0.16359092766484 
1254	 0.163966116331832 
1255	 0.163973424047104 
1256	 0.163938425866891 
1257	 0.163956274500862 
1258	 0.164007000431865 
1259	 0.163737663485648 
1260	 0.163652761303394 
1261	 0.164010585756797 
1262	 0.163968395947257 
1263	 0.16363735726171 
1264	 0.163496481971991 
1265	 0.163562639672073 
1266	 0.163331291377564 
1267	 0.16323394943009 
1268	 0.163380119189462 
1269	 0.163331683170139 
1270	 0.163061353660812 
1271	 0.163033367188995 
1272	 0.163164555242826 
1273	 0.163088913151026 
1274	 0.162961262644239 
1275	 0.162979980999748 
1276	 0.162854749029967 
1277	 0.162474990954635 
1278	 0.162407138777038 
1279	 0.162382337444432 
1280	 0.162095083353708 
1281	 0.161864841206135 
1282	 0.161656307964118 
1283	 0.161452961325553 
1284	 0.161278165188068 
1285	 0.160926904708249 
1286	 0.160480626838542 
1287	 0.160160037788096 
1288	 0.159694163398683 
1289	 0.159333374419077 
1290	 0.159192922779751 
1291	 0.158939602608308 
1292	 0.158513344110014 
1293	 0.158027175721866 
1294	 0.157407672504809 
1295	 0.156985170399779 
1296	 0.156743247792627 
1297	 0.156260061941492 
1298	 0.155632372829625 
1299	 0.155030396263646 
1300	 0.154286271568207 
1301	 0.153435638937572 
1302	 0.152980072257461 
1303	 0.152644445067223 
1304	 0.151859995737329 
1305	 0.15124965131593 
1306	 0.150579004779355 
1307	 0.149689036510676 
1308	 0.148847337197922 
1309	 0.148254526537713 
1310	 0.147456181129252 
1311	 0.14648079212214 
1312	 0.145596578953446 
1313	 0.144560863717266 
1314	 0.143621501209392 
1315	 0.142871681865632 
1316	 0.142012049784409 
1317	 0.141050157892542 
1318	 0.14027610222988 
1319	 0.139647613401089 
1320	 0.138879821094083 
1321	 0.138206230405333 
1322	 0.137516319296191 
1323	 0.136637517404171 
1324	 0.135452423764176 
1325	 0.134762333842561 
1326	 0.134415567782654 
1327	 0.133653156125915 
1328	 0.132645334510672 
1329	 0.131685798724546 
1330	 0.130341243563229 
1331	 0.128809233950152 
1332	 0.127921945889646 
1333	 0.126861378676967 
1334	 0.125104280803324 
1335	 0.123862987986759 
1336	 0.122748844697547 
1337	 0.122166871075621 
1338	 0.122102842531742 
1339	 0.121818779809735 
1340	 0.122221983243161 
1341	 0.121772756379339 
1342	 0.119963418540368 
1343	 0.119572949137955 
1344	 0.120546348722083 
1345	 0.12009150706688 
1346	 0.118762981646277 
1347	 0.11856470583668 
1348	 0.117995947550437 
1349	 0.116292547965488 
1350	 0.116913649148684 
1351	 0.117595340840553 
1352	 0.112756514208503 
1353	 0.106949437046415 
1354	 9.87819009963005E-02 
1355	 0.105312009406763 
1356	 0.101697381961622 
1357	 7.30356458329583E-02 
1358	 0.106893752496492 
1359	 0.167810198738712 
1360	 0.101090637425541 
1361	 7.84352518306451E-02 
1362	 0.166353342786388 
1363	 0.092633763155943 
1364	-3.48948332531486E-04 
1365	 0.150152429440352 
1366	 0.215006987286515 
1367	 3.79673349692572E-02 
1368	-4.60017387807831E-02 
1369	 8.75842410067389E-02 
1370	 0.166229767373371 
1371	 0.204446327503804 
1372	 0.147080753513225 
1373	 0.034486595648193 
1374	 0.128759390787488 
1375	 0.30272810916477 
1376	 0.239788467804544 
1377	 0.263952435001919 
1378	 0.312015203827914 
1379	-6.66963891657869E-02 
1380	-0.171740551872857 
1381	 0.402331825142137 
1382	 0.538885558110708 
1383	 0.260676179600175 
1384	 0.166562652496822 
1385	 0.188298646222807 
1386	 0.102835299861456 
1387	-0.106827803928423 
1388	-8.30842436893676E-02 
1389	 0.170294226892979 
1390	 9.99536824282251E-02 
1391	-0.252951985152261 
1392	-0.048241556218761 
1393	 0.102649906264477 
1394	-0.110953618877457 
1395	-6.75031088966851E-02 
1396	 0.331103619975345 
1397	-3.51105177455994E-02 
1398	-0.319080961561829 
1399	-0.108760115071169 
1400	 0.336909431426108 
1401	 2.36793777124183E-02 
1402	-5.62676501080619E-02 
1403	 0.307089830020668 
1404	 0.324265467275514 
1405	 0.177386680558152 
1406	 0.177003397015851 
1407	 0.283402806177779 
1408	 0.13408004241314 
1409	 2.52726828849144E-02 
1410	 0.138342728673201 
1411	 0.185909984877534 
1412	 6.54361901987101E-02 
1413	 2.63924942486398E-02 
1414	 9.88917157050273E-02 
1415	 0.113030117558474 
1416	 5.13571744729637E-02 
1417	 3.36162183248926E-02 
1418	 6.05323764897364E-02 
1419	 0.068987169286692 
1420	 5.69598520318373E-02 
1421	 5.33744836243022E-02 
1422	 6.57251459428419E-02 
1423	 0.061989077079324 
1424	 4.00148355388514E-02 
1425	 3.99471273973565E-02 
1426	 5.25963076330736E-02 
1427	 5.26633512379427E-02 
1428	 5.60798688709365E-02 
1429	 5.41964601376709E-02 
1430	 0.037759664999311 
1431	 3.39187604965901E-02 
1432	 3.86500979754459E-02 
1433	 3.85844413833749E-02 
1434	 3.92507421082507E-02 
1435	 4.12199362654671E-02 
1436	 4.24068011372944E-02 
1437	 4.17653894485137E-02 
1438	 4.04275483924269E-02 
1439	 4.14013505185007E-02 
1440	 3.75179095254649E-02 
1441	 3.13220705555924E-02 
1442	 3.51867273358065E-02 
1443	 4.08216965830516E-02 
1444	 4.06439226569785E-02 
1445	 4.03210711215298E-02 
1446	 3.91687322016171E-02 
1447	 0.03809674505587 
1448	 0.038758191258429 
1449	 3.72695442614332E-02 
1450	 3.57443602428849E-02 
1451	 3.57606303862222E-02 
1452	 3.68095020782012E-02 
1453	 3.90709395092699E-02 
1454	 0.039029511344847 
1455	 3.78962438354775E-02 
1456	 3.75521549455093E-02 
1457	 3.62546364211006E-02 
1458	 3.66492608867196E-02 
1459	 3.86318368004921E-02 
1460	 3.88752102062249E-02 
1461	 3.92057822095247E-02 
1462	 3.90698725424367E-02 
1463	 3.68503947536789E-02 
1464	 3.72716740260964E-02 
1465	 3.99500251017607E-02 
1466	 4.00673553854415E-02 
1467	 3.99638627457843E-02 
1468	 4.09637008593064E-02 
1469	 4.05441131939681E-02 
1470	 4.05252742312816E-02 
1471	 4.29627616788151E-02 
1472	 4.30330124483316E-02 
1473	 3.99463299476269E-02 
1474	 3.99157367712887E-02 
1475	 4.21235829448303E-02 
1476	 4.19809380892325E-02 
1477	 4.06597332106612E-02 
1478	 4.12910631572211E-02 
1479	 4.21197942798601E-02 
1480	 4.18495261467436E-02 
1481	 4.22387806014211E-02 
1482	 4.29641556780691E-02 
1483	 4.24876486104447E-02 
1484	 4.28976588092434E-02 
1485	 4.49832656918142E-02 
1486	 4.55500031469835E-02 
1487	 4.49207566902867E-02 
1488	 0.045165096742477 
1489	 0.04545168894245 
1490	 4.57787449642017E-02 
1491	 4.64940617486058E-02 
1492	 4.69721901211978E-02 
1493	 4.71862529081864E-02 
1494	 4.75439332128294E-02 
1495	 4.79208753712775E-02 
1496	 4.83836021293029E-02 
1497	 4.90865797193732E-02 
1498	 0.049493864857889 
1499	 4.96841682313032E-02 
1500	 5.01034810917013E-02 
1501	 5.05334803209329E-02 
1502	 5.09553955311398E-02 
1503	 5.16887933783199E-02 
1504	 5.21105117339551E-02 
1505	 5.22437999243007E-02 
1506	 5.23699929906625E-02 
1507	 5.28298822856937E-02 
1508	 5.33651482264506E-02 
1509	 5.36233174042964E-02 
1510	 5.38079322330396E-02 
1511	 5.43262650368287E-02 
1512	 5.48727155341948E-02 
1513	 5.52480570560766E-02 
1514	 5.56784275171669E-02 
1515	 5.62070203689365E-02 
1516	 5.64852986105765E-02 
1517	 5.67189611479836E-02 
1518	 5.74930270032507E-02 
1519	 5.78769049785217E-02 
1520	 5.79286804007803E-02 
1521	 5.84990838622815E-02 
1522	 5.88859169106176E-02 
1523	 5.93066641604517E-02 
1524	 5.99171274424377E-02 
1525	 6.01742379057022E-02 
1526	 6.06488022324977E-02 
1527	 6.12785069516391E-02 
1528	 6.15650378947972E-02 
1529	 6.18514016154929E-02 
1530	 6.21886225992576E-02 
1531	 6.25261115795206E-02 
1532	 6.29476580431007E-02 
1533	 6.32877986114653E-02 
1534	 6.37109408074465E-02 
1535	 0.064186519164493 
1536	 6.44791569089948E-02 
1537	 6.47679727255933E-02 
1538	 6.52873815507536E-02 
1539	 6.58679500778734E-02 
1540	 6.61382221698612E-02 
1541	 6.63742208080576E-02 
1542	 6.68207664261852E-02 
1543	 6.72016766319669E-02 
1544	 6.73201132851282E-02 
1545	 6.73214929270236E-02 
1546	 6.76967895744902E-02 
1547	 6.84237616529814E-02 
1548	 6.89615603014213E-02 
1549	 6.93015138990918E-02 
1550	 6.97368076492139E-02 
1551	 7.01220504168798E-02 
1552	 7.02856778556084E-02 
1553	 7.05562385791836E-02 
1554	 7.09971634545119E-02 
1555	 7.11903163545693E-02 
1556	 7.13656562063283E-02 
1557	 7.19240552294702E-02 
1558	 7.23663779878143E-02 
1559	 7.25393557060152E-02 
1560	 7.28960306825335E-02 
1561	 7.32541753014767E-02 
1562	 7.36529967617756E-02 
1563	 7.42615756093681E-02 
1564	 7.44759865473311E-02 
1565	 7.44138023983729E-02 
1566	 7.49106874783526E-02 
1567	 7.55479092935716E-02 
1568	 7.55953125980417E-02 
1569	 7.57086680867849E-02 
1570	 7.60802127926931E-02 
1571	 7.62211516773733E-02 
1572	 0.076505373480599 
1573	 7.72588403887556E-02 
1574	 7.78892302746009E-02 
1575	 7.77055161064804E-02 
1576	 7.76137663086366E-02 
1577	 0.078224499940844 
1578	 7.84845112635834E-02 
1579	 0.078666684733198 
1580	 7.94022799744498E-02 
1581	 7.98756379751542E-02 
1582	 7.98237116910168E-02 
1583	 7.97748631515465E-02 
1584	 8.01580089574599E-02 
1585	 8.08393584875125E-02 
1586	 8.09810925574262E-02 
1587	 8.09533109993882E-02 
1588	 8.15439802092579E-02 
1589	 8.19547345526143E-02 
1590	 8.20482703720004E-02 
1591	 8.24023489798924E-02 
1592	 8.26287616412407E-02 
1593	 8.25251209743948E-02 
1594	 8.26271857075331E-02 
1595	 8.29816388968825E-02 
1596	 8.32319849514886E-02 
1597	 8.34548503363311E-02 
1598	 8.34719273869754E-02 
1599	 8.35535710305285E-02 
1600	 8.40668097196046E-02 
1601	 8.42196575665839E-02 
1602	 8.40708047430511E-02 
1603	 8.43827989488178E-02 
1604	 8.46795729532193E-02 
1605	 8.47081427961411E-02 
1606	 0.085062470961509 
1607	 0.085438249530465 
1608	 8.55379600667119E-02 
1609	 0.085780343022451 
1610	 8.61721417881974E-02 
1611	 8.66518833783013E-02 
1612	 8.67964035634126E-02 
1613	 8.65791552057254E-02 
1614	 8.68142982434719E-02 
1615	 8.70881935175015E-02 
1616	 0.087067725027717 
1617	 8.74475806613389E-02 
1618	 8.78703610332404E-02 
1619	 8.76723420857927E-02 
1620	 8.75600722233022E-02 
1621	 8.80208123505027E-02 
1622	 8.81965496959247E-02 
1623	 8.81902612917222E-02 
1624	 8.86147258225912E-02 
1625	 8.87738791818206E-02 
1626	 8.86137296477315E-02 
1627	 0.088735944965417 
1628	 8.89345752320793E-02 
1629	 8.90414954890292E-02 
1630	 8.91793193978519E-02 
1631	 8.91695888053869E-02 
1632	 8.90361256050595E-02 
1633	 8.91081790709726E-02 
1634	 8.93558429017171E-02 
1635	 8.98106483669622E-02 
1636	 9.04524537247261E-02 
1637	 9.06321221750088E-02 
1638	 9.04118791071144E-02 
1639	 9.05800645174818E-02 
1640	 9.07861100870813E-02 
1641	 9.07319503149093E-02 
1642	 9.09180680041611E-02 
1643	 9.11410230671658E-02 
1644	 9.10541110514252E-02 
1645	 9.10889944506836E-02 
1646	 9.13485798914887E-02 
1647	 9.13947772500017E-02 
1648	 9.14871212203204E-02 
1649	 9.17455230772122E-02 
1650	 9.16526473010497E-02 
1651	 9.14379089773671E-02 
1652	 9.17952025189114E-02 
1653	 9.20994050001254E-02 
1654	 9.22834750378321E-02 
1655	 9.25382413898774E-02 
1656	 9.24834092405424E-02 
1657	 9.22564164006931E-02 
1658	 9.24507219375866E-02 
1659	 9.26971654934673E-02 
1660	 9.27761053389691E-02 
1661	 0.092911637569892 
1662	 9.29075068243416E-02 
1663	 9.27603338996299E-02 
1664	 9.28065687375695E-02 
1665	 9.28159667732706E-02 
1666	 9.29764877173827E-02 
1667	 9.34859245767111E-02 
1668	 9.31563134500313E-02 
1669	 9.30854273725926E-02 
1670	 9.33683012844904E-02 
1671	 9.31844172411413E-02 
1672	 9.30043640990952E-02 
1673	 9.31804099834992E-02 
1674	 9.31017789645697E-02 
1675	 0.093127192440253 
1676	 9.34493343500469E-02 
1677	 9.35613962625508E-02 
1678	 9.36304782907571E-02 
1679	 9.35961075775958E-02 
1680	 9.35193874227269E-02 
1681	 9.35036975362374E-02 
1682	 9.34971909726633E-02 
1683	 0.093476664546319 
1684	 9.33806188996029E-02 
1685	 9.35198571696334E-02 
1686	 9.36941036609927E-02 
1687	 9.34856541246881E-02 
1688	 9.31904652143762E-02 
1689	 0.093124712067426 
1690	 9.30869665925749E-02 
1691	 9.31265426651088E-02 
1692	 9.33564035681869E-02 
1693	 9.35743852070376E-02 
1694	 9.35619499875508E-02 
1695	 9.31160105026154E-02 
1696	 9.28262635894518E-02 
1697	 9.28162773091194E-02 
1698	 9.26263208695452E-02 
1699	 9.25749951198764E-02 
1700	 0.092591621805535 
1701	 9.24366627341934E-02 
1702	 9.22424147177173E-02 
1703	 9.22282469181833E-02 
1704	 9.24641616281992E-02 
1705	 9.24457861522505E-02 
1706	 9.22427775310101E-02 
1707	 9.22032770451934E-02 
1708	 0.09195755887637 
1709	 9.15908751342112E-02 
1710	 9.14904030589103E-02 
1711	 9.14685952059262E-02 
1712	 9.14427325237814E-02 
1713	 9.17887138682418E-02 
1714	 9.18132574889649E-02 
1715	 9.19759412992486E-02 
1716	 9.21956370305788E-02 
1717	 9.17911562452288E-02 
1718	 0.091376018633014 
1719	 9.10342279746738E-02 
1720	 9.04255930705517E-02 
1721	 9.00379841633584E-02 
1722	 9.01455262395891E-02 
1723	 8.98551309820619E-02 
1724	 8.96405240813708E-02 
1725	 8.99191808289845E-02 
1726	 8.97888572194489E-02 
1727	 8.97601899325668E-02 
1728	 8.97796230869313E-02 
1729	 8.91616124381716E-02 
1730	 8.87122897011008E-02 
1731	 8.83789306898761E-02 
1732	 8.82358428596908E-02 
1733	 8.81199675351739E-02 
1734	 8.75027732727133E-02 
1735	 8.74660834111399E-02 
1736	 0.086931607231166 
1737	 8.60902092000995E-02 
1738	 8.67642091561188E-02 
1739	 0.086877014964112 
1740	 8.66434948518244E-02 
1741	 8.70194687886008E-02 
1742	 8.60354559132085E-02 
1743	 0.085202180849187 
1744	 8.54027334859688E-02 
1745	 8.48856945536577E-02 
1746	 8.45152649355581E-02 
1747	 8.42345818218582E-02 
1748	 8.31729786882179E-02 
1749	 8.29499203812655E-02 
1750	 8.39639888812207E-02 
1751	 8.37805187281436E-02 
1752	 8.30338634391112E-02 
1753	 8.30822266443294E-02 
1754	 8.28564137707112E-02 
1755	 8.23542210174326E-02 
1756	 8.26594661652361E-02 
1757	 8.23247677776753E-02 
1758	 8.12589004884928E-02 
1759	 8.11068100968224E-02 
1760	 8.04541509065914E-02 
1761	 7.95309152673401E-02 
1762	 7.94989155787877E-02 
1763	 8.02632106448544E-02 
1764	 0.080600151447732 
1765	 7.97126679585675E-02 
1766	 7.96325359287345E-02 
1767	 7.94265912052727E-02 
1768	 7.76713375381552E-02 
1769	 7.70829977433257E-02 
1770	 7.69693501848657E-02 
1771	 0.07601573129953 
1772	 7.64082231555452E-02 
1773	 7.76641467327455E-02 
1774	 7.75607597569513E-02 
1775	 7.68969006770208E-02 
1776	 0.076881316665063 
1777	 7.69780960304813E-02 
1778	 7.66128175997845E-02 
1779	 7.62318294937212E-02 
1780	 7.57825506822504E-02 
1781	 7.44917164007865E-02 
1782	 7.43299039505496E-02 
1783	 7.52344704190364E-02 
1784	 7.57432516007003E-02 
1785	 7.68924702893275E-02 
1786	 7.68011623338208E-02 
1787	 7.58239377947001E-02 
1788	 7.54944176302023E-02 
1789	 7.47443274586877E-02 
1790	 7.42366020419959E-02 
1791	 7.27473348886439E-02 
1792	 7.44997938996893E-02 
1793	 7.54048160004668E-02 
1794	 0.073735876863139 
1795	 7.91712477988997E-02 
1796	 0.082825129703228 
1797	 7.91948993204047E-02 
1798	 7.88569409395092E-02 
1799	 7.77367369213858E-02 
1800	 7.06705120133356E-02 
1801	 6.91190572393849E-02 
1802	 7.78999997501931E-02 
1803	 7.91116969839277E-02 
1804	 7.55086673793678E-02 
1805	 7.62844667880683E-02 
1806	 7.49136324486639E-02 
1807	 7.50723988711096E-02 
1808	 9.07368876251695E-02 
1809	 9.18493436554786E-02 
1810	 6.07313967633285E-02 
1811	 4.84055297762566E-02 
1812	 3.73878519293726E-02 
1813	 5.29334195793888E-02 
1814	 0.14532105478546 
1815	 0.160420640618776 
1816	 0.131529658195182 
1817	 2.23222403153753E-02 
1818	-4.37050838543261E-02 
1819	 4.72278635680766E-02 
1820	 0.109534333969609 
1821	 9.09866502495113E-02 
1822	 0.143037271124361 
1823	 3.76078472538911E-02 
1824	 7.79515926473706E-02 
1825	 0.466882158035372 
1826	 0.479721204866008 
1827	 0.153205906635399 
1828	 3.04045066478312E-02 
1829	-9.14288970032255 
1830	-15.1364322406176 
1831	-0.738694563151817 
1832	-0.990926346004068 
1833	-3.57260572280292 
1834	-5.87912784153925 
1835	-0.938277814637222 
1836	-0.817957132188626 
1837	-0.866001434320551 
1838	-0.822676282722951 
1839	 0.066597323272472 
1840	-0.583092593074892 
1841	-2.06947645784346 
1842	-13.9516624530199 
1843	-243.409958384996 
1844	 0.514629547789125 
1845	-0.52995373433009 
1846	 4.49121618091071 
1847	 3.52867886316866 
1848	-1.43592852212634 
1849	-0.526687411412018 
1850	 1.10139905447292 
1851	 2.58320811823876 
1852	 3.47793960037244 
1853	 7.82089611348728 
1854	 3.47463930166045 
1855	 0.699166419280681 
1856	 0.347173238755171 
1857	 0.163589503523435 
1858	 0.195820199961429 
1859	 0.546248320418819 
1860	 0.126547288487525 
1861	-0.465357072590664 
1862	-0.687605475506903 
1863	-0.462787178587476 
1864	-0.204081657732136 
1865	-2.10202789081729E-02 
1866	 2.13505655369899 
1867	 2.67410099200206 
1868	-9.76328056043366 
1869	-0.91092227391445 
1870	-1.05351497504166 
1871	-2.80582862446238 
1872	-0.532815759213429 
1873	-0.368819657232633 
1874	-0.503347059974867 
1875	 0.234732598510935 
1876	 0.207320000476409 
1877	-1.04108773756079 
1878	-1.60747616157194 
1879	 43.3221827534511 
1880	 0.534688771708289 
1881	-1.33978637497938 
1882	-5.00714335177632 
1883	 0.283513821146488 
1884	 4.83549427171841 
1885	-0.254190696459696 
1886	 0.240308851762684 
1887	 3.41923234186925E-02 
1888	-0.400636922606821 
1889	-0.352022754067475 
1890	-3.22674288348862 
1891	-1.97025069864492 
1892	 1.47299751658248 
1893	-0.130093056890826 
1894	-2.57973991628324 
1895	-5.99979166722221 
1896	 11.9952108000114 
1897	 2.31709339083592 
1898	 3.77192868391636 
1899	 0.754803277799344 
1900	 1.38833480749638 
1901	 0.678971797715564 
1902	 1.32968284256303 
1903	-52.9164471446089 
1904	-1.0506166787627 
1905	-0.550324804579957 
1906	-1.03539607316663 
1907	-0.447508786869208 
1908	-3.27696530444553E-02 
1909	-1.03359774549527 
1910	-0.381969088491573 
1911	 0.975221313859901 
1912	 10.2567416610974 
1913	-6.68078205606529 
1914	-0.846766662229456 
1915	-0.897136843979748 
1916	-2.55261902328561 
1917	-173.754338171274 
1918	 1.27230117451258 
1919	 2.14078563453978 
1920	-94.9373900249921 
1921	 0.196369323228086 
1922	 0.902306003720873 
1923	-4.0390060330985 
1924	-17.6065744895779 
1925	-20.0134891060808 
1926	-5.42816768633644 
1927	-2.8085103693398 
1928	-1.94377331461005 
1929	 0.315064128519025 
1930	 0.800766932566963 
1931	 1.28957921163214 
1932	 0.788720878837083 
1933	 0.297920430889834 
1934	 0.313141793801075 
1935	 0.31971503131895 
1936	 0.277918552479177 
1937	 0.280853683649722 
1938	 0.196436899255734 
1939	 0.136543711432909 
1940	 5.63562802668051E-02 
1941	 3.59534837922489E-02 
1942	 3.90225731940532E-02 
1943	 2.69494107472528E-02 
1944	 3.66366609827304E-02 
1945	 4.63814058000408E-02 
1946	 2.32629047928424E-02 
1947	 2.33870861454411E-02 
1948	 1.42327995662488E-02 
1949	-3.6265960849291E-03 
1950	 5.22715137171404E-03 
1951	-2.30377366096139E-03 
1952	-1.27391291922787E-02 
1953	-2.64712610243578E-02 
1954	-0.021177047555191 
1955	-1.72204840099475E-02 
1956	-1.33055455344218E-02 
1957	 4.02588038975785E-03 
1958	 1.26034543933564E-02 
1959	 1.07014862689245E-02 
1960	 1.27047360750017E-02 
1961	 1.56675428555847E-02 
1962	 1.79227773881741E-02 
1963	 1.63104297741762E-02 
1964	 1.41039002066559E-02 
1965	 1.34256984058848E-02 
1966	 1.25672002329394E-02 
1967	 1.12722293323544E-02 
1968	 1.10407382260831E-02 
1969	 1.18712611454889E-02 
1970	 1.19858000629337E-02 
1971	 1.10736938234054E-02 
1972	 1.20008375405016E-02 
1973	 1.42235260951084E-02 
1974	 1.50463726674765E-02 
1975	 1.62868961356244E-02 
1976	 0.016055232185694 
1977	 1.37165553905409E-02 
1978	 1.38912507303857E-02 
1979	 1.44577563674754E-02 
1980	 1.57728243625404E-02 
1981	 1.68491880916686E-02 
1982	 1.75486193511626E-02 
1983	 1.63630671045229E-02 
1984	 1.54605635426885E-02 
1985	 1.57279507278759E-02 
1986	 1.66022076629178E-02 
1987	 1.77147943316038E-02 
1988	 1.77734512273139E-02 
1989	 1.68481210942656E-02 
1990	 1.59626483976265E-02 
1991	 1.59844421312948E-02 
1992	 1.61712125841805E-02 
1993	 1.64707488999714E-02 
1994	 1.68381719856083E-02 
1995	 1.77575238320111E-02 
1996	 1.77929578822482E-02 
1997	 1.86117838478087E-02 
1998	 1.98498355641284E-02 
1999	 0.021305811748192 
2000	 2.56552890781044E-02 
2001	 2.80847656810795E-02 
2002	 2.87921068135254E-02 
2003	 3.02398650355052E-02 
2004	 2.77081992778416E-02 
2005	 2.34144313386517E-02 
2006	 2.36630216781196E-02 
2007	 2.51953220970002E-02 
2008	 2.22075166868271E-02 
2009	 2.18776753870885E-02 
2010	 2.39679056265677E-02 
2011	 0.023656353725476 
2012	 0.022081544042812 
2013	 2.35702496995686E-02 
2014	 2.03438881800942E-02 
2015	 1.93087819825267E-02 
2016	 2.07137693962437E-02 
2017	 2.10345563340423E-02 
2018	 2.31590548149073E-02 
2019	 2.50073076026994E-02 
2020	 2.54111271431988E-02 
2021	 2.53289829325284E-02 
2022	 2.41700392031171E-02 
2023	 2.18804571744612E-02 
2024	 2.11948973261142E-02 
2025	 1.98426452405547E-02 
2026	 2.02114682660899E-02 
2027	 2.18028622467156E-02 
2028	 2.39542109240189E-02 
2029	 0.025324464772825 
2030	 2.54321453468186E-02 
2031	 2.43046942059288E-02 
2032	 2.35512920199059E-02 
2033	 2.29230770753749E-02 
2034	 2.24397878647995E-02 
2035	 2.31755771095182E-02 
2036	 2.34891514631144E-02 
2037	 2.34247543976776E-02 
2038	 0.023359076746825 
2039	 2.37761735113696E-02 
2040	 2.45310014088652E-02 
2041	 2.53709155702055E-02 
2042	 2.71879787155538E-02 
2043	 2.78730875002702E-02 
2044	 2.83634542638257E-02 
2045	 2.74743014416496E-02 
2046	 2.67079201804256E-02 
2047	 2.69997186606959E-02 
2048	 2.64932183721751E-02 
2049	 2.69144321676764E-02 
2050	 2.80182093802798E-02 
2051	 2.73043138472215E-02 
2052	 2.79245891528597E-02 
2053	 2.93357242478927E-02 
2054	 2.94855186023161E-02 
2055	 2.95850668532731E-02 
2056	 2.98197892122602E-02 
2057	 0.030209920668736 
2058	 3.02110668813459E-02 
2059	 2.95312939509982E-02 
2060	 2.95453374716117E-02 
2061	 3.00992562868493E-02 
2062	 2.92905953509063E-02 
2063	 2.87180957304532E-02 
2064	 2.99433047548467E-02 
2065	 0.030410902863456 
2066	 2.94163197050974E-02 
2067	 2.91618607072052E-02 
2068	 3.03221667302072E-02 
2069	 3.07002719265956E-02 
2070	 3.19911168379667E-02 
2071	 0.034406510597778 
2072	 3.41265434272676E-02 
2073	 3.41699052486649E-02 
2074	 3.41405827013471E-02 
2075	 0.034120276739033 
2076	 3.34426489956969E-02 
2077	 3.32317118457226E-02 
2078	 3.32717336032459E-02 
2079	 3.31405758781946E-02 
2080	 3.23701170046017E-02 
2081	 3.30952913122318E-02 
2082	 3.40996710448543E-02 
2083	 3.43409144961484E-02 
2084	 3.50046451661686E-02 
2085	 3.55376626634737E-02 
2086	 3.55117473011584E-02 
2087	 3.47313045093804E-02 
2088	 3.48109328748743E-02 
2089	 3.57810616412215E-02 
2090	 3.65759447600134E-02 
2091	 3.80718319757841E-02 
2092	 3.85853775199286E-02 
2093	 3.82166344928453E-02 
2094	 3.76731819309396E-02 
2095	 3.62531238007037E-02 
2096	 3.62074835761135E-02 
2097	 3.67300018685551E-02 
2098	 3.73717202526974E-02 
2099	 3.91320265290227E-02 
2100	 3.94347425364754E-02 
2101	 4.02768569494485E-02 
2102	 4.15652005265544E-02 
2103	 0.041039810888526 
2104	 4.08440429458576E-02 
2105	 0.04107592887948 
2106	 4.00560523933951E-02 
2107	 3.97369846811515E-02 
2108	 0.040148692222335 
2109	 4.00875756063672E-02 
2110	 3.97565919965194E-02 
2111	 3.95479979078481E-02 
2112	 3.99766054022483E-02 
2113	 4.00015059896405E-02 
2114	 3.91607516540756E-02 
2115	 3.95119775397441E-02 
2116	 4.05156608221808E-02 
2117	 0.041121537274976 
2118	 4.26654793527607E-02 
2119	 4.33530385773973E-02 
2120	 4.33398240722886E-02 
2121	 4.34500031813825E-02 
2122	 0.043675617232228 
2123	 4.30000020130598E-02 
2124	 4.23779603989157E-02 
2125	 4.29845289947832E-02 
2126	 4.39165414149016E-02 
2127	 4.35464758782308E-02 
2128	 4.33370674325719E-02 
2129	 0.044209437499941 
2130	 4.51892902372401E-02 
2131	 4.54602267844232E-02 
2132	 4.56973142689229E-02 
2133	 4.64094267355911E-02 
2134	 4.66954011961908E-02 
2135	 4.66476869306262E-02 
2136	 4.65529728083203E-02 
2137	 0.046138855503035 
2138	 4.58638016984317E-02 
2139	 4.50966210327401E-02 
2140	 0.044745911100991 
2141	 4.52864824094016E-02 
2142	 4.55350590008031E-02 
2143	 4.55093282119148E-02 
2144	 4.56076275630255E-02 
2145	 4.55024361055063E-02 
2146	 4.49385952037553E-02 
2147	 4.48776579473831E-02 
2148	 4.48645392203641E-02 
2149	 4.62980951855802E-02 
2150	 4.77546259600604E-02 
2151	 4.83050178957355E-02 
2152	 4.91289891597374E-02 
2153	 4.99638500739805E-02 
2154	 4.98496192578967E-02 
2155	 4.79019855933923E-02 
2156	 4.68025002711825E-02 
2157	 4.60152269854698E-02 
2158	 4.42446452341713E-02 
2159	 4.40832500570948E-02 
2160	 4.54414162990345E-02 
2161	 0.04604217005974 
2162	 4.75467039247792E-02 
2163	 0.047780094633754 
2164	 4.73235602935692E-02 
2165	 0.047313290492898 
2166	 4.62485617303134E-02 
2167	 4.59192738693027E-02 
2168	 4.60389725817699E-02 
2169	 4.66986791079012E-02 
2170	 4.79334468826956E-02 
2171	 4.95455641001885E-02 
2172	 5.01708565636035E-02 
2173	 4.95404146941047E-02 
2174	 4.82995358044473E-02 
2175	 0.046083852294555 
2176	 0.045343254120595 
2177	 4.75657314536171E-02 
2178	 4.93073692256368E-02 
2179	 0.049903581360725 
2180	 5.07352582364961E-02 
2181	 4.99693924828476E-02 
2182	 4.73946958469126E-02 
2183	 4.67262624266093E-02 
2184	 4.74007079636596E-02 
2185	 4.78198230305892E-02 
2186	 4.77236406383302E-02 
2187	 4.83219340363102E-02 
2188	 4.87070281777378E-02 
2189	 4.73690981912546E-02 
2190	 4.76305357985114E-02 
2191	 5.08969478760423E-02 
2192	 5.13454142846938E-02 
2193	 5.03216417385002E-02 
2194	 0.049650215435433 
2195	 4.71344240507447E-02 
2196	 4.56408606960316E-02 
2197	 4.45941019494959E-02 
2198	 4.45834386404998E-02 
2199	 4.51523923313038E-02 
2200	 4.62655511123097E-02 
2201	 4.92223214513438E-02 
2202	 4.94552940734067E-02 
2203	 4.89406914117528E-02 
2204	 5.01968660824875E-02 
2205	 4.96893811189945E-02 
2206	 4.98877587563666E-02 
2207	 5.07271080610773E-02 
2208	 5.05111335147989E-02 
2209	 0.051198516776817 
2210	 5.12154297687155E-02 
2211	 4.87941517578459E-02 
2212	 4.58699372903292E-02 
2213	 4.37889563656447E-02 
2214	 4.25523996073428E-02 
2215	 4.52977658635686E-02 
2216	 4.86880774573017E-02 
2217	 4.89874262458688E-02 
2218	 4.76307597071894E-02 
2219	 4.76488590815175E-02 
2220	 0.04510505262911 
2221	 4.57093187766184E-02 
2222	 4.97786404233884E-02 
2223	 5.11922829688324E-02 
2224	 5.28447644460926E-02 
2225	 5.27226665369492E-02 
2226	 5.01679575888271E-02 
2227	 4.95100930056772E-02 
2228	 4.90368009682917E-02 
2229	 0.048608812766101 
2230	 0.048074728074427 
2231	 4.87981377040949E-02 
2232	 5.09747214197983E-02 
2233	 0.050870508875606 
2234	 5.01603031068981E-02 
2235	 0.05144754912598 
2236	 5.00497775411825E-02 
2237	 4.82454923012905E-02 
2238	 4.97225152262663E-02 
2239	 5.00656793042925E-02 
2240	 4.78639814463649E-02 
2241	 0.045420971926731 
2242	 4.28556621770853E-02 
2243	 4.21994360889009E-02 
2244	 4.24938435559034E-02 
2245	 4.41026016484979E-02 
2246	 4.64418118578031E-02 
2247	 4.62472093425188E-02 
2248	 4.65291980527895E-02 
2249	 4.81308282753644E-02 
2250	 4.87317643382938E-02 
2251	 4.86891872829473E-02 
2252	 4.98669702239502E-02 
2253	 5.05734230534842E-02 
2254	 0.050875467117635 
2255	 0.050867523350544 
2256	 4.83518293158652E-02 
2257	 4.47215276089128E-02 
2258	 4.24370132254193E-02 
2259	 4.34970512987727E-02 
2260	 0.043396210834151 
2261	 4.48709254489001E-02 
2262	 4.55343092147787E-02 
2263	 0.044702234524437 
2264	 4.41120388968588E-02 
2265	 4.52535576220616E-02 
2266	 4.51911022057911E-02 
2267	 4.36948459596283E-02 
2268	 4.32786514117087E-02 
2269	 4.15996050843776E-02 
2270	 4.17986597597599E-02 
2271	 4.59124980599087E-02 
2272	 4.53283038381353E-02 
2273	 4.22886766107635E-02 
2274	 4.21149543643772E-02 
2275	 4.02067941221021E-02 
2276	 3.83755342903772E-02 
2277	 3.84167796710946E-02 
2278	 3.94502930466908E-02 
2279	 4.01829867603175E-02 
2280	 4.04995533788934E-02 
2281	 4.27689174811556E-02 
2282	 4.47886202910178E-02 
2283	 4.34685580140166E-02 
2284	 4.13049884542679E-02 
2285	 4.22015838127479E-02 
2286	 4.30096542626783E-02 
2287	 4.54436966017205E-02 
2288	 0.048943306334784 
2289	 4.88904256355764E-02 
2290	 5.10436949647088E-02 
2291	 4.92496066838872E-02 
2292	 4.58691706971608E-02 
2293	 4.81447780849031E-02 
2294	 4.68398122026728E-02 
2295	 4.48094819539223E-02 
2296	 4.46313814269228E-02 
2297	 4.34629760932471E-02 
2298	 0.039811592441408 
2299	 3.59087645096724E-02 
2300	 3.64016016453179E-02 
2301	 3.77944072371367E-02 
2302	 0.040290105889301 
2303	 4.49777738740184E-02 
2304	 4.71507239004081E-02 
2305	 4.65744808024708E-02 
2306	 4.45145992331747E-02 
2307	 4.28925846838793E-02 
2308	 4.14899853025202E-02 
2309	 3.69444820215714E-02 
2310	 3.27134824355782E-02 
2311	 2.88770628579555E-02 
2312	 2.97357651267253E-02 
2313	 0.034665107311235 
2314	 3.56022717337302E-02 
2315	 3.90684441107993E-02 
2316	 4.16009256198367E-02 
2317	 3.72998961191115E-02 
2318	 3.73303247576887E-02 
2319	 4.12361434312874E-02 
2320	 0.039591312554799 
2321	 3.58665147485096E-02 
2322	 3.22734750851946E-02 
2323	 3.02616331063163E-02 
2324	 0.026116555700982 
2325	 2.59913068521611E-02 
2326	 0.033095539198309 
2327	 2.98840515241492E-02 
2328	 2.81366133176985E-02 
2329	 2.93277780492529E-02 
2330	 2.88543561146535E-02 
2331	 3.51362598657753E-02 
2332	 3.56079689298138E-02 
2333	 3.31261469552872E-02 
2334	 2.92898540742341E-02 
2335	 2.38827492146902E-02 
2336	 2.90304523817964E-02 
2337	 3.43817286202172E-02 
2338	 3.70487636935428E-02 
2339	 4.00406616606571E-02 
2340	 3.79176213566339E-02 
2341	 3.49792595073366E-02 
2342	 3.51275434052186E-02 
2343	 3.98429347602913E-02 
2344	 3.96015936501606E-02 
2345	 3.90265773037132E-02 
2346	 4.40268246764503E-02 
2347	 3.96020180749036E-02 
2348	 3.13825772493627E-02 
2349	 2.10041409880418E-02 
2350	 1.10989523126496E-02 
2351	 1.54946332348269E-02 
2352	 1.92372983320861E-02 
2353	 1.66066348413593E-02 
2354	 2.34604038798993E-02 
2355	 2.28096775685512E-02 
2356	 1.11529620272988E-02 
2357	 7.47305486448676E-03 
2358	 1.94081652891409E-03 
2359	 1.87320870448521E-03 
2360	 1.38953834010161E-02 
2361	 2.93615812816999E-02 
2362	 3.75755657403505E-02 
2363	 3.06913905915597E-02 
2364	 2.15681093699512E-02 
2365	 1.29520577924593E-02 
2366	 1.66966698842781E-02 
2367	 2.43481219445116E-02 
2368	 1.76744000800502E-02 
2369	 1.85566335626087E-02 
2370	 2.22533911556283E-02 
2371	 1.49215361480494E-02 
2372	 1.95485560536586E-02 
2373	 3.25223761034572E-02 
2374	 3.26527072840502E-02 
2375	 3.50397194401572E-02 
2376	 3.89585520142606E-02 
2377	 4.32068205849441E-02 
2378	 4.23985147136278E-02 
2379	 3.29080744023573E-02 
2380	 3.65762189811504E-02 
2381	 2.95463688593173E-02 
2382	 1.70091970795305E-02 
2383	 2.74564101905787E-02 
2384	 4.29464080322162E-02 
2385	 4.93634712366986E-02 
2386	 3.82600714979714E-02 
2387	 2.29495791588367E-02 
2388	 1.59432808082815E-02 
2389	 1.45310612787156E-02 
2390	 2.31570299800063E-02 
2391	 0.039211367630352 
2392	 0.028626326010151 
2393	-2.07595374548941E-03 
2394	-4.08044761603418E-03 
2395	-9.83291333926063E-03 
2396	-1.08256729780722E-02 
2397	-7.19257249343242E-03 
2398	-1.50041387961517E-02 
2399	-1.69761299930355E-03 
2400	-1.72263268923613E-02 
2401	-3.11533558528003E-02 
2402	-4.1476989458765E-03 
2403	 2.42248921037874E-03 
2404	-5.44960574938103E-03 
2405	 5.43123684708743E-03 
2406	 1.21359549905538E-02 
2407	-1.52281505894293E-02 
2408	-1.58175294857295E-02 
2409	 6.47662761837402E-03 
2410	-3.98333010714176E-02 
2411	-6.43952131436177E-02 
2412	-2.72497489970478E-02 
2413	-6.09929906040769E-02 
2414	-0.122839867950763 
2415	-0.167261150248797 
2416	-0.156668948456102 
2417	-5.39964088516598E-02 
2418	 5.98213935734648E-02 
2419	 0.157434263237627 
2420	 0.119250785089286 
2421	-4.48218730356147E-03 
2422	-5.86448289282046E-02 
2423	-4.70625896149586E-02 
2424	-2.04700783437478E-04 
2425	 0.024427579527775 
2426	 2.71693766254932E-02 
2427	 0.008044634733913 
2428	 0.010108562353895 
2429	 3.98017289514393E-02 
2430	 1.77103228647676E-02 
2431	-4.5333784923491E-03 
2432	-5.08299922846556E-02 
2433	-9.12677247615891E-02 
2434	-0.059362405085961 
2435	-3.02750843997842E-02 
2436	-5.81116135302364E-02 
2437	-0.231965255464349 
2438	-0.268363592063695 
2439	-0.197951165827368 
2440	-0.223462048660543 
2441	-4.85571235764937E-02 
2442	 8.39650744191276E-02 
2443	 1.55433567716534E-02 
2444	 8.64973457479474E-02 
2445	 5.12361202860896E-02 
2446	-0.178048295256327 
2447	-0.185227852880109 
2448	-0.263877583270772 
2449	-0.255839628887636 
2450	-0.2370129039366 
2451	-0.433117273308502 
2452	-0.366701839609439 
2453	-0.248308609255334 
2454	-6.80436976629026E-03 
2455	 0.228701022875318 
2456	 0.274956566775779 
2457	 0.213971120164706 
2458	 0.143389181709423 
2459	 5.28171436814133E-02 
2460	 4.07155017078527E-02 
2461	-1.83722384169166E-02 
2462	-0.111340437861693 
2463	-4.44491451478605E-02 
2464	 4.38811756395424E-02 
2465	 0.184729835567975 
2466	 0.27872542433378 
2467	 0.177226787000623 
2468	 3.03303652610247E-02 
2469	 2.31964003779101E-02 
2470	-4.95202350628944E-02 
2471	-0.194156737652869 
2472	-9.29312422008101E-02 
2473	-0.867312963243633 
2474	-2.14326139235326 
2475	-1.32619638897835 
2476	-0.606751663094729 
2477	-0.215920472260203 
2478	-0.260224127183391 
2479	-0.23115608456297 
2480	-8.76434863797368E-03 
2481	 0.239568984497333 
2482	 0.509704866981919 
2483	-2.29214294365647 
2484	 3.36014371682865 
2485	-21.3389105486016 
2486	-2.05753838538228 
2487	 0.489858485070487 
2488	-0.447265402559328 
2489	 0.42029052762617 
2490	 0.919040723516273 
2491	 1.41756677275719 
2492	 2.33913936625459 
2493	 0.898620774801439 
2494	 1.72944619193088 
2495	 2.21159233993331 
2496	 2.76495628755087 
2497	-1.35694624623206 
2498	 1.51659232279974 
2499	 0.680773445213816 
2500	 0.287525389508919 
