Wavelength	rt0711a200005.asd
350	 0.114056147938151 
351	 0.116658404448702 
352	 0.118805866293047 
353	 0.120462776438294 
354	 0.122001545709614 
355	 0.123863456869607 
356	 0.125832929403733 
357	 0.127914943316818 
358	 0.130103693157467 
359	 0.132114744309887 
360	 0.134238872733587 
361	 0.13640157868318 
362	 0.138294765500162 
363	 0.140099786118454 
364	 0.141792894335649 
365	 0.143417261954555 
366	 0.145168839881863 
367	 0.147020665187212 
368	 0.148671778165055 
369	 0.150065679186199 
370	 0.152312069513069 
371	 0.153918898481581 
372	 0.155179484111885 
373	 0.157260352138853 
374	 0.158847454013152 
375	 0.16049633354182 
376	 0.162264662225722 
377	 0.163317543823828 
378	 0.164671435129365 
379	 0.166066085851465 
380	 0.167157136971463 
381	 0.168346390299756 
382	 0.169311747407355 
383	 0.170080780568171 
384	 0.170868983839706 
385	 0.171850524306096 
386	 0.172824563314688 
387	 0.173654667243889 
388	 0.17432696514915 
389	 0.174793405999969 
390	 0.174900095133065 
391	 0.174732674790061 
392	 0.174976448963104 
393	 0.175017781483337 
394	 0.174890683163091 
395	 0.174796639321612 
396	 0.174450633078819 
397	 0.17390522689348 
398	 0.173372645763515 
399	 0.173132524663578 
400	 0.172583982517085 
401	 0.171974685139 
402	 0.171527807741165 
403	 0.171168337339149 
404	 0.170462646791987 
405	 0.169576106028937 
406	 0.168828485615635 
407	 0.167959005838896 
408	 0.167046435570599 
409	 0.166141531923053 
410	 0.165244250379216 
411	 0.164302664816562 
412	 0.163359137374835 
413	 0.162441406888846 
414	 0.161506036547744 
415	 0.160546677755637 
416	 0.15958771707489 
417	 0.158660762866536 
418	 0.157754493748731 
419	 0.156900209660361 
420	 0.156156544955958 
421	 0.155599772348567 
422	 0.155044013464543 
423	 0.154535691610871 
424	 0.154181135963486 
425	 0.154107736634982 
426	 0.154184326245939 
427	 0.154322813945268 
428	 0.154491138711195 
429	 0.154871669296966 
430	 0.15541984521253 
431	 0.156004848208172 
432	 0.156436909994035 
433	 0.156943358735477 
434	 0.157340292139689 
435	 0.157504074237189 
436	 0.157751696773463 
437	 0.157895530170506 
438	 0.157836805161311 
439	 0.157554311308513 
440	 0.15721838064675 
441	 0.156781566287297 
442	 0.156285408049985 
443	 0.155948606206648 
444	 0.155264495860473 
445	 0.154416932344879 
446	 0.153686753668533 
447	 0.152913584912755 
448	 0.152139970020254 
449	 0.151370402704122 
450	 0.150576611296293 
451	 0.149753453409492 
452	 0.148916202861246 
453	 0.148086453034173 
454	 0.1473060480013 
455	 0.146425654318791 
456	 0.1455258103475 
457	 0.144740341051109 
458	 0.143987163819611 
459	 0.143269332034044 
460	 0.142500672525914 
461	 0.141528102259531 
462	 0.14074154766983 
463	 0.140037257835084 
464	 0.139270097541976 
465	 0.138477817944049 
466	 0.137666497076002 
467	 0.136897109303295 
468	 0.13622039625131 
469	 0.135435470011786 
470	 0.134687951717867 
471	 0.13402739585019 
472	 0.133336107264102 
473	 0.132680289126939 
474	 0.132075151156595 
475	 0.131511748172485 
476	 0.130946829514443 
477	 0.130406838274568 
478	 0.129973750320465 
479	 0.129730150401006 
480	 0.129359694779328 
481	 0.129041145731958 
482	 0.128859063598179 
483	 0.128554775673001 
484	 0.128470281200156 
485	 0.12847780784554 
486	 0.128347990702745 
487	 0.128324499585896 
488	 0.128359092345773 
489	 0.128430343891767 
490	 0.128558725428636 
491	 0.128767553022039 
492	 0.12899473678874 
493	 0.12918582769723 
494	 0.129340629775179 
495	 0.129611029552487 
496	 0.129877239279664 
497	 0.129947042231121 
498	 0.130303695880613 
499	 0.130576308880544 
500	 0.130621377751816 
501	 0.130771947628714 
502	 0.130980716862963 
503	 0.131095710110274 
504	 0.131053701474379 
505	 0.131288295937671 
506	 0.131476187295636 
507	 0.13152301505741 
508	 0.131542228425443 
509	 0.131668904020251 
510	 0.131878735278971 
511	 0.132136512627413 
512	 0.132470336941047 
513	 0.132762013287333 
514	 0.133132010010089 
515	 0.133740804739471 
516	 0.13422742708091 
517	 0.134798941228849 
518	 0.135536596675379 
519	 0.136306803412829 
520	 0.137228437038443 
521	 0.138273325295372 
522	 0.139412736005795 
523	 0.140690080098269 
524	 0.142198897490757 
525	 0.14387003059598 
526	 0.145543182417164 
527	 0.147395279408711 
528	 0.149454633000937 
529	 0.151684589873009 
530	 0.153983130968678 
531	 0.156481802657435 
532	 0.159229691928798 
533	 0.162202205074325 
534	 0.165232422222993 
535	 0.168425096815604 
536	 0.171811978312058 
537	 0.175306825447368 
538	 0.178890971870234 
539	 0.182628501425801 
540	 0.18652099579621 
541	 0.190317462627507 
542	 0.194150949898022 
543	 0.197979437308042 
544	 0.201680887955058 
545	 0.205341825647786 
546	 0.208968923074909 
547	 0.212517038104845 
548	 0.215863473475085 
549	 0.219143071700353 
550	 0.222286901893349 
551	 0.225212234377341 
552	 0.228137775821963 
553	 0.230934661277218 
554	 0.233638982213316 
555	 0.236470440130823 
556	 0.239182577309567 
557	 0.241950534326359 
558	 0.244883793330716 
559	 0.247644736588948 
560	 0.250464200191526 
561	 0.253401863361555 
562	 0.256420739421225 
563	 0.259475065019455 
564	 0.262548389690932 
565	 0.265626165173559 
566	 0.268710801401817 
567	 0.271658898687815 
568	 0.274468279729143 
569	 0.277171913123361 
570	 0.279700540045448 
571	 0.281987178721995 
572	 0.284088613268849 
573	 0.286185634083977 
574	 0.288207549792873 
575	 0.290142366219794 
576	 0.291981318850473 
577	 0.293740959897676 
578	 0.295365649225288 
579	 0.296929307069477 
580	 0.298558742285648 
581	 0.300067580785797 
582	 0.30148702182315 
583	 0.302810269611534 
584	 0.303882397846304 
585	 0.305060083559418 
586	 0.306163628120514 
587	 0.306945770872916 
588	 0.30792118172801 
589	 0.308874755530728 
590	 0.309713257927171 
591	 0.310581513769322 
592	 0.311407667357201 
593	 0.312127224843064 
594	 0.312731053774788 
595	 0.313434848897617 
596	 0.314108446801575 
597	 0.314694222746531 
598	 0.315189568989343 
599	 0.315722962191859 
600	 0.316274180385083 
601	 0.316807104435374 
602	 0.317295053927037 
603	 0.317782613565449 
604	 0.318267263179932 
605	 0.318742410740393 
606	 0.319269060176063 
607	 0.319835870324492 
608	 0.320368106390601 
609	 0.320740669389283 
610	 0.321216768462599 
611	 0.321735821407182 
612	 0.322208803119476 
613	 0.322683071534748 
614	 0.323080489594313 
615	 0.323461393564555 
616	 0.323936623613268 
617	 0.324344459251236 
618	 0.324759761581538 
619	 0.325237741042152 
620	 0.325759460575154 
621	 0.326160348399886 
622	 0.326510013683377 
623	 0.326923938468368 
624	 0.327323573486103 
625	 0.327663905059624 
626	 0.327991466444414 
627	 0.32842549240768 
628	 0.328786368974681 
629	 0.329206509042028 
630	 0.329754216093058 
631	 0.330170075713633 
632	 0.330535872939064 
633	 0.330924320488888 
634	 0.331389316829273 
635	 0.331827111122889 
636	 0.332222439299451 
637	 0.33259872020138 
638	 0.333025135155234 
639	 0.333445869509556 
640	 0.333790679765113 
641	 0.334046406485005 
642	 0.334461267428367 
643	 0.334759060563638 
644	 0.334921706840231 
645	 0.335137195133489 
646	 0.335268404030536 
647	 0.335500773529839 
648	 0.33591601936702 
649	 0.336259684064434 
650	 0.33647025001158 
651	 0.336594219785219 
652	 0.336708132334181 
653	 0.336733360605142 
654	 0.336723311819078 
655	 0.336683873174419 
656	 0.336559606761853 
657	 0.336390254555659 
658	 0.336248128097325 
659	 0.336148772807161 
660	 0.335948650218464 
661	 0.335748810397735 
662	 0.33553270568689 
663	 0.335235030814003 
664	 0.335048732016062 
665	 0.33489134100492 
666	 0.334684415520702 
667	 0.3344160925923 
668	 0.334279621929772 
669	 0.334257852287897 
670	 0.334274500094277 
671	 0.334374713284465 
672	 0.334432798245107 
673	 0.33447783364837 
674	 0.334679380144786 
675	 0.334915961900793 
676	 0.335188947709066 
677	 0.335516300101368 
678	 0.335911166638614 
679	 0.336226620666218 
680	 0.336594629923157 
681	 0.337217032777403 
682	 0.337795645105949 
683	 0.33841685570593 
684	 0.339057786422951 
685	 0.339556932710851 
686	 0.340059112453053 
687	 0.340658512992061 
688	 0.341349541125464 
689	 0.342036174113476 
690	 0.342597728052719 
691	 0.343047014159802 
692	 0.34347469199547 
693	 0.343791879902111 
694	 0.344220872336736 
695	 0.344753706712157 
696	 0.345019005812683 
697	 0.345080573015628 
698	 0.345042057217167 
699	 0.345032362151467 
700	 0.345172552122649 
701	 0.345242642709562 
702	 0.345200707224704 
703	 0.345159661151377 
704	 0.345052204601696 
705	 0.344863120621371 
706	 0.344615185351544 
707	 0.344385345178415 
708	 0.344153446119696 
709	 0.343854096960709 
710	 0.343417554840738 
711	 0.342875556878773 
712	 0.342245469625133 
713	 0.341514642896 
714	 0.340619425544879 
715	 0.339557556509729 
716	 0.338324030280177 
717	 0.337063299301365 
718	 0.336075273362892 
719	 0.335265533139612 
720	 0.334627361070164 
721	 0.334002676794887 
722	 0.332910396405394 
723	 0.331542717731225 
724	 0.330262730271046 
725	 0.329224667768312 
726	 0.328001751156306 
727	 0.326545563034641 
728	 0.324928213877503 
729	 0.323210346257751 
730	 0.321395208639653 
731	 0.319723729964418 
732	 0.318372897254471 
733	 0.317024501256154 
734	 0.315734479088737 
735	 0.314628376212924 
736	 0.313873006338784 
737	 0.313244794666537 
738	 0.31276996884551 
739	 0.312504203167078 
740	 0.312388485095865 
741	 0.312221759915442 
742	 0.312065116055949 
743	 0.312091362227934 
744	 0.312138535833682 
745	 0.312143089041735 
746	 0.312116957715522 
747	 0.312157608878898 
748	 0.312169580022115 
749	 0.312146859426579 
750	 0.31213023443587 
751	 0.31224120144816 
752	 0.312287449022214 
753	 0.312258925149973 
754	 0.312252763799026 
755	 0.312316115042679 
756	 0.312340523141026 
757	 0.312240523770584 
758	 0.311900836198716 
759	 0.311513170854801 
760	 0.311139642111723 
761	 0.311012490896577 
762	 0.311360240396335 
763	 0.31159343327319 
764	 0.311936139806765 
765	 0.312648724275266 
766	 0.312967526019279 
767	 0.313254126148331 
768	 0.313565103868971 
769	 0.313646875781416 
770	 0.313835101779801 
771	 0.314076785740859 
772	 0.314288352715879 
773	 0.314521642490334 
774	 0.31483810553432 
775	 0.315144140645123 
776	 0.315336963206996 
777	 0.315694443464888 
778	 0.315976545920492 
779	 0.316189206943164 
780	 0.316602064208658 
781	 0.31693964286837 
782	 0.317242239764913 
783	 0.317576561180981 
784	 0.317942884667973 
785	 0.31825185517638 
786	 0.318572010860573 
787	 0.318980596887321 
788	 0.319282020279025 
789	 0.319621139490093 
790	 0.320053370676683 
791	 0.320537449443034 
792	 0.320934950481773 
793	 0.321383367589864 
794	 0.321897153761116 
795	 0.322220702875131 
796	 0.322461088402898 
797	 0.322733922197299 
798	 0.323076748700593 
799	 0.323195820906006 
800	 0.32353544719532 
801	 0.323974403043824 
802	 0.32413965325311 
803	 0.324395816915555 
804	 0.324536042230829 
805	 0.324576638233821 
806	 0.324806330927888 
807	 0.324813115419552 
808	 0.324636860374945 
809	 0.324370723998145 
810	 0.32397808669196 
811	 0.323701876188691 
812	 0.323403986087638 
813	 0.32286631677307 
814	 0.322482428863396 
815	 0.321900941542809 
816	 0.32128588794092 
817	 0.321113307125024 
818	 0.320729678959114 
819	 0.320106414499157 
820	 0.319332142311517 
821	 0.318564459849566 
822	 0.317239072546324 
823	 0.31591026431416 
824	 0.314917155397192 
825	 0.313315754978162 
826	 0.311513943476604 
827	 0.309595298757885 
828	 0.307664338959769 
829	 0.30580505312474 
830	 0.304053996569393 
831	 0.302504423295249 
832	 0.301290514404684 
833	 0.300159109027502 
834	 0.299289419479401 
835	 0.298666677009176 
836	 0.297982639847511 
837	 0.297351772682788 
838	 0.296753847840114 
839	 0.29622192947537 
840	 0.296012613596844 
841	 0.295701580161605 
842	 0.295352529446793 
843	 0.29510466510438 
844	 0.294500451186327 
845	 0.293960700900128 
846	 0.293659985544676 
847	 0.293540945014056 
848	 0.293410689346275 
849	 0.293095004222106 
850	 0.292585888137913 
851	 0.29207415075202 
852	 0.291715849583727 
853	 0.291548596161064 
854	 0.291398793575799 
855	 0.290728472765758 
856	 0.290478356388926 
857	 0.290304029819139 
858	 0.289792182445007 
859	 0.289649066090071 
860	 0.2895464683146 
861	 0.289242711307647 
862	 0.288673043230535 
863	 0.288491197782108 
864	 0.28828699397136 
865	 0.287854387990175 
866	 0.287298568459871 
867	 0.287086893470485 
868	 0.286664579121085 
869	 0.285984374202219 
870	 0.285800582701427 
871	 0.285495876471787 
872	 0.284972515907657 
873	 0.284327897726383 
874	 0.283819706496941 
875	 0.283477668964641 
876	 0.283052632159198 
877	 0.282374404743414 
878	 0.281884713823841 
879	 0.281438121116981 
880	 0.280960485855558 
881	 0.280421748429525 
882	 0.279820225205716 
883	 0.279252739545364 
884	 0.278636298146813 
885	 0.27783951467983 
886	 0.277561228887205 
887	 0.27714867508335 
888	 0.276444884213196 
889	 0.275991837157112 
890	 0.275457805333226 
891	 0.274945005750498 
892	 0.274476032362352 
893	 0.273800615676287 
894	 0.273098533418822 
895	 0.272561608008456 
896	 0.272199263232715 
897	 0.271469345393848 
898	 0.2709521151886 
899	 0.270397468123635 
900	 0.269546168996576 
901	 0.269121799245514 
902	 0.268606772300531 
903	 0.268168049003413 
904	 0.268025630960093 
905	 0.267291429910554 
906	 0.266599404237791 
907	 0.265922219174894 
908	 0.264881917951244 
909	 0.264403229417686 
910	 0.263853975562757 
911	 0.262775912764283 
912	 0.261196535984237 
913	 0.260493860101265 
914	 0.259671707864557 
915	 0.258299364237849 
916	 0.256964123959179 
917	 0.25594403481504 
918	 0.254756982435042 
919	 0.253434600895179 
920	 0.252783725503984 
921	 0.251336209580876 
922	 0.249552136502293 
923	 0.248007396874756 
924	 0.246735800900547 
925	 0.244391429624984 
926	 0.241722969291612 
927	 0.239899082365382 
928	 0.238963461396378 
929	 0.23727097415875 
930	 0.235294898648418 
931	 0.234184365477694 
932	 0.230727498570293 
933	 0.227113703914261 
934	 0.22207698465202 
935	 0.215368142444087 
936	 0.21546367764672 
937	 0.215035927676132 
938	 0.212250741813823 
939	 0.208794707010113 
940	 0.211593460960397 
941	 0.209408132153213 
942	 0.203352006482352 
943	 0.200123516726424 
944	 0.198147757884802 
945	 0.194665664698727 
946	 0.191147762170891 
947	 0.190273690360739 
948	 0.186087459949428 
949	 0.180320713529678 
950	 0.175764094413727 
951	 0.174604337111759 
952	 0.172972988973835 
953	 0.170169697830798 
954	 0.166914054558218 
955	 0.164730576242757 
956	 0.164891439109002 
957	 0.16279854229269 
958	 0.158069358017786 
959	 0.154122283311292 
960	 0.156067020687883 
961	 0.155527862108633 
962	 0.152602421533579 
963	 0.153374947447356 
964	 0.153952832626562 
965	 0.152539613111015 
966	 0.15023602059966 
967	 0.14976473699825 
968	 0.150292145705369 
969	 0.150328542527991 
970	 0.149929615856468 
971	 0.150363318745867 
972	 0.150848858221165 
973	 0.150903880877249 
974	 0.150789354431579 
975	 0.151165510701729 
976	 0.149892278190541 
977	 0.148945327531013 
978	 0.149159267012094 
979	 0.149870235122254 
980	 0.151332221229428 
981	 0.152319275225134 
982	 0.152576801493211 
983	 0.152745694851889 
984	 0.152681063614616 
985	 0.153037963172326 
986	 0.15380321328672 
987	 0.154361457490765 
988	 0.15424330289607 
989	 0.155003128738892 
990	 0.156585922998591 
991	 0.157500100686028 
992	 0.156417883364544 
993	 0.156276517954179 
994	 0.157179753690977 
995	 0.157457666832896 
996	 0.159569715984385 
997	 0.161459867292364 
998	 0.162204157185734 
999	 0.162069087668633 
1000	 0.161801880183929 
1001	 0.159000731416792 
1002	 0.159285184786049 
1003	 0.160199754938201 
1004	 0.161394488100847 
1005	 0.162514949244505 
1006	 0.164032218239871 
1007	 0.165224242149941 
1008	 0.16633554642569 
1009	 0.1674385719168 
1010	 0.16842478100633 
1011	 0.169466674836489 
1012	 0.170200554448521 
1013	 0.170778975196712 
1014	 0.171630932076015 
1015	 0.172443451006729 
1016	 0.173572733938167 
1017	 0.175047672321631 
1018	 0.176428368503961 
1019	 0.178030533003682 
1020	 0.179284328107702 
1021	 0.180281387167481 
1022	 0.18161600857425 
1023	 0.182426967560601 
1024	 0.183599629601489 
1025	 0.185004318384534 
1026	 0.186136806690246 
1027	 0.187399396739504 
1028	 0.188765901603644 
1029	 0.190024373929944 
1030	 0.191303969906461 
1031	 0.192420066594202 
1032	 0.193417535875153 
1033	 0.194512758159344 
1034	 0.195604093554887 
1035	 0.196567323929407 
1036	 0.197492407599306 
1037	 0.198427933485419 
1038	 0.1992037831899 
1039	 0.200021371843983 
1040	 0.201191216499137 
1041	 0.202103739653699 
1042	 0.203202662800217 
1043	 0.204539026566176 
1044	 0.205470796169 
1045	 0.206279315469955 
1046	 0.207073777735512 
1047	 0.207564163770669 
1048	 0.20828042253828 
1049	 0.209233070594713 
1050	 0.209905374414382 
1051	 0.210457575120806 
1052	 0.211009169173016 
1053	 0.21127098106766 
1054	 0.211836683507815 
1055	 0.212719516752411 
1056	 0.213389782863488 
1057	 0.21402638409073 
1058	 0.214765795723315 
1059	 0.21526505161525 
1060	 0.215487679647583 
1061	 0.215917060942925 
1062	 0.216450674881612 
1063	 0.216776077903231 
1064	 0.217297235766389 
1065	 0.217278890218964 
1066	 0.216526747659034 
1067	 0.216395680812775 
1068	 0.216205463415296 
1069	 0.216154727437432 
1070	 0.216723442053357 
1071	 0.216949434261388 
1072	 0.217038109596189 
1073	 0.217036946104438 
1074	 0.216771994467133 
1075	 0.216218643303078 
1076	 0.215896813278003 
1077	 0.215457812257059 
1078	 0.215031467043066 
1079	 0.214736025902823 
1080	 0.214384888273747 
1081	 0.213965678588274 
1082	 0.213443661580683 
1083	 0.212961843455403 
1084	 0.212410841645983 
1085	 0.211576528156273 
1086	 0.210853484800659 
1087	 0.210270442606109 
1088	 0.209591826876811 
1089	 0.208665512444381 
1090	 0.208077491077908 
1091	 0.207489244191598 
1092	 0.207002518484009 
1093	 0.206281985965686 
1094	 0.205595932972904 
1095	 0.204756357675244 
1096	 0.203631377527471 
1097	 0.202560887433925 
1098	 0.201264503048939 
1099	 0.200443938251832 
1100	 0.199892371120418 
1101	 0.199196310560161 
1102	 0.198918849138418 
1103	 0.198266363709367 
1104	 0.197284891261432 
1105	 0.196177754233893 
1106	 0.195135157481823 
1107	 0.193998799028451 
1108	 0.192754484539789 
1109	 0.191949640714973 
1110	 0.191192814952133 
1111	 0.190669443532449 
1112	 0.190066409781442 
1113	 0.189847115304274 
1114	 0.188851987916733 
1115	 0.186856281421798 
1116	 0.185854606026089 
1117	 0.185153419353909 
1118	 0.184112938914571 
1119	 0.184742141646533 
1120	 0.183240513613089 
1121	 0.17826403378707 
1122	 0.17606087337245 
1123	 0.173585990179842 
1124	 0.171385844659529 
1125	 0.172881538596757 
1126	 0.16991295462573 
1127	 0.163385303646763 
1128	 0.16008131976169 
1129	 0.156700580695384 
1130	 0.153218281737283 
1131	 0.150370548343073 
1132	 0.149850206592327 
1133	 0.146855211007338 
1134	 0.142411144526832 
1135	 0.138980488453539 
1136	 0.135342446045052 
1137	 0.132100001522387 
1138	 0.128078666509662 
1139	 0.126823128052669 
1140	 0.126684805250538 
1141	 0.124154801740202 
1142	 0.121339253846706 
1143	 0.118141284763797 
1144	 0.113838428613328 
1145	 0.111913706471917 
