Wavelength	rt0711a300004.asd
350	 0.181308431920402 
351	 0.183314912833135 
352	 0.185226557699521 
353	 0.186366219726131 
354	 0.187034022841849 
355	 0.189196599417482 
356	 0.19143371476634 
357	 0.19318870852464 
358	 0.19442473452049 
359	 0.196011607360143 
360	 0.197756505590119 
361	 0.199498360266134 
362	 0.201091230388835 
363	 0.202105464627121 
364	 0.203044177950799 
365	 0.20422227490229 
366	 0.205517735949801 
367	 0.206674034823935 
368	 0.207787038552976 
369	 0.209010379609683 
370	 0.210387092265004 
371	 0.211251912468292 
372	 0.211952144376177 
373	 0.213287212935102 
374	 0.214332582297903 
375	 0.215109297135249 
376	 0.215782622098835 
377	 0.21656812858168 
378	 0.217348593035687 
379	 0.218150199601783 
380	 0.218989354084529 
381	 0.219798139776237 
382	 0.220308401566211 
383	 0.220610978395866 
384	 0.220961445917646 
385	 0.221324411114652 
386	 0.221714312763958 
387	 0.222129686322843 
388	 0.222547128368465 
389	 0.222705723125809 
390	 0.222648469654555 
391	 0.222584546679117 
392	 0.22303115833989 
393	 0.222750617235846 
394	 0.222255135666419 
395	 0.22239803935813 
396	 0.222134752391078 
397	 0.221689208264855 
398	 0.221218199094807 
399	 0.220750874595962 
400	 0.220477850093849 
401	 0.220148733181786 
402	 0.21965825184145 
403	 0.219394529700207 
404	 0.218921268677299 
405	 0.218310492587886 
406	 0.217766554683747 
407	 0.217048926938706 
408	 0.216482856616143 
409	 0.215988482500301 
410	 0.215101036160566 
411	 0.214365249492609 
412	 0.213735847007318 
413	 0.213097356849775 
414	 0.212445266022051 
415	 0.211778617717305 
416	 0.211100219794656 
417	 0.210437186445421 
418	 0.209943536327873 
419	 0.209518923652453 
420	 0.209067098865608 
421	 0.208526218377968 
422	 0.208165404398381 
423	 0.207931425127762 
424	 0.207759500235608 
425	 0.207752786712712 
426	 0.207900852084375 
427	 0.208147273606119 
428	 0.208420838273575 
429	 0.208751232341246 
430	 0.20911381104188 
431	 0.209486629092978 
432	 0.209859103863119 
433	 0.210301556082544 
434	 0.210579867775206 
435	 0.210609107591028 
436	 0.210940651934551 
437	 0.211110919289874 
438	 0.211059412855344 
439	 0.210942993024169 
440	 0.210697720581949 
441	 0.210396095790371 
442	 0.210080417520121 
443	 0.209730624641287 
444	 0.209346346492841 
445	 0.208882746661291 
446	 0.208323435114694 
447	 0.207787695137972 
448	 0.207278700888864 
449	 0.206719409507008 
450	 0.206003828559572 
451	 0.205443544138982 
452	 0.204926922781429 
453	 0.204318803368194 
454	 0.203556732714679 
455	 0.202896226691544 
456	 0.202284345731126 
457	 0.201598058130369 
458	 0.20101343820904 
459	 0.20042689269716 
460	 0.199773500523917 
461	 0.199052183727549 
462	 0.198417304027761 
463	 0.197829844686486 
464	 0.197225014113881 
465	 0.19658889351912 
466	 0.195954733525618 
467	 0.195343976073507 
468	 0.194755227453657 
469	 0.194083912833454 
470	 0.193488496354655 
471	 0.192968991041262 
472	 0.192287997386207 
473	 0.191732428565062 
474	 0.19130761937463 
475	 0.190911631540797 
476	 0.190346134832752 
477	 0.189864472948497 
478	 0.189548044653546 
479	 0.189332188682389 
480	 0.189018613934863 
481	 0.188767698490496 
482	 0.188635938109355 
483	 0.188354089232114 
484	 0.188249564538807 
485	 0.188288035741972 
486	 0.188299266455128 
487	 0.188183751760743 
488	 0.188228048431187 
489	 0.188394335424313 
490	 0.18834155409226 
491	 0.188548464928793 
492	 0.188799769911516 
493	 0.188899410714908 
494	 0.189073205286312 
495	 0.189327605941577 
496	 0.18955266788543 
497	 0.189628882543055 
498	 0.189946406787509 
499	 0.190147828397799 
500	 0.190122527579168 
501	 0.190246045390986 
502	 0.190482058424161 
503	 0.190637831713356 
504	 0.190601665601465 
505	 0.190785405599633 
506	 0.19098048500402 
507	 0.191155077898538 
508	 0.191417308322261 
509	 0.191594821283778 
510	 0.191797620393239 
511	 0.192095219768281 
512	 0.192355415383587 
513	 0.192647037456091 
514	 0.193047940545312 
515	 0.193602806079613 
516	 0.194081982086033 
517	 0.19474868095942 
518	 0.195600232600044 
519	 0.196267698675103 
520	 0.197090324293824 
521	 0.198024900961132 
522	 0.198999164091231 
523	 0.200117840940315 
524	 0.201428828786946 
525	 0.202883450572201 
526	 0.204380755421146 
527	 0.206050102658011 
528	 0.207796771249791 
529	 0.209597659303363 
530	 0.211663332548669 
531	 0.213732570217723 
532	 0.215936796629878 
533	 0.218446286680689 
534	 0.220804610417263 
535	 0.223271705434884 
536	 0.225939986252374 
537	 0.228648958445232 
538	 0.231447842798676 
539	 0.23429003392569 
540	 0.237122106333509 
541	 0.239945881834158 
542	 0.242760349156943 
543	 0.245534176104715 
544	 0.248236275579427 
545	 0.250932520912803 
546	 0.253537121180851 
547	 0.256005045160208 
548	 0.258409802606278 
549	 0.260711390339773 
550	 0.262901692271868 
551	 0.264998050086756 
552	 0.267060981633474 
553	 0.269039409567681 
554	 0.270937195217221 
555	 0.272815756953454 
556	 0.274789330712392 
557	 0.276759788902153 
558	 0.278632021807836 
559	 0.280576962746525 
560	 0.282536921181665 
561	 0.284496264598081 
562	 0.286476143397416 
563	 0.288462856364892 
564	 0.290438226298937 
565	 0.292385017804346 
566	 0.294302304737567 
567	 0.296122895699997 
568	 0.297847413040921 
569	 0.299495626025907 
570	 0.301053556633463 
571	 0.302455382249113 
572	 0.303763650974737 
573	 0.305170856008501 
574	 0.306416724703464 
575	 0.307590077289959 
576	 0.308780444982527 
577	 0.309838852702779 
578	 0.310817650303063 
579	 0.311774283552916 
580	 0.312752835874668 
581	 0.313639869301278 
582	 0.314444442906259 
583	 0.315176261878037 
584	 0.315812091899001 
585	 0.316351371878439 
586	 0.316723873972432 
587	 0.316893455921662 
588	 0.317110708512976 
589	 0.317459243852778 
590	 0.317887203079672 
591	 0.318247579728494 
592	 0.318641153975296 
593	 0.319026754264525 
594	 0.319346843181798 
595	 0.319616256181045 
596	 0.31979278286513 
597	 0.319895105514742 
598	 0.319993156051178 
599	 0.320278822287821 
600	 0.320512249794431 
601	 0.320603983976164 
602	 0.320819348815705 
603	 0.321028913224573 
604	 0.321234133258872 
605	 0.321467390540261 
606	 0.321718290513036 
607	 0.321980620741287 
608	 0.32223047813428 
609	 0.322429244445327 
610	 0.322661185597976 
611	 0.322937933667854 
612	 0.32322940835098 
613	 0.323433957377976 
614	 0.323626154931975 
615	 0.323822997882197 
616	 0.324008917893018 
617	 0.324200476733039 
618	 0.324393024553766 
619	 0.324591080262378 
620	 0.324815252208346 
621	 0.325022411948037 
622	 0.325174894646284 
623	 0.325271330110246 
624	 0.32547638810876 
625	 0.325575571832822 
626	 0.325567624889695 
627	 0.325662620419342 
628	 0.32586880745351 
629	 0.326160376956857 
630	 0.326479483358834 
631	 0.326724518801636 
632	 0.326885635358999 
633	 0.327042042669543 
634	 0.327301971038571 
635	 0.327615716164154 
636	 0.32781743681446 
637	 0.327919068454445 
638	 0.328201255725809 
639	 0.328364457288673 
640	 0.328464007561266 
641	 0.328623789079829 
642	 0.328824957415115 
643	 0.328844102971534 
644	 0.328719381258734 
645	 0.328691669786514 
646	 0.328579416117205 
647	 0.328560660886049 
648	 0.328755736516506 
649	 0.329057724786358 
650	 0.329073058795002 
651	 0.328992339928774 
652	 0.329139885542809 
653	 0.329007796043315 
654	 0.32879914453225 
655	 0.328623192199581 
656	 0.328423445662705 
657	 0.32829380449828 
658	 0.32813386574643 
659	 0.327882960403153 
660	 0.327726095122258 
661	 0.327666748939282 
662	 0.327553168381573 
663	 0.327189681195527 
664	 0.32700014026593 
665	 0.326891607994764 
666	 0.326773735297745 
667	 0.32669263035189 
668	 0.326594439971049 
669	 0.326502445883089 
670	 0.326463057998923 
671	 0.326500655087035 
672	 0.326506534865214 
673	 0.326505017120877 
674	 0.326639318610621 
675	 0.32676274115507 
676	 0.326852635033686 
677	 0.32696634476222 
678	 0.327333225338247 
679	 0.327464446361072 
680	 0.327559351508498 
681	 0.328035697397861 
682	 0.328414678152863 
683	 0.328771128553419 
684	 0.329014942037548 
685	 0.328767400729614 
686	 0.328723363132091 
687	 0.32902682263588 
688	 0.329498379746894 
689	 0.329868671775853 
690	 0.330172147874112 
691	 0.330309826715506 
692	 0.330151429974431 
693	 0.330094125656571 
694	 0.330337862653938 
695	 0.33077733729453 
696	 0.330969389647319 
697	 0.330737314660711 
698	 0.33025808465563 
699	 0.329843486240491 
700	 0.329630225593381 
701	 0.329473257879993 
702	 0.329267790399438 
703	 0.328964622475868 
704	 0.328612984006497 
705	 0.328181563198415 
706	 0.327676047330172 
707	 0.327187470120489 
708	 0.326615849148272 
709	 0.325971959346507 
710	 0.325272636580124 
711	 0.324354034341672 
712	 0.323285541711303 
713	 0.322076161601609 
714	 0.320619399116825 
715	 0.318745695727401 
716	 0.316624043829499 
717	 0.314665667595583 
718	 0.312983016600544 
719	 0.312058999313298 
720	 0.311588440364728 
721	 0.310862230154941 
722	 0.309216048401389 
723	 0.307192654438027 
724	 0.305459807795888 
725	 0.304149938034656 
726	 0.302567302831136 
727	 0.300690531077547 
728	 0.298705618707597 
729	 0.296778659507798 
730	 0.294883065100635 
731	 0.293184453715281 
732	 0.291780408383382 
733	 0.290428665129572 
734	 0.288964815469705 
735	 0.287543765687651 
736	 0.286714844419596 
737	 0.286180364633221 
738	 0.285767077710267 
739	 0.285401242402513 
740	 0.285195864527779 
741	 0.285106129517927 
742	 0.285042843007249 
743	 0.284919790472556 
744	 0.284878669439149 
745	 0.284861229552749 
746	 0.284828640190515 
747	 0.284794855923776 
748	 0.284878699005363 
749	 0.284902189090746 
750	 0.284748339892103 
751	 0.28475528944618 
752	 0.284727301204012 
753	 0.284676682466668 
754	 0.284702840734396 
755	 0.284628843226242 
756	 0.284503673942615 
757	 0.284266328692082 
758	 0.283493682932056 
759	 0.282157452542197 
760	 0.280793243052592 
761	 0.280753985516166 
762	 0.280956502829671 
763	 0.281781591928198 
764	 0.282836337972464 
765	 0.283681515675398 
766	 0.284515135914774 
767	 0.285016655454599 
768	 0.285238137862358 
769	 0.285553133202382 
770	 0.285822808355371 
771	 0.286043160445442 
772	 0.286238487649053 
773	 0.28643959958527 
774	 0.28668831244235 
775	 0.286960725592376 
776	 0.287221476256432 
777	 0.287558180493806 
778	 0.287853850384342 
779	 0.288114425217295 
780	 0.288474865497403 
781	 0.288799401219328 
782	 0.28907684185325 
783	 0.289343965392756 
784	 0.289702112067852 
785	 0.289953402350381 
786	 0.290182136810039 
787	 0.290515341887574 
788	 0.290707692239149 
789	 0.29111211210038 
790	 0.29174766197567 
791	 0.292330556516838 
792	 0.292628133152394 
793	 0.293001371981785 
794	 0.293559700893475 
795	 0.293856904271956 
796	 0.294101493669959 
797	 0.294387366874217 
798	 0.294732818929971 
799	 0.294962580437887 
800	 0.295281081723305 
801	 0.295597843573192 
802	 0.29572741435277 
803	 0.296078580253113 
804	 0.296333433781599 
805	 0.29641742601343 
806	 0.296579669544839 
807	 0.296527816155057 
808	 0.296325516322206 
809	 0.296010193754593 
810	 0.295330338175327 
811	 0.294830005545285 
812	 0.294353589379113 
813	 0.293534633458831 
814	 0.292652043248787 
815	 0.292031713385085 
816	 0.291718801313738 
817	 0.291447765862009 
818	 0.290843630667382 
819	 0.290351710740733 
820	 0.28993651817497 
821	 0.288880032184985 
822	 0.287474676852462 
823	 0.286182296163547 
824	 0.285131884055502 
825	 0.283506828326075 
826	 0.281733450112209 
827	 0.279840144835429 
828	 0.277868615895273 
829	 0.27600799843902 
830	 0.274289368020633 
831	 0.272782744117736 
832	 0.271611247099445 
833	 0.270739143411785 
834	 0.270033908752986 
835	 0.269433412668465 
836	 0.268992194145857 
837	 0.268412301399132 
838	 0.26784908286823 
839	 0.26748853789085 
840	 0.267339962465993 
841	 0.26716226242537 
842	 0.266840184905706 
843	 0.266378867230056 
844	 0.266010799618173 
845	 0.26573324156021 
846	 0.2654743431635 
847	 0.265142110103971 
848	 0.264901440863473 
849	 0.264510703754393 
850	 0.263958733209518 
851	 0.263575659825518 
852	 0.263660181955102 
853	 0.263670649648651 
854	 0.263228815088169 
855	 0.262696053409872 
856	 0.262387499368861 
857	 0.262129682801952 
858	 0.261750481657604 
859	 0.261664170176696 
860	 0.261535932522507 
861	 0.261256096884257 
862	 0.260898903524258 
863	 0.260849210094551 
864	 0.260663518431515 
865	 0.260162026432685 
866	 0.259540531589798 
867	 0.25950144063825 
868	 0.25935046991806 
869	 0.258813230534038 
870	 0.258408745690796 
871	 0.258198967808174 
872	 0.257794075868867 
873	 0.257099577238821 
874	 0.2569055742356 
875	 0.25673730919595 
876	 0.256226387145833 
877	 0.255374607831829 
878	 0.255359365027843 
879	 0.254957391027312 
880	 0.254327206324727 
881	 0.254110353597135 
882	 0.253512689048298 
883	 0.253005239673668 
884	 0.252640020785222 
885	 0.252143543390568 
886	 0.251777657477622 
887	 0.251292318907265 
888	 0.250753981881661 
889	 0.250572145022538 
890	 0.249795839290902 
891	 0.249123487111527 
892	 0.248828511827312 
893	 0.247862234629875 
894	 0.24703030749917 
895	 0.246653406802974 
896	 0.246534201484879 
897	 0.245400251168252 
898	 0.244490666702103 
899	 0.244231963906753 
900	 0.244368688997106 
901	 0.243747991387161 
902	 0.243301321949617 
903	 0.243110226469315 
904	 0.242882958091612 
905	 0.242320789931592 
906	 0.241968992704495 
907	 0.241706779062643 
908	 0.241010357180742 
909	 0.240386105833565 
910	 0.239626341316392 
911	 0.238674412157822 
912	 0.237715239315701 
913	 0.237257977152182 
914	 0.236709567054249 
915	 0.235898501459563 
916	 0.235279543781053 
917	 0.234881210354787 
918	 0.234129898345633 
919	 0.233163449635979 
920	 0.233084424965659 
921	 0.232567937138155 
922	 0.231503893462064 
923	 0.230253588282205 
924	 0.22963776297694 
925	 0.228277947359075 
926	 0.226719709795624 
927	 0.225710169506641 
928	 0.224448719042168 
929	 0.222310199429251 
930	 0.220366534605122 
931	 0.220169704341477 
932	 0.218580352442829 
933	 0.215833142331458 
934	 0.212664271548 
935	 0.210394119982323 
936	 0.210148590727264 
937	 0.210611011247382 
938	 0.210549391666445 
939	 0.209549170313102 
940	 0.209456349121976 
941	 0.208696298598677 
942	 0.206876312029534 
943	 0.204578001535053 
944	 0.20386398801058 
945	 0.203788522703937 
946	 0.203705561679331 
947	 0.203043359763196 
948	 0.199572215686875 
949	 0.197300999204678 
950	 0.196170464285008 
951	 0.194061003547797 
952	 0.194541654672379 
953	 0.194207855379419 
954	 0.192829873175153 
955	 0.192563416565634 
956	 0.193075870515312 
957	 0.193190812029538 
958	 0.191999948228852 
959	 0.189535313028738 
960	 0.189833880581066 
961	 0.189805735607174 
962	 0.189672617102433 
963	 0.191638273528092 
964	 0.190991194636295 
965	 0.189934046825913 
966	 0.189177877532957 
967	 0.188194836989997 
968	 0.189738174104113 
969	 0.190595670916041 
970	 0.190024338234189 
971	 0.189714994481339 
972	 0.18851286085832 
973	 0.18854683907989 
974	 0.189656300100291 
975	 0.189459604412399 
976	 0.189651379625701 
977	 0.189726056282572 
978	 0.189590526785895 
979	 0.189773451755356 
980	 0.191019872231983 
981	 0.192439183822946 
982	 0.192801162142494 
983	 0.191404226744778 
984	 0.191665967716292 
985	 0.192114870376125 
986	 0.192359178746739 
987	 0.192971016367919 
988	 0.191788078931531 
989	 0.192161646045738 
990	 0.194059764746186 
991	 0.19468890851906 
992	 0.193992205066178 
993	 0.193979183190998 
994	 0.19457502310721 
995	 0.194409195302686 
996	 0.194812433901155 
997	 0.195451196790915 
998	 0.195856087133312 
999	 0.1959481906861 
1000	 0.197855019599724 
1001	 0.20035911206672 
1002	 0.20041660050936 
1003	 0.20079827299873 
1004	 0.201588538278535 
1005	 0.202117399637123 
1006	 0.202738282610749 
1007	 0.203144123924821 
1008	 0.203644460018502 
1009	 0.203694229642612 
1010	 0.2038556383033 
1011	 0.204372412332147 
1012	 0.204585633290358 
1013	 0.204946942171991 
1014	 0.20541115115608 
1015	 0.206181074773224 
1016	 0.20656328718698 
1017	 0.206657420502652 
1018	 0.207076569494663 
1019	 0.207395213549544 
1020	 0.207833832663176 
1021	 0.208446887173054 
1022	 0.209447301554853 
1023	 0.210032759746816 
1024	 0.210399186626013 
1025	 0.210823529163452 
1026	 0.211260754377316 
1027	 0.211606989134678 
1028	 0.211879529115283 
1029	 0.212183931154238 
1030	 0.212303559366928 
1031	 0.212709859428167 
1032	 0.213377814250633 
1033	 0.213853340847269 
1034	 0.214494633358069 
1035	 0.214911259863655 
1036	 0.214880817453608 
1037	 0.215213228695566 
1038	 0.215734966867018 
1039	 0.216143244493142 
1040	 0.216842272711474 
1041	 0.217383602677674 
1042	 0.21756967325886 
1043	 0.217318498405021 
1044	 0.217561028811345 
1045	 0.21770523852184 
1046	 0.218058212125319 
1047	 0.218975800073809 
1048	 0.219337191427946 
1049	 0.219382956363606 
1050	 0.219547689195578 
1051	 0.219474795396875 
1052	 0.219618567970196 
1053	 0.220062707660663 
1054	 0.220260670887974 
1055	 0.220177116191996 
1056	 0.220424747389829 
1057	 0.220765521462295 
1058	 0.221127610286281 
1059	 0.221429107298074 
1060	 0.222210299062409 
1061	 0.222185589516417 
1062	 0.221436398901857 
1063	 0.221279303224373 
1064	 0.220875546547716 
1065	 0.220905369625528 
1066	 0.221658439088344 
1067	 0.221880010334694 
1068	 0.221930709594474 
1069	 0.222045744217125 
1070	 0.222241393078589 
1071	 0.222063524829499 
1072	 0.221652785183728 
1073	 0.221309130479367 
1074	 0.220925918828485 
1075	 0.219971310981154 
1076	 0.219911541556069 
1077	 0.220620517455887 
1078	 0.220580672673507 
1079	 0.220642187552673 
1080	 0.220408089777745 
1081	 0.219566219244665 
1082	 0.219062868197602 
1083	 0.218618515424988 
1084	 0.218258213102057 
1085	 0.217964214442714 
1086	 0.21763841709064 
1087	 0.217368064654265 
1088	 0.217127554446034 
1089	 0.217019101748214 
1090	 0.216680906861904 
1091	 0.216298463446053 
1092	 0.215898261443323 
1093	 0.215510871299824 
1094	 0.214857119469777 
1095	 0.214553323348679 
1096	 0.214655159851739 
1097	 0.214279990809967 
1098	 0.2137288250531 
1099	 0.213284488126775 
1100	 0.212705958843609 
1101	 0.212025871958695 
1102	 0.211146813860992 
1103	 0.210648584710278 
1104	 0.21030519072368 
1105	 0.209652169438552 
1106	 0.209730054658753 
1107	 0.209981953155603 
1108	 0.208408027086859 
1109	 0.206910819053913 
1110	 0.206109993501383 
1111	 0.204680554290669 
1112	 0.204218664715517 
1113	 0.206074474580539 
1114	 0.206106446867213 
1115	 0.205403149156823 
1116	 0.204708729494586 
1117	 0.20217714969943 
1118	 0.201126228703691 
1119	 0.202118758170662 
1120	 0.201314358400081 
1121	 0.200712464133322 
1122	 0.199504378193657 
1123	 0.195648975351045 
1124	 0.19064682370022 
1125	 0.190389856343727 
1126	 0.192902567351709 
1127	 0.193792121775718 
1128	 0.191288151348101 
1129	 0.188518120464354 
1130	 0.181875299281827 
1131	 0.181118347392642 
1132	 0.183595267982501 
1133	 0.182837203793284 
1134	 0.183120932314227 
1135	 0.181866705347124 
1136	 0.177324457586454 
1137	 0.175998748711561 
1138	 0.177180467292651 
1139	 0.176021135643968 
1140	 0.17265858878312 
1141	 0.171291069493303 
1142	 0.169309654004745 
1143	 0.166881021686018 
1144	 0.167894932557159 
1145	 0.168066452109274 
