Wavelength	rt0711c00000.asd
350	 0.374362673831204 
351	 0.376208838665582 
352	 0.377641076665044 
353	 0.378982879697787 
354	 0.380583129789173 
355	 0.38226594496866 
356	 0.383862123032587 
357	 0.385293458916925 
358	 0.386556834956745 
359	 0.387704371192993 
360	 0.389024305897069 
361	 0.390224784207277 
362	 0.390753746944061 
363	 0.39158854646742 
364	 0.392457252128666 
365	 0.393290412622026 
366	 0.394572870440109 
367	 0.39565953143061 
368	 0.396809420284739 
369	 0.398354302432561 
370	 0.400049748489959 
371	 0.40161218912371 
372	 0.402958994881876 
373	 0.40412963594501 
374	 0.404967155175053 
375	 0.405511165908279 
376	 0.406077238704867 
377	 0.407290047318378 
378	 0.408378369246587 
379	 0.409651189898958 
380	 0.411385945935485 
381	 0.412966966319387 
382	 0.414686603436637 
383	 0.416246914429638 
384	 0.41715522068458 
385	 0.417535225400981 
386	 0.4181210826359 
387	 0.418785159941903 
388	 0.418514046654608 
389	 0.420223497144652 
390	 0.422186206454869 
391	 0.423126585460233 
392	 0.425167315985699 
393	 0.426948278982287 
394	 0.4282442028682 
395	 0.42919978261622 
396	 0.429346604240304 
397	 0.429190765271227 
398	 0.429126756791441 
399	 0.429375221832767 
400	 0.430003223390863 
401	 0.43091232179351 
402	 0.431999377560034 
403	 0.433258627557697 
404	 0.434212066011807 
405	 0.435072478544151 
406	 0.436155766186739 
407	 0.436730956417957 
408	 0.437235132559002 
409	 0.437877385112985 
410	 0.438562775826388 
411	 0.439139893992528 
412	 0.439842282404881 
413	 0.44077044534116 
414	 0.441698499205698 
415	 0.441401071026192 
416	 0.440206658369441 
417	 0.439069749844166 
418	 0.438139241610107 
419	 0.437328103053306 
420	 0.436598824622333 
421	 0.435996795795656 
422	 0.4355156599978 
423	 0.435261795256865 
424	 0.435263663481106 
425	 0.435235123580966 
426	 0.435794839138177 
427	 0.436465074110073 
428	 0.436355047810398 
429	 0.435896839246793 
430	 0.434927303705203 
431	 0.433415759391768 
432	 0.431526706206972 
433	 0.429810755653071 
434	 0.428643846741556 
435	 0.428085282071903 
436	 0.427537961753737 
437	 0.427223589397837 
438	 0.427009506000431 
439	 0.426609572448088 
440	 0.426154466657732 
441	 0.425699022647048 
442	 0.425375514491423 
443	 0.425444217774506 
444	 0.425477561051534 
445	 0.425446197737615 
446	 0.425408175302547 
447	 0.425262943576534 
448	 0.425204838644475 
449	 0.425395007610712 
450	 0.425936727910687 
451	 0.426672605886569 
452	 0.427401282389088 
453	 0.428019498544475 
454	 0.428622441821638 
455	 0.42908883822373 
456	 0.429539475424146 
457	 0.430131974215813 
458	 0.430736634078917 
459	 0.431210689144258 
460	 0.431659443679798 
461	 0.432414045056571 
462	 0.433211882243156 
463	 0.434067872702784 
464	 0.435023522333686 
465	 0.436072225366353 
466	 0.436921472753788 
467	 0.437618266566655 
468	 0.438353147172405 
469	 0.438940462513133 
470	 0.439314034137055 
471	 0.439607767327406 
472	 0.440194092168025 
473	 0.440699870088938 
474	 0.441162858531455 
475	 0.441647879561708 
476	 0.44191916846027 
477	 0.442120854187614 
478	 0.44232186162749 
479	 0.442553918440907 
480	 0.443019130554739 
481	 0.443767767453021 
482	 0.444849290204213 
483	 0.446390535830924 
484	 0.447969338858076 
485	 0.44919829827613 
486	 0.449752644346776 
487	 0.449446390483679 
488	 0.448907147776916 
489	 0.448564036619591 
490	 0.448570721378426 
491	 0.44885403560963 
492	 0.449109576524504 
493	 0.449160580526885 
494	 0.449249314043118 
495	 0.449609911448728 
496	 0.450227844670648 
497	 0.45095181064116 
498	 0.451773273987516 
499	 0.45268260699835 
500	 0.45357951514137 
501	 0.454238509246509 
502	 0.454450125315876 
503	 0.454438224262676 
504	 0.454497689170076 
505	 0.454589445860034 
506	 0.454803265591401 
507	 0.45496942925691 
508	 0.454754824207998 
509	 0.454570327232578 
510	 0.454574658228378 
511	 0.454868495689633 
512	 0.455520934263916 
513	 0.456727896598367 
514	 0.458294175344197 
515	 0.459749236582828 
516	 0.460497271329826 
517	 0.46038011592172 
518	 0.459390580379196 
519	 0.457626434739253 
520	 0.456142798558294 
521	 0.455148479414206 
522	 0.454633194031025 
523	 0.454787994416394 
524	 0.455271578519633 
525	 0.455709514475131 
526	 0.455739146040241 
527	 0.455398728204314 
528	 0.45459325885362 
529	 0.453533924710044 
530	 0.453003115018982 
531	 0.452921849354547 
532	 0.452987010244281 
533	 0.452813741272077 
534	 0.452323030030861 
535	 0.451929011490305 
536	 0.451961441631258 
537	 0.452612157860704 
538	 0.453302434602787 
539	 0.453775425373859 
540	 0.453863294479327 
541	 0.453359970223111 
542	 0.452557194905606 
543	 0.451829249812228 
544	 0.451533789593856 
545	 0.451435525750763 
546	 0.451490213751518 
547	 0.451637168570215 
548	 0.451717046305232 
549	 0.452060581093755 
550	 0.45263085208151 
551	 0.45327790473018 
552	 0.454021778643199 
553	 0.455029717329126 
554	 0.456406125303709 
555	 0.458165327706536 
556	 0.460125465833669 
557	 0.46183046557082 
558	 0.462929949792027 
559	 0.463633331940378 
560	 0.464152690267394 
561	 0.464752752349845 
562	 0.465702648276299 
563	 0.467032171780974 
564	 0.468507497882315 
565	 0.469983942905492 
566	 0.471565286243614 
567	 0.473309555624488 
568	 0.475095216571108 
569	 0.476674278808664 
570	 0.477632855532929 
571	 0.478183157129597 
572	 0.478733472503386 
573	 0.479826788453281 
574	 0.48131030729923 
575	 0.482867207880266 
576	 0.484173274439835 
577	 0.485113356875631 
578	 0.485714935101918 
579	 0.485935319710801 
580	 0.485740065897379 
581	 0.485439791608583 
582	 0.485323164332567 
583	 0.485613242768285 
584	 0.486426763037035 
585	 0.48800321832056 
586	 0.49074221503796 
587	 0.494676842163465 
588	 0.497835143665929 
589	 0.498158570901446 
590	 0.495877126224332 
591	 0.493554411358865 
592	 0.492600270251214 
593	 0.49239090696936 
594	 0.491939163431716 
595	 0.490718233430744 
596	 0.489603394143546 
597	 0.488741448841747 
598	 0.487864319100448 
599	 0.487097737418953 
600	 0.486309188541839 
601	 0.485358275785203 
602	 0.484094568026127 
603	 0.483236285007467 
604	 0.48308558379607 
605	 0.483687596117373 
606	 0.484670286696159 
607	 0.485779715268632 
608	 0.486885478269719 
609	 0.487975303450052 
610	 0.488919204359882 
611	 0.489872183710042 
612	 0.490965479696524 
613	 0.492058426791415 
614	 0.493337229201187 
615	 0.494337711584911 
616	 0.494328926186488 
617	 0.493795815758381 
618	 0.493256248296222 
619	 0.493200546009411 
620	 0.494125145845727 
621	 0.495416553042689 
622	 0.49695806994163 
623	 0.498658111246669 
624	 0.49981800136754 
625	 0.500997320410268 
626	 0.502460597193906 
627	 0.504072006634744 
628	 0.504579672838127 
629	 0.504465233588368 
630	 0.504296386930279 
631	 0.503819985826522 
632	 0.503212056013104 
633	 0.502661311672516 
634	 0.502296494955599 
635	 0.501788481632827 
636	 0.501123829469836 
637	 0.500708155058146 
638	 0.501499411175343 
639	 0.50252933020698 
640	 0.503046176210702 
641	 0.502753052472544 
642	 0.502698247806815 
643	 0.503468499206294 
644	 0.505351207410763 
645	 0.508260750083605 
646	 0.510593402883912 
647	 0.51164750875814 
648	 0.511262892790566 
649	 0.509840465680488 
650	 0.508776961140099 
651	 0.50794666772153 
652	 0.507021352860313 
653	 0.508514720777311 
654	 0.512455505294865 
655	 0.515962516065135 
656	 0.512336954475147 
657	 0.506924143461642 
658	 0.502662581512227 
659	 0.500498061103086 
660	 0.498453889394916 
661	 0.497451574737713 
662	 0.497137200680068 
663	 0.496450289289342 
664	 0.495741282051459 
665	 0.495215126053047 
666	 0.49485289404328 
667	 0.494242389566645 
668	 0.494007186432824 
669	 0.494272826970242 
670	 0.494827345840986 
671	 0.49480988310435 
672	 0.49449099497069 
673	 0.494166454175133 
674	 0.494073239734026 
675	 0.493952846138981 
676	 0.493820138066839 
677	 0.493729720833224 
678	 0.493711700099698 
679	 0.493685480141585 
680	 0.493630888891914 
681	 0.493656197162867 
682	 0.494409613328986 
683	 0.495401323124441 
684	 0.498169058529831 
685	 0.507760962039361 
686	 0.516889630560224 
687	 0.519763833633687 
688	 0.515252458229355 
689	 0.511546389288664 
690	 0.50911762347246 
691	 0.508772256259756 
692	 0.510974808835006 
693	 0.511471986479356 
694	 0.508587716213846 
695	 0.503492543965637 
696	 0.500093333636776 
697	 0.500317098968336 
698	 0.50236454640225 
699	 0.503345815444003 
700	 0.503019860598069 
701	 0.50084147323917 
702	 0.497471214392115 
703	 0.494401438439046 
704	 0.492469767245954 
705	 0.490661266176247 
706	 0.488370649493318 
707	 0.486441763784709 
708	 0.484499412387694 
709	 0.482528723852126 
710	 0.480644513691602 
711	 0.478936456427758 
712	 0.477685649680635 
713	 0.477662700826183 
714	 0.480278919828535 
715	 0.490267838871377 
716	 0.502508871605249 
717	 0.509115769049094 
718	 0.510597319794359 
719	 0.503237710341341 
720	 0.492245651174028 
721	 0.483807517314132 
722	 0.486666499773042 
723	 0.491173875903396 
724	 0.491233220086191 
725	 0.488954485011458 
726	 0.486208524071158 
727	 0.483625349553342 
728	 0.481169898133618 
729	 0.478537449183599 
730	 0.471823736386167 
731	 0.461998808182302 
732	 0.452519269224384 
733	 0.447459524889214 
734	 0.445567413695644 
735	 0.444845850373473 
736	 0.442591716752851 
737	 0.440604279995567 
738	 0.438861014493564 
739	 0.437092116964941 
740	 0.4354640272705 
741	 0.433813623780957 
742	 0.4322816527238 
743	 0.431150528267341 
744	 0.430660287032512 
745	 0.430380089292034 
746	 0.430165908069821 
747	 0.430348718685271 
748	 0.430764448533329 
749	 0.431166093926776 
750	 0.431361966523683 
751	 0.431426647134093 
752	 0.431365784130039 
753	 0.431387468340993 
754	 0.431786846883891 
755	 0.432164900598438 
756	 0.434895270029343 
757	 0.443605543136091 
758	 0.46936743563207 
759	 0.489609379085205 
760	 0.495679803947438 
761	 0.495062184190722 
762	 0.495408067608495 
763	 0.493907815055177 
764	 0.485714952039819 
765	 0.469729400503765 
766	 0.456912739466623 
767	 0.44812023386206 
768	 0.442909376130833 
769	 0.440593780921657 
770	 0.439606091653209 
771	 0.439244336859332 
772	 0.439184072704141 
773	 0.439537415503757 
774	 0.43987500945588 
775	 0.440133001869077 
776	 0.440489246114425 
777	 0.441386051114339 
778	 0.442233032785282 
779	 0.442848770018163 
780	 0.443551917189885 
781	 0.444359818998002 
782	 0.445562847771535 
783	 0.447185800123045 
784	 0.448531063563196 
785	 0.450666778373287 
786	 0.453548376424362 
787	 0.456665370556365 
788	 0.459685221117738 
789	 0.461845597772579 
790	 0.46303803413168 
791	 0.463762801173949 
792	 0.464107536517842 
793	 0.464675931903919 
794	 0.465819251788325 
795	 0.467417419325953 
796	 0.468146393500806 
797	 0.468523235358796 
798	 0.469444016477279 
799	 0.471047972082422 
800	 0.472693575745504 
801	 0.47389129153 
802	 0.4743609453686 
803	 0.47425395265258 
804	 0.473671592788737 
805	 0.473209771300504 
806	 0.473929559939467 
807	 0.475597568402749 
808	 0.478091857854275 
809	 0.481266841372789 
810	 0.484934467431151 
811	 0.490255963267895 
812	 0.494940560678074 
813	 0.495964266482562 
814	 0.496795963478227 
815	 0.497068342144803 
816	 0.496707080522891 
817	 0.495917328087634 
818	 0.494108923007982 
819	 0.491908074783367 
820	 0.490469811683253 
821	 0.491716510090176 
822	 0.491673162823627 
823	 0.489555427665882 
824	 0.486614923390932 
825	 0.485657694647053 
826	 0.485338536957922 
827	 0.484778484680553 
828	 0.483449308775097 
829	 0.482160440481862 
830	 0.48094756960825 
831	 0.479842765835112 
832	 0.478880132916538 
833	 0.477692686941221 
834	 0.476643411575279 
835	 0.47595367941041 
836	 0.47554832272828 
837	 0.475036639743031 
838	 0.474382521117094 
839	 0.473667520764628 
840	 0.473001427140919 
841	 0.472509444342292 
842	 0.472189980829193 
843	 0.471929103631968 
844	 0.471395337452278 
845	 0.470987069046249 
846	 0.470792535881279 
847	 0.470669421152574 
848	 0.470699315323891 
849	 0.470639534713268 
850	 0.470365367477038 
851	 0.469982381446114 
852	 0.470497855707545 
853	 0.471056981341583 
854	 0.470799383859364 
855	 0.46975891980499 
856	 0.469444452871721 
857	 0.469442828938879 
858	 0.469116113882103 
859	 0.469210682981059 
860	 0.469186820796977 
861	 0.469038342447375 
862	 0.468965093900265 
863	 0.468512293550489 
864	 0.46862762086567 
865	 0.469159081062519 
866	 0.46895983692323 
867	 0.46845436389031 
868	 0.468247968014664 
869	 0.468354518526195 
870	 0.468033876232688 
871	 0.467982444011628 
872	 0.468107150909725 
873	 0.468195711211806 
874	 0.468169074118567 
875	 0.468054631363738 
876	 0.467993006785124 
877	 0.468054820106269 
878	 0.467890786770678 
879	 0.468251914259048 
880	 0.468553167824821 
881	 0.46796252633996 
882	 0.468047276384843 
883	 0.468225927385879 
884	 0.468281327561547 
885	 0.468337445429028 
886	 0.46818910219309 
887	 0.468240813560993 
888	 0.468462102181785 
889	 0.468349146044033 
890	 0.469085355328437 
891	 0.470080204439235 
892	 0.470964525721611 
893	 0.472368348822597 
894	 0.473780131665825 
895	 0.475494545118808 
896	 0.477507654994026 
897	 0.478312976502757 
898	 0.478940071626039 
899	 0.479310830541919 
900	 0.47899804138005 
901	 0.477805107640254 
902	 0.475872894872962 
903	 0.474415085655462 
904	 0.474647353279725 
905	 0.475975851455502 
906	 0.477554854925408 
907	 0.478980187466725 
908	 0.48007113709354 
909	 0.479855071204872 
910	 0.479275589917583 
911	 0.479330629054159 
912	 0.480535181456134 
913	 0.481118462498706 
914	 0.481306508290427 
915	 0.481179831214312 
916	 0.480400848307313 
917	 0.478916296393333 
918	 0.477413014875445 
919	 0.476289262744552 
920	 0.475446429977742 
921	 0.475685203554447 
922	 0.476550669556757 
923	 0.477303597505491 
924	 0.477156532601776 
925	 0.477750333635382 
926	 0.478570065028537 
927	 0.47929534249292 
928	 0.482893605526486 
929	 0.485797150430283 
930	 0.488218248572248 
931	 0.492265237307795 
932	 0.497650092947089 
933	 0.499292695968529 
934	 0.496212526214268 
935	 0.492177923871114 
936	 0.492114051470084 
937	 0.491101205490068 
938	 0.489030158485309 
939	 0.487452204285259 
940	 0.48702123159766 
941	 0.489428494275208 
942	 0.493528313090561 
943	 0.496360591889706 
944	 0.494670742232765 
945	 0.491998625993473 
946	 0.490691973121373 
947	 0.490732406064751 
948	 0.487015548057557 
949	 0.487729004461654 
950	 0.491198660748355 
951	 0.490584344483855 
952	 0.491678066847331 
953	 0.491514930130592 
954	 0.489325002225296 
955	 0.486767109607323 
956	 0.486910015569842 
957	 0.486289044438889 
958	 0.485911060658612 
959	 0.488674604892922 
960	 0.485075721287705 
961	 0.483520284643095 
962	 0.485097912907926 
963	 0.484838537711196 
964	 0.483961195754183 
965	 0.483489620481681 
966	 0.48197446455236 
967	 0.477255895448572 
968	 0.475476427076241 
969	 0.476250565712092 
970	 0.47724189107481 
971	 0.476011488209787 
972	 0.478521092913794 
973	 0.480248367458226 
974	 0.479845517152468 
975	 0.479911516986559 
976	 0.478490712336251 
977	 0.476915435009739 
978	 0.475957952556042 
979	 0.475383811013106 
980	 0.474574382940299 
981	 0.473228180211787 
982	 0.471771774864381 
983	 0.471068976154716 
984	 0.470871467209959 
985	 0.471031778704752 
986	 0.470928316797888 
987	 0.469950124169564 
988	 0.470291067019167 
989	 0.468157970075846 
990	 0.465985986817039 
991	 0.469266690569208 
992	 0.468716047336069 
993	 0.467445750061406 
994	 0.467184606405262 
995	 0.467554460152009 
996	 0.46666510719353 
997	 0.46525371173785 
998	 0.465001338311534 
999	 0.466850092923032 
1000	 0.465764279157323 
1001	 0.613765468134891 
1002	 0.610625462684041 
1003	 0.607434668669421 
1004	 0.604922470891366 
1005	 0.602608918188336 
1006	 0.600504176432455 
1007	 0.59910886690136 
1008	 0.59805027644818 
1009	 0.59745316193157 
1010	 0.596704431831882 
1011	 0.595856584745035 
1012	 0.595093509214157 
1013	 0.59442835907823 
1014	 0.594000638952049 
1015	 0.594132214154402 
1016	 0.59397166616486 
1017	 0.593542848347014 
1018	 0.593552393126802 
1019	 0.593751813078367 
1020	 0.593964465316364 
1021	 0.594683089170801 
1022	 0.594904623889664 
1023	 0.594984068892111 
1024	 0.595201140511513 
1025	 0.594951840758985 
1026	 0.594712527939021 
1027	 0.59443176144415 
1028	 0.593921118080638 
1029	 0.593539850933368 
1030	 0.593277972120561 
1031	 0.592940123469112 
1032	 0.592334661118487 
1033	 0.592157358175231 
1034	 0.592158938548856 
1035	 0.592174667046636 
1036	 0.592181933117977 
1037	 0.592688022973425 
1038	 0.593140158303209 
1039	 0.594241740952564 
1040	 0.595813589015073 
1041	 0.597572999464378 
1042	 0.599491401261777 
1043	 0.601458243107462 
1044	 0.603979251574354 
1045	 0.606721099825838 
1046	 0.61001875752052 
1047	 0.614029925224253 
1048	 0.617911453589254 
1049	 0.621609414689015 
1050	 0.626360988143318 
1051	 0.631735703687771 
1052	 0.637167963455396 
1053	 0.643896868804777 
1054	 0.649879279993717 
1055	 0.655054897719116 
1056	 0.660902812943908 
1057	 0.666967850553103 
1058	 0.673253847695929 
1059	 0.679300416418866 
1060	 0.685997158481307 
1061	 0.691668201911201 
1062	 0.696592358013266 
1063	 0.701710484198045 
1064	 0.706388667929699 
1065	 0.711371666788826 
1066	 0.717253705341212 
1067	 0.72156849202383 
1068	 0.725642992997233 
1069	 0.72874255655231 
1070	 0.730276612800013 
1071	 0.731758270324776 
1072	 0.732825519893021 
1073	 0.733305830721996 
1074	 0.734025611759497 
1075	 0.734077430140995 
1076	 0.73528697349226 
1077	 0.736984066821874 
1078	 0.738646195172241 
1079	 0.741009858602729 
1080	 0.742944149802949 
1081	 0.744438115474019 
1082	 0.746535763241675 
1083	 0.748943905107021 
1084	 0.751360451250693 
1085	 0.754080758358019 
1086	 0.756908972603588 
1087	 0.759501518442074 
1088	 0.762662402157102 
1089	 0.766190550195103 
1090	 0.770087651674963 
1091	 0.774524186118414 
1092	 0.779485039733335 
1093	 0.784979939579279 
1094	 0.790992552752709 
1095	 0.797817317826018 
1096	 0.805530034600772 
1097	 0.814024341216927 
1098	 0.823970854250256 
1099	 0.833628777945162 
1100	 0.843762514301204 
1101	 0.854585326143966 
1102	 0.864673216901709 
1103	 0.87768509102004 
1104	 0.892584999045472 
1105	 0.90924451111411 
1106	 0.929376399634326 
1107	 0.952518977617138 
1108	 0.979742489363822 
1109	 1.01855998266329 
1110	 1.05029793405932 
1111	 1.0854766068149 
1112	 1.12306566643321 
1113	 1.17016973997536 
1114	 1.20134467330712 
1115	 1.2305783504801 
1116	 1.2496716228677 
1117	 1.21990658558218 
1118	 1.20753456208026 
1119	 1.193866544331 
1120	 1.17807712253153 
1121	 1.16548947453426 
1122	 1.15378944305812 
1123	 1.13403215893175 
1124	 1.13544701475735 
1125	 1.13457876625011 
1126	 1.14465087059794 
1127	 1.13807294560575 
1128	 1.12157005886162 
1129	 1.11297527869307 
1130	 1.10048013848951 
1131	 1.09735232703638 
1132	 1.10904085080374 
1133	 1.10557178238548 
1134	 1.09444248731714 
1135	 1.0889592836902 
1136	 1.08087015443044 
1137	 1.07706716459394 
1138	 1.07548163071495 
1139	 1.07590570786514 
1140	 1.07644848989313 
1141	 1.0739735437941 
1142	 1.07592390342669 
1143	 1.07581297267971 
1144	 1.08314309726429 
1145	 1.07962973671149 
1146	 1.08749221080083 
1147	 1.08492341065147 
1148	 1.08587354428397 
1149	 1.08848642004832 
1150	 1.09255403562177 
1151	 1.10136982584327 
1152	 1.10158075564798 
1153	 1.11228063210433 
1154	 1.10146813648128 
1155	 1.07916229077093 
1156	 1.06848836135933 
1157	 1.02694996876711 
1158	 0.976629353739915 
1159	 0.927806728644656 
1160	 0.865907007877115 
1161	 0.819781674156392 
1162	 0.78039942645478 
1163	 0.746517084728361 
1164	 0.716564564508017 
1165	 0.692724668428952 
1166	 0.671672988464175 
1167	 0.652338942990374 
1168	 0.63649101312298 
1169	 0.621802044238049 
1170	 0.608777617833382 
1171	 0.598500797987949 
1172	 0.590507579688782 
1173	 0.583102732918286 
1174	 0.577136271163959 
1175	 0.572674999443366 
1176	 0.56760824683567 
1177	 0.564078794338924 
1178	 0.562206444872589 
1179	 0.559703955772169 
1180	 0.558311410276937 
1181	 0.557423800688416 
1182	 0.55549160737135 
1183	 0.553539312472576 
1184	 0.550906266589558 
1185	 0.547315554814198 
1186	 0.543064918568958 
1187	 0.538862167352849 
1188	 0.534986952507549 
1189	 0.530730349339117 
1190	 0.526016820221216 
1191	 0.521607340883075 
1192	 0.51787917498768 
1193	 0.51400500362906 
1194	 0.511197891689817 
1195	 0.510168816596895 
1196	 0.509086244080867 
1197	 0.508090287765059 
1198	 0.507632751246985 
1199	 0.507012634699897 
1200	 0.506738218685565 
1201	 0.506654631274056 
1202	 0.506231187842985 
1203	 0.505316956120634 
1204	 0.503967207044833 
1205	 0.502097607700701 
1206	 0.50022549005667 
1207	 0.49832688377645 
1208	 0.49596614983931 
1209	 0.493656076703455 
1210	 0.491263688058446 
1211	 0.488380796060848 
1212	 0.485663549131498 
1213	 0.483334372709402 
1214	 0.480804003770905 
1215	 0.478216103058798 
1216	 0.475545301620656 
1217	 0.473104499801158 
1218	 0.470783263277778 
1219	 0.468684390298018 
1220	 0.466967189719748 
1221	 0.465002764774489 
1222	 0.462914119399429 
1223	 0.461172272618981 
1224	 0.459777639697841 
1225	 0.458625564075472 
1226	 0.457422307496946 
1227	 0.456090331065062 
1228	 0.454659524048074 
1229	 0.453179313413848 
1230	 0.451868917942439 
1231	 0.450619490184556 
1232	 0.449357597240129 
1233	 0.448386476522935 
1234	 0.447753084202072 
1235	 0.447324954580647 
1236	 0.447219274832506 
1237	 0.447196758083565 
1238	 0.447297230200108 
1239	 0.447720932317445 
1240	 0.448310566101351 
1241	 0.448931650127601 
1242	 0.449762369670943 
1243	 0.450654408863329 
1244	 0.451836509872845 
1245	 0.453394901676524 
1246	 0.454635236569216 
1247	 0.455776887099395 
1248	 0.457379487873906 
1249	 0.458968968748252 
1250	 0.460624054249151 
1251	 0.462928505053687 
1252	 0.465376709401705 
1253	 0.467672696002272 
1254	 0.470321613398428 
1255	 0.47372353853875 
1256	 0.477482688588777 
1257	 0.48147635805735 
1258	 0.485757747036818 
1259	 0.490904067815056 
1260	 0.496093235247853 
1261	 0.501775228709746 
1262	 0.506968887306088 
1263	 0.512561615483506 
1264	 0.517329312650849 
1265	 0.521445065040005 
1266	 0.524362889961191 
1267	 0.526816067746296 
1268	 0.528513155443292 
1269	 0.528357103958072 
1270	 0.5270128860853 
1271	 0.524975031926254 
1272	 0.522044077078469 
1273	 0.518851166634025 
1274	 0.516589682698099 
1275	 0.513893989088464 
1276	 0.510814112572696 
1277	 0.508563089566981 
1278	 0.506859494445406 
1279	 0.505316737450431 
1280	 0.504722202246213 
1281	 0.50444521488187 
1282	 0.504957863461961 
1283	 0.503824173797861 
1284	 0.504042809762847 
1285	 0.499613578262197 
1286	 0.491718178663674 
1287	 0.485004939616368 
1288	 0.47545831678153 
1289	 0.468419492658944 
1290	 0.462228851211317 
1291	 0.456427705606526 
1292	 0.451723122692269 
1293	 0.447328462799155 
1294	 0.443581741191461 
1295	 0.44037836190537 
1296	 0.437277944611585 
1297	 0.435004899772505 
1298	 0.433455688156003 
1299	 0.432412433590497 
1300	 0.431907843253089 
1301	 0.43180747619685 
1302	 0.432719681080731 
1303	 0.434194195475852 
1304	 0.436030031333015 
1305	 0.438390335806235 
1306	 0.441244911426122 
1307	 0.44460442310885 
1308	 0.448324731700184 
1309	 0.452994916903294 
1310	 0.457430330640626 
1311	 0.461937376609501 
1312	 0.466720048905135 
1313	 0.472014513014028 
1314	 0.477034243818554 
1315	 0.481966407767504 
1316	 0.486891941552119 
1317	 0.491390172191509 
1318	 0.496402659518566 
1319	 0.501093992608224 
1320	 0.507017556885241 
1321	 0.51384725286228 
1322	 0.521156251148655 
1323	 0.530192293710988 
1324	 0.54128336226001 
1325	 0.559172751426122 
1326	 0.569265934093813 
1327	 0.576819365588073 
1328	 0.580707422467628 
1329	 0.571243197795697 
1330	 0.566149213224758 
1331	 0.557992751315206 
1332	 0.550247721472397 
1333	 0.541236111911789 
1334	 0.530287153561917 
1335	 0.52063879907073 
1336	 0.51008299946829 
1337	 0.499886424621308 
1338	 0.490173421900161 
1339	 0.48147183505834 
1340	 0.47181214982915 
1341	 0.463554479892346 
1342	 0.45801443045625 
1343	 0.450879048574751 
1344	 0.442501980582778 
1345	 0.434387445140353 
1346	 0.424590843891062 
1347	 0.415557699766891 
1348	 0.404934556336847 
1349	 0.396260185373411 
1350	 0.40088639968424 
1351	 0.395834453613112 
1352	 0.384562799674814 
1353	 0.380488403308419 
1354	 0.396423966116981 
1355	 0.370216350068312 
1356	 0.344987442401541 
1357	 0.361694747585781 
1358	 0.448075835220508 
1359	 0.378893644790366 
1360	 0.310035822828779 
1361	 0.382122944833805 
1362	 0.287613161385674 
1363	 0.106209405602743 
1364	 0.190119344444483 
1365	 0.269521091955401 
1366	 0.275389418293704 
1367	 0.291810584223888 
1368	 0.318741829410929 
1369	 0.387409512046307 
1370	 0.428535286533082 
1371	 0.421071085643274 
1372	 0.461461221545377 
1373	 0.511642707382718 
1374	 0.595343695591064 
1375	 0.845770156706867 
1376	 0.815858864920458 
1377	 0.534338881834165 
1378	 0.465710243735066 
1379	 0.105506658478475 
1380	 0.19872842702287 
1381	 1.53745991721482 
1382	 1.66919843563478 
1383	 0.701472087949288 
1384	 0.630537142143924 
1385	 0.433258241459757 
1386	 0.427225959303676 
1387	 2.06717912088915 
1388	 3.0398775941666 
1389	 0.834416227393342 
1390	 0.597302954959726 
1391	 0.158612409078355 
1392	 0.277972990762641 
1393	 0.165109032856403 
1394	 4.10613637771328E-02 
1395	 0.218542225862398 
1396	 0.280182076098395 
1397	 0.353146546671359 
1398	 0.38585727976202 
1399	 0.111243032097156 
1400	-8.06927325220069E-02 
1401	 0.266844164834763 
1402	 0.493779247235422 
1403	 0.490137049302568 
1404	 0.343473725186628 
1405	 0.280156115139953 
1406	 6.74462686241344E-03 
1407	 1.24372166785889E-02 
1408	 0.149807433655003 
1409	 0.235305563047009 
1410	 0.373705271120899 
1411	 0.360258529168914 
1412	 0.331086999198384 
1413	 0.303681258159645 
1414	 0.202185453521441 
1415	 0.200552813428252 
1416	 0.25329115929939 
1417	 0.257333778541932 
1418	 0.267951548389275 
1419	 0.256946749038301 
1420	 0.227600593670616 
1421	 0.215379251699327 
1422	 0.205993399081294 
1423	 0.199613311784662 
1424	 0.197376720169401 
1425	 0.193443789721811 
1426	 0.187952029339341 
1427	 0.186830917826524 
1428	 0.185581915035758 
1429	 0.185341056285004 
1430	 0.190773036635909 
1431	 0.191385119820594 
1432	 0.18412739849463 
1433	 0.18591596943697 
1434	 0.199151173546083 
1435	 0.198470191042425 
1436	 0.189799322154474 
1437	 0.189851206296067 
1438	 0.192780484290214 
1439	 0.188299941574002 
1440	 0.18536998296216 
1441	 0.183562699776075 
1442	 0.181531163920756 
1443	 0.181277423430244 
1444	 0.182187405114463 
1445	 0.18454982826113 
1446	 0.186876875541429 
1447	 0.184930401441106 
1448	 0.182279292430667 
1449	 0.182965610386193 
1450	 0.18223555341175 
1451	 0.177994831796808 
1452	 0.175575470302568 
1453	 0.17515571459532 
1454	 0.17468264251391 
1455	 0.173041311453612 
1456	 0.173059414087628 
1457	 0.174553265955811 
1458	 0.175026732480753 
1459	 0.175357235546486 
1460	 0.175431955308123 
1461	 0.175425702476286 
1462	 0.175892836549565 
1463	 0.176252628770269 
1464	 0.176307509386706 
1465	 0.176580930509873 
1466	 0.177699435826553 
1467	 0.179772815800295 
1468	 0.179244296290283 
1469	 0.177123361669162 
1470	 0.177717692774736 
1471	 0.178177137115081 
1472	 0.177386554434104 
1473	 0.1782483408836 
1474	 0.178726816894483 
1475	 0.17686950675992 
1476	 0.176082280921572 
1477	 0.176903680557686 
1478	 0.177497102356901 
1479	 0.177679418369646 
1480	 0.177403815088512 
1481	 0.177120056454234 
1482	 0.177604261724704 
1483	 0.178126037448906 
1484	 0.17785378046889 
1485	 0.177623052386476 
1486	 0.178225558574762 
1487	 0.178923311712683 
1488	 0.1784696111914 
1489	 0.178158881951535 
1490	 0.17828046578191 
1491	 0.177224688647076 
1492	 0.17707550308473 
1493	 0.178544543607479 
1494	 0.178692201894269 
1495	 0.177976384546296 
1496	 0.177913386006169 
1497	 0.177834944779734 
1498	 0.177708129929153 
1499	 0.1774473048827 
1500	 0.177655319889914 
1501	 0.178547441612271 
1502	 0.178678405137265 
1503	 0.178404285188753 
1504	 0.178711728007 
1505	 0.179159940246546 
1506	 0.178873467583047 
1507	 0.178963831849028 
1508	 0.179662746226196 
1509	 0.179758112491893 
1510	 0.179789477704092 
1511	 0.180304360239914 
1512	 0.18066256645205 
1513	 0.180902140375725 
1514	 0.181142892307596 
1515	 0.180976309308656 
1516	 0.180934139782625 
1517	 0.181595730561636 
1518	 0.181898305723597 
1519	 0.181954253561464 
1520	 0.182487441879436 
1521	 0.182798555010248 
1522	 0.183002633233993 
1523	 0.183364526581467 
1524	 0.183911326738677 
1525	 0.184358677372558 
1526	 0.184474784346235 
1527	 0.184642741775415 
1528	 0.184945228705983 
1529	 0.185197232158144 
1530	 0.185571672269271 
1531	 0.186102329189716 
1532	 0.186454063395885 
1533	 0.187013720525142 
1534	 0.187572968740281 
1535	 0.187603058056651 
1536	 0.187859861016287 
1537	 0.188369165705756 
1538	 0.188470727788161 
1539	 0.188695905674704 
1540	 0.189396098583813 
1541	 0.189839714655839 
1542	 0.189714472181073 
1543	 0.189748605518992 
1544	 0.190253737412582 
1545	 0.190488590012552 
1546	 0.190639937044213 
1547	 0.191063643611485 
1548	 0.191151615662188 
1549	 0.191065814668201 
1550	 0.19138747148347 
1551	 0.191750678324614 
1552	 0.191885875937437 
1553	 0.192141737768098 
1554	 0.192214116766616 
1555	 0.192268002656618 
1556	 0.192610771720164 
1557	 0.192846613610577 
1558	 0.19312557563094 
1559	 0.193221444621575 
1560	 0.19322105858727 
1561	 0.193494654131263 
1562	 0.193523274137098 
1563	 0.193429702043422 
1564	 0.193684376201674 
1565	 0.193917486232453 
1566	 0.19385163881835 
1567	 0.193871740700497 
1568	 0.194013960457383 
1569	 0.193935641425094 
1570	 0.193903468236946 
1571	 0.193974048711702 
1572	 0.193628367252017 
1573	 0.193599596670922 
1574	 0.193849715559241 
1575	 0.193698731128938 
1576	 0.193595806762953 
1577	 0.193425010196408 
1578	 0.193073452144188 
1579	 0.193008619936393 
1580	 0.192923034234727 
1581	 0.192622011593459 
1582	 0.19243314387607 
1583	 0.192285765463295 
1584	 0.192141328526802 
1585	 0.191834553058174 
1586	 0.191585013262744 
1587	 0.191388518620074 
1588	 0.191138886937579 
1589	 0.190976565061626 
1590	 0.190742601779882 
1591	 0.190666023179792 
1592	 0.190591713845123 
1593	 0.190351619568952 
1594	 0.190231759462729 
1595	 0.189750613975147 
1596	 0.189149854178343 
1597	 0.188996756864759 
1598	 0.188864742547356 
1599	 0.188897440008533 
1600	 0.188882363999653 
1601	 0.188442832004147 
1602	 0.188196972179791 
1603	 0.18798507902261 
1604	 0.187560914766757 
1605	 0.187567628020291 
1606	 0.187729975778111 
1607	 0.187555855518316 
1608	 0.187297017835924 
1609	 0.186847270118197 
1610	 0.186403629942068 
1611	 0.186212000834609 
1612	 0.186032210783139 
1613	 0.186029905140737 
1614	 0.186067226830201 
1615	 0.185665434714642 
1616	 0.185344087475686 
1617	 0.185221863197794 
1618	 0.184868435056131 
1619	 0.184596797641177 
1620	 0.184782207339229 
1621	 0.185248793922319 
1622	 0.185445891390642 
1623	 0.185584217675604 
1624	 0.185603495715052 
1625	 0.185267743547204 
1626	 0.185381283548893 
1627	 0.185681119978107 
1628	 0.185715919361637 
1629	 0.185811746235896 
1630	 0.185821504554354 
1631	 0.185772202359794 
1632	 0.186197860884034 
1633	 0.186840187962079 
1634	 0.187188002791682 
1635	 0.187725334663898 
1636	 0.188203053029588 
1637	 0.18809484887746 
1638	 0.188196454260384 
1639	 0.188830464182108 
1640	 0.189336990320918 
1641	 0.18972395779578 
1642	 0.190003505957972 
1643	 0.190224012823586 
1644	 0.190291073213702 
1645	 0.190482856848268 
1646	 0.191133237522017 
1647	 0.191406877211824 
1648	 0.191636542324227 
1649	 0.192166856771167 
1650	 0.192263108588701 
1651	 0.192479599416467 
1652	 0.192682327104122 
1653	 0.192973134019846 
1654	 0.193391412008993 
1655	 0.193870210551933 
1656	 0.19382628897181 
1657	 0.193456200829065 
1658	 0.19362521954306 
1659	 0.193882830715705 
1660	 0.193803666151719 
1661	 0.193883076628064 
1662	 0.193814691017522 
1663	 0.193453500676977 
1664	 0.193299824738553 
1665	 0.19306220670759 
1666	 0.193156074780741 
1667	 0.193612731059398 
1668	 0.192654541229852 
1669	 0.192108372381818 
1670	 0.191933647691129 
1671	 0.191760031991831 
1672	 0.191540996246755 
1673	 0.191625304254179 
1674	 0.191363171388992 
1675	 0.190308972618451 
1676	 0.189740539285015 
1677	 0.189559626453877 
1678	 0.188968234880696 
1679	 0.188634602886862 
1680	 0.188507517902838 
1681	 0.188062033234432 
1682	 0.18739681748243 
1683	 0.186759476393955 
1684	 0.186462361073776 
1685	 0.186865812006106 
1686	 0.186905674813665 
1687	 0.186097703682571 
1688	 0.185681928568518 
1689	 0.185745747063162 
1690	 0.185702820132435 
1691	 0.18536077184357 
1692	 0.185081894147826 
1693	 0.184791250932496 
1694	 0.184203607787757 
1695	 0.184633873535132 
1696	 0.185654053791348 
1697	 0.185408509176224 
1698	 0.185011901025753 
1699	 0.185579429530886 
1700	 0.185752231050074 
1701	 0.185686824077986 
1702	 0.186441263954163 
1703	 0.187112008521688 
1704	 0.18757742324823 
1705	 0.188073928868196 
1706	 0.188337645191192 
1707	 0.188918011184214 
1708	 0.189388310523563 
1709	 0.190391526149243 
1710	 0.192409667531456 
1711	 0.193665160999593 
1712	 0.194523649916066 
1713	 0.194786951480828 
1714	 0.195487632754812 
1715	 0.196769927281321 
1716	 0.198568121679192 
1717	 0.19960033424703 
1718	 0.199985729254929 
1719	 0.201044959910877 
1720	 0.202432353404688 
1721	 0.203914484073681 
1722	 0.206078644030979 
1723	 0.208123925156799 
1724	 0.209408327447235 
1725	 0.21019642686005 
1726	 0.211405593227105 
1727	 0.2131391762072 
1728	 0.214858145814816 
1729	 0.216904159612971 
1730	 0.218807726885 
1731	 0.220072611546882 
1732	 0.221033452934067 
1733	 0.222180685414348 
1734	 0.224285605729908 
1735	 0.226442722482383 
1736	 0.228376642700272 
1737	 0.23093794787404 
1738	 0.23282098421898 
1739	 0.234330081181053 
1740	 0.236540951223229 
1741	 0.238388739624852 
1742	 0.240127404190144 
1743	 0.242585702218294 
1744	 0.244446094184618 
1745	 0.24618853279615 
1746	 0.249051381835969 
1747	 0.251797773504343 
1748	 0.255279649537794 
1749	 0.258799179735574 
1750	 0.261975522205832 
1751	 0.264972261054893 
1752	 0.267860094449617 
1753	 0.271644230704666 
1754	 0.276155081345389 
1755	 0.280060463747903 
1756	 0.28428174551413 
1757	 0.286814185834254 
1758	 0.290725171792734 
1759	 0.297261834039268 
1760	 0.302714310215143 
1761	 0.307394692816733 
1762	 0.313710463060246 
1763	 0.319827610670641 
1764	 0.326838949810988 
1765	 0.335204055229025 
1766	 0.342218369821182 
1767	 0.349463019021576 
1768	 0.356939419556376 
1769	 0.365500485670941 
1770	 0.375213211161872 
1771	 0.383531482033518 
1772	 0.390774985204456 
1773	 0.399089584083431 
1774	 0.408150297707356 
1775	 0.417538543924046 
1776	 0.427613771277578 
1777	 0.43783843497243 
1778	 0.448179438743626 
1779	 0.459214357008155 
1780	 0.470886548883406 
1781	 0.482839386201453 
1782	 0.494867076895935 
1783	 0.507060108743395 
1784	 0.518455973767729 
1785	 0.529538134669893 
1786	 0.540414252528113 
1787	 0.551796893324369 
1788	 0.56110340464387 
1789	 0.567654429552098 
1790	 0.576406244718529 
1791	 0.588105469152632 
1792	 0.599776478016516 
1793	 0.615371047602384 
1794	 0.62552051605988 
1795	 0.63506374349353 
1796	 0.64349237546161 
1797	 0.655276892572489 
1798	 0.676652181341153 
1799	 0.697702384955522 
1800	 0.716227661118286 
1801	 0.732427768659791 
1802	 0.724663146932076 
1803	 0.731470986848459 
1804	 0.746074553111099 
1805	 0.759926244711828 
1806	 0.795902253504742 
1807	 0.799845949959753 
1808	 0.746179551724706 
1809	 0.746506940913142 
1810	 0.736232213063811 
1811	 0.763220259010079 
1812	 0.96092759103206 
1813	 1.00553056126933 
1814	 0.89969168798744 
1815	 0.866509504020717 
1816	 0.650962281894075 
1817	 0.827382767872265 
1818	 1.06253471366274 
1819	 1.08495737059805 
1820	 0.980883349064987 
1821	 0.801902437109182 
1822	 0.736400766209925 
1823	 0.895829229695209 
1824	 1.11543977950062 
1825	 2.00694822434745 
1826	 2.9984503523812 
1827	 1.80190106554584 
1828	 1.41171720939342 
1829	 0.819556679663933 
1830	 0.826439357204609 
1831	-2.19550439993183 
1832	-2.08754817267851 
1833	-1.73082934391058 
1834	-1.68372231336184 
1835	-2.52732159403516 
1836	-2.58015345327221 
1837	-1.8143672214715 
1838	-1.17180963029528 
1839	-0.534695713021914 
1840	-0.581000606213694 
1841	-1.42664762251023 
1842	 4.34730613130332 
1843	 0.35593509671396 
1844	-5.68094373820959E-02 
1845	-0.182291698801332 
1846	-2.50908717881269 
1847	-24.1703421451108 
1848	 1.68940858538368 
1849	 1.25565340988463 
1850	 1.60597472868109 
1851	 0.857041023784347 
1852	 0.491322203511409 
1853	-0.12358810521028 
1854	-0.369477516555898 
1855	-0.380521151180405 
1856	 4.84762391794247 
1857	 1.18450670026478 
1858	 1.01902255386767 
1859	 1.06704859737083 
1860	 1.19222716321631 
1861	 1.49770876493997 
1862	 0.671329401865754 
1863	 1.28284858965223E-02 
1864	 0.45358031522284 
1865	 0.927783997621149 
1866	 2.74913588030042 
1867	 2.01239416797691 
1868	 0.70607736476201 
1869	 0.603822613409931 
1870	 0.249488895041824 
1871	 0.218960927986418 
1872	 1.06186522331963 
1873	 1.53070967448788 
1874	 0.695479313245349 
1875	-1.06853105794816E-03 
1876	-0.257726277915117 
1877	-2.48263183483881 
1878	-6.24892484105223 
1879	-2.93544189702659 
1880	-5.23620577020567 
1881	 4.35190108803156 
1882	 6.20248328820526 
1883	 2.45189545864318 
1884	 0.620593448442398 
1885	-0.873898586931231 
1886	-1.19325558857619 
1887	-13.8550718400112 
1888	-4.13517195757869 
1889	-3.98010023574576 
1890	-2.71714521609498 
1891	-2.01216113844734 
1892	-1.2703914106071 
1893	-1.81049703313824 
1894	 7.53369896822133 
1895	 1.62629201766952 
1896	 0.986499047150431 
1897	 5.12033666619863 
1898	 4.98588061139472 
1899	 6.21786566868108 
1900	 6.14426976835406 
1901	 1.60141618081881 
1902	 0.81710940914997 
1903	-0.441119090475236 
1904	-0.394502659684661 
1905	 0.385946774494811 
1906	 2.00804169078846 
1907	 0.335371945172154 
1908	-0.415309643574208 
1909	-0.343489452119652 
1910	-0.668898635250133 
1911	-1.50062017451848 
1912	-2.48148829290363 
1913	-4.37051837089487 
1914	 5.09759573374873 
1915	 8.60440650656731 
1916	-1.60087366679079 
1917	-0.619657462740333 
1918	-8.22188027498322 
1919	 2.68395715002236 
1920	 0.652469974145799 
1921	 0.918324525569997 
1922	 0.810245354699986 
1923	 4.80095989013879E-03 
1924	-0.305636759621791 
1925	-0.698155771808281 
1926	-0.446503351908122 
1927	 0.284205801525498 
1928	 0.958973485123626 
1929	 1.54050389057035 
1930	 1.90082547681839 
1931	 1.88708062719304 
1932	 1.38899062439839 
1933	 1.607204428767 
1934	 1.95865822285073 
1935	 2.02066877709193 
1936	 2.28664412582242 
1937	 1.95180218071254 
1938	 1.70183782559905 
1939	 1.66857044289165 
1940	 1.73329243929672 
1941	 1.704446668021 
1942	 1.69143519237325 
1943	 1.74062554995031 
1944	 1.71501471936927 
1945	 1.73921602666415 
1946	 1.8049510033019 
1947	 1.82196966836451 
1948	 1.85235869103896 
1949	 1.86665332457911 
1950	 1.8724440322532 
1951	 1.89170141570574 
1952	 1.9044904394412 
1953	 1.90774381782469 
1954	 1.90752572187989 
1955	 1.95470159414982 
1956	 1.91547447376722 
1957	 1.92427074384514 
1958	 1.90829924736193 
1959	 1.86252704224839 
1960	 1.88199208878485 
1961	 1.82005724590373 
1962	 1.79276730479166 
1963	 1.68336803171879 
1964	 1.52815909913005 
1965	 1.38834685636186 
1966	 1.26801783997334 
1967	 1.13663445989161 
1968	 1.04620983162805 
1969	 0.972376878836497 
1970	 0.914454276001208 
1971	 0.862772404800847 
1972	 0.818872022289453 
1973	 0.781144693938818 
1974	 0.748809491515099 
1975	 0.720446553450943 
1976	 0.692877002959484 
1977	 0.67020461029106 
1978	 0.652096687467085 
1979	 0.634997981473372 
1980	 0.619048260665365 
1981	 0.60671380001702 
1982	 0.594562833923134 
1983	 0.581809238020704 
1984	 0.573447484881254 
1985	 0.566764731513773 
1986	 0.561352778844994 
1987	 0.559293688520186 
1988	 0.558321852579986 
1989	 0.558973620878523 
1990	 0.56370436188358 
1991	 0.57293416500002 
1992	 0.584595404255092 
1993	 0.600183971866215 
1994	 0.621030180761534 
1995	 0.651648022851785 
1996	 0.679996323415702 
1997	 0.719629767282721 
1998	 0.756596454747914 
1999	 0.783076697854431 
2000	 0.824216507188987 
2001	 0.853450439127235 
2002	 0.896982675863529 
2003	 0.950216425258851 
2004	 0.985947667208668 
2005	 1.00154782131946 
2006	 1.00190471176859 
2007	 0.991209176463227 
2008	 0.978995410844276 
2009	 0.968493457215823 
2010	 0.96666480348039 
2011	 0.952764544123075 
2012	 0.93777008473723 
2013	 0.911489180763065 
2014	 0.877652801076923 
2015	 0.845165170399695 
2016	 0.809041479488127 
2017	 0.770586814989242 
2018	 0.734278688677956 
2019	 0.697539119603658 
2020	 0.659369429926594 
2021	 0.623754042394884 
2022	 0.591552919459941 
2023	 0.561538132363828 
2024	 0.536470914927431 
2025	 0.514126092585804 
2026	 0.493969691126069 
2027	 0.476146249527798 
2028	 0.458861973941443 
2029	 0.443389494434982 
2030	 0.429729508722654 
2031	 0.417144431015677 
2032	 0.407650381347729 
2033	 0.399326296648131 
2034	 0.392295859759594 
2035	 0.385528570891325 
2036	 0.37958699788284 
2037	 0.374271663928555 
2038	 0.369366791209768 
2039	 0.365432860516135 
2040	 0.362449697703405 
2041	 0.360695470346972 
2042	 0.360078410666344 
2043	 0.359346615821835 
2044	 0.35926366771882 
2045	 0.361222356602076 
2046	 0.36196890392757 
2047	 0.36297393673988 
2048	 0.366781937662175 
2049	 0.371683026514316 
2050	 0.377523660706044 
2051	 0.384137830429929 
2052	 0.389907997067379 
2053	 0.393941701057033 
2054	 0.396535709796254 
2055	 0.399012081846865 
2056	 0.400727571604774 
2057	 0.400618046665761 
2058	 0.401387987480573 
2059	 0.403292447456259 
2060	 0.402604695566108 
2061	 0.40021285272741 
2062	 0.398883199300706 
2063	 0.397870249627018 
2064	 0.39549402166366 
2065	 0.394267122968287 
2066	 0.393817156693293 
2067	 0.391146849623202 
2068	 0.388598424904175 
2069	 0.386117527410495 
2070	 0.382026897357841 
2071	 0.377227857600074 
2072	 0.370116482302842 
2073	 0.364435748796113 
2074	 0.358892414304862 
2075	 0.353988561627023 
2076	 0.349852945127998 
2077	 0.345723619304793 
2078	 0.341797624525763 
2079	 0.336475984003099 
2080	 0.331822936487303 
2081	 0.324689919609545 
2082	 0.31551652872625 
2083	 0.308060104899529 
2084	 0.298678744183846 
2085	 0.291374135920316 
2086	 0.28478276352229 
2087	 0.277343546596256 
2088	 0.270007052680452 
2089	 0.263020293097375 
2090	 0.255716135326096 
2091	 0.250758038850621 
2092	 0.246137440877993 
2093	 0.243163585463436 
2094	 0.238557656003252 
2095	 0.233818568397902 
2096	 0.22915921588225 
2097	 0.223539944483318 
2098	 0.219381410742208 
2099	 0.216354943357113 
2100	 0.212695979683447 
2101	 0.20952477539173 
2102	 0.206055514693556 
2103	 0.202142717754677 
2104	 0.200067452558642 
2105	 0.199709991253635 
2106	 0.19974407818924 
2107	 0.199469806484581 
2108	 0.197386745384062 
2109	 0.19515152720302 
2110	 0.193008174302234 
2111	 0.191411215531229 
2112	 0.190967806199614 
2113	 0.190404850890443 
2114	 0.189460261593616 
2115	 0.189288228106372 
2116	 0.190759721468695 
2117	 0.190768500816032 
2118	 0.190217352344814 
2119	 0.189585877541436 
2120	 0.188023750289868 
2121	 0.186715075679823 
2122	 0.18725439907958 
2123	 0.188462953876529 
2124	 0.189447832565363 
2125	 0.190194004763222 
2126	 0.189519706575716 
2127	 0.187838160467593 
2128	 0.187579717840212 
2129	 0.186673285539038 
2130	 0.185348347339275 
2131	 0.186008515077353 
2132	 0.184825431395568 
2133	 0.183108570580396 
2134	 0.182379179884096 
2135	 0.181660670958553 
2136	 0.180961851370727 
2137	 0.181044843754951 
2138	 0.180659202386294 
2139	 0.179849364564982 
2140	 0.179764896443076 
2141	 0.180898425103332 
2142	 0.180492148526261 
2143	 0.17979734434318 
2144	 0.177977770082925 
2145	 0.176353439950784 
2146	 0.174776213583434 
2147	 0.174982709926732 
2148	 0.176038841730665 
2149	 0.174517419388097 
2150	 0.173252999189572 
2151	 0.171829135239595 
2152	 0.168320684336931 
2153	 0.166315273847476 
2154	 0.165356682964696 
2155	 0.163700583394967 
2156	 0.163159604297326 
2157	 0.162592987749944 
2158	 0.162510163705678 
2159	 0.161885805243741 
2160	 0.161707220813317 
2161	 0.160521453098355 
2162	 0.157820960520651 
2163	 0.15672213028601 
2164	 0.156328117265323 
2165	 0.155521523580551 
2166	 0.1552455382938 
2167	 0.155372482813115 
2168	 0.155239489087753 
2169	 0.154395942870115 
2170	 0.15381323470787 
2171	 0.15373356861313 
2172	 0.151414911837136 
2173	 0.149901205150403 
2174	 0.150333727539041 
2175	 0.14891141351024 
2176	 0.148006044918992 
2177	 0.147902299004257 
2178	 0.145220400692233 
2179	 0.143944980539458 
2180	 0.143402302576717 
2181	 0.141748439483103 
2182	 0.139567101403478 
2183	 0.138354552882322 
2184	 0.138538315814754 
2185	 0.138689965270451 
2186	 0.139276181531497 
2187	 0.142692107329692 
2188	 0.142664044743796 
2189	 0.140436934298851 
2190	 0.138879616066526 
2191	 0.135717618741006 
2192	 0.134411413604257 
2193	 0.134067957423851 
2194	 0.133844836884896 
2195	 0.134845613291643 
2196	 0.13421527273648 
2197	 0.132608154284925 
2198	 0.132191756929513 
2199	 0.131010738428803 
2200	 0.131668460838881 
2201	 0.133787454313618 
2202	 0.13287352263741 
2203	 0.130947590991433 
2204	 0.13067355674162 
2205	 0.12991367488517 
2206	 0.128514179605055 
2207	 0.130529364621816 
2208	 0.131262040936132 
2209	 0.1305491661562 
2210	 0.132240106790177 
2211	 0.131453970036812 
2212	 0.129149034550883 
2213	 0.130054157495502 
2214	 0.130655276323113 
2215	 0.1288839974905 
2216	 0.127251306001464 
2217	 0.126855759684872 
2218	 0.126190779976257 
2219	 0.125559741559488 
2220	 0.126328926146288 
2221	 0.126807873944175 
2222	 0.125832485626459 
2223	 0.126323657984319 
2224	 0.12979530402101 
2225	 0.130525499698908 
2226	 0.128840469978658 
2227	 0.128305592755301 
2228	 0.127490585605996 
2229	 0.12677380528639 
2230	 0.126897125786015 
2231	 0.127509548740912 
2232	 0.127467993732796 
2233	 0.127537998426334 
2234	 0.127878335668735 
2235	 0.129722129561785 
2236	 0.130928849796958 
2237	 0.130853585412469 
2238	 0.131337694009162 
2239	 0.132412698916479 
2240	 0.131664392699332 
2241	 0.131869791278552 
2242	 0.133002535953529 
2243	 0.132497058980035 
2244	 0.13295149500278 
2245	 0.13443011093505 
2246	 0.13397023305919 
2247	 0.132833783564245 
2248	 0.132142265213307 
2249	 0.132289827402839 
2250	 0.134967612166169 
2251	 0.1367108484515 
2252	 0.136831419072029 
2253	 0.13754748974193 
2254	 0.135125121168162 
2255	 0.132997783598563 
2256	 0.134858987442594 
2257	 0.136819373851585 
2258	 0.138379706012068 
2259	 0.13932046758674 
2260	 0.139342307740539 
2261	 0.136941055775555 
2262	 0.136087415446547 
2263	 0.134544334029652 
2264	 0.135617543707623 
2265	 0.139628230872337 
2266	 0.139429194381565 
2267	 0.138642416106402 
2268	 0.138667842421406 
2269	 0.135182877600044 
2270	 0.135129606236489 
2271	 0.139256429900331 
2272	 0.140678898149787 
2273	 0.141354193905092 
2274	 0.142040218708172 
2275	 0.14141011998017 
2276	 0.142346347190543 
2277	 0.144564910691078 
2278	 0.145847169147318 
2279	 0.148168944878165 
2280	 0.149353966114402 
2281	 0.149667406310675 
2282	 0.148529327670757 
2283	 0.147690483615026 
2284	 0.146216619868344 
2285	 0.148206180151129 
2286	 0.151876698154383 
2287	 0.154490757011944 
2288	 0.157544699015195 
2289	 0.156351374381495 
2290	 0.152916072156319 
2291	 0.152054232747436 
2292	 0.151043534272852 
2293	 0.150247641564846 
2294	 0.152229958486721 
2295	 0.156141557163402 
2296	 0.158455193893196 
2297	 0.158357882976031 
2298	 0.156718966430597 
2299	 0.151994069936959 
2300	 0.147057784776023 
2301	 0.149462354931329 
2302	 0.152060925409339 
2303	 0.15080170831614 
2304	 0.156311964342636 
2305	 0.158960976625016 
2306	 0.158895749617289 
2307	 0.16522119367845 
2308	 0.166871700335715 
2309	 0.163757819447767 
2310	 0.159427805468293 
2311	 0.1575078978382 
2312	 0.158217054572025 
2313	 0.154918106326493 
2314	 0.155095807058401 
2315	 0.159762102661751 
2316	 0.156653358291351 
2317	 0.151867084205809 
2318	 0.150569509239013 
2319	 0.145167273415229 
2320	 0.145808278825038 
2321	 0.156544161010116 
2322	 0.165439154054391 
2323	 0.165617059816722 
2324	 0.159779694018485 
2325	 0.155211491138696 
2326	 0.155523757629481 
2327	 0.155728745671563 
2328	 0.150807264207899 
2329	 0.150311131433991 
2330	 0.147067472387976 
2331	 0.1472590545894 
2332	 0.159026885253402 
2333	 0.164267692085631 
2334	 0.167301379310416 
2335	 0.165646847039555 
2336	 0.165330865068178 
2337	 0.169586100697265 
2338	 0.163221996761471 
2339	 0.163316709826439 
2340	 0.169845223356079 
2341	 0.167879317275201 
2342	 0.167577961919286 
2343	 0.172043545166332 
2344	 0.1640088048829 
2345	 0.14704819731395 
2346	 0.136804285838999 
2347	 0.12558094820666 
2348	 0.120745526609023 
2349	 0.132901652019819 
2350	 0.144600855618386 
2351	 0.149913598097491 
2352	 0.145974906870001 
2353	 0.129685376000865 
2354	 0.124703828036938 
2355	 0.132308982382277 
2356	 0.131041150292244 
2357	 0.14252567234057 
2358	 0.159311794052969 
2359	 0.157587927207105 
2360	 0.166381518642204 
2361	 0.164172753431048 
2362	 0.136129597870392 
2363	 0.126834482455591 
2364	 0.132227241097614 
2365	 0.141355457617634 
2366	 0.16173360826097 
2367	 0.175062216387646 
2368	 0.165516529739084 
2369	 0.14643920974714 
2370	 0.151698863747874 
2371	 0.163220937822313 
2372	 0.15020912999079 
2373	 0.147937947989711 
2374	 0.147318757774611 
2375	 0.118795747999508 
2376	 0.1112392330088 
2377	 0.143452884030884 
2378	 0.160587590310493 
2379	 0.179544328918798 
2380	 0.228316201334041 
2381	 0.223655036055303 
2382	 0.165382563750932 
2383	 0.157847038918395 
2384	 0.180368740161456 
2385	 0.179379331722633 
2386	 0.197977720609774 
2387	 0.204572895022638 
2388	 0.173819932640394 
2389	 0.154199810223568 
2390	 0.16148483220809 
2391	 0.170713523042503 
2392	 0.163558649789302 
2393	 0.160089683452678 
2394	 0.179211383233965 
2395	 0.203110394416331 
2396	 0.203664106536025 
2397	 0.182683283162082 
2398	 0.177094558668962 
2399	 0.164803590453406 
2400	 0.145875866873162 
2401	 0.183837973425389 
2402	 0.204293568519103 
2403	 0.168974440671337 
2404	 0.157409950474739 
2405	 0.165569736829887 
2406	 0.15421887309284 
2407	 0.167912841299749 
2408	 0.179792320227841 
2409	 0.120349504761995 
2410	 8.58255423651852E-02 
2411	 0.040485201138573 
2412	 5.90202074757186E-02 
2413	 0.166415851063663 
2414	 0.162127088658424 
2415	 0.129622801956708 
2416	 0.103142164963236 
2417	 0.029209115691179 
2418	 0.032725754209448 
2419	 9.20900660171956E-02 
2420	 0.126176708097784 
2421	 0.112735424200326 
2422	 0.103705841585165 
2423	 0.144395866758097 
2424	 0.195315363231837 
2425	 0.222537464928963 
2426	 0.175302439382729 
2427	 8.72358970589522E-02 
2428	 6.14726551661309E-03 
2429	-1.74902744109732E-02 
2430	 4.08287032116409E-02 
2431	 7.29588080405159E-02 
2432	 0.151515789883773 
2433	 0.221457988821859 
2434	 0.13224181367478 
2435	 0.146795655073862 
2436	 0.145654393584074 
2437	 4.88535812599277E-02 
2438	-1.84505275642672E-03 
2439	 9.72101978251898E-02 
2440	 0.154690451325434 
2441	 0.153223981295574 
2442	 0.25860392310736 
2443	 0.101371757165179 
2444	-0.128085863648075 
2445	-5.86629053065968E-02 
2446	-0.22669732247854 
2447	-0.374633309864873 
2448	-0.201851385155593 
2449	-4.05760756814373E-02 
2450	-0.153533757425375 
2451	-0.275852732967471 
2452	-0.314501813837118 
2453	-0.602329396468609 
2454	-0.517940681326147 
2455	-0.232909119031784 
2456	-0.166161406420564 
2457	-0.147820022768335 
2458	 3.84592140503462E-02 
2459	 7.53035915684168E-02 
2460	 1.03398873304425E-02 
2461	 0.132290467573305 
2462	 0.426823109555216 
2463	 0.345931820088333 
2464	 1.52896209955939E-02 
2465	 7.0361952269301E-03 
2466	-1.83069082173501E-02 
2467	-0.201764878254728 
2468	-7.00683037997829E-02 
2469	 0.789090769421284 
2470	-1.46538797968043 
2471	-0.378790905013823 
2472	 1.42943003846882 
2473	 1.29933173149708 
2474	 0.334822983338366 
2475	-0.19446324964024 
2476	-0.401600690846642 
2477	-0.486876344347012 
2478	-0.615255281276525 
2479	 0.184152944787154 
2480	-0.361945794890301 
2481	-1.4499027698407 
2482	-0.981274541483226 
2483	-0.244326248741702 
2484	 7.84496496964524 
2485	 0.375458078868153 
2486	 10.8309842503257 
2487	 2.8563657657091 
2488	 1.17313739052558 
2489	 3.10193381108343 
2490	 1.04769140424177 
2491	 0.813417175077019 
2492	 1.47745512400182 
2493	-0.612513949806917 
2494	-0.299640669613036 
2495	-5.12419386169835 
2496	 1.31679544518489 
2497	 1.87241887024388 
2498	 1.1447165258209 
2499	 1.07329219886343 
2500	-671.603936318667 
