Wavelength	rt0712west_far00008.asd
350	 9.19068599921703E-02 
351	 9.25837814720537E-02 
352	 9.33454862179987E-02 
353	 9.27322177566282E-02 
354	 9.08641154549381E-02 
355	 9.13778643221151E-02 
356	 9.31993167369663E-02 
357	 9.37055734196557E-02 
358	 9.14974615471826E-02 
359	 9.24747298944449E-02 
360	 9.25616631169546E-02 
361	 9.19449533323024E-02 
362	 0.093487002996345 
363	 9.35069880420876E-02 
364	 9.33890367008875E-02 
365	 9.37051081647437E-02 
366	 9.28226333288574E-02 
367	 9.25515514512125E-02 
368	 9.27415027056907E-02 
369	 9.29677280017011E-02 
370	 9.39867732287971E-02 
371	 0.093755279762025 
372	 9.30913757319145E-02 
373	 9.40862471798528E-02 
374	 9.36407924325338E-02 
375	 9.35704951098613E-02 
376	 9.44380815077997E-02 
377	 9.44273465467972E-02 
378	 9.52028181428268E-02 
379	 9.57586582814731E-02 
380	 9.52439485330761E-02 
381	 9.52095971949257E-02 
382	 9.53687313486849E-02 
383	 9.54664578426414E-02 
384	 9.53549902706798E-02 
385	 9.56660198534883E-02 
386	 9.59372498989464E-02 
387	 9.61493737086378E-02 
388	 9.68272388480863E-02 
389	 9.66162059071374E-02 
390	 9.72817035500417E-02 
391	 9.92204306135007E-02 
392	 9.80495893932637E-02 
393	 9.73704650086916E-02 
394	 9.72924818141828E-02 
395	 9.69588023456981E-02 
396	 9.81468969500327E-02 
397	 9.88863045703422E-02 
398	 9.88557526684865E-02 
399	 9.92588924506914E-02 
400	 9.91262375248251E-02 
401	 9.89827868535838E-02 
402	 9.91880529999264E-02 
403	 9.92758703819142E-02 
404	 9.91481984260559E-02 
405	 9.90841872662959E-02 
406	 9.94118499425829E-02 
407	 9.98809620567547E-02 
408	 9.97217797943409E-02 
409	 9.93578561863457E-02 
410	 0.100276113938876 
411	 0.100899784076783 
412	 0.101009300531827 
413	 0.100911567477594 
414	 0.101608097140383 
415	 0.101507338085461 
416	 0.101314678669219 
417	 0.102251258473711 
418	 0.10245140923203 
419	 0.102596654459736 
420	 0.103060919015596 
421	 0.103675303436349 
422	 0.103853435012222 
423	 0.103936160664701 
424	 0.104191468391809 
425	 0.104009674939566 
426	 0.104487031394915 
427	 0.105286897654223 
428	 0.105520609814818 
429	 0.105895841595185 
430	 0.106439029028013 
431	 0.106995306871604 
432	 0.107285505486732 
433	 0.107682185994267 
434	 0.10821489768884 
435	 0.108732958370377 
436	 0.108732242480076 
437	 0.109173558014239 
438	 0.109915436047693 
439	 0.110256557429029 
440	 0.110513626875292 
441	 0.110903631522848 
442	 0.111443489538972 
443	 0.111878946089221 
444	 0.112210153555127 
445	 0.112524995559055 
446	 0.112916975150605 
447	 0.113413224020542 
448	 0.113598978327074 
449	 0.113699417486757 
450	 0.114332754575466 
451	 0.114692043627347 
452	 0.115017201941081 
453	 0.115452961543288 
454	 0.115614516406159 
455	 0.115899585993254 
456	 0.116249598020609 
457	 0.116496376415486 
458	 0.11685770180264 
459	 0.117069784031175 
460	 0.117084556851371 
461	 0.117103126516052 
462	 0.117425289989372 
463	 0.117885536349177 
464	 0.118212180357143 
465	 0.118064833574746 
466	 0.118409658335075 
467	 0.118997540724506 
468	 0.119082738952406 
469	 0.119288694588619 
470	 0.11949095301526 
471	 0.119635559519452 
472	 0.119849010881213 
473	 0.119939444192421 
474	 0.120293296360713 
475	 0.121066777225792 
476	 0.12104744058472 
477	 0.121275350626639 
478	 0.121797230719871 
479	 0.122006508278981 
480	 0.122291475944321 
481	 0.122573722368947 
482	 0.122837620666691 
483	 0.123310661334759 
484	 0.123927728433612 
485	 0.124245447912749 
486	 0.124001701015747 
487	 0.124579825990156 
488	 0.125422185150642 
489	 0.126026041524065 
490	 0.126108767417755 
491	 0.126518752858132 
492	 0.126991880264769 
493	 0.127296187092319 
494	 0.127953207182152 
495	 0.128448111337004 
496	 0.128863220748796 
497	 0.129514641210715 
498	 0.129910435048843 
499	 0.130252228387894 
500	 0.130637615816891 
501	 0.1308721177611 
502	 0.131537515874469 
503	 0.132264965717626 
504	 0.132598513682251 
505	 0.132919644356644 
506	 0.133624699736631 
507	 0.134505453649419 
508	 0.134932488828519 
509	 0.135275382226429 
510	 0.135764049157569 
511	 0.13646246868855 
512	 0.137112489620066 
513	 0.138021468377997 
514	 0.138810368757115 
515	 0.139002789691297 
516	 0.13970504360112 
517	 0.140623894966696 
518	 0.14144358587065 
519	 0.142000377526148 
520	 0.142518967157257 
521	 0.143138353848304 
522	 0.143923415195124 
523	 0.144788162640975 
524	 0.14561880917464 
525	 0.146391412848361 
526	 0.147153633842821 
527	 0.147906279996135 
528	 0.148556875457417 
529	 0.149166577638298 
530	 0.150166138833371 
531	 0.150874578116282 
532	 0.151527600266646 
533	 0.152576615387762 
534	 0.153575944391758 
535	 0.15439019162479 
536	 0.155108754783791 
537	 0.156035276729586 
538	 0.156645591793681 
539	 0.157264544176916 
540	 0.15820393683026 
541	 0.159016208782983 
542	 0.159789645918279 
543	 0.160656723672561 
544	 0.161727297462431 
545	 0.162474529798231 
546	 0.163446699907922 
547	 0.164751179074422 
548	 0.165390661358561 
549	 0.166110026086071 
550	 0.167029756268261 
551	 0.168055144190954 
552	 0.169200398626659 
553	 0.170031181113498 
554	 0.170567974242777 
555	 0.171350607051666 
556	 0.172096054132773 
557	 0.172987417546439 
558	 0.174078119013776 
559	 0.174715761288298 
560	 0.175221134507377 
561	 0.175781675352497 
562	 0.176479754907867 
563	 0.177186877151422 
564	 0.177855200602942 
565	 0.178421501584921 
566	 0.178747434374187 
567	 0.179127963579196 
568	 0.179592349587439 
569	 0.180057198233873 
570	 0.180489596691214 
571	 0.180906825910929 
572	 0.181299000118711 
573	 0.181619070123957 
574	 0.18195160916774 
575	 0.182319587144933 
576	 0.182709410512078 
577	 0.183058415565238 
578	 0.183375011152838 
579	 0.183635466587957 
580	 0.183779108397167 
581	 0.183525052277219 
582	 0.183478621369405 
583	 0.183729721043681 
584	 0.183225887765401 
585	 0.182691847238869 
586	 0.182025672364051 
587	 0.180888496770947 
588	 0.179591890289564 
589	 0.178604818124915 
590	 0.178199608698023 
591	 0.178208836581731 
592	 0.178177026068056 
593	 0.177739510957552 
594	 0.176878990397702 
595	 0.176494525785055 
596	 0.175604371317515 
597	 0.174599494202675 
598	 0.174397852651175 
599	 0.173583850347314 
600	 0.172690426366635 
601	 0.17213266455152 
602	 0.171808741735523 
603	 0.171337962528649 
604	 0.170973636150968 
605	 0.171027442591851 
606	 0.17098017097261 
607	 0.170912970967043 
608	 0.170774941296307 
609	 0.170386255544067 
610	 0.170583987159033 
611	 0.170738691665256 
612	 0.170391545187276 
613	 0.170560913147486 
614	 0.170556655876406 
615	 0.170296758095513 
616	 0.170075687599726 
617	 0.170244226468288 
618	 0.170187833439522 
619	 0.169830974441977 
620	 0.170166066895121 
621	 0.170014392014059 
622	 0.169568175589189 
623	 0.169369501554513 
624	 0.169311158642376 
625	 0.16898511863724 
626	 0.168451527744564 
627	 0.168251240190448 
628	 0.168000972831757 
629	 0.167953453749133 
630	 0.168232858546367 
631	 0.168417720501244 
632	 0.168326234601213 
633	 0.168180545046088 
634	 0.168302110695578 
635	 0.168025233642228 
636	 0.167990109641177 
637	 0.168286818739812 
638	 0.168073540884599 
639	 0.167900017035691 
640	 0.167760423324516 
641	 0.167566402440881 
642	 0.167583656531346 
643	 0.167172923737173 
644	 0.166403616638569 
645	 0.165935843106838 
646	 0.165069846407925 
647	 0.164571676918623 
648	 0.164825880641135 
649	 0.16458530528455 
650	 0.164577965988599 
651	 0.164623941896328 
652	 0.164295783235789 
653	 0.163758465022832 
654	 0.162847230022107 
655	 0.161753463682602 
656	 0.161298466558385 
657	 0.160819121702747 
658	 0.160294624104833 
659	 0.159815057968019 
660	 0.1594220744948 
661	 0.159028038743995 
662	 0.158617589108849 
663	 0.158240318877163 
664	 0.158002783906278 
665	 0.157834557771559 
666	 0.157590982402613 
667	 0.157013451616473 
668	 0.156776247541236 
669	 0.156778352431808 
670	 0.156669243241416 
671	 0.156262524518135 
672	 0.156202426391459 
673	 0.156386932715072 
674	 0.156045741142413 
675	 0.156099105774159 
676	 0.156345313669654 
677	 0.156479291897249 
678	 0.15649379739374 
679	 0.156435685104996 
680	 0.156244127898828 
681	 0.155946517299896 
682	 0.156579938374582 
683	 0.156728051484183 
684	 0.156026165327967 
685	 0.155741993899428 
686	 0.155518564352189 
687	 0.155192015214783 
688	 0.154812202999024 
689	 0.154993769827301 
690	 0.154393364546789 
691	 0.153258643848233 
692	 0.152773633581835 
693	 0.151882530156508 
694	 0.151401306530443 
695	 0.151535003309997 
696	 0.151330549337786 
697	 0.150034760595305 
698	 0.148254887932012 
699	 0.147148238359255 
700	 0.146204472599133 
701	 0.145715996224481 
702	 0.14498678774499 
703	 0.142849088314795 
704	 0.142102997786766 
705	 0.141082341231205 
706	 0.138889872460837 
707	 0.137567735288187 
708	 0.136166926224237 
709	 0.134559432119618 
710	 0.132892703802885 
711	 0.131008156586149 
712	 0.128944987997447 
713	 0.126639190982175 
714	 0.12384936359645 
715	 0.120959082591413 
716	 0.117126411378641 
717	 0.112309814817387 
718	 0.109663289130431 
719	 0.10738691425431 
720	 0.105873203227347 
721	 0.105150382933819 
722	 0.102930117626523 
723	 9.96945454667351E-02 
724	 9.68402060514772E-02 
725	 9.51405035020241E-02 
726	 9.29282688667793E-02 
727	 9.04296697459749E-02 
728	 8.80659510175068E-02 
729	 0.085670772551209 
730	 0.082819350119759 
731	 0.080468485938173 
732	 7.91533050671922E-02 
733	 7.80040554805857E-02 
734	 7.67265830673047E-02 
735	 7.53128701029378E-02 
736	 7.41095053180515E-02 
737	 7.35831984016481E-02 
738	 7.33076257031475E-02 
739	 7.29283164828398E-02 
740	 7.28315897039726E-02 
741	 7.26521966874035E-02 
742	 7.24756383890631E-02 
743	 7.25655065361149E-02 
744	 7.28729062598402E-02 
745	 7.25410192703819E-02 
746	 7.18153438692559E-02 
747	 7.24464868717295E-02 
748	 7.26777754501514E-02 
749	 7.24258010088696E-02 
750	 0.072082670698517 
751	 7.20922158510689E-02 
752	 7.23012368962306E-02 
753	 7.22880701960479E-02 
754	 7.16829205426052E-02 
755	 7.17564796862641E-02 
756	 7.17766026282016E-02 
757	 7.14404591405094E-02 
758	 0.071329589717147 
759	 7.07339558328351E-02 
760	 6.96464480320726E-02 
761	 6.94392619732261E-02 
762	 6.83929620574538E-02 
763	 6.87088344478034E-02 
764	 6.99404906398602E-02 
765	 7.09234868366452E-02 
766	 7.10188386566001E-02 
767	 7.13516892658873E-02 
768	 7.19398053412056E-02 
769	 7.19830297265792E-02 
770	 7.24654128167959E-02 
771	 7.26873386573066E-02 
772	 7.22860342013978E-02 
773	 7.26484270940369E-02 
774	 0.073080105005245 
775	 7.33487763669887E-02 
776	 7.34450153431544E-02 
777	 7.34659731360733E-02 
778	 7.35718107201887E-02 
779	 7.38379058137106E-02 
780	 7.42267718496047E-02 
781	 7.43714288835713E-02 
782	 7.44953409440225E-02 
783	 7.47724264492396E-02 
784	 7.49947376362738E-02 
785	 7.52240214623797E-02 
786	 7.54688409082578E-02 
787	 7.56752753415785E-02 
788	 7.55375259033735E-02 
789	 7.55809556149076E-02 
790	 0.076173263147662 
791	 7.73127815369725E-02 
792	 7.77642681589671E-02 
793	 7.77396649124956E-02 
794	 7.76317056145593E-02 
795	 7.78033187449045E-02 
796	 7.83701075547805E-02 
797	 7.89691635783717E-02 
798	 7.93038502974435E-02 
799	 7.97035661955622E-02 
800	 7.99535284670758E-02 
801	 0.080187614962593 
802	 8.06876607855196E-02 
803	 8.11903960064313E-02 
804	 8.12896913860296E-02 
805	 8.11853623325273E-02 
806	 8.16103254610843E-02 
807	 8.16722643819548E-02 
808	 8.10024692881071E-02 
809	 7.98759659532666E-02 
810	 8.02383090420128E-02 
811	 8.01064419427685E-02 
812	 7.90202052052917E-02 
813	 0.077541030593241 
814	 7.78061160937739E-02 
815	 7.68783435195443E-02 
816	 7.50623949935472E-02 
817	 7.55159513106944E-02 
818	 7.62688369592123E-02 
819	 7.59662646506848E-02 
820	 7.47850089930119E-02 
821	 7.42214550609063E-02 
822	 7.33431686430489E-02 
823	 7.18082717505434E-02 
824	 0.070059948211964 
825	 0.069362408930074 
826	 6.79259585633002E-02 
827	 6.65962639798743E-02 
828	 6.66772196852448E-02 
829	 6.46863543786215E-02 
830	 6.30160491631453E-02 
831	 6.24313013330687E-02 
832	 6.23027836781093E-02 
833	 6.18551802240402E-02 
834	 6.13441828053616E-02 
835	 6.10180408199411E-02 
836	 6.09540777966453E-02 
837	 6.11434883960797E-02 
838	 6.12213653110458E-02 
839	 6.09177232659739E-02 
840	 0.060235753654069 
841	 6.02874830311814E-02 
842	 6.06694947469705E-02 
843	 0.060558291129299 
844	 5.99375977421432E-02 
845	 5.98514885686121E-02 
846	 6.02929598136972E-02 
847	 6.04881126263381E-02 
848	 5.97586181660297E-02 
849	 5.93558971039832E-02 
850	 5.95523245211858E-02 
851	 5.91159441424814E-02 
852	 5.92162024760067E-02 
853	 5.91549567903575E-02 
854	 0.058553366005862 
855	 5.84381877923705E-02 
856	 5.86949125910878E-02 
857	 5.88264144600099E-02 
858	 5.85887895250479E-02 
859	 5.90593982363676E-02 
860	 5.89921376223071E-02 
861	 5.81828140476201E-02 
862	 5.71753376170898E-02 
863	 5.71789103036471E-02 
864	 5.80858977294021E-02 
865	 5.88951350886525E-02 
866	 5.81986967470631E-02 
867	 5.78711145377027E-02 
868	 5.79672176725031E-02 
869	 5.80333218384231E-02 
870	 5.73702226375774E-02 
871	 5.72373864355914E-02 
872	 5.69176375726944E-02 
873	 5.62323739083707E-02 
874	 5.72477850085387E-02 
875	 5.70035835553078E-02 
876	 5.64442715558682E-02 
877	 5.69390606674677E-02 
878	 5.66343101842479E-02 
879	 5.56135126045513E-02 
880	 5.50392070450679E-02 
881	 5.59419797999628E-02 
882	 5.56470078010196E-02 
883	 5.52713624671877E-02 
884	 5.55630967925634E-02 
885	 5.65005940858771E-02 
886	 5.56103268933638E-02 
887	 5.51316960477798E-02 
888	 5.57586499336604E-02 
889	 5.57413680043595E-02 
890	 5.41426465790452E-02 
891	 5.28294773640151E-02 
892	 5.31469808876486E-02 
893	 5.39621029513608E-02 
894	 5.35701511027213E-02 
895	 5.24031357893061E-02 
896	 5.17695420185355E-02 
897	 5.23272606064431E-02 
898	 5.09822837773627E-02 
899	 5.11372100554321E-02 
900	 5.49633620664095E-02 
901	 5.28739726725921E-02 
902	 4.93765465591626E-02 
903	 4.93202092019061E-02 
904	 0.054705315006191 
905	 5.46710826695915E-02 
906	 0.050499301419577 
907	 4.74150181076469E-02 
908	 0.052060700222922 
909	 4.97157595075353E-02 
910	 4.94236802355901E-02 
911	 5.20500462837478E-02 
912	 4.95758118476396E-02 
913	 4.99195763650657E-02 
914	 4.99989069969388E-02 
915	 0.049164233556659 
916	 5.06405256221038E-02 
917	 5.09727439430166E-02 
918	 5.08795072234487E-02 
919	 5.05812714066595E-02 
920	 4.92042972635842E-02 
921	 5.33842660398226E-02 
922	 5.61943432481879E-02 
923	 5.27484238567249E-02 
924	 4.84003212305153E-02 
925	 4.59331652058171E-02 
926	 5.03653123700498E-02 
927	 5.99193641162394E-02 
928	 3.93819915242118E-02 
929	 4.87324333681455E-02 
930	 7.30116815709702E-02 
931	 4.16303248761188E-02 
932	 7.04767355058325E-02 
933	 6.78161032591337E-02 
934	 3.31812196731934E-02 
935	 4.17277366184517E-02 
936	 8.89364237514054E-02 
937	 8.56574130985157E-02 
938	 5.59081495110411E-02 
939	 4.53671466806001E-02 
940	 5.39619640112975E-02 
941	 6.08243392758877E-02 
942	 4.74149002442278E-02 
943	 1.24250532962441E-02 
944	 4.26172175741373E-02 
945	 5.45670286821833E-02 
946	 4.62469050938254E-02 
947	 6.35542352243402E-02 
948	 0.051175649625569 
949	 5.68197412122107E-02 
950	 6.46405069882287E-02 
951	 3.40598765389025E-02 
952	 1.69546222863673E-02 
953	 2.83822544788416E-02 
954	 0.047990952374858 
955	 4.50353214273949E-02 
956	 4.04118434805196E-02 
957	 0.038829359026458 
958	 4.95932449135782E-02 
959	 7.48945234963426E-02 
960	 6.25134688508267E-02 
961	 4.27044969142901E-02 
962	 4.16349610731393E-02 
963	 6.46229531418983E-02 
964	 0.054327213656286 
965	 0.041607138474344 
966	 4.34228809813996E-02 
967	 5.72526690486451E-02 
968	 5.53525821519694E-02 
969	 4.68946264892574E-02 
970	 4.49187724335093E-02 
971	 5.78109136708205E-02 
972	 0.048653800135325 
973	 4.42189708076449E-02 
974	 0.052183085965139 
975	 5.44147256043327E-02 
976	 5.49180839450235E-02 
977	 4.87887408795986E-02 
978	 4.30215216943094E-02 
979	 4.94536281565605E-02 
980	 4.89963004364145E-02 
981	 4.45282923992667E-02 
982	 4.54463011357739E-02 
983	 5.88109123496994E-02 
984	 5.68897485458201E-02 
985	 5.28667786116077E-02 
986	 5.15398830522195E-02 
987	 5.01567261881366E-02 
988	 5.80214124147026E-02 
989	 5.49848182781562E-02 
990	 4.59594206432982E-02 
991	 5.14844198994759E-02 
992	 5.55376156510801E-02 
993	 5.34017714710057E-02 
994	 4.98156758818968E-02 
995	 5.28958524896697E-02 
996	 5.39702308456133E-02 
997	 0.054789932385725 
998	 5.62146555839686E-02 
999	 5.71495495859961E-02 
1000	 5.17118754718513E-02 
1001	 5.55598113353312E-02 
1002	 5.72256032228184E-02 
1003	 0.056329926434897 
1004	 0.050984854107512 
1005	 4.94770734124765E-02 
1006	 4.89417286782286E-02 
1007	 4.94414013274681E-02 
1008	 0.051049269945452 
1009	 5.22114582435873E-02 
1010	 0.048611282330445 
1011	 4.48705352284827E-02 
1012	 4.43905976323775E-02 
1013	 4.40939202237076E-02 
1014	 4.53897453500812E-02 
1015	 5.18220464266276E-02 
1016	 5.38988126051981E-02 
1017	 5.50620194320701E-02 
1018	 5.46995428288315E-02 
1019	 5.09599133213301E-02 
1020	 4.99289767968967E-02 
1021	 4.79669526177173E-02 
1022	 4.80638779281746E-02 
1023	 5.15548497271097E-02 
1024	 5.43890577913209E-02 
1025	 5.88639022070646E-02 
1026	 6.00778692469542E-02 
1027	 0.059467254029874 
1028	 5.60946937012593E-02 
1029	 5.53321315886718E-02 
1030	 5.30803486062514E-02 
1031	 5.25745263092383E-02 
1032	 5.45975951545821E-02 
1033	 5.45005030249184E-02 
1034	 5.40689102321838E-02 
1035	 5.29197285871415E-02 
1036	 4.95363923206011E-02 
1037	 4.88689527716273E-02 
1038	 4.90979285476266E-02 
1039	 4.92814558050473E-02 
1040	 5.16770398097635E-02 
1041	 5.26090884886718E-02 
1042	 5.20624063332007E-02 
1043	 0.048808135632366 
1044	 4.90334288777249E-02 
1045	 4.98776378091207E-02 
1046	 5.03965300689245E-02 
1047	 5.32611104725646E-02 
1048	 0.053826045938134 
1049	 5.20482339501243E-02 
1050	 5.18557914728489E-02 
1051	 5.32528586843189E-02 
1052	 5.23096364384016E-02 
1053	 4.88266377094304E-02 
1054	 4.79429088095095E-02 
1055	 4.66309680307657E-02 
1056	 4.61211760280582E-02 
1057	 4.67811571560754E-02 
1058	 5.11195991988145E-02 
1059	 5.12540040286168E-02 
1060	 4.90694227321893E-02 
1061	 0.049205458273818 
1062	 4.96277579524168E-02 
1063	 0.049095603554971 
1064	 4.86272308172825E-02 
1065	 4.90613337650568E-02 
1066	 0.049684551749651 
1067	 4.89848781328886E-02 
1068	 0.04816874777193 
1069	 4.83200904756871E-02 
1070	 4.62995676439702E-02 
1071	 4.62245161825105E-02 
1072	 4.90290489298339E-02 
1073	 5.24606250791068E-02 
1074	 5.27376072999592E-02 
1075	 5.16129516422222E-02 
1076	 5.11476336032957E-02 
1077	 4.92249354164107E-02 
1078	 4.79389413439523E-02 
1079	 4.68851072466972E-02 
1080	 4.66199535803348E-02 
1081	 4.58401570705988E-02 
1082	 4.54757756804666E-02 
1083	 4.75865093058991E-02 
1084	 4.77808071187909E-02 
1085	 4.56751894644367E-02 
1086	 4.57286457410375E-02 
1087	 4.62109943316252E-02 
1088	 4.63730882055874E-02 
1089	 4.76876271159735E-02 
1090	 5.00471211498932E-02 
1091	 4.94836300922054E-02 
1092	 4.68004038995336E-02 
1093	 4.59790868352361E-02 
1094	 4.31215342387124E-02 
1095	 4.31986559108869E-02 
1096	 4.63534069316576E-02 
1097	 4.84930700363239E-02 
1098	 5.33190796812802E-02 
1099	 5.46402618407667E-02 
1100	 5.37857102071188E-02 
1101	 5.28911497406661E-02 
1102	 4.51697528456298E-02 
1103	 4.50393771931487E-02 
1104	 0.052068409842807 
1105	 5.73792311493912E-02 
1106	 6.34433223173664E-02 
1107	 6.56697866383268E-02 
1108	 4.85118813956736E-02 
1109	 3.26143507624088E-02 
1110	 2.87602900928651E-02 
1111	 3.39375481669448E-02 
1112	 2.98851478267939E-02 
1113	 4.30826271847171E-02 
1114	 0.039060744336757 
1115	-0.012120734553564 
1116	-2.66479437516345E-02 
1117	-2.94784250539982E-03 
1118	-1.53854329372249E-03 
1119	 4.17028118575801E-02 
1120	 6.88155251290532E-02 
1121	 6.83488724349608E-02 
1122	 1.78225414440385E-02 
1123	 3.31341843493603E-02 
1124	-5.89288729295354E-02 
1125	-0.273625191762412 
1126	-0.369351048238893 
1127	-0.361642260394916 
1128	-0.432351649100514 
1129	-0.390148401248836 
1130	-0.181546960668986 
1131	-0.150003353204109 
1132	-0.221724463127038 
1133	-0.173520277926666 
1134	-8.82780808447409E-02 
1135	-5.60756686011524E-02 
1136	 1.11316635616347E-02 
1137	 3.66429280835203E-02 
1138	 3.65189225621208E-02 
1139	 5.08067606796583E-03 
1140	-3.37697245700977E-02 
1141	-1.52627354000262E-02 
1142	 5.62296635972547E-02 
1143	 7.33017200542147E-02 
1144	 6.81588680620305E-02 
1145	 5.51555438670077E-02 
1146	 1.25505451341405E-03 
1147	-6.74013444276245E-02 
1148	-0.102943460885488 
1149	-6.56904502391031E-02 
1150	-5.58714459853746E-02 
1151	-5.00363317925349E-02 
1152	-2.13320014855976E-02 
1153	 1.53121203180354E-02 
1154	 1.02755186846858E-02 
1155	-1.01911905660453E-03 
1156	 4.09097229006521E-03 
1157	-7.15973915860618E-03 
1158	-1.14893780190902E-03 
1159	 2.03306587372854E-02 
1160	 2.89596415798992E-02 
1161	 3.29796908758977E-02 
1162	 3.87274016851546E-02 
1163	 4.14319707495641E-02 
1164	 0.046221104685153 
1165	 4.99502722176719E-02 
1166	 4.66009240311364E-02 
1167	 4.20058943919202E-02 
1168	 4.06431095335612E-02 
1169	 4.24943285231355E-02 
1170	 4.34528588130484E-02 
1171	 4.38690665086482E-02 
1172	 4.54272706353218E-02 
1173	 4.62829309148733E-02 
1174	 4.52424302791868E-02 
1175	 4.57769527288368E-02 
1176	 0.047688493423275 
1177	 4.75334977700481E-02 
1178	 4.83236810783874E-02 
1179	 4.85378790142338E-02 
1180	 4.89238341913479E-02 
1181	 5.24837521045507E-02 
1182	 5.33925909115811E-02 
1183	 5.11148819577562E-02 
1184	 0.0518416044894 
1185	 5.63238568710548E-02 
1186	 5.78497316716385E-02 
1187	 5.62709789563806E-02 
1188	 5.64238502041962E-02 
1189	 5.38409466640602E-02 
1190	 0.045660152363826 
1191	 4.28582910520056E-02 
1192	 4.30421111625865E-02 
1193	 4.62357742030789E-02 
1194	 4.40992196069438E-02 
1195	 4.46642566466507E-02 
1196	 4.72359936410616E-02 
1197	 0.046332583847938 
1198	 4.53212217947709E-02 
1199	 4.55634736355019E-02 
1200	 4.69648889305582E-02 
1201	 4.75576457846406E-02 
1202	 0.046178748234101 
1203	 4.68382893031431E-02 
1204	 4.72043211441963E-02 
1205	 4.81198200522022E-02 
1206	 5.24955971648041E-02 
1207	 5.30819063371069E-02 
1208	 5.21259175161845E-02 
1209	 5.44643940929056E-02 
1210	 5.45661654872148E-02 
1211	 5.51027509100418E-02 
1212	 5.79472678008157E-02 
1213	 5.60658350139018E-02 
1214	 5.47423512330351E-02 
1215	 5.12220470704758E-02 
1216	 0.052384520178244 
1217	 5.27101739381875E-02 
1218	 5.28185532777639E-02 
1219	 5.54620151905678E-02 
1220	 5.35586889954105E-02 
1221	 5.05545673905104E-02 
1222	 5.16860005836353E-02 
1223	 4.88775350438424E-02 
1224	 4.58273179370271E-02 
1225	 4.80960560746709E-02 
1226	 4.90470893437061E-02 
1227	 4.81111916558021E-02 
1228	 0.049292259128201 
1229	 4.98983950322944E-02 
1230	 4.83539722674962E-02 
1231	 4.92768747727279E-02 
1232	 5.11849277520029E-02 
1233	 5.20081316367255E-02 
1234	 5.29963615389922E-02 
1235	 5.23431200598834E-02 
1236	 4.95411920305017E-02 
1237	 4.88899710332775E-02 
1238	 4.79578358984286E-02 
1239	 0.047779038315913 
1240	 0.049406249839848 
1241	 5.02160545968423E-02 
1242	 4.95929718772189E-02 
1243	 4.69392594838476E-02 
1244	 4.46115029077023E-02 
1245	 4.46892348926023E-02 
1246	 0.044537873512869 
1247	 4.46679805266472E-02 
1248	 4.64179031170869E-02 
1249	 4.78655079246498E-02 
1250	 4.81716151539265E-02 
1251	 4.77021913713349E-02 
1252	 0.048041308770942 
1253	 4.91852109518024E-02 
1254	 4.85571432011383E-02 
1255	 5.07425394097174E-02 
1256	 5.18611465801158E-02 
1257	 5.02474902549466E-02 
1258	 4.93149546990076E-02 
1259	 0.049552536062147 
1260	 5.04777507222804E-02 
1261	 5.26950315931943E-02 
1262	 5.27995642346989E-02 
1263	 5.26506675873227E-02 
1264	 5.21640799402207E-02 
1265	 5.29725483039776E-02 
1266	 5.18218427205544E-02 
1267	 4.90941986520796E-02 
1268	 4.96267197681087E-02 
1269	 4.88395550975815E-02 
1270	 4.63602710514258E-02 
1271	 5.10869805486027E-02 
1272	 5.49966138425317E-02 
1273	 5.14978974825719E-02 
1274	 4.96264936015261E-02 
1275	 4.86987262822961E-02 
1276	 4.61416587016786E-02 
1277	 4.77726824718923E-02 
1278	 5.00130003783906E-02 
1279	 4.89528275677671E-02 
1280	 4.85231287749395E-02 
1281	 4.86527186294706E-02 
1282	 4.70747638085903E-02 
1283	 4.71380380477028E-02 
1284	 4.95530674921263E-02 
1285	 5.13979568968957E-02 
1286	 5.43786959700889E-02 
1287	 5.39880559477504E-02 
1288	 5.14588631488571E-02 
1289	 5.01236122366658E-02 
1290	 4.62168009603663E-02 
1291	 4.36543066015261E-02 
1292	 4.51154175134597E-02 
1293	 4.93669456636907E-02 
1294	 4.78737918432426E-02 
1295	 4.47717131094584E-02 
1296	 4.77729549123177E-02 
1297	 4.87077176441911E-02 
1298	 4.83304896393453E-02 
1299	 5.44453594183983E-02 
1300	 5.76700734837231E-02 
1301	 5.13809389182791E-02 
1302	 5.08942354097176E-02 
1303	 5.38107863287425E-02 
1304	 4.99527531315685E-02 
1305	 0.050898362267753 
1306	 5.22360613205536E-02 
1307	 5.61922940048226E-02 
1308	 0.054953656710867 
1309	 5.19393815497939E-02 
1310	 5.20769052109061E-02 
1311	 5.08912625665082E-02 
1312	 4.74156993796812E-02 
1313	 4.31794112341755E-02 
1314	 4.46997059783463E-02 
1315	 4.77212060334189E-02 
1316	 4.62592407949282E-02 
1317	 5.09687944241558E-02 
1318	 5.43825899891107E-02 
1319	 4.60402350798273E-02 
1320	 4.59402606570678E-02 
1321	 6.45871349661268E-02 
1322	 6.01013454289452E-02 
1323	 0.047868821999451 
1324	 5.18101695941941E-02 
1325	 0.052379961306254 
1326	 5.48165959393829E-02 
1327	 5.22235523310722E-02 
1328	 5.28960695845862E-02 
1329	 4.86091076862064E-02 
1330	 0.035490348133458 
1331	 5.68550724796554E-02 
1332	 7.09172491338187E-02 
1333	 5.22101158642569E-02 
1334	 4.73501336309188E-02 
1335	 4.68662200375689E-02 
1336	 3.36652810926411E-02 
1337	 3.24415804177385E-02 
1338	 5.09167231450159E-02 
1339	 6.54985938549898E-02 
1340	 9.44561352580458E-02 
1341	 8.50718782041117E-02 
1342	 6.54977061757449E-02 
1343	 5.57267832856226E-02 
1344	-5.19552746588037E-02 
1345	-8.84961754331981E-02 
1346	 3.03657153683039E-02 
1347	 2.33313108555505E-02 
1348	-0.16302438509333 
1349	-0.153137343537601 
1350	-4.71890308631811E-02 
1351	-8.11219522951973E-02 
1352	 0.22529038906543 
1353	 0.378674931143408 
1354	 6.65791378242575E-02 
1355	-0.331054617340019 
1356	 1.67778380192081 
1357	 1.02869561789078 
1358	 1.78054000467073 
1359	-0.433512650345917 
1360	-0.749146382423993 
1361	-0.424347640731886 
1362	-7.10162614714045E-02 
1363	-0.902176235948566 
1364	-1.8974321653705 
1365	-0.270482016391204 
1366	-0.971842912248277 
1367	-28.8497134852281 
1368	 13.6347700618553 
1369	 0.447225185171114 
1370	 0.362506784464812 
1371	-8.15041229069992E-02 
1372	 0.136541968786476 
1373	-8.86741050670548 
1374	-60.2452102033902 
1375	 1.07521170803416 
1376	 5.12261990834805 
1377	-0.908631421037427 
1378	 0.385733564722107 
1379	 0.979683461831946 
1380	 0.828253687802641 
1381	 4.48403865257478 
1382	 7.30752759569782 
1383	 1.11538887313574 
1384	 0.758971635535031 
1385	 1.00419657699887 
1386	 1.27972881282249 
1387	 6.316121653801 
1388	 6.67466951856103 
1389	-0.886670254199579 
1390	-1.46915304932062 
1391	-6.62325916662861 
1392	-2.83900806405417 
1393	-0.242038195413102 
1394	-3.70981086029095 
1395	-0.355553099096324 
1396	 0.345568489427769 
1397	 0.432761838128177 
1398	 0.240115685688301 
1399	-0.701954427538769 
1400	 0.990345821910609 
1401	 1.79766892965909 
1402	 0.876525193230396 
1403	-0.174536632860107 
1404	-0.968736749967816 
1405	-1.02370704302404 
1406	-1.67092246824022 
1407	-2.11665709003682 
1408	 1.5737754327818 
1409	 1.76418839506459 
1410	 2.18814399504005 
1411	 1.52178578306277 
1412	 0.765024538817467 
1413	 3.29425459749972 
1414	-2.65945220992022 
1415	-4.64179755760171 
1416	 2.53421595292085 
1417	 2.00037730741293 
1418	 0.715347881787449 
1419	 0.451682685966743 
1420	 1.0057598590795 
1421	 1.38678593399199 
1422	-0.42508197914257 
1423	-2.43173638792853 
1424	 9.63680261282775E-02 
1425	-0.251495305361035 
1426	 3.71252224372436 
1427	 1.79467742357002 
1428	 2.08523114335372 
1429	 1.73140213778527 
1430	 0.87191830137316 
1431	 0.342815047799668 
1432	-1.72104528499447 
1433	-2.69840724335301 
1434	-0.801629560603505 
1435	-0.661234169013688 
1436	-4.9683141701212 
1437	-2.39452445935566 
1438	-0.628859882620638 
1439	-0.182362920178554 
1440	 16.1626876160734 
1441	-33.2444686018236 
1442	 1.79815591911238 
1443	 1.90115020997218 
1444	 0.693661481591496 
1445	 0.267595744058893 
1446	 0.523625765002238 
1447	 8.92984352251125E-02 
1448	 1.34120870264231 
1449	 2.99011512639489 
1450	-2.50617520126207 
1451	-1.03753627897945 
1452	 10.5942340928571 
1453	 0.548131560701451 
1454	 0.238660873559388 
1455	 39.8634639956272 
1456	 0.696685917702738 
1457	 6.48668052380259E-02 
1458	 7.52530585764558E-02 
1459	 0.491349347611318 
1460	 0.329698442997739 
1461	-5.73256902011692E-02 
1462	 0.029959714774112 
1463	 1.62903182419466 
1464	 1.39712046534997 
1465	 2.20548735053889 
1466	 5.75289237722961 
1467	 0.792391046403623 
1468	 0.575585544536443 
1469	-1.94183330312016 
1470	-0.500118323721626 
1471	-8.50512442721568 
1472	-3.53134343910727 
1473	 63.3237658612541 
1474	-1.41393053038471 
1475	-2.34773206048505E-02 
1476	 0.165823119550495 
1477	 0.388712018899504 
1478	 0.4031355273981 
1479	 0.769245527514484 
1480	-36.6209540773706 
1481	-2.58859151859131E-02 
1482	 4.77421216780251 
1483	 4.19098369011404 
1484	-5.19971442364354 
1485	 0.451580742865741 
1486	-4.58075100000335E-02 
1487	-0.205783537572829 
1488	-0.193760729800519 
1489	-1.36291449678741 
1490	-1.13603566007449 
1491	-0.170192048552625 
1492	 5.6011540154051E-03 
1493	 0.211287466010448 
1494	 0.175713646354545 
1495	-0.150953479370625 
1496	-0.16621257203887 
1497	-0.039971872337313 
1498	-9.01203702357514E-02 
1499	-0.137622848036125 
1500	-8.61984093333665E-02 
1501	-5.96280595560064E-02 
1502	-0.076551375570291 
1503	-7.07988014201002E-02 
1504	-5.83545927666466E-03 
1505	 8.15303224326736E-02 
1506	 9.35490369139467E-02 
1507	-7.65942253961476E-04 
1508	-3.17596120015457E-02 
1509	-8.15696375301761E-02 
1510	-0.116483524787298 
1511	-4.54226813342626E-02 
1512	-1.95913147920701E-02 
1513	-1.48201816459595E-02 
1514	-1.30954928150581E-02 
1515	-2.30405850022495E-02 
1516	 3.92610733790336E-02 
1517	 8.74968722890595E-02 
1518	 8.17688269053045E-02 
1519	 0.115361104738368 
1520	 0.132908577910093 
1521	 8.11852097567113E-02 
1522	 5.50362708271116E-02 
1523	 8.84223553840181E-02 
1524	 9.03801895087015E-02 
1525	 1.94879822087534E-02 
1526	-5.42842160456306E-03 
1527	 0.027628530772291 
1528	-6.13524339522986E-03 
1529	-3.60353622567827E-02 
1530	-2.43165591406659E-02 
1531	-5.30384353403019E-02 
1532	-8.09164533606517E-02 
1533	-4.12678812167896E-02 
1534	 1.09704088178496E-03 
1535	-5.18117991162149E-03 
1536	-2.51927022053982E-02 
1537	-1.58883530066743E-02 
1538	 8.64040390820502E-03 
1539	-6.10950940441333E-03 
1540	-0.014894626033422 
1541	 7.33358116492134E-03 
1542	 1.55927983669643E-02 
1543	 4.06104969354394E-03 
1544	-1.61969012675584E-03 
1545	 1.07685913339908E-02 
1546	-4.16834356336612E-03 
1547	 5.86669624545142E-03 
1548	 5.64083539722547E-02 
1549	 0.041667584885408 
1550	 2.29672830907774E-02 
1551	 4.17681759048416E-02 
1552	 3.07520900278138E-02 
1553	 2.32147814843498E-02 
1554	 4.12190577673876E-02 
1555	 5.01247606550978E-02 
1556	 3.17947360267909E-02 
1557	 1.27220397566902E-02 
1558	 2.29889465244981E-02 
1559	 2.08767770108393E-02 
1560	 9.90382758412675E-04 
1561	 2.16146693013484E-03 
1562	 4.04106758794499E-03 
1563	 1.73594248260072E-02 
1564	 5.58069218014869E-02 
1565	 6.76070159584458E-02 
1566	 3.96322133284665E-02 
1567	 1.15445864899999E-02 
1568	 9.70717043555293E-03 
1569	 1.72088952273863E-02 
1570	 2.64879430796816E-02 
1571	 7.07675819917118E-02 
1572	 9.02376918042088E-02 
1573	 5.38533727761679E-02 
1574	 5.28064242969535E-02 
1575	 6.20869824403611E-02 
1576	 3.64128047185863E-02 
1577	 3.46611451675192E-02 
1578	 0.048878110177516 
1579	 3.84295465789083E-02 
1580	 3.88212373670946E-02 
1581	 4.55308771666607E-02 
1582	 3.93572497688964E-02 
1583	 4.61704037519833E-02 
1584	 4.74678957744122E-02 
1585	 4.15606499407521E-02 
1586	 4.14876845217828E-02 
1587	 3.50096254298778E-02 
1588	 2.74372827224375E-02 
1589	 3.05166889619046E-02 
1590	 5.14051994351751E-02 
1591	 6.78870349140337E-02 
1592	 5.26324766959026E-02 
1593	 2.83852349462535E-02 
1594	 2.68139449764656E-02 
1595	 4.19633143308091E-02 
1596	 5.29522589407812E-02 
1597	 4.70539057997519E-02 
1598	 4.55768878837025E-02 
1599	 3.91249605832951E-02 
1600	 1.68395085027507E-02 
1601	 2.45637998236957E-02 
1602	 0.039217313689037 
1603	 4.31477230649218E-02 
1604	 5.77377998862632E-02 
1605	 7.37072495000655E-02 
1606	 7.84664199642774E-02 
1607	 0.060384857718726 
1608	 5.28120794836182E-02 
1609	 0.057391804049327 
1610	 4.92903326386239E-02 
1611	 4.75829305434549E-02 
1612	 4.63588166976807E-02 
1613	 3.89996599385446E-02 
1614	 4.29962883787969E-02 
1615	 4.59137777849187E-02 
1616	 4.40843926311134E-02 
1617	 6.29259000073427E-02 
1618	 6.38504917811006E-02 
1619	 4.78794709973893E-02 
1620	 6.08137700303849E-02 
1621	 6.42704329938097E-02 
1622	 6.03827505786601E-02 
1623	 7.51057497220193E-02 
1624	 6.06903651665702E-02 
1625	 1.36348788076029E-02 
1626	 7.63157525759669E-04 
1627	 1.44955539447021E-02 
1628	 0.029481261413922 
1629	 4.98279319465825E-02 
1630	 4.75869647709561E-02 
1631	 3.86109988572854E-02 
1632	 4.95271705328386E-02 
1633	 5.53248069912955E-02 
1634	 3.70748666920735E-02 
1635	 1.60359235218831E-02 
1636	 1.52791295799288E-02 
1637	 2.57535149302966E-02 
1638	 3.53999356425381E-02 
1639	 4.67896634419331E-02 
1640	 3.37408435420096E-02 
1641	-5.75269053775918E-04 
1642	 1.00204508847061E-02 
1643	 4.26903376573628E-02 
1644	 3.79808186837745E-02 
1645	 3.80671858259667E-02 
1646	 5.25510484839606E-02 
1647	 3.87508904805513E-02 
1648	 2.54343069915968E-02 
1649	 3.49554461812763E-02 
1650	 0.037573368785916 
1651	 3.70169292710044E-02 
1652	 4.30830254328592E-02 
1653	 2.36264189249302E-02 
1654	 1.88302734863627E-02 
1655	 2.32644917006463E-02 
1656	 2.23250695942436E-02 
1657	 2.34223260715117E-02 
1658	 2.77277062116517E-02 
1659	 2.94087586181213E-02 
1660	 2.56660608581965E-02 
1661	 2.60821441665703E-02 
1662	 2.65992297270885E-02 
1663	 1.88098630430605E-02 
1664	 0.023087542857419 
1665	 4.18369538836338E-02 
1666	 3.73261628792787E-02 
1667	 0.020581170679527 
1668	 3.00036587758812E-02 
1669	 0.023861373971002 
1670	 0.035988143872228 
1671	 4.87307818677395E-02 
1672	 3.88682786993253E-02 
1673	 3.60363891676943E-02 
1674	 4.03237579055801E-02 
1675	 4.07306117104393E-02 
1676	 4.50260674641239E-02 
1677	 5.58138656826482E-02 
1678	 5.95254894633196E-02 
1679	 6.21302891416966E-02 
1680	 7.15369195770404E-02 
1681	 6.00266977191732E-02 
1682	 5.38119009511902E-02 
1683	 7.08245637423975E-02 
1684	 6.93535452868978E-02 
1685	 6.17598412677528E-02 
1686	 6.73189054785409E-02 
1687	 5.98572091623621E-02 
1688	 3.82542724810149E-02 
1689	 4.90486235351146E-02 
1690	 0.071692417114577 
1691	 6.16845213617861E-02 
1692	 4.84376896670751E-02 
1693	 4.84877077900616E-02 
1694	 3.97010359407616E-02 
1695	 3.77775506924787E-02 
1696	 5.74215223780288E-02 
1697	 5.21871542294872E-02 
1698	 3.14907429034534E-02 
1699	 3.63887990092751E-02 
1700	 4.82383867764319E-02 
1701	 5.95813255012416E-02 
1702	 6.82780780445816E-02 
1703	 5.89932841639187E-02 
1704	 4.91484960844338E-02 
1705	 6.61182518311096E-02 
1706	 7.50277784156929E-02 
1707	 6.31419594001444E-02 
1708	 0.066841156129834 
1709	 6.04127604510468E-02 
1710	 5.30170504133332E-02 
1711	 6.13437002851813E-02 
1712	 4.90090151100053E-02 
1713	 3.06251257091912E-02 
1714	 3.18819885195392E-02 
1715	 6.58932346781743E-02 
1716	 6.60282890373572E-02 
1717	 6.31995137189293E-02 
1718	 0.048424520122376 
1719	 4.50304699955545E-02 
1720	 4.97627469731613E-02 
1721	 2.12206631701414E-02 
1722	-9.65591794989779E-03 
1723	-1.55311427448169E-02 
1724	-7.21411653354086E-04 
1725	 1.95072099937827E-02 
1726	 0.043837705915195 
1727	 5.75593387158381E-02 
1728	 0.053462216467486 
1729	 6.87378793522579E-02 
1730	 0.072016314196169 
1731	 5.18478855063418E-02 
1732	 4.33181447485041E-02 
1733	 3.40005713375798E-02 
1734	 4.27900686987639E-02 
1735	 6.04017858191407E-02 
1736	 5.95610980018932E-02 
1737	 4.85841115781702E-02 
1738	 4.86966764490452E-02 
1739	 6.39372395990598E-02 
1740	 6.55537791554603E-02 
1741	 7.26896787277755E-02 
1742	 0.064376286088097 
1743	 3.11205059795346E-02 
1744	 4.30309281628744E-02 
1745	 6.01687450141622E-02 
1746	 6.59335705093728E-02 
1747	 6.38118616740788E-02 
1748	 1.37931190254426E-02 
1749	 5.39614151784923E-05 
1750	 1.92961666475687E-02 
1751	 3.06383976619103E-02 
1752	 0.069678945517856 
1753	 0.082078583959511 
1754	 5.74275464785338E-02 
1755	 5.74182204979129E-02 
1756	 5.96483538848526E-02 
1757	 8.30343845059175E-02 
1758	 0.101101080917293 
1759	 0.090959585027429 
1760	 0.102281564851935 
1761	 0.121907408821783 
1762	 0.153211482671262 
1763	 0.134796106334128 
1764	 6.96345797260284E-02 
1765	 3.24328631360519E-02 
1766	 1.20042330931192E-02 
1767	 6.31704266883196E-02 
1768	 0.150830103232019 
1769	 0.162065794217269 
1770	 0.119849450639558 
1771	 8.99009882637165E-02 
1772	 0.106470519081079 
1773	 0.203875156251776 
1774	 0.246642525943961 
1775	 9.04863431320053E-02 
1776	 0.061957488078953 
1777	 3.19314319330581E-03 
1778	-0.030721169391646 
1779	 0.134663332480936 
1780	 0.185686455748429 
1781	 4.32771384770478E-02 
1782	-3.04385820370686E-02 
1783	-0.104449714331803 
1784	-0.11295182128761 
1785	-5.69570937434635E-02 
1786	 1.38368316269098E-02 
1787	 0.226995636387114 
1788	 0.209876924314314 
1789	 3.51008890429052E-02 
1790	-0.113213576452585 
1791	-0.141424493009115 
1792	-8.96561780770283E-02 
1793	-0.306630287215604 
1794	-8.25883560388019E-02 
1795	 0.355773118785606 
1796	 2.99900249454024E-02 
1797	-1.42004088741312E-03 
1798	-1.18513595539886 
1799	-20.5943801427017 
1800	 0.273414903952652 
1801	 0.788179567741722 
1802	 0.896078040693882 
1803	 1.0292740376953 
1804	 0.605652248611339 
1805	-1.13780922642709 
1806	-10.7979425550289 
1807	-166.303227350235 
1808	-1.36630650158122 
1809	-1.63775007744223 
1810	 0.427790082865777 
1811	-6.51842729408799E-02 
1812	-0.453209873476325 
1813	-0.753307141581741 
1814	 0.830286848936956 
1815	 0.264604265429914 
1816	-0.356347382277008 
1817	-0.766030302105755 
1818	-1.23341338017079 
1819	-2.81916752675827 
1820	 18.2299338191594 
1821	-1.02978781676745 
1822	-0.203015843462563 
1823	 0.534779018928039 
1824	 0.841848185428415 
1825	 0.153201173584996 
1826	 0.50713034678805 
1827	 1.38791881426376 
1828	 2.47384195354701 
1829	-1.03257211639976 
1830	-0.478435964322247 
1831	-6.14849221733705 
1832	-12.9355240412641 
1833	 3.09054691988492 
1834	 2.65091504298203 
1835	 2.53195770105851 
1836	 13.5276054780347 
1837	-0.667761626580358 
1838	-0.650660797896431 
1839	-0.921002466838794 
1840	 4.68649947519207 
1841	-0.526945001733385 
1842	 0.783152281643561 
1843	 0.674063732900519 
1844	 1.04851303944619 
1845	 1.03317843575336 
1846	 8.69342140952467E-02 
1847	-5.71114768453111E-02 
1848	-0.61977874732614 
1849	-0.658591547140586 
1850	 0.478755007099426 
1851	 2.58656570918346 
1852	-3.40918455762452 
1853	-1.08452424000911 
1854	-0.989278268293747 
1855	-1.28005765492162 
1856	-0.888661039315191 
1857	-0.284129309233929 
1858	-0.110349231590852 
1859	 0.208214566056023 
1860	 0.448836059243427 
1861	 0.232501493342366 
1862	 0.164217932218086 
1863	 0.262675852068665 
1864	 0.12618894139949 
1865	 0.155871657113364 
1866	 0.59166290995816 
1867	 0.827403333704944 
1868	 1.84978531181719 
1869	-2.80529447654408 
1870	-0.875029885012837 
1871	-0.839901956398928 
1872	-1.08627540449498 
1873	-0.562068343078119 
1874	-0.622276046679339 
1875	-1.12228464016214 
1876	-1.19307467577148 
1877	-1.34634850686046 
1878	-0.873267193877057 
1879	 0.287584616594131 
1880	 0.768166207666432 
1881	 1.61920441099568 
1882	 2.93806554391498 
1883	 4.01383003036797 
1884	-1.51670508897293 
1885	-1.20457440516045 
1886	-2.24124546211127 
1887	 1.84309087551718 
1888	 0.730672547604808 
1889	 0.674188426924113 
1890	 0.480157332144452 
1891	 0.510244988167999 
1892	 0.945614667771776 
1893	 2.72756850456397 
1894	 3.91852353778682 
1895	-2.16138202360261 
1896	-0.386482883796205 
1897	-0.140031313351705 
1898	-0.292203968921583 
1899	-0.695472194675732 
1900	-0.782372728091162 
1901	-0.643685383529575 
1902	-0.878661273663995 
1903	-0.901564103523514 
1904	-1.47150834857341 
1905	-2.47446439358139 
1906	 5.46615785541303 
1907	 0.865927501380625 
1908	 0.268072163431759 
1909	 0.195203931106638 
1910	 0.670128190769978 
1911	 1.5618730610219 
1912	-1.42859892853392 
1913	-0.44111346140519 
1914	-4.65065566148979E-02 
1915	 6.98623025007501E-02 
1916	-0.194445846713259 
1917	 0.592221540027116 
1918	 3.59072540502444 
1919	 20.1071693135103 
1920	-6.45969767517604 
1921	-1.01627926755414 
1922	-0.827249195235475 
1923	-0.809130124802509 
1924	-0.391750996537924 
1925	-0.116490717114806 
1926	-0.14323557384467 
1927	-0.420601523690866 
1928	-0.496604032244202 
1929	-1.04347939753908 
1930	-4.55168098246042 
1931	-0.699523497837148 
1932	 0.408492193547217 
1933	 0.450629358163485 
1934	 0.242153738646521 
1935	-2.92383328451469 
1936	 0.245909677601736 
1937	 0.442945498190348 
1938	 1.04859757304993 
1939	 1.41238521308011 
1940	 2.71285028152138 
1941	 1.54575520272083 
1942	 0.892137424738014 
1943	 0.035619234227798 
1944	-0.426488545360475 
1945	-0.279982589488031 
1946	-0.187319267734675 
1947	 0.249438432515848 
1948	-0.178561342776712 
1949	-0.745335122545926 
1950	-2.6438782553125 
1951	 5.91327968196788 
1952	 2.90207825140204 
1953	 1.82648495730095 
1954	 0.681346829536945 
1955	-9.51537751007504E-03 
1956	-1.1739743745434 
1957	-1.59301886332563 
1958	-2.84789577962284 
1959	 8.86902155876899 
1960	 4.26020695553107 
1961	 1.35339973060486 
1962	 0.351136557521932 
1963	 0.238454797212384 
1964	-0.383335328180952 
1965	 1.62238207311429 
1966	 3.76086364005209 
1967	 33.5483030526424 
1968	-8.30324356559116 
1969	-5.5016038217367 
1970	-6.82833348838552 
1971	 1.50533457438312 
1972	-2.39082452827941 
1973	-2.48364670811949 
1974	-3.44913963265135 
1975	-8.72389277747312 
1976	-2.87355028567526 
1977	-4.7045900883054 
1978	-0.299117559694426 
1979	 0.894217618638749 
1980	 1.16152523651644 
1981	 24.2341181671596 
1982	 4.53717412199717 
1983	 1.68584613921425 
1984	 1.73809627570992 
1985	 1.46859951784837 
1986	 1.94084578253452 
1987	 2.26600155679659 
1988	 2.06504089785765 
1989	 1.30837939632145 
1990	 0.847291388313885 
1991	 0.915050554300531 
1992	 0.945582628428571 
1993	 0.70803608017297 
1994	 0.731043527961984 
1995	 0.871204992638185 
1996	 1.78805382303905 
1997	-54.632893635343 
1998	-1.60753037910587 
1999	-1.35185805394594 
2000	-0.491061787845294 
2001	-0.158180235437599 
2002	 0.404582689998959 
2003	 1.1706176657601 
2004	 1.02051667793059 
2005	 16.3052165067414 
2006	-61.7737437265599 
2007	-4.51661267121568 
2008	-41.3525165135923 
2009	 13.44868146577 
2010	-0.172639688698952 
2011	-1.41233807450666 
2012	-1.79067100289659 
2013	 2.1918470357079 
2014	 0.775146109617781 
2015	 0.252052966110018 
2016	-0.157465211171676 
2017	-0.338690890347173 
2018	-0.981678953586754 
2019	-1.46453552982511 
2020	-4.87934110431517 
2021	 2.01155143494278 
2022	-2.42531384776358 
2023	-0.476760963080735 
2024	-0.259535981163407 
2025	-3.08207544187129E-02 
2026	-0.110450516850134 
2027	-0.803688766140165 
2028	 0.597667675918588 
2029	 0.231109460827642 
2030	 0.388730836576521 
2031	-25.0256159677244 
2032	 1.02273446988648 
2033	 0.321370461824844 
2034	 0.297882063096887 
2035	-0.371463460465642 
2036	-3.10666223043116 
2037	-1.47002257168178 
2038	-1.18504956964531 
2039	-0.868979670470657 
2040	-0.485864228295186 
2041	-0.164616129574845 
2042	 8.40251020141189E-02 
2043	 0.434168492613798 
2044	 0.650595061713637 
2045	 0.789950510710967 
2046	 1.1831820914789 
2047	 1.44267403923525 
2048	 2.21852118896343 
2049	-2.79156429030527 
2050	-1.8261414936562 
2051	 10.7100696384261 
2052	 2.7147525563958 
2053	 0.745955333251533 
2054	 0.856017576779819 
2055	 1.03162350452205 
2056	 1.47315393702915 
2057	 5.07055310793349 
2058	 5.32944518886007 
2059	 3.11122527321401 
2060	 3.04964681367843 
2061	 2.17888144057749 
2062	 1.39663240865814 
2063	 2.35549662987299 
2064	 1.28537106340564 
2065	 0.180038103098161 
2066	 4.77282223285749E-02 
2067	 0.183657956427745 
2068	 0.596052414739003 
2069	 0.894968650405514 
2070	 1.03514272421807 
2071	 0.806033834430153 
2072	 0.390780161447662 
2073	 0.399417072252006 
2074	 1.67478316623066 
2075	 2.34260804376369 
2076	 2.66421861302192 
2077	 1.96836129388159 
2078	 0.294588612004916 
2079	 0.177697720882302 
2080	-5.64629820387867E-02 
2081	 0.347933699096037 
2082	 3.27375280617421 
2083	 44.6328470108286 
2084	 1.36183515960683 
2085	 0.730483589238409 
2086	 0.637494239279897 
2087	 0.642355458364489 
2088	 0.42337789423353 
2089	 6.08746585011605 
2090	 0.97275549441073 
2091	 1.03238783863438 
2092	 1.58298411492556 
2093	-2.75505220037156 
2094	-1.13323279321637 
2095	-1.20242268998805 
2096	-1.03900977530643 
2097	-0.33097684599632 
2098	 0.127573140398118 
2099	 1.41543645447436 
2100	 7.17845497878585 
2101	 3.31259012755773 
2102	 0.723775720242759 
2103	 9.67117800863306E-02 
2104	 2.92036130952479E-02 
2105	-3.42525022962702E-02 
2106	-4.03601940142299E-02 
2107	 2.36824697206363E-02 
2108	-4.28873994273538E-02 
2109	-0.425166301370365 
2110	-0.433253273157984 
2111	-0.370348994473726 
2112	-0.718158595836597 
2113	-0.573454488375494 
2114	 6.65558630645373E-03 
2115	 7.25741115371608E-02 
2116	-0.066410174291246 
2117	-1.74637378378614E-02 
2118	 7.45801169147849E-02 
2119	 0.132389748640635 
2120	 0.231170050096143 
2121	 0.327040524573599 
2122	 0.259689204886278 
2123	 0.333170240345665 
2124	 0.288170017697276 
2125	 7.44786091810251E-02 
2126	-2.43758131501935E-02 
2127	-0.128117082155578 
2128	-1.71262863894788E-02 
2129	 7.02083330125792E-02 
2130	 6.04373568225862E-02 
2131	 0.170623857804773 
2132	 0.151814644985338 
2133	 0.17383752126523 
2134	 0.186215809425725 
2135	 0.182065844866895 
2136	 0.199072533843207 
2137	 0.231109054220302 
2138	 0.22633288646003 
2139	 0.235748078165526 
2140	 0.268491876823679 
2141	 0.254199588324651 
2142	 0.279674510501947 
2143	 0.373939167582386 
2144	 0.452597561934133 
2145	 0.460055380286512 
2146	 0.569725586515808 
2147	 0.595043079107445 
2148	 0.661303855142209 
2149	 0.625585225126837 
2150	 0.586225562580726 
2151	 0.63767690339311 
2152	 0.627707891837399 
2153	 0.674248073807749 
2154	 0.659649312138566 
2155	 0.605270604963984 
2156	 0.570086939503801 
2157	 0.507998697213537 
2158	 0.455738454612195 
2159	 0.391622881011495 
2160	 0.350425479413346 
2161	 0.307054850591099 
2162	 0.260373123359125 
2163	 0.175596169555136 
2164	 0.102353982661053 
2165	 2.07905191307161E-02 
2166	-0.118166289771159 
2167	-0.153916180011573 
2168	-0.150413372328122 
2169	-0.186047810512162 
2170	-0.295102134303687 
2171	-0.161433368860384 
2172	-3.50437579505062E-02 
2173	 7.44898026694952E-03 
2174	 9.44017555769026E-02 
2175	 1.80727925338301E-03 
2176	-0.226905279708802 
2177	-0.179104719103062 
2178	-0.112313017283385 
2179	-7.49220685868727E-02 
2180	 5.35212124703793E-02 
2181	-8.67015819339287E-02 
2182	-0.314010780659726 
2183	-0.473793668207435 
2184	-0.508216996677707 
2185	-0.372108863860641 
2186	-0.240016564648341 
2187	 0.149528649972897 
2188	 0.294312106958239 
2189	 0.402103988444442 
2190	 0.454135127024817 
2191	 0.268930664075444 
2192	 0.210983334483921 
2193	 0.255304607184531 
2194	 0.167677018423091 
2195	-1.41515277671792E-02 
2196	-3.28174641169991E-02 
2197	-1.27337071681974E-02 
2198	-6.26174784575071E-02 
2199	-1.08483192948341E-02 
2200	-8.85326809417259E-02 
2201	-0.347180833878106 
2202	-0.483831237049609 
2203	-0.636570976358064 
2204	-0.40001190767039 
2205	-3.73706436088101E-02 
2206	 5.86791084928091E-02 
2207	 0.124739894773598 
2208	 0.148209046602736 
2209	 0.180253383320706 
2210	 0.170534055419489 
2211	 9.10059454482067E-02 
2212	-6.94722401522041E-02 
2213	-0.164352264444369 
2214	-0.307553649906397 
2215	-0.259738568494119 
2216	-0.169566431203937 
2217	-0.16226547626858 
2218	-0.143860236896678 
2219	-0.156245947069431 
2220	-0.246014401861956 
2221	-0.239707534453293 
2222	-0.235943588683753 
2223	-0.208128607024233 
2224	-8.97449023179117E-02 
2225	-3.38492082723516E-02 
2226	 9.7894505171487E-03 
2227	 7.54652843226931E-02 
2228	 0.171659370336869 
2229	 0.198507324355368 
2230	 0.191862887429779 
2231	 0.202839933870116 
2232	 0.123351353017324 
2233	 6.65300243679194E-02 
2234	 9.72555063549405E-02 
2235	-2.42028524144028E-02 
2236	-0.184240765962116 
2237	-0.210160409369712 
2238	-0.089656917311936 
2239	 0.024713612533867 
2240	 0.08737305797704 
2241	 0.249003224807892 
2242	 0.249458452083549 
2243	 0.232980967732592 
2244	 0.360647235427269 
2245	 0.342776324589777 
2246	 0.072284421678985 
2247	-9.46235353751337E-02 
2248	 6.22725270362679E-02 
2249	 8.75396302726904E-02 
2250	 0.226891377810558 
2251	 0.440595523025739 
2252	 0.192654256458393 
2253	-6.56438126904495E-02 
2254	-3.27293626207932E-02 
2255	 0.166366473612044 
2256	 0.248125492417698 
2257	 0.408927680087079 
2258	 0.460081946135865 
2259	 0.187476587091879 
2260	 0.188246594415806 
2261	 0.319313311879796 
2262	 0.373202457681428 
2263	 0.427037849380915 
2264	 0.637829151540159 
2265	 1.18757275613754 
2266	 1.62449632075249 
2267	 2.65053411045503 
2268	 2.82123273843228 
2269	 1.50832254023372 
2270	 1.14780135462644 
2271	 0.983349659659586 
2272	 0.8835419317261 
2273	 0.981472213241236 
2274	 0.866593108100934 
2275	 0.418719840224278 
2276	 0.272145286057346 
2277	 0.263137622006113 
2278	 0.145985960402916 
2279	 5.80060008431165E-02 
2280	 0.167481964824022 
2281	 0.219429955511125 
2282	 0.49744633429035 
2283	 0.622040368726788 
2284	 0.882082980011633 
2285	 2.03671493747056 
2286	 3.64517694020699 
2287	-3.58369513003415 
2288	 428.527457480933 
2289	 0.349273935050663 
2290	-0.236399008616424 
2291	-0.175504163873603 
2292	 0.5688168003734 
2293	 3.83707282127854 
2294	 9.27829555139275 
2295	 16.3196466002646 
2296	 1.44809466238034 
2297	-5.66498289491227E-02 
2298	-0.244770101433164 
2299	-0.285955641951311 
2300	-0.191540025156452 
2301	-0.179946023287496 
2302	-0.482196935847719 
2303	-1.06797778213493 
2304	-1.62364425196689 
2305	-1.14604564344034 
2306	-0.753342911718871 
2307	-0.523676203601687 
2308	-0.238294618473878 
2309	 0.130146669455437 
2310	 0.57373267247642 
2311	 0.787670327322133 
2312	 0.694731452779462 
2313	 0.311828594338782 
2314	-2.60028188728281E-02 
2315	-8.61550328896916E-02 
2316	 8.38338501254702E-03 
2317	 2.49309471161434E-02 
2318	-0.144391310903911 
2319	-9.21803123639872E-02 
2320	-0.183206426702039 
2321	-0.550078656751618 
2322	 0.119067119318423 
2323	 1.33197821343677 
2324	 1.06790541509497 
2325	 0.8776438657711 
2326	 1.01758621479809 
2327	 0.93312189770148 
2328	 0.194443142614968 
2329	-0.30037590359842 
2330	-0.548037100041675 
2331	-0.566708152102353 
2332	-0.559715770358602 
2333	-0.925665527584421 
2334	-0.206821189269746 
2335	 0.103714917367335 
2336	-0.140669523860154 
2337	 0.280932331021302 
2338	-0.536153271111411 
2339	-0.762996634807192 
2340	-0.585899205595113 
2341	-0.960300467459153 
2342	-0.90701666655659 
2343	-1.49545237910334 
2344	-2.94731049357065 
2345	-9.32815745830126 
2346	 0.910983768598604 
2347	 1.01350492742458 
2348	 3.30077043250318 
2349	 4.72233848922237 
2350	-3.66018728594751 
2351	-1.04492906940312 
2352	 0.275191746675374 
2353	 0.545687498039489 
2354	 0.235550044684203 
2355	 0.599347744370777 
2356	 0.202982477830136 
2357	 21.9523964059137 
2358	 0.994459654865161 
2359	 0.835789327710263 
2360	-0.251585186937433 
2361	 4.3674994323234 
2362	 0.191918334069234 
2363	-9.68205407173675E-02 
2364	-0.531220548773302 
2365	-0.90387030635869 
2366	-0.284058139397687 
2367	-11.1316529460916 
2368	-0.730190047099936 
2369	-0.410991914103814 
2370	-7.46112754271877E-02 
2371	-2.87492317116077E-02 
2372	-0.198451965505654 
2373	-0.298526087948012 
2374	 3.74985857306799E-02 
2375	 0.459123668820685 
2376	 0.988126672026667 
2377	 1.0207815498654 
2378	-2.97787653743475E-02 
2379	 0.55222756234928 
2380	 0.511558008589203 
2381	 0.169827841374421 
2382	-0.840315223498167 
2383	 5.58238544485836 
2384	 3.75774647902738 
2385	 2.34304082528909 
2386	 1.30109661590178 
2387	-1.2836078495803 
2388	-7.57649255202286 
2389	 2.97125739788302 
2390	 0.190465894509702 
2391	-0.304397291165536 
2392	-2.06148590915785 
2393	 8.35955324972066 
2394	 5.27677094010581 
2395	 13.8645147132714 
2396	-7.76410281521583 
2397	-1.91127566932673 
2398	-2.15875304265913 
2399	-2.25435419392356 
2400	-2.13445891061998 
2401	 4.97976672509095E-03 
2402	-0.191748571628302 
2403	-0.399132512813434 
2404	-0.546609235143211 
2405	-1.70081312883535 
2406	-0.657160755769828 
2407	 0.282106808159903 
2408	 1.92298077195091 
2409	-0.721218540488289 
2410	-0.539859985389867 
2411	-1.82301390407659 
2412	-1.35435009675947 
2413	-0.894110939889614 
2414	-1.02993987379916 
2415	-1.02116867608614 
2416	-1.05725836267025 
2417	-1.52323890433815 
2418	-2.23937858079783 
2419	 0.232396656684833 
2420	 3.72191145591169 
2421	-1.32256907529801 
2422	-0.52409139914436 
2423	 7.02878923014037E-02 
2424	 0.41128181789891 
2425	 0.264266975327361 
2426	 0.987117725538116 
2427	-1.99086001062988 
2428	-0.378603498940862 
2429	 6.53650297060061E-03 
2430	 0.169719381794726 
2431	 0.627260145898709 
2432	 0.936265798161584 
2433	 0.93184317180425 
2434	 0.605203624852455 
2435	-0.355684707193602 
2436	 185.007985303896 
2437	 2.25206939651794 
2438	 1.32814005973036 
2439	 0.804329767440075 
2440	 0.431270658863651 
2441	 0.359393080233906 
2442	-1.92297433392995 
2443	-0.881581493914522 
2444	 4.5521202983322 
2445	 1.78069686374704 
2446	 1.17058855516143 
2447	 1.29327231485761 
2448	 1.36440559798096 
2449	 3.82942192231711 
2450	 6.93740705946041 
2451	 2.01507071454209 
2452	-4.1936417721726 
2453	-0.136075932140187 
2454	 0.484016007760656 
2455	 1.02822605902422 
2456	 5.57374167686132 
2457	-0.108054889522934 
2458	 0.718110345213367 
2459	 1.05695058433538 
2460	 0.443253113732334 
2461	 3.33393430028892 
2462	 72.1044538596327 
2463	 8.65351080329327 
2464	-0.129418335654507 
2465	 7.48148191663462 
2466	 2.58085076367782 
2467	 2.215802212567 
2468	-1.45983598731945 
2469	-1.16612179208384 
2470	-0.80742545559858 
2471	-1.19066598919959 
2472	-3.36881873939411 
2473	 2.70446789863157 
2474	 1.97781722250707 
2475	 1.6352935672246 
2476	 0.280684675160148 
2477	 0.564231161296312 
2478	 1.41483701268264 
2479	 2.52148055037159 
2480	 4.3688208842939 
2481	 3.87177358960672 
2482	-0.802653919991269 
2483	-0.989692576844766 
2484	-0.924763085069023 
2485	-0.623130049796308 
2486	-0.77224435764838 
2487	-0.925542673543944 
2488	-0.896987489517412 
2489	 3.69753738403843 
2490	-1.50055345942115E-02 
2491	-0.170098618931068 
2492	-3.53222967362653E-02 
2493	-0.50930092645713 
2494	 9.15898434303091E-02 
2495	 8.63149003082835 
2496	 3.34230161965594 
2497	 6.97371857894636 
2498	 7.19604809488436 
2499	 3.64284616910145 
2500	 8.2694192869669 
