Wavelength	rt0712EAST100003.asd
350	 6.78870146285216E-02 
351	 6.85680287895376E-02 
352	 6.81316799456914E-02 
353	 6.81758610939109E-02 
354	 0.069500869741847 
355	 7.01897958448969E-02 
356	 6.99267235899734E-02 
357	 6.93920172210698E-02 
358	 6.93122687994499E-02 
359	 6.88221070618411E-02 
360	 6.88710915563763E-02 
361	 6.91467531498157E-02 
362	 6.86130272714757E-02 
363	 6.84378075868957E-02 
364	 6.89565065105083E-02 
365	 6.96758922876017E-02 
366	 6.90481718729642E-02 
367	 6.88553334090944E-02 
368	 6.88525919351543E-02 
369	 6.86108735379093E-02 
370	 6.91158194118075E-02 
371	 6.93337829395834E-02 
372	 6.89986917035658E-02 
373	 6.84700252598499E-02 
374	 0.06892424474725 
375	 6.92945389105327E-02 
376	 6.91138251074646E-02 
377	 6.90792546756656E-02 
378	 6.94482634999119E-02 
379	 6.90912271754776E-02 
380	 6.77220977052767E-02 
381	 6.87352531838107E-02 
382	 0.069188355672403 
383	 6.89657732060924E-02 
384	 6.91744792844421E-02 
385	 6.86989399218298E-02 
386	 6.88285307372329E-02 
387	 6.97165832492125E-02 
388	 7.00974844893279E-02 
389	 7.09202590329723E-02 
390	 7.10131307052216E-02 
391	 6.99254306282921E-02 
392	 6.97309237646994E-02 
393	 7.03041903643412E-02 
394	 0.070874930025573 
395	 7.06741847917822E-02 
396	 7.03279299895264E-02 
397	 7.04990586782563E-02 
398	 7.09484691973608E-02 
399	 7.07451661202805E-02 
400	 7.03978604722561E-02 
401	 0.07023269045875 
402	 0.070357263171198 
403	 0.070530559052493 
404	 7.05921219989673E-02 
405	 7.05240143930122E-02 
406	 7.04211573784275E-02 
407	 7.06095859825446E-02 
408	 7.06417369485762E-02 
409	 7.05060552888512E-02 
410	 7.06379508953191E-02 
411	 7.06760540752275E-02 
412	 7.06037284202925E-02 
413	 7.05131973705761E-02 
414	 7.05909135816146E-02 
415	 0.070807131112457 
416	 7.08559733508859E-02 
417	 0.070483227929888 
418	 0.070444899346009 
419	 7.05297587510135E-02 
420	 7.06187699956258E-02 
421	 7.07660413584234E-02 
422	 7.06484598387387E-02 
423	 7.06950479653416E-02 
424	 7.10754110077089E-02 
425	 7.07648188055689E-02 
426	 0.07063853846387 
427	 7.07441836638426E-02 
428	 7.07690480457615E-02 
429	 7.10195104227972E-02 
430	 7.10666395372488E-02 
431	 7.09057230805657E-02 
432	 7.10912606713749E-02 
433	 7.09517119702214E-02 
434	 7.09491941243351E-02 
435	 7.13927486768474E-02 
436	 7.14128714062684E-02 
437	 7.12762231195467E-02 
438	 7.12771152542382E-02 
439	 7.16297769040998E-02 
440	 7.16763298859382E-02 
441	 7.18149835864838E-02 
442	 0.072128569029312 
443	 7.20543302938702E-02 
444	 7.22687556477815E-02 
445	 7.24744102562462E-02 
446	 0.072360465408923 
447	 0.072656654199579 
448	 7.29057456792947E-02 
449	 0.072957054851827 
450	 7.29303172140036E-02 
451	 7.30942586292035E-02 
452	 7.32912698362688E-02 
453	 7.33432539277265E-02 
454	 7.31407887113543E-02 
455	 7.31090204656073E-02 
456	 7.32838803552311E-02 
457	 7.34956514977877E-02 
458	 0.073379025295022 
459	 7.34858805835785E-02 
460	 7.36863114211151E-02 
461	 7.31879401067679E-02 
462	 7.33454019313214E-02 
463	 7.37027856694198E-02 
464	 7.37390151614776E-02 
465	 7.37942201280765E-02 
466	 7.39305596468378E-02 
467	 7.40754853543412E-02 
468	 7.41134275190936E-02 
469	 7.42300490213176E-02 
470	 7.44328007818277E-02 
471	 7.46410195379585E-02 
472	 7.46846513353429E-02 
473	 7.45826109826403E-02 
474	 7.47264991156587E-02 
475	 7.52689067698065E-02 
476	 7.51486003072397E-02 
477	 7.53072363229768E-02 
478	 7.57112439809444E-02 
479	 7.57190279989908E-02 
480	 7.60615075622255E-02 
481	 7.63258917513246E-02 
482	 7.63023629228014E-02 
483	 7.64821547379295E-02 
484	 7.68007944272155E-02 
485	 7.71262712386264E-02 
486	 7.73171856623505E-02 
487	 7.74416401058483E-02 
488	 7.75015938364164E-02 
489	 7.76249860550973E-02 
490	 7.80351577841416E-02 
491	 7.82956157229081E-02 
492	 7.84856642371407E-02 
493	 7.87323469042058E-02 
494	 7.89871809411918E-02 
495	 7.93628550382348E-02 
496	 0.079758494393271 
497	 8.00049152152457E-02 
498	 8.03872912627753E-02 
499	 8.06425531974517E-02 
500	 8.07666942041531E-02 
501	 8.12532429591695E-02 
502	 8.13191729868964E-02 
503	 8.15169575152412E-02 
504	 8.23525619478502E-02 
505	 8.24719473263334E-02 
506	 8.28391186612913E-02 
507	 8.34691390681635E-02 
508	 8.36471243653771E-02 
509	 8.41229408909104E-02 
510	 8.46154200521353E-02 
511	 0.084906635440086 
512	 8.53056604221139E-02 
513	 8.57287074065899E-02 
514	 8.61115078853553E-02 
515	 8.64165886619884E-02 
516	 8.67843459432132E-02 
517	 8.74149923726873E-02 
518	 8.81218557189992E-02 
519	 8.82717934026692E-02 
520	 8.85479172702919E-02 
521	 8.90354254326906E-02 
522	 8.96221722650065E-02 
523	 9.00474752641544E-02 
524	 9.04460665921485E-02 
525	 9.08806007276299E-02 
526	 9.13528525070698E-02 
527	 9.17820618183629E-02 
528	 9.22047552786806E-02 
529	 9.26584239516954E-02 
530	 9.31640970932239E-02 
531	 9.35677912821093E-02 
532	 9.39609581579332E-02 
533	 9.44925620541321E-02 
534	 9.50467779299485E-02 
535	 9.55887571421911E-02 
536	 9.60764993161957E-02 
537	 9.64530740299325E-02 
538	 0.096943512151515 
539	 9.74680990566889E-02 
540	 9.79253335870131E-02 
541	 9.84098060585879E-02 
542	 9.89619121866567E-02 
543	 0.099492822187898 
544	 9.98715816420163E-02 
545	 0.100417021778076 
546	 0.100892965192915 
547	 0.101219454332468 
548	 0.101756578766459 
549	 0.102241424066546 
550	 0.102745375166947 
551	 0.103377320885816 
552	 0.103783284558169 
553	 0.104184635407752 
554	 0.10464980065187 
555	 0.105036453792251 
556	 0.105452134810335 
557	 0.105889267327481 
558	 0.106298991412073 
559	 0.106607788159896 
560	 0.106896999653569 
561	 0.107155343380761 
562	 0.107326354075257 
563	 0.107515068650911 
564	 0.10772724322493 
565	 0.107886667440018 
566	 0.10776005141225 
567	 0.10779666491778 
568	 0.107934970104694 
569	 0.107949473271436 
570	 0.107917520403778 
571	 0.107994559960368 
572	 0.108140038810347 
573	 0.10810370687665 
574	 0.108027565909545 
575	 0.107923981420079 
576	 0.107777208755949 
577	 0.107552906980746 
578	 0.107407386460952 
579	 0.10728359771954 
580	 0.107014105924823 
581	 0.106756676793665 
582	 0.106491945280236 
583	 0.106157922198491 
584	 0.105655497419415 
585	 0.104963373554704 
586	 0.104244821762487 
587	 0.103646919183257 
588	 0.102669998963395 
589	 0.101943768554242 
590	 0.101592795823689 
591	 0.101023057330923 
592	 0.10055720130465 
593	 0.100137223421407 
594	 9.96342421072722E-02 
595	 9.88522620446034E-02 
596	 0.098187399002104 
597	 9.76086479205974E-02 
598	 9.68553781328258E-02 
599	 9.58241663526241E-02 
600	 9.50393536950112E-02 
601	 9.46609360685462E-02 
602	 9.41421755421749E-02 
603	 9.36128313993445E-02 
604	 9.32549091983579E-02 
605	 0.093183555473469 
606	 9.30245670778396E-02 
607	 9.27825254363804E-02 
608	 9.25295028382647E-02 
609	 9.23816154410306E-02 
610	 9.21566153663349E-02 
611	 9.18915143482883E-02 
612	 9.16542164499178E-02 
613	 9.14654842220404E-02 
614	 9.12474806786553E-02 
615	 9.10256008483662E-02 
616	 9.08634084911747E-02 
617	 9.05674168573891E-02 
618	 9.02586690352665E-02 
619	 9.00454849657935E-02 
620	 8.99846831604626E-02 
621	 8.96595452304503E-02 
622	 8.93552395680598E-02 
623	 8.94305613498173E-02 
624	 8.93905092940629E-02 
625	 8.91899833647002E-02 
626	 8.88573937524835E-02 
627	 8.84931173026932E-02 
628	 8.82780646560846E-02 
629	 8.81396983308645E-02 
630	 8.79845236415172E-02 
631	 8.78587772726718E-02 
632	 8.75399001454933E-02 
633	 8.73064163775742E-02 
634	 8.75368894039018E-02 
635	 8.74644745562116E-02 
636	 8.70890145570859E-02 
637	 8.67510468725646E-02 
638	 0.087172127049904 
639	 8.69457993679294E-02 
640	 8.64825163003552E-02 
641	 8.64691516711127E-02 
642	 8.63267844480778E-02 
643	 8.63149500229091E-02 
644	 8.62300968758896E-02 
645	 8.54977870647611E-02 
646	 8.46499504372758E-02 
647	 8.44565077778916E-02 
648	 8.49697881109945E-02 
649	 8.45474963946372E-02 
650	 8.40970857518419E-02 
651	 8.37541901111473E-02 
652	 8.34112282522101E-02 
653	 8.30153804122761E-02 
654	 8.25024180985475E-02 
655	 0.081826887346211 
656	 8.10702614062454E-02 
657	 0.080676066588556 
658	 8.01235486137541E-02 
659	 7.91299465560938E-02 
660	 7.86946762308505E-02 
661	 7.83850274408392E-02 
662	 7.79279270243678E-02 
663	 7.72233839963001E-02 
664	 7.68710202472127E-02 
665	 7.65888317196216E-02 
666	 0.07621832951125 
667	 7.60266402025073E-02 
668	 7.61132745921271E-02 
669	 7.62181207278817E-02 
670	 7.61094428575053E-02 
671	 7.63694294826907E-02 
672	 7.66502787889402E-02 
673	 7.68194857487428E-02 
674	 0.076996435804462 
675	 7.73838985807115E-02 
676	 7.78209079386365E-02 
677	 7.81512352368375E-02 
678	 7.83998445320396E-02 
679	 7.87278310314341E-02 
680	 7.90654402058319E-02 
681	 7.92840601660982E-02 
682	 7.96771238877363E-02 
683	 8.01266702131057E-02 
684	 8.05484635568443E-02 
685	 8.09966012321556E-02 
686	 8.15378236114385E-02 
687	 8.18197559500251E-02 
688	 0.08162714954384 
689	 8.15504498239583E-02 
690	 8.15620760711879E-02 
691	 8.15935654254308E-02 
692	 8.15345815442736E-02 
693	 8.12904235820547E-02 
694	 8.12029180485669E-02 
695	 8.13024906385445E-02 
696	 8.10897113779995E-02 
697	 8.07993880834546E-02 
698	 8.02349953767874E-02 
699	 0.079326656539855 
700	 7.90421563668017E-02 
701	 7.89419358857654E-02 
702	 7.86665846824306E-02 
703	 7.80511742148865E-02 
704	 7.75433683012672E-02 
705	 7.69746121342046E-02 
706	 7.62665551071942E-02 
707	 7.57029293910799E-02 
708	 7.47265732282684E-02 
709	 7.37020280507605E-02 
710	 7.31163501633774E-02 
711	 7.20069223929323E-02 
712	 0.071041339527788 
713	 0.070217241651662 
714	 6.87097467115514E-02 
715	 6.75796600721679E-02 
716	 6.64830802543246E-02 
717	 6.50320024646799E-02 
718	 6.40341574192311E-02 
719	 6.30105680320466E-02 
720	 6.22571483152888E-02 
721	 6.18292070073658E-02 
722	 6.09193993310682E-02 
723	 5.99892311373218E-02 
724	 5.93587767594132E-02 
725	 5.84371284124747E-02 
726	 5.76922207068061E-02 
727	 5.71225432612834E-02 
728	 5.65383446949998E-02 
729	 5.54005680447347E-02 
730	 5.50986608556619E-02 
731	 5.51112314629143E-02 
732	 5.44302208464599E-02 
733	 5.40552930578538E-02 
734	 5.38630253275668E-02 
735	 0.053779303826634 
736	 5.38224286162675E-02 
737	 0.053461784213959 
738	 5.31987648079402E-02 
739	 5.34052803975234E-02 
740	 5.34420100508626E-02 
741	 5.33731822979647E-02 
742	 5.32515717975624E-02 
743	 5.31561779717252E-02 
744	 5.33545881025907E-02 
745	 5.34988621415688E-02 
746	 5.34265646166722E-02 
747	 5.33012600671043E-02 
748	 0.05332332468191 
749	 5.32700477937447E-02 
750	 5.29969407731296E-02 
751	 5.29891740753996E-02 
752	 5.30237447275043E-02 
753	 5.30027296125052E-02 
754	 5.29174768400729E-02 
755	 5.28915887670423E-02 
756	 5.27460328501651E-02 
757	 5.25242602076906E-02 
758	 5.27058395547484E-02 
759	 5.20634301909147E-02 
760	 5.09623251070754E-02 
761	 5.14186704529831E-02 
762	 0.05124161611375 
763	 5.14146714178784E-02 
764	 5.17808521329371E-02 
765	 5.19526657487168E-02 
766	 5.19418212424339E-02 
767	 5.21213499868523E-02 
768	 0.052487318514785 
769	 5.27218277037937E-02 
770	 5.28216643380211E-02 
771	 5.26717954530151E-02 
772	 5.23441114828988E-02 
773	 5.24340691391491E-02 
774	 5.25242921702308E-02 
775	 5.25630646350841E-02 
776	 0.052630986101645 
777	 5.25873084682339E-02 
778	 0.052674538415339 
779	 5.27960996274753E-02 
780	 5.25421440492082E-02 
781	 5.27305080151309E-02 
782	 5.28535668550026E-02 
783	 5.25918156997392E-02 
784	 5.26250326574051E-02 
785	 5.25967835114695E-02 
786	 0.052660907825068 
787	 5.29545364199378E-02 
788	 0.052472154640462 
789	 5.23932548499658E-02 
790	 5.28282756342377E-02 
791	 5.29251377445808E-02 
792	 0.052788406288957 
793	 0.052760439703207 
794	 5.29291021372819E-02 
795	 5.29087918480129E-02 
796	 0.052985213939715 
797	 5.29531548087071E-02 
798	 5.27009514782634E-02 
799	 5.28908441358167E-02 
800	 5.31488855113242E-02 
801	 5.32995926659292E-02 
802	 5.33031350929851E-02 
803	 5.30760187406506E-02 
804	 5.32269110394285E-02 
805	 5.36103316438863E-02 
806	 5.33187268069168E-02 
807	 5.32131977539252E-02 
808	 5.30914285342537E-02 
809	 5.28001738552983E-02 
810	 0.052999742020528 
811	 5.23287113677175E-02 
812	 5.13242389900814E-02 
813	 5.13100089249189E-02 
814	 5.12778650927582E-02 
815	 5.11830667481621E-02 
816	 5.12069059776756E-02 
817	 5.15586143340551E-02 
818	 0.051555849521444 
819	 5.12416467342165E-02 
820	 5.07920358816271E-02 
821	 5.04413389611732E-02 
822	 5.04460763701024E-02 
823	 5.07966029693114E-02 
824	 5.10393790139186E-02 
825	 5.00735243078099E-02 
826	 4.96115124723257E-02 
827	 0.049414491975624 
828	 4.88323687811234E-02 
829	 4.94879513841835E-02 
830	 0.049540243247263 
831	 4.88010690463185E-02 
832	 4.84130667792557E-02 
833	 4.90101335571624E-02 
834	 4.96951679174931E-02 
835	 4.97911045803589E-02 
836	 4.91291685697951E-02 
837	 4.89478332468862E-02 
838	 4.90981731914761E-02 
839	 4.92015988744097E-02 
840	 4.91111474084777E-02 
841	 4.92345801252778E-02 
842	 4.94112398001626E-02 
843	 4.94345300634575E-02 
844	 4.99769222757582E-02 
845	 4.98302626458462E-02 
846	 0.049115894222479 
847	 4.88870142676828E-02 
848	 4.95871921404605E-02 
849	 4.97989315596146E-02 
850	 4.91320781480066E-02 
851	 4.88038171405307E-02 
852	 4.93633916943773E-02 
853	 4.97119008925918E-02 
854	 4.93899720979503E-02 
855	 5.01047153376833E-02 
856	 4.95801194711928E-02 
857	 0.04871003201174 
858	 4.87649905464317E-02 
859	 4.91773446627063E-02 
860	 4.92459048350627E-02 
861	 4.92287544559533E-02 
862	 4.96688422643107E-02 
863	 4.95284646049211E-02 
864	 4.91574540672157E-02 
865	 0.049009982695049 
866	 4.93876527157809E-02 
867	 4.90497509293142E-02 
868	 4.87815405536907E-02 
869	 4.89607558939697E-02 
870	 4.90757647003134E-02 
871	 4.91078934827079E-02 
872	 4.88847512573161E-02 
873	 0.048504983354344 
874	 4.87043235459127E-02 
875	 4.86896987350521E-02 
876	 4.85853260086056E-02 
877	 4.86704320773296E-02 
878	 4.87096889010832E-02 
879	 4.82989056406922E-02 
880	 4.81615112199648E-02 
881	 4.90122424113434E-02 
882	 4.83002950520149E-02 
883	 4.84282866644974E-02 
884	 4.91379110421348E-02 
885	 4.83192492471978E-02 
886	 4.81327651374233E-02 
887	 4.81212333260438E-02 
888	 4.79517642796128E-02 
889	 4.77650576527495E-02 
890	 4.74948669892516E-02 
891	 4.77404513623109E-02 
892	 4.84097323768065E-02 
893	 4.77075992575082E-02 
894	 4.72174602717465E-02 
895	 4.70393310230998E-02 
896	 4.63730027213791E-02 
897	 4.30845536864961E-02 
898	 4.37464533374421E-02 
899	 4.67341961358229E-02 
900	 4.76597330787175E-02 
901	 4.62520751021424E-02 
902	 4.51422070553657E-02 
903	 4.51100073030651E-02 
904	 4.59617910493283E-02 
905	 4.71228104696061E-02 
906	 4.64390595164157E-02 
907	 4.46902302526185E-02 
908	 4.48853807452039E-02 
909	 4.53440381446529E-02 
910	 4.49790167395086E-02 
911	 4.44345470766994E-02 
912	 4.55180516320819E-02 
913	 4.58100321559892E-02 
914	 4.37579819011458E-02 
915	 0.042219420291022 
916	 4.69462572455273E-02 
917	 4.64489399693688E-02 
918	 4.38443634074557E-02 
919	 0.042823263826472 
920	 4.50609994783738E-02 
921	 4.78845340521867E-02 
922	 4.71541968337939E-02 
923	 4.23213698735553E-02 
924	 4.14702476712558E-02 
925	 4.35411069368961E-02 
926	 4.44337816357615E-02 
927	 0.040870403577145 
928	 4.05027871410449E-02 
929	 3.69538017238442E-02 
930	 3.06656904778574E-02 
931	 3.07401603937095E-02 
932	 5.87701144141675E-02 
933	 6.24732781084488E-02 
934	 0.033276465418127 
935	 1.08110767073091E-02 
936	 2.97159819244589E-02 
937	 4.30767200297215E-02 
938	 3.66337188554914E-02 
939	 1.82470310374317E-02 
940	 3.44108208381473E-02 
941	 5.26203617116577E-02 
942	 4.97416315016773E-02 
943	 1.89308644110988E-02 
944	 4.15737907282928E-02 
945	 4.14444518527191E-02 
946	 2.11049519611916E-02 
947	 0.026949850173792 
948	 2.34049534195228E-02 
949	 1.23024813188325E-02 
950	 1.20476341923315E-02 
951	 3.67949357731367E-02 
952	 3.92533339179679E-02 
953	 2.55210448006298E-02 
954	 1.70249139338382E-02 
955	 3.41067675962781E-02 
956	 4.73021672299869E-02 
957	 4.57971728990657E-02 
958	 3.72334246417612E-02 
959	 3.66662947527894E-02 
960	 0.044016020558897 
961	 4.96519973577449E-02 
962	 4.94886576693808E-02 
963	 0.044653094791279 
964	 4.07987451991843E-02 
965	 3.74602635721151E-02 
966	 3.84688410324337E-02 
967	 4.71410205277375E-02 
968	 4.07840763914241E-02 
969	 4.02573239165794E-02 
970	 4.61655322570285E-02 
971	 4.20747257612072E-02 
972	 3.73828824044276E-02 
973	 3.77089136117977E-02 
974	 4.36399486024383E-02 
975	 4.95390911534197E-02 
976	 4.26760730785977E-02 
977	 3.70613218564456E-02 
978	 3.87538197631436E-02 
979	 4.26351514008604E-02 
980	 4.43079552182045E-02 
981	 4.31116994338676E-02 
982	 4.18235559002846E-02 
983	 4.43869770510092E-02 
984	 4.85435578589219E-02 
985	 4.79303596430806E-02 
986	 4.42801774501662E-02 
987	 4.42863761582921E-02 
988	 4.30695096130657E-02 
989	 4.20265335732852E-02 
990	 4.23669800878154E-02 
991	 4.42010099270878E-02 
992	 4.46843237250807E-02 
993	 4.42049770465239E-02 
994	 4.23329188934583E-02 
995	 3.94525655746806E-02 
996	 4.50125717768768E-02 
997	 4.52730975992496E-02 
998	 4.20297183132203E-02 
999	 4.47361970643222E-02 
1000	 4.20695119483326E-02 
1001	 4.86343247060266E-02 
1002	 4.93718593531079E-02 
1003	 4.91904630741337E-02 
1004	 4.93087484076428E-02 
1005	 4.91520312204084E-02 
1006	 4.81400106444809E-02 
1007	 4.71928790193984E-02 
1008	 4.71050444511799E-02 
1009	 4.81400134475013E-02 
1010	 4.92994904835878E-02 
1011	 5.07846492834464E-02 
1012	 5.07543184820457E-02 
1013	 4.98375982395207E-02 
1014	 4.93973986071839E-02 
1015	 4.74720176969511E-02 
1016	 0.047110783594181 
1017	 4.83303524222711E-02 
1018	 4.84865146834196E-02 
1019	 4.88059376861342E-02 
1020	 4.87790698237371E-02 
1021	 4.79769840665376E-02 
1022	 4.75992813573058E-02 
1023	 4.81000568009567E-02 
1024	 4.79359321008632E-02 
1025	 4.89255166432358E-02 
1026	 5.01907013716344E-02 
1027	 4.99454688076969E-02 
1028	 4.88055539406507E-02 
1029	 4.80377335829416E-02 
1030	 0.045794193445444 
1031	 4.55673318763361E-02 
1032	 4.70433497856496E-02 
1033	 4.73372608011063E-02 
1034	 4.76956093948554E-02 
1035	 4.81603281948981E-02 
1036	 4.82553745138301E-02 
1037	 4.83060954428965E-02 
1038	 4.86940704154176E-02 
1039	 4.92377659717507E-02 
1040	 4.82585618275917E-02 
1041	 4.71902096135556E-02 
1042	 4.70064480079196E-02 
1043	 4.68980906049095E-02 
1044	 4.69208088263816E-02 
1045	 4.80282433737002E-02 
1046	 4.81002602812574E-02 
1047	 4.73268939983887E-02 
1048	 4.72144328220786E-02 
1049	 0.047168806220781 
1050	 4.70230753696809E-02 
1051	 4.74191832913951E-02 
1052	 4.72307941977173E-02 
1053	 4.53565498696703E-02 
1054	 4.55596473010784E-02 
1055	 4.79336895387484E-02 
1056	 4.84875667070568E-02 
1057	 0.048795912559541 
1058	 5.02838409956774E-02 
1059	 4.97056032627027E-02 
1060	 4.61198605062042E-02 
1061	 4.54131905840134E-02 
1062	 4.54956384255696E-02 
1063	 4.56105904721842E-02 
1064	 4.68585647237587E-02 
1065	 4.74507136967414E-02 
1066	 4.79812720615861E-02 
1067	 4.82858861179947E-02 
1068	 4.84778338375169E-02 
1069	 4.85777852099503E-02 
1070	 4.83343833290207E-02 
1071	 4.81676216486856E-02 
1072	 0.047993164695414 
1073	 4.78887578797641E-02 
1074	 4.75516072991047E-02 
1075	 4.69382359581787E-02 
1076	 4.69336796355235E-02 
1077	 4.69533008405022E-02 
1078	 4.72846902147972E-02 
1079	 4.88230709033759E-02 
1080	 0.048688638839822 
1081	 4.72617726567191E-02 
1082	 4.69744092807255E-02 
1083	 4.61866706144867E-02 
1084	 4.59366979283443E-02 
1085	 4.70666034310687E-02 
1086	 4.75737519189964E-02 
1087	 4.79344417847212E-02 
1088	 0.047998612275678 
1089	 4.76332757931384E-02 
1090	 4.76010705649022E-02 
1091	 4.74700398159469E-02 
1092	 4.69818884014368E-02 
1093	 4.66287253200606E-02 
1094	 4.63936479133554E-02 
1095	 4.62218175443495E-02 
1096	 4.59129519243048E-02 
1097	 0.045573479157484 
1098	 4.54663154933186E-02 
1099	 4.56154049049121E-02 
1100	 4.59262608960735E-02 
1101	 4.57953197417438E-02 
1102	 4.57094769765591E-02 
1103	 4.55440251287838E-02 
1104	 4.41730176267128E-02 
1105	 4.42920967578253E-02 
1106	 0.045456074778337 
1107	 4.37653808076203E-02 
1108	 4.24048909491457E-02 
1109	 0.044381473926708 
1110	 4.41597412749093E-02 
1111	 4.50154726675231E-02 
1112	 4.30205994956986E-02 
1113	 3.22137886334672E-02 
1114	 3.11663614913263E-02 
1115	 3.91298452964859E-02 
1116	 4.09904778572286E-02 
1117	 5.69639130505582E-02 
1118	 0.059976597641343 
1119	 2.35284973398995E-02 
1120	 5.21828969059159E-03 
1121	-2.13692631563096E-02 
1122	-1.51030588158973E-02 
1123	 2.73234002960111E-02 
1124	 6.56230452800963E-02 
1125	 0.103969011855499 
1126	 0.106001613891938 
1127	 5.08118124300968E-02 
1128	 1.93305973909741E-02 
1129	 2.80624565438452E-02 
1130	 0.048846366784541 
1131	 5.96377545490995E-02 
1132	 0.111747360037184 
1133	 9.94174877857377E-02 
1134	 4.01842025557614E-02 
1135	 3.59292601927272E-02 
1136	 3.96353586222866E-02 
1137	 4.29827592699718E-02 
1138	 7.73399503421043E-02 
1139	 7.23105017787306E-02 
1140	 4.15891507144857E-02 
1141	 1.70190467504001E-02 
1142	 1.11990294526859E-02 
1143	 1.08152111443399E-02 
1144	 3.95091744252803E-03 
1145	 1.57810697643564E-02 
1146	 2.73586461613488E-02 
1147	 3.00989196235793E-02 
1148	 4.42633665787923E-02 
1149	 4.80168960491317E-02 
1150	 4.90627141322766E-02 
1151	 3.65739033786933E-02 
1152	 4.34905858111401E-02 
1153	 6.16179045214127E-02 
1154	 5.92912245131011E-02 
1155	 5.69065528001097E-02 
1156	 4.80405372484827E-02 
1157	 3.65599692619321E-02 
1158	 3.86075495125274E-02 
1159	 4.30680252916475E-02 
1160	 4.22136819573659E-02 
1161	 4.18507411467251E-02 
1162	 4.06247863046878E-02 
1163	 4.03813318013715E-02 
1164	 4.02116273314478E-02 
1165	 3.96158268436048E-02 
1166	 3.99714907679311E-02 
1167	 3.96755803192888E-02 
1168	 4.24737194598494E-02 
1169	 0.046067523323544 
1170	 4.66579245439281E-02 
1171	 4.75821550753879E-02 
1172	 4.90932509780452E-02 
1173	 4.78693069677942E-02 
1174	 4.42608804951091E-02 
1175	 4.39374403982408E-02 
1176	 4.24497544659925E-02 
1177	 4.10657873223906E-02 
1178	 0.042609882637426 
1179	 4.38269734872819E-02 
1180	 4.49480830435623E-02 
1181	 4.57030157602934E-02 
1182	 4.71339927655001E-02 
1183	 4.78641874330392E-02 
1184	 4.57396859965032E-02 
1185	 4.53553528323767E-02 
1186	 4.60917640335602E-02 
1187	 4.51715270120667E-02 
1188	 4.48459073561645E-02 
1189	 4.44595464791467E-02 
1190	 0.043339375318203 
1191	 4.35171493815105E-02 
1192	 4.39429243161456E-02 
1193	 4.55969431285033E-02 
1194	 4.60674951910924E-02 
1195	 4.60586622570063E-02 
1196	 4.60040016222553E-02 
1197	 4.47763529194409E-02 
1198	 4.49526366430952E-02 
1199	 4.64289821226563E-02 
1200	 4.63030934750407E-02 
1201	 4.44830254200159E-02 
1202	 4.21936662098192E-02 
1203	 4.12848845757921E-02 
1204	 4.26440268146904E-02 
1205	 4.41985250684252E-02 
1206	 4.52938543836661E-02 
1207	 4.57954836914163E-02 
1208	 4.40676592028843E-02 
1209	 4.32048267840976E-02 
1210	 4.45392332165709E-02 
1211	 4.50651458379966E-02 
1212	 4.46943962058914E-02 
1213	 4.34206370936942E-02 
1214	 4.32151976379128E-02 
1215	 4.29878391612125E-02 
1216	 4.41605174432118E-02 
1217	 4.43077352547915E-02 
1218	 4.45987401318488E-02 
1219	 4.51565920978248E-02 
1220	 4.38531867544393E-02 
1221	 4.37682309902916E-02 
1222	 4.53816270414961E-02 
1223	 4.54202978306425E-02 
1224	 4.49479009538631E-02 
1225	 4.47332966114715E-02 
1226	 4.39784093556441E-02 
1227	 4.43812477502376E-02 
1228	 4.57119813310454E-02 
1229	 4.54642988935127E-02 
1230	 4.46166815817627E-02 
1231	 4.45867518720418E-02 
1232	 4.48540182034761E-02 
1233	 4.51458597296229E-02 
1234	 4.51842244475616E-02 
1235	 4.53068676051724E-02 
1236	 4.43582607435306E-02 
1237	 4.42963099583572E-02 
1238	 4.46270769664551E-02 
1239	 4.60003216405794E-02 
1240	 4.62719370071318E-02 
1241	 0.045670880197311 
1242	 4.56539144272651E-02 
1243	 4.53754488828178E-02 
1244	 4.58010020638961E-02 
1245	 4.66202059332408E-02 
1246	 4.58298702842176E-02 
1247	 4.49078483003561E-02 
1248	 4.51478151247618E-02 
1249	 4.51471560454296E-02 
1250	 4.52302782908608E-02 
1251	 4.62559737442472E-02 
1252	 4.67532952781308E-02 
1253	 4.65618459332977E-02 
1254	 4.61736943213275E-02 
1255	 4.62928923182579E-02 
1256	 4.64604253935933E-02 
1257	 4.63309877924034E-02 
1258	 4.61101938880259E-02 
1259	 4.63330141621928E-02 
1260	 4.60049734762173E-02 
1261	 4.44797049715428E-02 
1262	 4.42941588832639E-02 
1263	 4.47665283704678E-02 
1264	 4.57027443007727E-02 
1265	 4.60971670591216E-02 
1266	 4.61782922430679E-02 
1267	 4.65111696466204E-02 
1268	 4.61056655878962E-02 
1269	 4.48042313954364E-02 
1270	 0.044854846862125 
1271	 0.044976600385333 
1272	 0.04444716053125 
1273	 4.48076721547377E-02 
1274	 4.59803949464407E-02 
1275	 4.62229484287946E-02 
1276	 4.53409469845655E-02 
1277	 0.046406237438516 
1278	 4.72773497459396E-02 
1279	 4.67748370545233E-02 
1280	 4.77352324005642E-02 
1281	 4.80080547270787E-02 
1282	 4.73412584267673E-02 
1283	 4.68279572644029E-02 
1284	 4.67399413238106E-02 
1285	 4.64693275397073E-02 
1286	 0.045351170695366 
1287	 4.50579025446648E-02 
1288	 4.54886656654192E-02 
1289	 4.53657568769009E-02 
1290	 4.46813039431976E-02 
1291	 4.56800231916394E-02 
1292	 0.046474436404826 
1293	 4.60958471531906E-02 
1294	 4.62546150886003E-02 
1295	 4.64115336742415E-02 
1296	 4.59264234387563E-02 
1297	 4.54621595916808E-02 
1298	 4.58710856074903E-02 
1299	 4.74343769774272E-02 
1300	 4.72466611338608E-02 
1301	 4.63758472879969E-02 
1302	 4.75238944705701E-02 
1303	 4.70768036524571E-02 
1304	 4.62294089140916E-02 
1305	 4.69042594438907E-02 
1306	 4.70013690453473E-02 
1307	 4.52385471172975E-02 
1308	 4.45372390347396E-02 
1309	 4.57559892275592E-02 
1310	 4.58088992660992E-02 
1311	 4.39469968595914E-02 
1312	 0.043491052813542 
1313	 4.43124946425453E-02 
1314	 4.43067403031966E-02 
1315	 4.37527013571521E-02 
1316	 4.47132570749492E-02 
1317	 4.74287905277411E-02 
1318	 4.80058673603151E-02 
1319	 4.86120624005939E-02 
1320	 4.91013844534403E-02 
1321	 4.86380276778014E-02 
1322	 4.53258112115708E-02 
1323	 4.36244921215562E-02 
1324	 4.11794364624831E-02 
1325	 3.92027217370363E-02 
1326	 0.037509213594343 
1327	 3.79453176442527E-02 
1328	 4.14499586980363E-02 
1329	 0.043713416152583 
1330	 4.58420576112839E-02 
1331	 4.77407696204108E-02 
1332	 4.70015868181648E-02 
1333	 4.44774046884745E-02 
1334	 4.88729899310767E-02 
1335	 4.86231087854373E-02 
1336	 4.53530079143966E-02 
1337	 4.43210919503459E-02 
1338	 0.042994042652221 
1339	 0.042682553297214 
1340	 4.59818225274023E-02 
1341	 4.66128774170343E-02 
1342	 4.50087080365496E-02 
1343	 4.31248870535822E-02 
1344	 3.55305192408487E-02 
1345	 3.49504246025646E-02 
1346	 4.92849948180059E-02 
1347	 5.19333098256668E-02 
1348	 4.58315499965923E-02 
1349	 5.15793688979578E-02 
1350	 0.035786739450024 
1351	 3.28993329251247E-02 
1352	 0.127947973001826 
1353	 0.150331776745577 
1354	 3.67328333827776E-02 
1355	 1.88818300535965E-02 
1356	 0.229474878290126 
1357	 0.323078281745934 
1358	 0.354766142546216 
1359	 0.502820712662251 
1360	 0.688769018234663 
1361	 0.704342695008132 
1362	 0.959339824854521 
1363	 2.08564490711812 
1364	 0.471611934251618 
1365	-4.98328499185546E-02 
1366	 0.118372577192715 
1367	 0.215358856960394 
1368	 0.352689249864974 
1369	 0.74186951445211 
1370	 1.01318476724895 
1371	 1.95992739273583 
1372	 3.18150805831525 
1373	 6.82297402002131 
1374	-24.137062116594 
1375	 1.80125298307056 
1376	 0.798813771390075 
1377	-0.592503681956504 
1378	-0.945048422266767 
1379	-2.99855527754794E-02 
1380	 0.371678655035799 
1381	 1.28121310745242 
1382	 1.17842765774336 
1383	 1.93124322507403E-02 
1384	 7.78970619905926E-02 
1385	 0.162915122810568 
1386	 0.246649372182133 
1387	 2.34674375949057 
1388	 2.79144920449289 
1389	 0.836662019277545 
1390	 0.940706985393004 
1391	 1.45253125669963 
1392	 0.491404769287883 
1393	 0.263334703169762 
1394	 0.314012955015633 
1395	 0.406400924381036 
1396	 0.419616766714746 
1397	 0.807706755310464 
1398	-156.706779906079 
1399	 2.65130138364445 
1400	 1.44225019461227 
1401	 1.84059439766067 
1402	-131.536177959562 
1403	-4.57766486880861 
1404	-10.1505215116975 
1405	-130.111117943027 
1406	 2.22455237650032 
1407	 2.27128859837768 
1408	 6.26831945281591 
1409	 22.245627583681 
1410	-0.537150872695348 
1411	-0.527026765161345 
1412	-0.120058418075428 
1413	-0.477641242243439 
1414	 0.634059238156486 
1415	 1.55404272874818 
1416	 2.56331290769971 
1417	 13.3230105581057 
1418	 20.1499187299272 
1419	 6.48998362851731 
1420	 3.17399653462551 
1421	 1.7201842665772 
1422	 7.62357333053723E-02 
1423	-2.92672350959649E-02 
1424	 1.54652684776252 
1425	 1.70977506163015 
1426	 0.554127901982245 
1427	 0.650730348039373 
1428	 0.463136998766626 
1429	 0.232001347147242 
1430	 7.88575262668386E-02 
1431	 0.174217684544808 
1432	 0.37946446254289 
1433	 0.169275114127232 
1434	-0.249701196039954 
1435	-0.2527630181583 
1436	-0.329187526758547 
1437	-0.38922157400045 
1438	-0.139381544952617 
1439	 0.292297693268432 
1440	 0.548177159646408 
1441	 0.582319581159304 
1442	 0.281151413973716 
1443	 0.206998552867629 
1444	 5.03791501886124E-02 
1445	 5.17899722956234E-02 
1446	 0.178013087682525 
1447	 0.150439561385469 
1448	 0.139289245148934 
1449	 0.193623014870687 
1450	 0.176747213147042 
1451	 0.124589200622736 
1452	 9.75745040877332E-02 
1453	 4.47935041231141E-02 
1454	 1.62006567354143E-02 
1455	 2.48958384654265E-02 
1456	 5.75506377652824E-02 
1457	 9.17730942698332E-02 
1458	 0.103137513913419 
1459	 0.170021731611473 
1460	 0.153956945895346 
1461	 3.30151639499405E-02 
1462	 2.85806254029377E-02 
1463	 4.46876120510076E-02 
1464	 5.98597387256809E-02 
1465	 0.155460235844043 
1466	 0.179576503107871 
1467	 0.177107973335343 
1468	 0.149312976125553 
1469	 5.73501425515744E-02 
1470	 2.04879659503242E-02 
1471	-2.03074707846164E-02 
1472	-7.05616853432191E-02 
1473	-0.087363902300099 
1474	-5.55133757753792E-02 
1475	-2.52796694139541E-02 
1476	-2.54628489877369E-02 
1477	 2.48023961699301E-02 
1478	 3.97003202807782E-02 
1479	-7.1026138472951E-03 
1480	-1.61070861202522E-02 
1481	 1.16656947383522E-03 
1482	 7.93296219540146E-03 
1483	 6.16212557594815E-04 
1484	 8.34158147878707E-03 
1485	 0.035043127457645 
1486	 0.041897919810353 
1487	 4.04317529317904E-02 
1488	 4.24610428412933E-02 
1489	 4.78276059225219E-02 
1490	 3.88542054931801E-02 
1491	 1.09759481074045E-02 
1492	 1.43273038628706E-02 
1493	 3.17125467999559E-02 
1494	 3.71642414979405E-02 
1495	 5.22906424369559E-02 
1496	 5.89556834252766E-02 
1497	 5.31461635836668E-02 
1498	 4.89220222623901E-02 
1499	 4.59131848940025E-02 
1500	 4.54579613484112E-02 
1501	 4.54834913537245E-02 
1502	 4.37968797922393E-02 
1503	 4.12324168286629E-02 
1504	 4.12665946773735E-02 
1505	 4.19116586592058E-02 
1506	 4.02702623979751E-02 
1507	 3.87129397202754E-02 
1508	 4.22858578312278E-02 
1509	 4.51468651495789E-02 
1510	 4.37724356124367E-02 
1511	 4.37193176719625E-02 
1512	 4.52448749373541E-02 
1513	 4.33618235701038E-02 
1514	 4.45416570546199E-02 
1515	 4.81382704946228E-02 
1516	 4.54686504528121E-02 
1517	 4.64061280908623E-02 
1518	 4.79874644185758E-02 
1519	 0.045541365772965 
1520	 0.048845951380362 
1521	 4.87035060862084E-02 
1522	 0.04622124831419 
1523	 4.83708055528551E-02 
1524	 4.66846593221319E-02 
1525	 4.61558564712381E-02 
1526	 4.91767622340725E-02 
1527	 4.83506735489269E-02 
1528	 4.88576546807063E-02 
1529	 5.07073164469323E-02 
1530	 4.70280377295245E-02 
1531	 4.26290459627513E-02 
1532	 4.31247759713336E-02 
1533	 4.43846970781084E-02 
1534	 4.41176753205206E-02 
1535	 4.62375292637259E-02 
1536	 4.71690775832985E-02 
1537	 0.044886119197465 
1538	 4.43157642874499E-02 
1539	 4.34455073751526E-02 
1540	 4.31861289431409E-02 
1541	 0.044456384407188 
1542	 0.045170602721208 
1543	 4.64222245024703E-02 
1544	 0.046047827552145 
1545	 4.40605045577114E-02 
1546	 4.34381677267383E-02 
1547	 4.42598118107254E-02 
1548	 4.39279107512134E-02 
1549	 4.35999185025823E-02 
1550	 4.60122906845309E-02 
1551	 4.87283025733926E-02 
1552	 4.81934237358742E-02 
1553	 4.54175832049509E-02 
1554	 4.52083221133357E-02 
1555	 4.63184333894295E-02 
1556	 4.54172002730294E-02 
1557	 4.58908176076223E-02 
1558	 4.66496681876169E-02 
1559	 4.45855144897239E-02 
1560	 4.48556920019296E-02 
1561	 4.77182186548715E-02 
1562	 4.84713430550597E-02 
1563	 4.72673518006783E-02 
1564	 4.64085013860725E-02 
1565	 4.72683126595944E-02 
1566	 4.72569780016671E-02 
1567	 4.63183827490984E-02 
1568	 4.66100448055361E-02 
1569	 4.68036221192805E-02 
1570	 4.61987829003226E-02 
1571	 0.045795014005445 
1572	 4.51375699222056E-02 
1573	 4.35208865089971E-02 
1574	 4.33064733254641E-02 
1575	 4.38564241888304E-02 
1576	 4.35348640782146E-02 
1577	 4.24117177936482E-02 
1578	 4.02029414675052E-02 
1579	 3.93828390989721E-02 
1580	 3.93560251093041E-02 
1581	 3.78419189416567E-02 
1582	 3.78822255466821E-02 
1583	 4.07686954720891E-02 
1584	 4.28546308345305E-02 
1585	 4.49620431466562E-02 
1586	 4.72507421876314E-02 
1587	 4.54142770936284E-02 
1588	 4.35165950363824E-02 
1589	 4.46193485690147E-02 
1590	 4.50964851572696E-02 
1591	 0.046195721658536 
1592	 4.63074612461467E-02 
1593	 4.31975638665152E-02 
1594	 4.28523453041264E-02 
1595	 4.46405059870159E-02 
1596	 4.40658712130468E-02 
1597	 4.36640485386249E-02 
1598	 4.33532829186678E-02 
1599	 4.15375782810848E-02 
1600	 4.04668091461854E-02 
1601	 4.17359143989576E-02 
1602	 4.35462854983948E-02 
1603	 4.34295494471283E-02 
1604	 4.39645184310781E-02 
1605	 4.58213340835924E-02 
1606	 4.55785043216301E-02 
1607	 4.59896346435917E-02 
1608	 4.61678463636466E-02 
1609	 4.35221690629923E-02 
1610	 4.28569344168325E-02 
1611	 4.21067570713695E-02 
1612	 4.16123336352325E-02 
1613	 0.045526892496905 
1614	 4.63646817329096E-02 
1615	 4.35757632247766E-02 
1616	 4.40624268224383E-02 
1617	 0.044600248262504 
1618	 4.29770392748286E-02 
1619	 4.28732135015019E-02 
1620	 4.36548105532491E-02 
1621	 4.21392119259031E-02 
1622	 4.22345658600465E-02 
1623	 4.52370877658756E-02 
1624	 4.53141180776411E-02 
1625	 4.39928104661572E-02 
1626	 4.38518449607429E-02 
1627	 4.31896326481314E-02 
1628	 0.043941240196979 
1629	 4.55219326154475E-02 
1630	 4.61180941268544E-02 
1631	 4.69897906026154E-02 
1632	 4.45736876381601E-02 
1633	 4.24339838080097E-02 
1634	 4.44164294434863E-02 
1635	 4.49170538790155E-02 
1636	 4.53768573089014E-02 
1637	 4.58709279313687E-02 
1638	 4.36729881825687E-02 
1639	 4.13849912598681E-02 
1640	 4.24916753928962E-02 
1641	 4.46803920541012E-02 
1642	 4.34661192116899E-02 
1643	 4.15089618104679E-02 
1644	 4.16304099259079E-02 
1645	 4.25113469693446E-02 
1646	 4.25620941312634E-02 
1647	 4.30553766565815E-02 
1648	 4.47350951172952E-02 
1649	 4.57053334173216E-02 
1650	 4.51373675955077E-02 
1651	 0.044867967927218 
1652	 4.55334863780065E-02 
1653	 4.34535485069757E-02 
1654	 4.28835840803528E-02 
1655	 4.45689268172333E-02 
1656	 4.42084900054423E-02 
1657	 4.13720618857347E-02 
1658	 4.15332156400223E-02 
1659	 4.42502673408582E-02 
1660	 4.48151197302531E-02 
1661	 4.51458550768521E-02 
1662	 4.58812701596219E-02 
1663	 4.52970534821215E-02 
1664	 4.49756825032038E-02 
1665	 4.65321285035183E-02 
1666	 4.61142465875201E-02 
1667	 4.34410860487417E-02 
1668	 4.42526145724199E-02 
1669	 4.37089293212296E-02 
1670	 4.42252809570425E-02 
1671	 4.59504587311227E-02 
1672	 4.49243890748132E-02 
1673	 4.35586944854557E-02 
1674	 4.30754487932244E-02 
1675	 4.07440026178134E-02 
1676	 0.040249051749988 
1677	 0.041943866967257 
1678	 4.03475945687132E-02 
1679	 3.86314605165543E-02 
1680	 3.95246666574255E-02 
1681	 3.98756890065611E-02 
1682	 4.02125705880173E-02 
1683	 4.30391447709691E-02 
1684	 4.45213907363989E-02 
1685	 4.34714475271896E-02 
1686	 4.43685335513357E-02 
1687	 4.57245773905475E-02 
1688	 4.60973981767543E-02 
1689	 4.61183141663849E-02 
1690	 4.60249113376004E-02 
1691	 4.69123886617015E-02 
1692	 4.52352879698264E-02 
1693	 4.07481133546311E-02 
1694	 0.03986772176358 
1695	 4.03898888456948E-02 
1696	 3.92531386784386E-02 
1697	 4.03085986032864E-02 
1698	 4.05974820893192E-02 
1699	 3.89466425302368E-02 
1700	 3.83759818984372E-02 
1701	 4.07267008996691E-02 
1702	 4.61165649256411E-02 
1703	 4.70901265055851E-02 
1704	 4.53967480745422E-02 
1705	 4.55257557186355E-02 
1706	 4.25712320550008E-02 
1707	 3.96735635274254E-02 
1708	 4.08778469550082E-02 
1709	 4.14377778898657E-02 
1710	 4.00860198331511E-02 
1711	 4.01033321134229E-02 
1712	 4.25315608552813E-02 
1713	 4.28197577532667E-02 
1714	 4.22386374591635E-02 
1715	 4.30842782101659E-02 
1716	 4.19360447071483E-02 
1717	 3.97158076578712E-02 
1718	 4.15227759402458E-02 
1719	 0.040744493548621 
1720	 3.85503141727166E-02 
1721	 4.20243027989284E-02 
1722	 4.38858347722943E-02 
1723	 4.27277734584395E-02 
1724	 4.62749795998907E-02 
1725	 4.71411389793048E-02 
1726	 0.041026823753345 
1727	 3.84859677409634E-02 
1728	 4.01691063681721E-02 
1729	 3.85365120632388E-02 
1730	 3.87974009077357E-02 
1731	 4.34900392388418E-02 
1732	 4.25916354917666E-02 
1733	 3.81090513699493E-02 
1734	 4.08414758055398E-02 
1735	 4.56323014197063E-02 
1736	 4.46517125249173E-02 
1737	 4.49267835069991E-02 
1738	 4.62757911036609E-02 
1739	 4.25080604644827E-02 
1740	 3.95356024242615E-02 
1741	 4.57203421196163E-02 
1742	 5.22757047677542E-02 
1743	 4.81360495524531E-02 
1744	 0.043903892673797 
1745	 3.97751234657909E-02 
1746	 3.51267867643622E-02 
1747	 3.55172090641125E-02 
1748	 4.29319442907514E-02 
1749	 4.49412216726271E-02 
1750	 4.28707115721511E-02 
1751	 4.27871494816069E-02 
1752	 0.044700702632928 
1753	 0.043861350438685 
1754	 4.19195758407855E-02 
1755	 4.35716221250327E-02 
1756	 4.39667641882403E-02 
1757	 3.83125171497413E-02 
1758	 4.29465189052339E-02 
1759	 4.51601100056074E-02 
1760	 4.34597058734205E-02 
1761	 4.45706898698644E-02 
1762	 3.80377269238949E-02 
1763	 0.031173059698696 
1764	 0.031236634937426 
1765	 3.75034277229223E-02 
1766	 4.53654026499022E-02 
1767	 4.30427167144185E-02 
1768	 0.039125612821137 
1769	 3.51521805735726E-02 
1770	 3.13741829491712E-02 
1771	 3.20158774597029E-02 
1772	 3.26647510067219E-02 
1773	 4.38371718978715E-02 
1774	 5.16690406722365E-02 
1775	 5.79108094905405E-02 
1776	 5.88165379205366E-02 
1777	 3.22345250787964E-02 
1778	 0.027568177893884 
1779	 3.74582216356136E-02 
1780	 3.62624059024368E-02 
1781	 5.09742761200683E-02 
1782	 0.04683272702531 
1783	 2.01232065455205E-02 
1784	 1.60180601526089E-02 
1785	 5.7063734042322E-03 
1786	 6.21778325289532E-03 
1787	 0.028205224659867 
1788	 4.54547797263013E-02 
1789	 0.081967764418256 
1790	 0.100242403813012 
1791	 8.88094106798525E-02 
1792	 7.91098946662292E-02 
1793	 3.58425058130646E-02 
1794	 3.35752630087736E-02 
1795	 5.61977447672733E-02 
1796	 3.38225740061768E-02 
1797	 7.81604328476642E-02 
1798	 7.60377257000182E-02 
1799	 2.60544035934798E-02 
1800	 4.66522686590394E-02 
1801	 3.75695019625219E-02 
1802	 0.051226125857221 
1803	 0.116035374382834 
1804	 0.287951196386668 
1805	 0.345230075612525 
1806	 0.363529439752902 
1807	 0.30140198521456 
1808	-0.23659091120051 
1809	-0.266915442211598 
1810	 0.21011742641589 
1811	 0.662451860485246 
1812	 2.19086871990497 
1813	 1.31253243022325 
1814	-0.218333596792462 
1815	-0.398055745289692 
1816	-0.703604787801285 
1817	-0.404000405853499 
1818	 7.06170421433698E-02 
1819	-6.93932502409634E-02 
1820	 0.069627365440993 
1821	-4.00146998952364E-02 
1822	 0.046969647789722 
1823	 0.979844565493753 
1824	 1.52410305498674 
1825	 0.869371516655505 
1826	 0.558543545180834 
1827	-0.406157069593612 
1828	-0.447054703520141 
1829	 0.29698505444326 
1830	 0.642348870156066 
1831	 1.34046811980307 
1832	 2.87761806046162 
1833	 1.38454401590027 
1834	 1.70270067506383 
1835	 2.65042397303998 
1836	 3.39107710953085 
1837	 2.26963605264779 
1838	 1.97758783433522 
1839	 2.29075323908359 
1840	-2.4148774112631 
1841	 1.07245266929622 
1842	 1.52281780813102 
1843	 2.16891627946989 
1844	 4.65293397373443 
1845	 7.02445456993251 
1846	-5.29713515177292 
1847	-4.68818416409734 
1848	 8.01281705916966 
1849	 4.82852790454654 
1850	 10.7064314167979 
1851	 16.7218634878868 
1852	 3.01521677122842 
1853	 1.18485818858213 
1854	 0.738621914481687 
1855	 0.346294887563849 
1856	 0.308638817800573 
1857	 0.563266898863681 
1858	 0.617559768371591 
1859	 0.742709668897433 
1860	 0.540568414655652 
1861	 0.362296571422796 
1862	 0.213425710371964 
1863	-0.513769118012892 
1864	-1.55452045491682 
1865	-3.4242012072056 
1866	 3.56283387559758 
1867	-0.382787354556813 
1868	-4.83561086111756 
1869	-25.4226187752836 
1870	 30.4211453169808 
1871	 2.24908303826101 
1872	 1.3049130386134 
1873	 1.04727351062739 
1874	 0.660800986297047 
1875	 5.12179817052142E-02 
1876	 2.30456907641385E-02 
1877	 0.995283349314806 
1878	 0.800715204349518 
1879	 0.437685376722601 
1880	 0.407708371722423 
1881	 9.01275443787321E-02 
1882	-0.409449376495025 
1883	-0.319642878565094 
1884	 0.525699440391585 
1885	 1.82597735827101 
1886	 33.5969325733437 
1887	-3.67224029454551 
1888	 5.90404175070706 
1889	 1.3281350975961 
1890	-0.237483936182983 
1891	-0.389202723825955 
1892	-0.471564784104156 
1893	-0.591101044128674 
1894	 0.91888856524829 
1895	 3.42774553767091 
1896	 0.949312787310793 
1897	 0.227135007960599 
1898	-0.209280226562031 
1899	 0.239822957180065 
1900	 3.54689943759937 
1901	-1.97807930437919 
1902	-1.62283007299906 
1903	-2.02062046482968 
1904	-4.49400341805489 
1905	-0.709274944974091 
1906	-0.775322045613046 
1907	-0.549040938950072 
1908	-1.19084482639447 
1909	-0.791022151256413 
1910	 0.908424998610816 
1911	-3.22025307546222 
1912	 6.12415059736551 
1913	 34.1614990995742 
1914	-0.246746256931528 
1915	-0.111897056954192 
1916	-0.477664168588732 
1917	-1.2014824106377 
1918	-3.08982830494002 
1919	 2.14338092142773 
1920	 0.954501479572518 
1921	 0.731679897494076 
1922	 0.349079364704234 
1923	 0.685782645916193 
1924	 0.556955623313081 
1925	 0.404666876990252 
1926	 0.588874691400801 
1927	 1.00256200219225 
1928	 1.28859300233774 
1929	 10.4813217558936 
1930	-2.07437989112931 
1931	-0.33527312062118 
1932	-0.253078441757506 
1933	-0.527894810603842 
1934	-0.653783093713598 
1935	-3.16829318051579 
1936	-3.5571116665871 
1937	 0.922797695939381 
1938	 0.545733707869854 
1939	 0.372975007773919 
1940	 0.216902892293376 
1941	-0.170984801007672 
1942	-0.42078943083949 
1943	-0.445092472563598 
1944	-0.258812087108049 
1945	 0.162985360172861 
1946	-0.304508682248631 
1947	 21.5007665763133 
1948	-0.2422854029292 
1949	-0.101846772136014 
1950	 9.51745114459514E-02 
1951	 0.609748611378909 
1952	 1.22545870716473 
1953	 7.62919938613082 
1954	-5.46763382173713 
1955	-3.39451092063932 
1956	-0.791473320301642 
1957	-0.403004658011096 
1958	-0.364702098212832 
1959	-0.196814424869374 
1960	 4.85417758306944E-02 
1961	 0.549029547115622 
1962	 0.692899800823168 
1963	 0.714583230667711 
1964	 0.959726147482489 
1965	 0.106713455433873 
1966	-0.300786568192572 
1967	-0.664399428292488 
1968	 0.135819131867894 
1969	 0.150830730098994 
1970	 0.262102285508708 
1971	 0.28168475397655 
1972	 0.282712238145798 
1973	 0.317113808224096 
1974	 0.419875655495865 
1975	 0.561469092857324 
1976	 0.263748682636223 
1977	 0.12828515301094 
1978	 0.240763282334438 
1979	 0.275968542644221 
1980	 0.290044906519611 
1981	 0.502671724469811 
1982	 0.659474116256282 
1983	 0.419782459219982 
1984	 0.228914487057098 
1985	 0.176838399536832 
1986	 0.217588757101662 
1987	 0.337565241891563 
1988	 0.400692763595608 
1989	 0.545420644480553 
1990	 0.420502966832512 
1991	 0.279412575574036 
1992	 0.325858929152343 
1993	 0.299660144518053 
1994	 0.297007632320791 
1995	 0.356852445941955 
1996	 0.458894592131163 
1997	 0.504555233540469 
1998	 0.638671657926214 
1999	 0.759194502043681 
2000	 0.723739482026467 
2001	 0.403615494437138 
2002	 4.13197033591049E-02 
2003	-0.235095248299256 
2004	-7.59652655524925E-02 
2005	-0.116933188152228 
2006	-0.351501129689536 
2007	-0.193878618969602 
2008	-0.135544795597931 
2009	-0.156895543230393 
2010	 0.206045672294388 
2011	 0.536441403660291 
2012	 0.48263806421346 
2013	 9.61664896042385E-02 
2014	 0.134259974036521 
2015	 0.2137541316256 
2016	 0.301150014157422 
2017	 0.28933953581072 
2018	 0.212557909006248 
2019	 0.101399068291073 
2020	 0.023942086178579 
2021	-5.71446372012576E-03 
2022	 2.13855965162282E-02 
2023	 2.25948708440927E-02 
2024	 3.14559008924884E-02 
2025	-1.61424788386555E-03 
2026	 2.35860863251652E-02 
2027	 6.29310256309544E-02 
2028	 0.121658872756481 
2029	 0.150437373070278 
2030	 0.168902822297268 
2031	 0.129499917106463 
2032	 0.096460378684798 
2033	 7.81385157576359E-02 
2034	 3.71487385596717E-02 
2035	 0.030897379101811 
2036	 1.34146074691551E-02 
2037	-3.21265804118206E-03 
2038	-3.79244893545956E-03 
2039	-1.07432643299788E-02 
2040	-1.76615875147749E-02 
2041	-1.54703070415358E-02 
2042	-6.68963247247967E-03 
2043	-3.27506239034969E-03 
2044	-1.50679972690677E-03 
2045	 1.22570498943545E-02 
2046	 4.51727327661176E-02 
2047	 5.87969390114657E-02 
2048	 7.30297162823505E-02 
2049	 0.098578512543679 
2050	 6.24440579988253E-02 
2051	 1.85120720914147E-02 
2052	 1.47243282765089E-02 
2053	-7.38808414241541E-03 
2054	-1.49524714433156E-02 
2055	 3.16441935598931E-03 
2056	 5.08922707378351E-03 
2057	-2.42614044882318E-02 
2058	-1.90510827405816E-02 
2059	 1.57962464646743E-02 
2060	 0.029868584374649 
2061	 3.11092506024334E-02 
2062	 7.21833826467208E-02 
2063	 0.110556558979394 
2064	 0.119303493235167 
2065	 0.184623750341154 
2066	 0.239530936052677 
2067	 0.191219425462808 
2068	 0.160766403904661 
2069	 0.120017825160508 
2070	 6.63281253068746E-02 
2071	 7.63167741070362E-02 
2072	 9.93560277453285E-02 
2073	 9.48284888965567E-02 
2074	 8.59737405528648E-02 
2075	 6.78835268983885E-02 
2076	 1.22717295878925E-02 
2077	-3.54846439245035E-03 
2078	 9.0790778246886E-03 
2079	 8.55439672700304E-03 
2080	 2.3879285751165E-03 
2081	 2.72648787638377E-02 
2082	 4.08525728382995E-02 
2083	 3.84087240299587E-02 
2084	 7.86531869260213E-02 
2085	 8.86369360267062E-02 
2086	 8.88695072893661E-02 
2087	 0.103498994492001 
2088	 8.53916207784952E-02 
2089	 7.42124305867929E-02 
2090	 8.12541942698495E-02 
2091	 0.072119233589129 
2092	 6.65151482475984E-02 
2093	 0.061222032271049 
2094	 0.063382648212375 
2095	 0.070471442227663 
2096	 6.61044685810344E-02 
2097	 6.75642286909624E-02 
2098	 6.59436444196877E-02 
2099	 5.36294872337884E-02 
2100	 3.95764075036879E-02 
2101	 4.43501664097876E-02 
2102	 3.39036152954123E-02 
2103	 3.78274706986612E-02 
2104	 3.75031051506944E-02 
2105	 3.41680849304413E-02 
2106	 4.13908809536118E-02 
2107	 3.60835360482127E-02 
2108	 3.99249941563388E-02 
2109	 4.35801923092479E-02 
2110	 3.93222630884754E-02 
2111	 4.95132120823214E-02 
2112	 5.26085493272783E-02 
2113	 4.35404223025429E-02 
2114	 2.13036022042531E-02 
2115	 1.56727143906292E-02 
2116	 1.68445063315941E-03 
2117	 2.11889083047931E-04 
2118	 1.77305254612289E-02 
2119	 2.98468514300249E-02 
2120	 4.32307323448382E-02 
2121	 5.26780415635461E-02 
2122	 5.39277955481074E-02 
2123	 6.48462851653444E-02 
2124	 0.075332267717077 
2125	 7.39472505398661E-02 
2126	 0.073580062794542 
2127	 7.18778078296016E-02 
2128	 6.13584210727108E-02 
2129	 4.97908092012195E-02 
2130	 5.44532760803932E-02 
2131	 0.058059366793044 
2132	 4.24809646927222E-02 
2133	 0.025672253862391 
2134	 0.019078630728475 
2135	 8.48307789559828E-03 
2136	 5.28981433847794E-03 
2137	 1.10147113695542E-02 
2138	 2.48234965635691E-02 
2139	 5.50531737585089E-02 
2140	 5.98800770358157E-02 
2141	 6.20963831253941E-02 
2142	 6.23097466029933E-02 
2143	 4.19389098394008E-02 
2144	 2.39588843488837E-02 
2145	 3.81584368386373E-02 
2146	 4.49558694214104E-02 
2147	 3.82427141387196E-02 
2148	 4.22751405546656E-02 
2149	 0.0428952017549 
2150	 4.34090946330657E-02 
2151	 4.69407216332185E-02 
2152	 5.41640928089114E-02 
2153	 6.02025857243077E-02 
2154	 5.54045761954029E-02 
2155	 5.27991632604615E-02 
2156	 6.03109282473861E-02 
2157	 6.64552884619517E-02 
2158	 7.20634136764977E-02 
2159	 6.91920053044143E-02 
2160	 6.62311154710456E-02 
2161	 6.51359949032092E-02 
2162	 0.055050573011647 
2163	 5.15519249995798E-02 
2164	 5.85302304488629E-02 
2165	 5.91206571965551E-02 
2166	 4.44653346407221E-02 
2167	 4.91880485054645E-02 
2168	 0.08782317343335 
2169	 8.53265234636157E-02 
2170	 6.06366747284989E-02 
2171	 5.16825913600141E-02 
2172	 3.26777876905998E-02 
2173	 6.50665646060028E-03 
2174	 1.28699860408965E-02 
2175	 2.65727475359289E-02 
2176	 2.60019787396587E-02 
2177	 2.65329294703355E-02 
2178	 3.80728815714754E-02 
2179	 5.03845707448314E-02 
2180	 4.89629445190121E-02 
2181	 0.030403382942416 
2182	 2.16262108162953E-02 
2183	 3.04184269218046E-02 
2184	 0.024852191345096 
2185	 2.49873815716938E-02 
2186	 2.94224019346199E-02 
2187	 2.21696161306531E-02 
2188	 1.89190490375353E-02 
2189	 3.54808411187345E-02 
2190	 4.06665503055785E-02 
2191	 2.26614882990643E-02 
2192	 3.00369572163642E-02 
2193	 0.065243294779778 
2194	 6.79252973123483E-02 
2195	 6.33651688260565E-02 
2196	 6.51428640056555E-02 
2197	 4.80086560342675E-02 
2198	 4.01065578693299E-02 
2199	 0.052958402217668 
2200	 4.46878632070212E-02 
2201	 2.25447932939916E-02 
2202	-7.56376741985252E-03 
2203	 4.90669983045641E-03 
2204	 1.95874347700214E-02 
2205	 1.70694955289448E-02 
2206	 2.72766881540679E-02 
2207	 1.99405366200734E-02 
2208	 1.98254842047055E-02 
2209	 4.40939753302567E-02 
2210	 5.22580327192516E-02 
2211	 3.99710156431037E-02 
2212	 2.62539219043221E-02 
2213	 1.80779729041796E-02 
2214	 0.019463010480135 
2215	 2.18697403703931E-02 
2216	 2.07266621128866E-02 
2217	 1.32395160518836E-02 
2218	-9.3782060212314E-03 
2219	-1.94578473780737E-02 
2220	-0.030114765197503 
2221	-2.82658176492218E-02 
2222	-6.73050076788628E-03 
2223	 3.72566592990654E-05 
2224	-1.19607438419653E-03 
2225	 7.2516585955069E-03 
2226	 1.27283431478138E-02 
2227	 1.69406492504705E-02 
2228	 2.80459092795636E-02 
2229	 4.00776448540941E-02 
2230	 6.21006385174671E-02 
2231	 6.47591396273447E-02 
2232	 5.74923956263331E-02 
2233	 6.08128230046426E-02 
2234	 5.11443173714521E-02 
2235	 4.64447210523502E-02 
2236	 5.43767913850058E-02 
2237	 5.35485672192015E-02 
2238	 4.76572176511771E-02 
2239	 3.59659477740165E-02 
2240	 0.047136906867806 
2241	 7.53348606664771E-02 
2242	 9.42731520245961E-02 
2243	 0.105048185234183 
2244	 0.102724811973711 
2245	 8.04675053948463E-02 
2246	 6.75969845566747E-02 
2247	 3.39524484699067E-02 
2248	 1.56189596920457E-02 
2249	 3.95015051048195E-02 
2250	 6.52671343926618E-02 
2251	 0.101550234733577 
2252	 0.116714015095536 
2253	 0.122289353612273 
2254	 0.127843744059976 
2255	 0.121584028075667 
2256	 0.140265710949975 
2257	 0.164184175554909 
2258	 0.147128789037333 
2259	 0.126857572649071 
2260	 0.117471088791227 
2261	 8.60499430067233E-02 
2262	 7.63453360469201E-02 
2263	 0.104095689836486 
2264	 0.114439833448974 
2265	 0.112156546232248 
2266	 0.111925982398066 
2267	 0.120711176658624 
2268	 0.115161593270132 
2269	 8.97033920676131E-02 
2270	 9.60758935970675E-02 
2271	 0.119176764779984 
2272	 0.120282893281998 
2273	 0.136172901061525 
2274	 0.127038197684509 
2275	 6.80892379373268E-02 
2276	 6.06833735666339E-02 
2277	 8.45855672631769E-02 
2278	 8.95314137791658E-02 
2279	 0.110954991458831 
2280	 0.105280479982842 
2281	 5.87605492390833E-02 
2282	 5.89488640016598E-02 
2283	 0.060520145063563 
2284	 6.02688059905423E-02 
2285	 7.52324216703001E-02 
2286	 4.30090770830967E-02 
2287	 1.70794370931887E-02 
2288	 2.01668937726833E-02 
2289	 4.72150684335569E-02 
2290	 0.079371269464853 
2291	 4.20786110351871E-02 
2292	 3.82037741090291E-02 
2293	 7.14663063500956E-04 
2294	-6.31730884281701E-02 
2295	 9.49851482405768E-03 
2296	 2.62557394529651E-03 
2297	 1.05252108621214E-02 
2298	 6.13864654199421E-02 
2299	 1.42996307191714E-02 
2300	 2.33946725914736E-03 
2301	-3.25043946663409E-02 
2302	-5.36484601863881E-02 
2303	-4.41324441294038E-02 
2304	-5.43654613158459E-02 
2305	-4.21296092478592E-02 
2306	-5.92580909536096E-02 
2307	-6.36867845740132E-02 
2308	-4.03958838211758E-02 
2309	-6.68633660501962E-03 
2310	 1.32070991997823E-02 
2311	 1.96056321142941E-02 
2312	 3.29120374203724E-02 
2313	-5.07323774116404E-03 
2314	-8.28123069403085E-02 
2315	-6.77181029602464E-02 
2316	-1.93078058847993E-02 
2317	-5.13213713608424E-03 
2318	 9.75502045343502E-02 
2319	 0.142166567775394 
2320	 0.13765858691349 
2321	 0.134067312701179 
2322	 0.125224749549825 
2323	 0.105155584294178 
2324	 5.57565664810403E-02 
2325	 6.57513000567093E-02 
2326	 7.13269405603764E-02 
2327	 6.32796369322939E-02 
2328	 9.63948575780548E-02 
2329	 0.213307460931675 
2330	 0.261642975470303 
2331	 0.223839635827341 
2332	 0.268441369162225 
2333	 0.252035268310426 
2334	 0.162985880647105 
2335	 0.217358115647431 
2336	 0.252206206678271 
2337	 0.134403391379586 
2338	 0.149243380777538 
2339	 0.067898269523131 
2340	 3.16193624857171E-02 
2341	 8.44745130282966E-02 
2342	-5.06362296606297E-02 
2343	-0.174528265114226 
2344	-0.329808812942667 
2345	-0.265610165855579 
2346	 0.021704852781665 
2347	 0.273002585078022 
2348	 0.33763575065898 
2349	 0.111188753355757 
2350	 9.96139904397773E-02 
2351	 0.138600188175806 
2352	 0.1341589690065 
2353	 0.303217549545525 
2354	 0.244694096232053 
2355	 1.98676620936677E-02 
2356	-1.17194137462196E-02 
2357	 4.06338653604068E-02 
2358	-6.16700391525181E-02 
2359	-0.125725319063408 
2360	 5.73812025925787E-02 
2361	 9.06891533841819E-03 
2362	-1.82321536133121E-02 
2363	 0.188782609675775 
2364	 8.31519490378057E-02 
2365	-3.58898871411494E-02 
2366	-8.22344016227542E-04 
2367	-0.177856034869476 
2368	-0.309038148430545 
2369	-0.401250169471657 
2370	-0.251188832982983 
2371	 7.57127227079902E-02 
2372	 0.176301478589404 
2373	 0.214863595494091 
2374	-0.104510200950521 
2375	-0.313165269024089 
2376	-4.72808845837221E-02 
2377	 8.97630866068665E-02 
2378	 1.06872217109713E-02 
2379	-0.305960635828392 
2380	-0.681515048452711 
2381	-1.15807412789892 
2382	-1.16624314037854 
2383	-0.660544304716763 
2384	 0.635340516080507 
2385	 4.16107231809713 
2386	-2.04357344845971 
2387	-0.77134567164972 
2388	 1.12486256227532 
2389	 5.72196428217726 
2390	 2.62340111848513 
2391	 0.402230955409593 
2392	 0.479952781207777 
2393	-93.4127913740269 
2394	 4.69335438438623 
2395	 517.707467611767 
2396	 15.3160775305502 
2397	 0.190631598844041 
2398	-19.5676200785162 
2399	 3.84238735259032 
2400	-7.72609917743787 
2401	-0.717596490913484 
2402	-0.422285790102143 
2403	-0.614360793362409 
2404	 0.603286442310018 
2405	 0.345855773848652 
2406	-3.68329613452665 
2407	 3.06816457535224 
2408	 6.85801484748315 
2409	 2.86062195233747 
2410	 2.08824034332274 
2411	 2.61503943941368 
2412	 3.35891331366108 
2413	 2.9304653467547 
2414	 0.324100189377065 
2415	-5.47601199759141E-02 
2416	-1.08370798168023 
2417	-1.49504922466577 
2418	-0.759705001999194 
2419	-1.054789292791 
2420	-0.410930555934509 
2421	-5.35770451953367E-02 
2422	-0.646651004428842 
2423	-0.154179173432216 
2424	 0.32323708892061 
2425	 0.766560002276203 
2426	-0.67127368752754 
2427	-7.30284139891314E-02 
2428	 1.00293919754986 
2429	 2.64680222781094 
2430	-6.05703796943048 
2431	 6.50406855312931 
2432	 2.61856861578297 
2433	 3.83014754502029 
2434	 2.06486346854436 
2435	 0.523135674926976 
2436	-0.356396692604216 
2437	-1.00873397511762 
2438	-4.1747032381095 
2439	 0.794723907617886 
2440	 6.88761972468327E-02 
2441	-8.69825989781775E-02 
2442	-1.68242471329675 
2443	 1.53043281410152 
2444	-8.81477584123187E-02 
2445	-1.06743779956175 
2446	 0.926854989757926 
2447	-0.181051834324218 
2448	 1.48172354613483 
2449	 0.600478160934807 
2450	 0.803960155353984 
2451	 0.631398841800036 
2452	 6.82450482424428 
2453	-1.86258957100277 
2454	-0.666001014085753 
2455	-0.138247251028741 
2456	 0.101443587533035 
2457	 0.222581766243721 
2458	 0.255671104017714 
2459	 0.150168858886486 
2460	 0.188438583275004 
2461	 0.197682251707248 
2462	 7.57121259082682E-02 
2463	 0.868162494326389 
2464	 1.52553490984189 
2465	 0.279965984556695 
2466	-0.298523661026758 
2467	-0.312958568489165 
2468	 0.381847439173063 
2469	-29.2394707391019 
2470	-1.61482097831263 
2471	-0.607846723257374 
2472	-0.212183234737431 
2473	-0.131354575647132 
2474	 0.131554631415354 
2475	 0.754593097218668 
2476	 1.28908077239927 
2477	 1.71892945420908 
2478	 0.42014082336024 
2479	 0.52983059734749 
2480	 0.894256745400179 
2481	 0.769734440867243 
2482	 1.76782425073266 
2483	 1.40966919951205 
2484	 1.67904376723745 
2485	 14.0379495810741 
2486	-4.00161307933761 
2487	-11.949872379118 
2488	 1.82759992224268 
2489	 17.2048603910715 
2490	 15.8167424308229 
2491	 1.71426285065707 
2492	 0.483273985086151 
2493	 2.07591413555538 
2494	 2.66489100347566 
2495	-3.86483803545983 
2496	-2.16219099685191 
2497	-0.849994248488295 
2498	-0.656277345143074 
2499	-0.234756993053831 
2500	 0.566844981534711 
