Wavelength	rt0712west_close200003.asd
350	 7.40183134544193E-02 
351	 7.40367923134295E-02 
352	 7.50758886437167E-02 
353	 7.56106489961521E-02 
354	 7.49361472265312E-02 
355	 7.46981632699622E-02 
356	 7.57369732150103E-02 
357	 0.076063025418215 
358	 7.42291419569591E-02 
359	 7.51374703232371E-02 
360	 0.075651775309541 
361	 7.53938871194919E-02 
362	 7.59136572040179E-02 
363	 7.59797772188875E-02 
364	 7.59008916533132E-02 
365	 7.57227960270667E-02 
366	 7.47440414128319E-02 
367	 7.60276785812292E-02 
368	 7.71319507400057E-02 
369	 0.075918790545045 
370	 0.07687781906711 
371	 7.64767532108255E-02 
372	 7.54589172834318E-02 
373	 7.65959150246954E-02 
374	 7.62448065366031E-02 
375	 7.60166257630652E-02 
376	 0.07673911230582 
377	 7.74057809501042E-02 
378	 7.80200477378446E-02 
379	 0.077742235168585 
380	 7.66471229019932E-02 
381	 7.81863910804518E-02 
382	 7.83445419449329E-02 
383	 7.77468252126097E-02 
384	 7.88180226153632E-02 
385	 7.91840223957554E-02 
386	 7.89055856476272E-02 
387	 7.84657835478713E-02 
388	 7.85538773270357E-02 
389	 7.92700438144007E-02 
390	 8.05912361606306E-02 
391	 8.17605462470295E-02 
392	 0.080122845390504 
393	 8.03764403784974E-02 
394	 0.081323012471426 
395	 8.04580582979071E-02 
396	 8.13854269785363E-02 
397	 8.18756374572718E-02 
398	 8.15258166811721E-02 
399	 8.17279521926916E-02 
400	 0.082022480902767 
401	 8.21405514925996E-02 
402	 8.21653207901665E-02 
403	 8.30363421602204E-02 
404	 8.28610999687752E-02 
405	 8.22926389868079E-02 
406	 8.26621278161322E-02 
407	 8.32026791215837E-02 
408	 8.31227174352224E-02 
409	 8.28613928027327E-02 
410	 8.39080791160024E-02 
411	 8.38674310792934E-02 
412	 8.37464414714126E-02 
413	 8.43669089812796E-02 
414	 8.46342922508993E-02 
415	 8.44785873291611E-02 
416	 8.44496709880321E-02 
417	 8.51288558802474E-02 
418	 8.55096555200943E-02 
419	 8.56125897426143E-02 
420	 0.08574096974904 
421	 8.63798483590848E-02 
422	 8.66545221146666E-02 
423	 8.68521071530236E-02 
424	 8.72378802334443E-02 
425	 8.72482187503601E-02 
426	 8.77218963566526E-02 
427	 0.088448476416196 
428	 8.87976513022769E-02 
429	 8.91942517489949E-02 
430	 8.96441096477291E-02 
431	 9.01001017147921E-02 
432	 9.05011975034626E-02 
433	 9.07247986864542E-02 
434	 9.10791469222169E-02 
435	 9.16922963625554E-02 
436	 9.18353439883244E-02 
437	 9.23019372176111E-02 
438	 9.30121335325216E-02 
439	 9.34176309482259E-02 
440	 9.35176377372987E-02 
441	 9.38219016355717E-02 
442	 9.44859961341918E-02 
443	 0.095087850725334 
444	 9.51377443754441E-02 
445	 9.52237365889818E-02 
446	 9.59164934579115E-02 
447	 9.65144486125866E-02 
448	 9.66593549589294E-02 
449	 9.66571133557699E-02 
450	 9.72049020208667E-02 
451	 9.73638705187933E-02 
452	 0.097517569926848 
453	 9.79300717996542E-02 
454	 9.82237237515554E-02 
455	 0.09863843226978 
456	 0.098893720811372 
457	 9.87541925743856E-02 
458	 9.92360726874878E-02 
459	 9.94301642549343E-02 
460	 9.92525570201521E-02 
461	 9.95196262713726E-02 
462	 9.99008077678135E-02 
463	 0.100203542592527 
464	 0.100325585419606 
465	 0.100333267119218 
466	 0.100371607704012 
467	 0.100521031538175 
468	 0.10078516429298 
469	 0.100940621135711 
470	 0.101101702747335 
471	 0.101332614881154 
472	 0.101586011644383 
473	 0.101533660100223 
474	 0.101707910966883 
475	 0.102430130961738 
476	 0.102410080325603 
477	 0.102690494979758 
478	 0.103256878313689 
479	 0.103408966902223 
480	 0.103562738331528 
481	 0.103760510351402 
482	 0.104062174414867 
483	 0.104679917371422 
484	 0.105254060846883 
485	 0.105483961747032 
486	 0.105334381206921 
487	 0.105885673134097 
488	 0.106540816673741 
489	 0.10698278789511 
490	 0.107283440091075 
491	 0.107913534424881 
492	 0.108426975273405 
493	 0.108555983553902 
494	 0.108995698682863 
495	 0.109709241136366 
496	 0.110359395327721 
497	 0.110559056627465 
498	 0.111044219110484 
499	 0.111585036251502 
500	 0.112001808121036 
501	 0.112350962122434 
502	 0.112870372199678 
503	 0.113324350696421 
504	 0.113572797747235 
505	 0.114462105718782 
506	 0.115440776329863 
507	 0.116127064502125 
508	 0.116375822915262 
509	 0.116817446078963 
510	 0.117559527838583 
511	 0.118448729716828 
512	 0.118939267290567 
513	 0.119744659075846 
514	 0.12059765454962 
515	 0.120990367560914 
516	 0.122035488553401 
517	 0.122805836087063 
518	 0.123123145903251 
519	 0.123934498740259 
520	 0.12474608682685 
521	 0.125482087542555 
522	 0.126193699963757 
523	 0.127016204332333 
524	 0.127944649651414 
525	 0.128844497340429 
526	 0.129533041265757 
527	 0.130368575788389 
528	 0.131087395430352 
529	 0.131709325284392 
530	 0.133084080034769 
531	 0.133768638387735 
532	 0.134351596472462 
533	 0.135834652583663 
534	 0.136798290409973 
535	 0.137495589296696 
536	 0.138249560529296 
537	 0.139319189726565 
538	 0.14017404633266 
539	 0.14095446652628 
540	 0.141895075351221 
541	 0.142984149464375 
542	 0.14388252269757 
543	 0.144654776495828 
544	 0.145616987679212 
545	 0.146725616296255 
546	 0.147968218901418 
547	 0.149240285424211 
548	 0.150269968768155 
549	 0.151275827855728 
550	 0.152277426543585 
551	 0.153238823361654 
552	 0.154202571919672 
553	 0.155193626071632 
554	 0.156200735634608 
555	 0.157165692720737 
556	 0.158000946293716 
557	 0.158952670749076 
558	 0.160124195152324 
559	 0.160927521827156 
560	 0.161638422469284 
561	 0.162449504071916 
562	 0.163456860737022 
563	 0.164283038605929 
564	 0.164959147312621 
565	 0.165557862750421 
566	 0.166120599234514 
567	 0.166521270214958 
568	 0.166861756864007 
569	 0.167333556495971 
570	 0.168059029804099 
571	 0.168762140169254 
572	 0.169302605839287 
573	 0.169715615930842 
574	 0.170287700959187 
575	 0.170861524141692 
576	 0.171326390575489 
577	 0.172117422252868 
578	 0.172737117216126 
579	 0.173137375933679 
580	 0.173544318654146 
581	 0.173914279753812 
582	 0.174268209699159 
583	 0.174539937705868 
584	 0.174496315396018 
585	 0.174191660088209 
586	 0.173543298108574 
587	 0.172447785343428 
588	 0.171073268373938 
589	 0.170256978308615 
590	 0.170358742298072 
591	 0.170943978200284 
592	 0.171169950899967 
593	 0.171132455439961 
594	 0.171080768352299 
595	 0.171074031617725 
596	 0.170991864327953 
597	 0.170992799657268 
598	 0.171296336673703 
599	 0.17129177178418 
600	 0.171186847725527 
601	 0.171105699099151 
602	 0.170861971147932 
603	 0.170870547219888 
604	 0.170989248905037 
605	 0.17098046838024 
606	 0.171106615584092 
607	 0.17130072070467 
608	 0.171372125615623 
609	 0.171052676115174 
610	 0.171077948949585 
611	 0.171262096612323 
612	 0.17134506551911 
613	 0.171491399882518 
614	 0.171528084303117 
615	 0.171402098487145 
616	 0.171195439640873 
617	 0.171487312108513 
618	 0.17150357130898 
619	 0.171094099997959 
620	 0.171362873895717 
621	 0.171327222299109 
622	 0.171256040553732 
623	 0.171526814270401 
624	 0.17099816892209 
625	 0.170449208576985 
626	 0.17008112307665 
627	 0.169505711581669 
628	 0.169744531402382 
629	 0.170190165549569 
630	 0.170283736455776 
631	 0.170451859296128 
632	 0.170375748224994 
633	 0.170298373079726 
634	 0.170606175644834 
635	 0.170651504633086 
636	 0.170652899194162 
637	 0.170774381764343 
638	 0.170992955806374 
639	 0.171122758023031 
640	 0.17114434811974 
641	 0.171079364025832 
642	 0.170865543775389 
643	 0.170663258531968 
644	 0.170140641136768 
645	 0.168613877186641 
646	 0.167849337674315 
647	 0.167826575151955 
648	 0.168101731533828 
649	 0.168414750516958 
650	 0.168644936996921 
651	 0.168705395646525 
652	 0.168567806751928 
653	 0.168504605330629 
654	 0.167775220633441 
655	 0.166629186628538 
656	 0.166865643507708 
657	 0.16708919130023 
658	 0.16700529076963 
659	 0.166676871049886 
660	 0.166393390283546 
661	 0.166208791819501 
662	 0.166070898986728 
663	 0.165887569184148 
664	 0.16591604828931 
665	 0.16576727288163 
666	 0.16530407382204 
667	 0.164938261008227 
668	 0.165025438495978 
669	 0.165264484621254 
670	 0.165206460549928 
671	 0.164962096331199 
672	 0.164772359755954 
673	 0.16476979355672 
674	 0.164957752166493 
675	 0.165090168561464 
676	 0.165226577708073 
677	 0.165405113943449 
678	 0.165411329173196 
679	 0.165699196695312 
680	 0.165971450808119 
681	 0.165744758475371 
682	 0.165900065180005 
683	 0.166070028339656 
684	 0.165875701469982 
685	 0.164962106715265 
686	 0.164536950264545 
687	 0.164338477951826 
688	 0.163887597148546 
689	 0.164316920726279 
690	 0.164267731999103 
691	 0.163409166634199 
692	 0.162078523476354 
693	 0.161278241711991 
694	 0.161326216892143 
695	 0.161953276751247 
696	 0.162728156906559 
697	 0.161918092416367 
698	 0.159938350618129 
699	 0.158245783062057 
700	 0.158250026078696 
701	 0.158388902408569 
702	 0.157927179697357 
703	 0.157041747625158 
704	 0.156266317330771 
705	 0.155348555420213 
706	 0.154256455434872 
707	 0.153584606180685 
708	 0.152617683442399 
709	 0.151370490291367 
710	 0.150132810669339 
711	 0.148941441601246 
712	 0.147311844694036 
713	 0.145037490369747 
714	 0.142155556817428 
715	 0.138686523045555 
716	 0.134212385451146 
717	 0.129530479648855 
718	 0.127012785761586 
719	 0.126009993502358 
720	 0.125692474606553 
721	 0.125291842106188 
722	 0.123019398236333 
723	 0.119598081930226 
724	 0.116567432575766 
725	 0.114679967160321 
726	 0.112064472624043 
727	 0.109370145171914 
728	 0.107219038219518 
729	 0.104663959540934 
730	 0.101987666948559 
731	 9.96866623708108E-02 
732	 9.78156824836033E-02 
733	 9.68319875902652E-02 
734	 9.52326157115896E-02 
735	 9.29813458327626E-02 
736	 9.20763283434502E-02 
737	 9.14685526279334E-02 
738	 9.09429000020296E-02 
739	 9.05204244712759E-02 
740	 9.03158147586031E-02 
741	 9.01944505568229E-02 
742	 9.02828296399107E-02 
743	 9.06965468186717E-02 
744	 9.05224328961105E-02 
745	 9.01190299326416E-02 
746	 8.99101096622533E-02 
747	 9.02255657048645E-02 
748	 9.03490993512643E-02 
749	 9.02954300798254E-02 
750	 9.02498370324223E-02 
751	 9.02928218450321E-02 
752	 9.02066427496458E-02 
753	 9.00440856923681E-02 
754	 8.99728472797257E-02 
755	 8.97505836567854E-02 
756	 8.95593637888866E-02 
757	 8.94309655326556E-02 
758	 8.90347674513073E-02 
759	 8.79893208070163E-02 
760	 8.54994541095846E-02 
761	 8.37045238222799E-02 
762	 8.40426351297182E-02 
763	 8.48354173756248E-02 
764	 8.62737580933699E-02 
765	 8.84833995002805E-02 
766	 8.96633378678031E-02 
767	 9.02110231627764E-02 
768	 9.05321349759078E-02 
769	 9.10134255365763E-02 
770	 9.12636009036227E-02 
771	 9.13977311480326E-02 
772	 9.16044139437904E-02 
773	 0.092005183055438 
774	 9.25165416821185E-02 
775	 9.28726766614101E-02 
776	 9.28851765305122E-02 
777	 9.32679800102935E-02 
778	 9.36151065124443E-02 
779	 9.39296655867491E-02 
780	 0.094647917806376 
781	 9.47498876098007E-02 
782	 9.50720597212778E-02 
783	 9.59624361255633E-02 
784	 9.57707804651708E-02 
785	 0.096126076153952 
786	 9.67809100987795E-02 
787	 9.69268884014905E-02 
788	 9.70780569528481E-02 
789	 9.74975572346271E-02 
790	 9.80694760822919E-02 
791	 9.84730345538315E-02 
792	 9.96892522260915E-02 
793	 0.100331209121831 
794	 9.99936183200698E-02 
795	 0.100245636944746 
796	 0.100740241399268 
797	 0.101451657452564 
798	 0.102207328056777 
799	 0.101943556934004 
800	 0.101999899711188 
801	 0.102719479372416 
802	 0.103674914800449 
803	 0.104269445849672 
804	 0.10449737010196 
805	 0.104586716807467 
806	 0.104863219312526 
807	 0.104599769914447 
808	 0.103802190980484 
809	 0.102724695616811 
810	 0.101843717846167 
811	 0.1014081668127 
812	 0.10063978604964 
813	 9.84554782930741E-02 
814	 9.67532487202969E-02 
815	 9.56535451115049E-02 
816	 9.53773146058133E-02 
817	 9.59426184736832E-02 
818	 9.61224777184311E-02 
819	 9.56101642085141E-02 
820	 9.47390274311572E-02 
821	 9.43497211361892E-02 
822	 9.26132931737517E-02 
823	 8.99859284832842E-02 
824	 8.78415033120303E-02 
825	 8.74420950728095E-02 
826	 8.54826402465568E-02 
827	 8.27200591961143E-02 
828	 8.12192226542225E-02 
829	 7.80658542276614E-02 
830	 7.60324125254254E-02 
831	 7.52401735429528E-02 
832	 7.40194723355385E-02 
833	 7.27576430779219E-02 
834	 7.23927239757323E-02 
835	 7.25142706909606E-02 
836	 7.12178167501868E-02 
837	 0.070407370283692 
838	 7.02190212579674E-02 
839	 7.02781735873032E-02 
840	 6.99541743130719E-02 
841	 6.96058227285103E-02 
842	 6.91957902934321E-02 
843	 6.86192974603582E-02 
844	 6.80118596374569E-02 
845	 6.75318188767088E-02 
846	 6.76208714652495E-02 
847	 6.85620807651468E-02 
848	 6.76081232319829E-02 
849	 6.65526140496274E-02 
850	 6.62632649150584E-02 
851	 6.56971214640195E-02 
852	 6.52514675286578E-02 
853	 6.50919145949012E-02 
854	 6.50273842193303E-02 
855	 6.42111853451266E-02 
856	 6.41284593159673E-02 
857	 6.42880697776514E-02 
858	 6.40232470580538E-02 
859	 6.41436232970524E-02 
860	 6.35678467092993E-02 
861	 6.26962975195029E-02 
862	 6.25352120418606E-02 
863	 6.28058207734211E-02 
864	 6.30639639180797E-02 
865	 6.26618764447106E-02 
866	 6.11464176111791E-02 
867	 6.12083329546637E-02 
868	 6.12901604726034E-02 
869	 6.06105058522378E-02 
870	 6.01801457276813E-02 
871	 6.02518293647299E-02 
872	 0.059763852413463 
873	 5.84945979002367E-02 
874	 5.87761218178647E-02 
875	 5.85188578343907E-02 
876	 5.77967036338297E-02 
877	 5.72379841388372E-02 
878	 5.68330085330923E-02 
879	 5.62569690326759E-02 
880	 5.57399928282327E-02 
881	 5.55359577886304E-02 
882	 5.43180159104306E-02 
883	 5.42522091681203E-02 
884	 5.50242902472415E-02 
885	 5.44561184209886E-02 
886	 5.29403807667649E-02 
887	 0.052530573436137 
888	 5.30998089164973E-02 
889	 5.20036758884604E-02 
890	 5.23882866140465E-02 
891	 5.17766902313567E-02 
892	 4.90324542573716E-02 
893	 4.84006723221975E-02 
894	 4.99749369041146E-02 
895	 0.050052546799161 
896	 0.045839494757364 
897	 4.50115893294106E-02 
898	 4.67878432900004E-02 
899	 4.85468131952942E-02 
900	 4.80267705588822E-02 
901	 4.70437234676379E-02 
902	 0.044371372330442 
903	 4.30454675754511E-02 
904	 4.57563260228246E-02 
905	 4.69198341044763E-02 
906	 4.38428344097756E-02 
907	 4.00194805471258E-02 
908	 4.30633938604732E-02 
909	 4.34310191726501E-02 
910	 4.40733878435556E-02 
911	 4.44719408031959E-02 
912	 4.07374465232101E-02 
913	 4.02171997444685E-02 
914	 4.10352905403086E-02 
915	 4.22013675612224E-02 
916	 4.46251012168094E-02 
917	 4.12385164198344E-02 
918	 4.06786827130257E-02 
919	 4.32975346974205E-02 
920	 3.84708494008298E-02 
921	 4.04607521646718E-02 
922	 4.37083024925023E-02 
923	 0.041758484254114 
924	 3.40259056221255E-02 
925	 3.46272420382994E-02 
926	 3.98891556483079E-02 
927	 0.040110340969571 
928	 3.34808099197966E-02 
929	 4.34986618963444E-02 
930	 6.08113410209458E-02 
931	 0.04515790517439 
932	 7.68183696441894E-03 
933	 5.26791784498517E-02 
934	 0.10750770350077 
935	 3.70540630495595E-02 
936	 3.43149270041721E-02 
937	 5.20679226730652E-02 
938	 5.87571852314349E-02 
939	 4.29911640375905E-02 
940	 2.34603370413866E-02 
941	 3.66487223888295E-02 
942	 4.63539384275635E-02 
943	 2.26367959563147E-04 
944	 2.14225599382121E-02 
945	 2.69410092403212E-02 
946	 1.21775040119274E-02 
947	 2.49754266107106E-02 
948	 4.63311558622028E-02 
949	 7.05371352436286E-02 
950	 6.21765709894484E-02 
951	 5.31800562182043E-03 
952	 7.64911401662056E-03 
953	 2.81253493314629E-02 
954	 0.03585225250596 
955	 0.02593692436072 
956	 4.02861265029313E-02 
957	 2.35362725569084E-02 
958	 1.03215333507824E-02 
959	 6.28499010980054E-02 
960	 4.81820283072853E-02 
961	 3.13019947393876E-02 
962	 3.75926060113649E-02 
963	 5.13310588086669E-02 
964	 3.90604292865093E-02 
965	 2.73647804791982E-02 
966	 2.81258401992007E-02 
967	 3.67174832081594E-02 
968	 3.56094703521593E-02 
969	 0.034187529120165 
970	 3.87502304189435E-02 
971	 4.82952934079625E-02 
972	 3.74543461853529E-02 
973	 0.033694434268244 
974	 4.14230601046467E-02 
975	 3.81971651417202E-02 
976	 3.67546547667861E-02 
977	 4.00776453182247E-02 
978	 4.14339666197852E-02 
979	 3.21161523523978E-02 
980	 3.43912918497707E-02 
981	 3.23957789468564E-02 
982	 2.86008889258184E-02 
983	 3.74589744758566E-02 
984	 4.59457028917194E-02 
985	 3.99833380610401E-02 
986	 3.02904276434259E-02 
987	 3.93326454218133E-02 
988	 0.042594974191249 
989	 3.92086089250593E-02 
990	 3.43859630478398E-02 
991	 0.034818138742966 
992	 0.033934677171088 
993	 3.34707457787632E-02 
994	 3.58347443987931E-02 
995	 4.13720165411743E-02 
996	 3.92307016546532E-02 
997	 3.77328079272478E-02 
998	 3.97323912762536E-02 
999	 4.19313108755091E-02 
1000	 3.41379465167469E-02 
1001	 3.72644168175794E-02 
1002	 3.91460992756362E-02 
1003	 3.84546827760385E-02 
1004	 3.30518157113928E-02 
1005	 3.18396240461797E-02 
1006	 3.14267455992784E-02 
1007	 0.031863000453106 
1008	 3.47231042995918E-02 
1009	 3.60103679160786E-02 
1010	 3.72878871763252E-02 
1011	 3.79247752425025E-02 
1012	 3.82030604175909E-02 
1013	 3.96627715416869E-02 
1014	 4.02652898423989E-02 
1015	 4.10439890373227E-02 
1016	 4.04569995104592E-02 
1017	 3.83446346093657E-02 
1018	 3.72227707487006E-02 
1019	 3.62340226560357E-02 
1020	 3.45165288744077E-02 
1021	 3.22064706905029E-02 
1022	 3.12161134665585E-02 
1023	 3.08320726381081E-02 
1024	 0.028406231991582 
1025	 3.02647558001951E-02 
1026	 3.14384010616781E-02 
1027	 3.10397174997721E-02 
1028	 2.92788616849252E-02 
1029	 2.96973236998841E-02 
1030	 2.94478470139364E-02 
1031	 3.05453931183609E-02 
1032	 3.57634201266934E-02 
1033	 3.54986812117883E-02 
1034	 3.19094758666159E-02 
1035	 3.05279728415289E-02 
1036	 2.50228734144587E-02 
1037	 2.46448047218144E-02 
1038	 2.97977907895294E-02 
1039	 0.032321611484236 
1040	 3.51267565978988E-02 
1041	 0.037045488246465 
1042	 3.79833939970661E-02 
1043	 3.67391443676649E-02 
1044	 3.62632822613793E-02 
1045	 3.64423386029986E-02 
1046	 0.034985805753397 
1047	 3.03706113324116E-02 
1048	 2.95341911299155E-02 
1049	 2.92948005889215E-02 
1050	 3.02710254460739E-02 
1051	 3.67340944442288E-02 
1052	 3.78791328315141E-02 
1053	 3.57848070262307E-02 
1054	 3.50839851538708E-02 
1055	 3.00043327588803E-02 
1056	 2.87515697240957E-02 
1057	 2.95931900004967E-02 
1058	 3.48670347942579E-02 
1059	 3.51629737616148E-02 
1060	 3.55065535655889E-02 
1061	 3.52331020483282E-02 
1062	 3.19012671097176E-02 
1063	 3.05290880651598E-02 
1064	 2.99654346207257E-02 
1065	 3.01710490418304E-02 
1066	 3.05464040458782E-02 
1067	 3.11376537380312E-02 
1068	 3.47540216831188E-02 
1069	 3.52923864567619E-02 
1070	 3.22057200561287E-02 
1071	 3.18310301020171E-02 
1072	 3.18449240476135E-02 
1073	 3.14593678446429E-02 
1074	 3.20607190407121E-02 
1075	 3.55751545448922E-02 
1076	 3.57007376231341E-02 
1077	 3.41400824575507E-02 
1078	 3.30167033112406E-02 
1079	 3.01816037743941E-02 
1080	 0.029286908344489 
1081	 2.99396066517612E-02 
1082	 2.92910059735451E-02 
1083	 2.76545639298423E-02 
1084	 2.79859887313377E-02 
1085	 2.88034143939616E-02 
1086	 2.93497884590615E-02 
1087	 3.28035161363964E-02 
1088	 3.43250556234976E-02 
1089	 3.40876262282028E-02 
1090	 3.29993670751389E-02 
1091	 3.36266100105622E-02 
1092	 3.48941568878262E-02 
1093	 3.42484738131453E-02 
1094	 0.033893415629906 
1095	 3.34512891127722E-02 
1096	 2.94842114676483E-02 
1097	 2.97799205936547E-02 
1098	 3.46664144314861E-02 
1099	 3.59066801751004E-02 
1100	 3.81325923448946E-02 
1101	 3.80487515199272E-02 
1102	 3.38107370298097E-02 
1103	 3.16982470087038E-02 
1104	 2.75455806998466E-02 
1105	 2.54976297247823E-02 
1106	 3.09942624995218E-02 
1107	 2.85333634993957E-02 
1108	 3.15964833910958E-02 
1109	 0.043137011404354 
1110	 4.46112166983471E-02 
1111	 4.26238794063186E-02 
1112	 3.70808501834469E-02 
1113	 1.17332185734319E-02 
1114	-2.26208027058522E-03 
1115	-1.93156784443337E-02 
1116	-2.71878880254382E-02 
1117	 3.77773101758771E-03 
1118	 3.93613916721245E-03 
1119	-1.82220445687983E-02 
1120	-3.18045281435665E-02 
1121	-9.01520863925735E-02 
1122	-0.168767934340477 
1123	-0.178973458517847 
1124	-0.057637592386836 
1125	-5.80659265429947E-02 
1126	-0.150655613487533 
1127	-2.83612017883722E-02 
1128	 1.44780388570375E-02 
1129	 3.89921143925551E-02 
1130	 0.117988908408629 
1131	 0.124403822046275 
1132	 6.19650560128718E-02 
1133	 1.59060522434311E-02 
1134	-4.14008400083256E-02 
1135	-4.31629105824665E-02 
1136	-0.043551139426262 
1137	-2.65409864622828E-02 
1138	 3.90484907151966E-02 
1139	 0.075465237082659 
1140	 4.13996055234672E-02 
1141	 3.25360531085842E-02 
1142	 8.74930029555758E-03 
1143	-4.49243267056662E-03 
1144	 1.27888449934671E-02 
1145	 6.21703827381428E-02 
1146	 0.145314099460145 
1147	 0.15318714026823 
1148	 0.126063148478168 
1149	 0.119922733714002 
1150	 8.81828550491212E-02 
1151	 1.23436960297664E-03 
1152	 3.6602246762371E-03 
1153	 4.48464008482142E-02 
1154	 4.32138002534536E-02 
1155	 4.42801619341244E-02 
1156	 4.36722496305284E-02 
1157	 3.56584960730802E-02 
1158	 3.09035694765352E-02 
1159	 2.51367250277834E-02 
1160	 3.45342693273916E-02 
1161	 3.64894902045381E-02 
1162	 3.20964942194027E-02 
1163	 4.39896565389157E-02 
1164	 0.044701297809108 
1165	 3.78012516554234E-02 
1166	 3.36062096749573E-02 
1167	 2.20625873769745E-02 
1168	 2.08913638885289E-02 
1169	 2.76615190042617E-02 
1170	 3.04286675824738E-02 
1171	 3.34592200478997E-02 
1172	 3.94307136160464E-02 
1173	 3.70356776851937E-02 
1174	 2.74463463302215E-02 
1175	 2.89886255269507E-02 
1176	 2.95657363743435E-02 
1177	 2.78118474018661E-02 
1178	 3.43037433616447E-02 
1179	 3.76622923369544E-02 
1180	 3.40725103971305E-02 
1181	 3.38375088410538E-02 
1182	 3.51530691543382E-02 
1183	 3.10350997737239E-02 
1184	 2.70238259724801E-02 
1185	 3.00916640562613E-02 
1186	 3.39818822282812E-02 
1187	 3.28302541778136E-02 
1188	 2.98120449377593E-02 
1189	 2.90512472446699E-02 
1190	 2.70476085050644E-02 
1191	 2.58693302840875E-02 
1192	 2.71187365855497E-02 
1193	 3.44575945046976E-02 
1194	 3.31632454685935E-02 
1195	 2.56379007248443E-02 
1196	 2.68139774075735E-02 
1197	 2.71162377350912E-02 
1198	 2.68277266646289E-02 
1199	 3.45900338474952E-02 
1200	 3.62979835600511E-02 
1201	 3.09866181999837E-02 
1202	 3.11344611722025E-02 
1203	 3.37193366404908E-02 
1204	 3.50587229508171E-02 
1205	 3.61185008014991E-02 
1206	 3.29304622718328E-02 
1207	 2.73920619051569E-02 
1208	 2.64248427267472E-02 
1209	 2.91045471205533E-02 
1210	 3.32732013878297E-02 
1211	 3.46391797618571E-02 
1212	 2.95980448204043E-02 
1213	 2.69817020134205E-02 
1214	 2.82495006805631E-02 
1215	 3.27417262820699E-02 
1216	 3.50639898720556E-02 
1217	 3.50309421262317E-02 
1218	 3.54394580270761E-02 
1219	 3.34268103285251E-02 
1220	 2.87253623911047E-02 
1221	 2.95860864050002E-02 
1222	 3.25702104792043E-02 
1223	 2.98365924501869E-02 
1224	 2.98537871586319E-02 
1225	 3.32924541334771E-02 
1226	 3.47684465359048E-02 
1227	 3.46616156853358E-02 
1228	 3.37504375291028E-02 
1229	 3.34022552969969E-02 
1230	 3.10549823218751E-02 
1231	 2.85520748025366E-02 
1232	 2.95541507586167E-02 
1233	 3.08135412839256E-02 
1234	 3.07604065715244E-02 
1235	 3.09645925554067E-02 
1236	 3.13212812968873E-02 
1237	 3.12664384889968E-02 
1238	 3.01368580412578E-02 
1239	 3.17234583719768E-02 
1240	 3.26831722164542E-02 
1241	 3.22674894394557E-02 
1242	 3.15697832986215E-02 
1243	 2.91129735467525E-02 
1244	 2.82381911949453E-02 
1245	 2.97561301680924E-02 
1246	 3.10388355203832E-02 
1247	 3.35793160807961E-02 
1248	 3.52801866593856E-02 
1249	 3.29472713857812E-02 
1250	 0.032346458577509 
1251	 3.35437707199186E-02 
1252	 3.19344147249911E-02 
1253	 0.031128482828826 
1254	 3.13452987375525E-02 
1255	 3.13479452439329E-02 
1256	 3.15661894652624E-02 
1257	 0.033688680316918 
1258	 0.033254338371103 
1259	 2.96741371923392E-02 
1260	 2.94827079344761E-02 
1261	 3.07066625002424E-02 
1262	 3.09081063799245E-02 
1263	 3.32935960483999E-02 
1264	 3.41047315827909E-02 
1265	 3.15345723471412E-02 
1266	 3.09061031421742E-02 
1267	 3.06226745282632E-02 
1268	 3.12005320973926E-02 
1269	 3.13345414564074E-02 
1270	 0.028399686940557 
1271	 2.75195021343429E-02 
1272	 2.96067638975091E-02 
1273	 3.09636261088057E-02 
1274	 3.03511667726632E-02 
1275	 3.07907949874692E-02 
1276	 3.16310274323221E-02 
1277	 3.08667502396344E-02 
1278	 3.16678436362273E-02 
1279	 3.28104605499074E-02 
1280	 3.05705681057757E-02 
1281	 2.95470454634417E-02 
1282	 2.89335351962714E-02 
1283	 2.88417774264083E-02 
1284	 2.73174709440377E-02 
1285	 0.028141185109459 
1286	 3.35258269200861E-02 
1287	 3.39687285155447E-02 
1288	 3.23096206996788E-02 
1289	 3.11232234550804E-02 
1290	 2.69594500379563E-02 
1291	 2.32718435855896E-02 
1292	 2.32858161237502E-02 
1293	 2.65644639745718E-02 
1294	 2.92451609345493E-02 
1295	 2.86626525461689E-02 
1296	 2.77932749398694E-02 
1297	 2.67884020042061E-02 
1298	 2.79172077228072E-02 
1299	 2.84470223645052E-02 
1300	 2.80356918390776E-02 
1301	 0.027956152896464 
1302	 0.02486262391366 
1303	 2.51823401510178E-02 
1304	 2.46671995573091E-02 
1305	 1.95115972295535E-02 
1306	 1.68244781613645E-02 
1307	 0.015443294745105 
1308	 0.013389278516641 
1309	 7.34633828050628E-03 
1310	 1.12052545274519E-02 
1311	 2.78810598258385E-02 
1312	 3.12496947418426E-02 
1313	 3.47425569927005E-02 
1314	 3.61848165557504E-02 
1315	 2.28282647006868E-02 
1316	 1.59000414386665E-02 
1317	 1.23898943253651E-02 
1318	 1.19431999579453E-02 
1319	 1.69661706373923E-02 
1320	 1.46198131762455E-02 
1321	 9.76585152554452E-03 
1322	 9.86912805113333E-03 
1323	 3.50158290099322E-03 
1324	 7.58907119025495E-05 
1325	 7.37521364785335E-03 
1326	 0.010320513644181 
1327	 1.76643095114152E-02 
1328	 3.10010459048486E-02 
1329	 2.04154190566706E-02 
1330	 9.7161398048652E-03 
1331	 2.05820921712785E-02 
1332	 2.76843742574265E-02 
1333	 3.02719513142165E-02 
1334	 3.57685753911506E-02 
1335	 4.83216783184827E-02 
1336	 4.02505090356851E-02 
1337	 2.69108049304059E-02 
1338	 4.33977982464364E-02 
1339	 2.62982925899391E-02 
1340	-7.70755245176754E-02 
1341	-0.106825087348203 
1342	-0.064950372228491 
1343	-6.42480727178942E-02 
1344	-3.74695804718916E-02 
1345	-6.21979584706013E-02 
1346	-0.208055905015569 
1347	-0.295240797534492 
1348	-0.426497505454273 
1349	-0.486968108817718 
1350	-0.314441341756831 
1351	-0.2770692426091 
1352	-0.215617568722061 
1353	-0.134717943783865 
1354	-7.89170132561281E-02 
1355	-0.149950110521207 
1356	-1.10684650483901 
1357	 1.51939068633321 
1358	 5.41164125860958 
1359	-3.36294858602535 
1360	 2.29401717702993 
1361	 0.83800692968897 
1362	 0.487153903869554 
1363	 0.291502098155007 
1364	 1.1636743358522 
1365	 1.24782839242446 
1366	 2.51723282497813 
1367	 30.1157782897089 
1368	-18.1588393367901 
1369	-0.521385963767506 
1370	-0.148684056942559 
1371	-1.72588184496865 
1372	-4.46822390115179 
1373	-1.86218852623034 
1374	-12.1642958535162 
1375	-0.843860548004267 
1376	-5.45101179270343 
1377	 2.60856352519308 
1378	 3.12670427787983 
1379	-0.264224077518684 
1380	-0.578648217611525 
1381	-4.9966775082034 
1382	-6.51061312066035 
1383	-0.321454408441406 
1384	-7.96541403238931E-02 
1385	 0.143087735818359 
1386	 0.182272671115549 
1387	-5.76746914659767 
1388	-11.8675334973719 
1389	 1.19250153286797 
1390	 2.32396710063428 
1391	 14.0754489701934 
1392	 6.78587558709834 
1393	 2.56516059981953 
1394	-3.69056474898082 
1395	-0.366617440415854 
1396	-1.13877521834878 
1397	-2.45311789536058 
1398	-0.675994427557434 
1399	-7.71709790036964 
1400	 1.25075970646703 
1401	 0.948857415036857 
1402	 1.19720032394977 
1403	 0.727561013918557 
1404	 0.793857076341016 
1405	 0.96629328276045 
1406	-1.37897078813237 
1407	-1.00173676681374 
1408	 0.984799945884562 
1409	 0.812394338607519 
1410	 0.430951961907577 
1411	-0.381518953151595 
1412	-1.10697044525441 
1413	-3.10050026380571 
1414	 0.849177963310523 
1415	 2.2977825490161 
1416	-2.90619119500593 
1417	-1.77488317577006 
1418	-0.917118919180766 
1419	-0.750880736116088 
1420	-0.553661418936787 
1421	-0.503254763950705 
1422	-0.190916228189909 
1423	 0.421993279708778 
1424	-1.07404291655884 
1425	-0.335537524293168 
1426	-15.7902262802102 
1427	-3.26134905737641 
1428	 0.22286104339249 
1429	 0.164457075975083 
1430	 0.120315650862915 
1431	 0.447502552892894 
1432	-2.02046702621686 
1433	-2.6864729852513 
1434	 0.117868865466861 
1435	 0.379451012288854 
1436	-2.58633287497654 
1437	-4.19863058438916 
1438	 0.322491165955512 
1439	 0.552393672618046 
1440	 2.42927116505294 
1441	-16.2230171057943 
1442	 1.00860835539759 
1443	 0.1187466267527 
1444	-0.750183303515102 
1445	-0.143888868662089 
1446	-0.33881095611448 
1447	-2.93324931594736 
1448	-0.179921364715113 
1449	 0.991337927023891 
1450	-8.43795665790915E-02 
1451	-0.573731698490994 
1452	 1.75231523219205 
1453	-0.755101939131534 
1454	-0.855526220917897 
1455	-138.032480811705 
1456	-2.26255506540174 
1457	-0.693220482666887 
1458	-0.382869197140248 
1459	-9.87660786505695E-02 
1460	 3.57649963827749E-02 
1461	 0.287944039376326 
1462	 0.51236891049915 
1463	 1.2417584943599 
1464	 1.00118497029758 
1465	 1.76283326622192 
1466	 3.75786426297201 
1467	 0.432060664155782 
1468	 0.171379138548241 
1469	 1.31906311867626 
1470	 0.868251959335893 
1471	-6.42286544446346 
1472	-1.46032482429094 
1473	-4.67974933951719 
1474	 0.832216059223435 
1475	 0.473243196990015 
1476	 0.51007896397997 
1477	 0.481520501381638 
1478	 0.543150640567021 
1479	 1.66645033020675 
1480	-90.1675823918083 
1481	 71.9773515731458 
1482	-16.3908957088783 
1483	-16.9141955675299 
1484	 33.3447939734637 
1485	 1.87537678183717 
1486	 0.668992809694287 
1487	-0.168112292744167 
1488	-0.395777302336257 
1489	-0.257297180831645 
1490	 3.21917252893443E-02 
1491	-6.86252817605735E-02 
1492	 7.18856001661651E-02 
1493	 0.353832912357129 
1494	 0.299726770056866 
1495	 0.205918810055834 
1496	 0.228813519950869 
1497	 0.173950583873735 
1498	 0.156988747562673 
1499	 0.271785882577813 
1500	 0.247281122083859 
1501	 8.90824672788325E-02 
1502	 4.98346718342406E-02 
1503	 1.81971950744338E-02 
1504	-9.81012376253483E-03 
1505	 3.60558827530335E-02 
1506	 1.30855262402979E-02 
1507	 1.63739169133672E-02 
1508	 1.15842448468878E-02 
1509	-8.62673328795919E-02 
1510	-6.81220840989406E-02 
1511	-2.53157243164224E-02 
1512	-5.10806386934067E-02 
1513	-2.27224909493819E-02 
1514	 5.31469220424881E-02 
1515	 5.35275630698437E-02 
1516	 3.39681598395264E-02 
1517	 6.22033947174818E-02 
1518	 5.39399034788108E-02 
1519	 1.78073756477552E-02 
1520	 1.35350409002873E-02 
1521	 4.95015172759991E-02 
1522	 6.58301909691472E-02 
1523	 5.09898849586669E-02 
1524	 7.25854725362874E-02 
1525	 8.30359837224122E-02 
1526	 6.20303052538005E-02 
1527	 8.53408930433159E-02 
1528	 0.107486502798684 
1529	 7.11327387549534E-02 
1530	 4.28416780105005E-02 
1531	 4.46649052244242E-02 
1532	 0.053894483369169 
1533	 3.61118549186946E-02 
1534	 2.50636676408475E-02 
1535	 4.99375481663299E-02 
1536	 3.02604661385092E-02 
1537	 8.06125955393573E-03 
1538	 3.25327052200572E-02 
1539	 4.51480661088581E-03 
1540	-2.13016325428757E-02 
1541	 4.39161470862242E-02 
1542	 5.96406211364665E-02 
1543	 8.37776215133585E-03 
1544	 3.96012909877617E-02 
1545	 7.61126848800429E-02 
1546	 4.61714676364306E-02 
1547	 6.90552723287137E-02 
1548	 0.094073956102476 
1549	 3.74789479024406E-02 
1550	 1.65281402024691E-02 
1551	 5.02239424736735E-02 
1552	 3.41932872713178E-02 
1553	 2.25946717734336E-02 
1554	 4.13498127941872E-02 
1555	 5.22559998385223E-02 
1556	 6.73455933170287E-02 
1557	 7.57998193400668E-02 
1558	 6.89584755761726E-02 
1559	 4.95474933274313E-02 
1560	 2.43102152769643E-02 
1561	 2.56052884383325E-02 
1562	 5.30675320950257E-02 
1563	 5.48833198308694E-02 
1564	 3.48990874371358E-02 
1565	 3.20449710048077E-02 
1566	 3.09362027526827E-02 
1567	 2.20391602697171E-02 
1568	 2.99102652793673E-02 
1569	 4.71153260651544E-02 
1570	 2.86411629616069E-02 
1571	-7.13838609955158E-03 
1572	-1.19206643140093E-02 
1573	 0.014066532361528 
1574	 4.35448536589171E-02 
1575	 6.36778917730205E-02 
1576	 8.45500243167776E-02 
1577	 7.22749370817796E-02 
1578	 3.23308827436225E-02 
1579	 1.91274293556559E-02 
1580	 1.04907621909264E-02 
1581	-1.05154872955267E-02 
1582	-1.56430860224785E-02 
1583	 9.80861692940654E-03 
1584	 3.05947551730319E-02 
1585	 0.028464231786562 
1586	 3.47804850289495E-02 
1587	 3.06516005561634E-02 
1588	 2.97056090804687E-02 
1589	 6.13147808069275E-02 
1590	 7.86684392993389E-02 
1591	 6.36242042772708E-02 
1592	 5.25873110705592E-02 
1593	 5.75908832386977E-02 
1594	 6.44405784022201E-02 
1595	 0.068998033564477 
1596	 6.87541983775185E-02 
1597	 5.72274062760885E-02 
1598	 4.81755174371942E-02 
1599	 5.46799453621908E-02 
1600	 6.21549857070965E-02 
1601	 4.83306021207802E-02 
1602	 3.46208583967406E-02 
1603	 3.17535239657468E-02 
1604	 2.55670325145931E-02 
1605	 3.47275572853323E-02 
1606	 3.84532706642077E-02 
1607	 2.14545679040716E-02 
1608	 2.19505154614399E-02 
1609	 3.08636402941947E-02 
1610	 0.025856555076737 
1611	 3.04151539169756E-02 
1612	 3.12370560865776E-02 
1613	 1.71418455887087E-02 
1614	 2.03163705060649E-02 
1615	 3.95147468694659E-02 
1616	 4.82797134590851E-02 
1617	 4.64342395378296E-02 
1618	 3.97998305461731E-02 
1619	 3.04247340266988E-02 
1620	 2.95583007440123E-02 
1621	 3.16487389816612E-02 
1622	 3.88656859806982E-02 
1623	 3.72176709568035E-02 
1624	 2.49831460638626E-02 
1625	 3.28272945384965E-02 
1626	 2.54685652580652E-02 
1627	 1.13692364969482E-02 
1628	 2.78705560789702E-02 
1629	 3.83254543965371E-02 
1630	 4.30496481466242E-02 
1631	 4.97263613935316E-02 
1632	 3.44554707775917E-02 
1633	 1.63730611839958E-02 
1634	 0.013214300907542 
1635	 2.77492614424781E-02 
1636	 3.75340853805375E-02 
1637	 1.96514473341531E-02 
1638	 2.85281714801118E-02 
1639	 5.21084393346278E-02 
1640	 4.54877313227024E-02 
1641	 5.36158172409808E-02 
1642	 6.30253715832534E-02 
1643	 4.78145024627828E-02 
1644	 3.94970728486046E-02 
1645	 3.96749801057572E-02 
1646	 2.94013440779459E-02 
1647	 1.58433188218925E-02 
1648	 0.013382640862519 
1649	 0.022030446693765 
1650	 3.07619695407416E-02 
1651	 2.79830180427742E-02 
1652	 2.17253627342782E-02 
1653	 1.79519869862892E-02 
1654	 0.019980486718798 
1655	 2.56881842504582E-02 
1656	 2.26150800672267E-02 
1657	 2.19992435754201E-02 
1658	 2.00523374518739E-02 
1659	 5.49094157489328E-03 
1660	 1.13126390116939E-02 
1661	 3.72041032686449E-02 
1662	 3.42207538689211E-02 
1663	 2.29295987820435E-02 
1664	 2.13681979844946E-02 
1665	 6.2696908456714E-04 
1666	-4.11376462201957E-03 
1667	 1.99203489312239E-02 
1668	 3.02883094993014E-02 
1669	 1.74404858485158E-02 
1670	 1.87211332631048E-02 
1671	 1.68267097542722E-02 
1672	 8.22833773844709E-03 
1673	 2.85536792181879E-02 
1674	 4.32343264269044E-02 
1675	 2.94901682700745E-02 
1676	 1.62972549729631E-02 
1677	 1.68102381793236E-02 
1678	 0.024470397256822 
1679	 2.72311930440589E-02 
1680	 0.029988475760534 
1681	 3.63491898138478E-02 
1682	 0.027372652901783 
1683	 2.97770920307958E-02 
1684	 0.036787736276503 
1685	 2.45502159572327E-02 
1686	 3.16022571577699E-02 
1687	 0.041266943248319 
1688	 2.78187643881416E-02 
1689	 0.016063743543782 
1690	 1.51478697844745E-02 
1691	 1.90389390657397E-02 
1692	 2.87543469897302E-02 
1693	 2.51917644921976E-02 
1694	 7.75376552457517E-03 
1695	 4.61497972356692E-03 
1696	-1.57712183162459E-03 
1697	-8.21144365767616E-04 
1698	 2.64338089695329E-02 
1699	 2.76426304760361E-02 
1700	 1.39373733543302E-02 
1701	 3.14960265427997E-02 
1702	 3.63071771102755E-02 
1703	 2.09588375996906E-02 
1704	 2.85581417591773E-02 
1705	 3.99040110409003E-02 
1706	 1.61882926346588E-02 
1707	-2.93356067777773E-03 
1708	 5.65434524788319E-03 
1709	 3.64866633132648E-03 
1710	 1.26553512182796E-02 
1711	 2.69440385321011E-02 
1712	 8.72367120858018E-03 
1713	 1.26869554547823E-02 
1714	 1.84302829105462E-02 
1715	 2.48497060360281E-02 
1716	 2.23305375300139E-02 
1717	 1.47610171150617E-02 
1718	 2.36267572537239E-02 
1719	 3.41631364862043E-02 
1720	 1.24685752923274E-02 
1721	 1.13412633217738E-02 
1722	 1.25093723231597E-02 
1723	-9.94214152531701E-03 
1724	 1.98232687599792E-02 
1725	 3.59243612526843E-02 
1726	 5.58823805680771E-03 
1727	 4.19233917759158E-03 
1728	 1.05458733031081E-02 
1729	 1.01256805941306E-02 
1730	 5.05770177777272E-03 
1731	 6.74461343610216E-03 
1732	 2.66077296022976E-02 
1733	 3.91052544626957E-02 
1734	 4.40827406648832E-02 
1735	 4.91615433898044E-02 
1736	 3.75128557452218E-02 
1737	 1.06461487824284E-02 
1738	 4.51028363418506E-03 
1739	 2.45001440379472E-02 
1740	 2.17886819469937E-02 
1741	 9.23224422650317E-03 
1742	 1.15018026024682E-03 
1743	-3.29674759277785E-02 
1744	-4.14678379790327E-02 
1745	-4.01239992133437E-02 
1746	-2.31630991924527E-02 
1747	-3.86927794637519E-03 
1748	-3.85453309333582E-03 
1749	-0.014709454944713 
1750	-1.96489558477079E-02 
1751	-2.72705470340863E-02 
1752	-4.20711801038607E-02 
1753	-3.86506331524831E-02 
1754	-2.14293375070502E-02 
1755	-1.65593749853756E-02 
1756	-2.48062556491759E-02 
1757	-2.28892601992783E-02 
1758	-1.50677173157771E-02 
1759	-1.36483833683465E-02 
1760	 1.56731779780011E-02 
1761	 0.018222257662869 
1762	 1.81766968988484E-02 
1763	 0.058657079010349 
1764	 4.97641229993629E-02 
1765	 3.96635201618209E-02 
1766	 4.75132168409368E-02 
1767	 1.72158132357387E-02 
1768	-1.54408786248158E-02 
1769	-1.99989969945397E-02 
1770	 6.77786176675666E-05 
1771	 2.09531958266658E-02 
1772	 3.05629116868855E-02 
1773	-2.07978209840602E-02 
1774	-9.95796881206099E-02 
1775	-8.54762939570886E-02 
1776	-0.101097040220799 
1777	-4.57335500871369E-02 
1778	-1.61480024613782E-02 
1779	-7.87696651916659E-02 
1780	-6.93829623414611E-02 
1781	 5.87272020148986E-02 
1782	 7.91559035106794E-02 
1783	-1.34937449445748E-02 
1784	 2.99300316601797E-02 
1785	 0.208668547500945 
1786	 0.205207488670969 
1787	 0.254648107514519 
1788	 0.208940399938574 
1789	-9.75162918086383E-02 
1790	-0.155773653809245 
1791	-6.34707268408818E-02 
1792	-0.23826366046573 
1793	-0.665823282420938 
1794	-0.690275685508606 
1795	-0.624962630948635 
1796	-0.5625030708372 
1797	-0.275932480707693 
1798	-1.19245641054424 
1799	-15.103129368209 
1800	-1.99892042200278 
1801	-1.0079720992798 
1802	 3.03663497479934E-02 
1803	 7.53407654928673E-02 
1804	-0.477668877713417 
1805	-0.886852012610809 
1806	-4.68719372638757 
1807	-72.0169670607477 
1808	-0.267026090079391 
1809	-0.473589342026249 
1810	 1.07030549027515 
1811	 0.966743410776921 
1812	 0.663248411460117 
1813	 0.977138827938543 
1814	-1.12486350223178 
1815	-0.643933863582516 
1816	-0.461863724665313 
1817	 0.117091254166385 
1818	-0.41863172029873 
1819	-1.63385982060123 
1820	 22.2627440611482 
1821	-5.39852182324961 
1822	-3.61728343311105 
1823	 0.708407375150662 
1824	 2.18989882072625 
1825	-2.45893367044977 
1826	-1.9164270227161 
1827	-0.256743447554118 
1828	 1.17104325314009 
1829	-1.54454527223724 
1830	-1.19216797845628 
1831	-2.69738776580284 
1832	-5.17140137509785 
1833	 1.19244354211622 
1834	-0.011391925103882 
1835	-4.57494445439179 
1836	-51.6374065715577 
1837	 0.886329728990969 
1838	 0.913426809654791 
1839	 1.4628380992278 
1840	-21.1754532097593 
1841	-0.90162680623032 
1842	-0.282535253260326 
1843	-0.229779583837748 
1844	 1.12559457184435 
1845	 2.42433567785437 
1846	-0.566572817401125 
1847	-0.77499589305453 
1848	 0.54971305532154 
1849	-0.154938901062164 
1850	 0.181464986320932 
1851	-3.6838835507196 
1852	-2.07859350747767 
1853	-0.433313250212962 
1854	-0.450258159330276 
1855	-0.939892341529747 
1856	-0.743040426140974 
1857	-0.251780059617776 
1858	-0.141427113499166 
1859	 4.58292229000095E-02 
1860	 0.142307489289595 
1861	-0.102364082293276 
1862	-9.26782436901219E-02 
1863	 0.223320899026477 
1864	 0.298967129188569 
1865	 0.32465498498543 
1866	 0.420824383796948 
1867	 0.584662311678991 
1868	 1.3153088727574 
1869	-1.60302285666037 
1870	-0.888771619010497 
1871	-0.619210976900196 
1872	-0.263270288250135 
1873	-0.235168881806342 
1874	-1.73077589016746 
1875	-0.817419382670699 
1876	-0.325430939333212 
1877	 0.31045032569558 
1878	 0.236566976386555 
1879	 0.54389287686579 
1880	 0.249019806226569 
1881	-1.46167809476438 
1882	-3.42771424961043 
1883	-5.87443634068845 
1884	 1.19896105718067 
1885	-0.684504521844633 
1886	-1.69881950417247 
1887	 1.07818206730463 
1888	 5.08639767256165E-02 
1889	-9.43657789543186E-02 
1890	-0.23928902601759 
1891	-0.26176086578883 
1892	-0.178640645370428 
1893	-0.441570652986555 
1894	-0.119989470122279 
1895	-0.101925949317813 
1896	 9.47409730953329E-02 
1897	 0.084443770183722 
1898	 0.333017220199789 
1899	 0.716707268796486 
1900	 0.858671164503514 
1901	 1.10235034058024 
1902	 1.24700155020566 
1903	 0.702192871879774 
1904	 0.348032164817346 
1905	 0.22550110417755 
1906	-1.41932111710361 
1907	-0.659064129357278 
1908	-0.302690685473683 
1909	 4.66022715617425E-02 
1910	-0.14271199084739 
1911	-1.21443850019321 
1912	 1.54774148390056 
1913	 0.99878704120952 
1914	 1.85557877044293 
1915	 1.89602209507661 
1916	 1.06732934379537 
1917	 1.60586179252087 
1918	 4.24379079666222 
1919	 3.03648960262284 
1920	-4.21434397722533 
1921	 4.83693534586677 
1922	 0.789098271517992 
1923	 0.258710438125743 
1924	 0.280721934013204 
1925	-2.47986343256512E-02 
1926	-0.35239398068099 
1927	-0.729583990183462 
1928	-0.444146244292485 
1929	-1.78343053543821 
1930	-12.2135533385996 
1931	-1.46508848947645 
1932	-0.130377980756797 
1933	 0.326797682556154 
1934	 0.214347941303099 
1935	 0.94076669985209 
1936	 0.170505079638156 
1937	-5.48305008656819E-02 
1938	-7.75721653477916E-02 
1939	-0.325562776213621 
1940	-1.25660963708525 
1941	-1.09050668110909 
1942	-0.387985177956368 
1943	-0.431733797206434 
1944	 0.134259253059101 
1945	 0.648880737867012 
1946	 0.258256385352761 
1947	 0.805242659966873 
1948	 1.13977530958296 
1949	 1.13561796957928 
1950	 2.49008000634686 
1951	-3.78395283881105 
1952	-1.37997510115135 
1953	 1.74078317880906E-02 
1954	 0.37665867005103 
1955	-2.57183475054625E-02 
1956	 0.677292693254458 
1957	 0.784352835765209 
1958	 0.882214015560063 
1959	-6.35885098459221 
1960	-2.82547836261464 
1961	-1.17879478886337 
1962	-0.831057117987928 
1963	-0.897708537240183 
1964	-0.171791360500995 
1965	 1.00142571035371 
1966	 2.35413213411594 
1967	 18.0036196544367 
1968	-4.56387966754704 
1969	-2.57526733494603 
1970	-7.13381022618701 
1971	 8.48755532583549 
1972	 1.46528400582208 
1973	 1.23489044811233 
1974	 2.30460832572866 
1975	 5.43263820908358 
1976	 2.78207178891314 
1977	 4.04012361515 
1978	-1.53380062047933 
1979	-2.07219590738608 
1980	-2.08051668173118 
1981	-19.048054706903 
1982	-2.74681627422984 
1983	-1.07863917573151 
1984	-0.743279039348476 
1985	-1.05856773674811 
1986	-1.65998714276072 
1987	-1.60035705660868 
1988	-1.94162795337937 
1989	-1.29845187377175 
1990	-0.58379081466969 
1991	-0.379264462185252 
1992	-0.180864168895359 
1993	-0.300985268194899 
1994	-0.325431915313912 
1995	-0.463869552441939 
1996	-0.651887757443072 
1997	 14.8684417197838 
1998	-1.55429893197827 
1999	-1.95946486226123 
2000	-1.99388540584398 
2001	-1.62387349814174 
2002	-1.75545287533791 
2003	-2.20420440988924 
2004	-3.71371474580953 
2005	-43.7843525097751 
2006	 53.4805460325652 
2007	 1.59565909333657 
2008	 2.77752799535374 
2009	 6.01679434054291 
2010	 1.12874882327047 
2011	 1.55995404582578 
2012	 1.97399240717393 
2013	-4.25064052510839 
2014	-1.21983346311636 
2015	-0.791577824534996 
2016	-0.413834432374413 
2017	-8.08004013155882E-02 
2018	-0.107178391721873 
2019	-0.472238421176619 
2020	-2.53844450472734 
2021	 4.0351713181343 
2022	-9.62769045916605 
2023	-1.27033973428656 
2024	-0.92246864569511 
2025	-0.538720190579758 
2026	-0.49214792098098 
2027	-1.14897441656429 
2028	 9.90700926895651E-02 
2029	-5.45257549769062E-02 
2030	-0.510147503912956 
2031	-105.443039847331 
2032	 0.433218871538146 
2033	 6.85797052900265E-02 
2034	 0.333726001175791 
2035	 6.92952817292235E-03 
2036	 8.30301852236014E-02 
2037	 0.445683135168076 
2038	-1.78396211823515 
2039	-2.2617764411992 
2040	-2.05349628177985 
2041	-1.31833580495954 
2042	-0.68837035106031 
2043	-0.160104538936932 
2044	 0.408938615437064 
2045	 0.436366789787094 
2046	 0.242347912795822 
2047	-0.117067554519036 
2048	-1.4930444971791 
2049	 2.55965890348797 
2050	 3.2737183352301 
2051	-22.9713165919443 
2052	-2.63083343149329 
2053	-0.838016407996207 
2054	-0.4309795341978 
2055	 0.120963197929508 
2056	 0.334944414380046 
2057	 0.655320929183863 
2058	 0.782134274687553 
2059	 0.355048137264932 
2060	 0.12824447554095 
2061	 0.117582441815959 
2062	-0.812375980926517 
2063	-3.94652943185928 
2064	-3.93134095889818 
2065	-2.43767220064041 
2066	-1.32475866722534 
2067	-0.372118818717716 
2068	 0.300026885219806 
2069	-3.40306761692964E-03 
2070	-0.461357659432813 
2071	-0.456749976611227 
2072	-0.389880529943817 
2073	-0.526640727618062 
2074	-0.628861691991717 
2075	-0.697893325137793 
2076	-1.85124228338969 
2077	-1.68730609019511 
2078	-0.453059079250524 
2079	-0.436042419569288 
2080	-0.669162534563576 
2081	-1.30939296359229 
2082	-4.2980610451219 
2083	-50.8080012702157 
2084	-1.5509719271311 
2085	-0.795095890188987 
2086	-0.676371944356631 
2087	-0.81902026048313 
2088	-1.46188423831691 
2089	 8.41417427725301 
2090	-0.482251729006669 
2091	-0.184034021353287 
2092	 0.837813389666429 
2093	-10.2534974473359 
2094	-3.25905077563318 
2095	-1.67852632000937 
2096	-1.37049633651991 
2097	-0.311134244450171 
2098	 3.76797305378637E-03 
2099	 2.36389539934317E-02 
2100	 0.896098468441827 
2101	-0.577925124021609 
2102	 6.20842293030158E-02 
2103	 0.244034502438051 
2104	-4.98816781221356E-02 
2105	 0.195821436702378 
2106	 0.317964301139511 
2107	 0.173121508681537 
2108	 0.120080226453555 
2109	 0.028147085269389 
2110	-0.444045852617936 
2111	-0.34408748508632 
2112	 0.170582020037967 
2113	 0.241225363663953 
2114	 0.053931594992958 
2115	 0.134013942030188 
2116	 0.217175297415497 
2117	 0.151509780154631 
2118	-0.006081447400933 
2119	-5.71560471437134E-02 
2120	-0.182152189912918 
2121	-0.19658659458733 
2122	-0.187744984751565 
2123	 0.204041367077795 
2124	 0.375996623059981 
2125	 0.18503842237016 
2126	 9.35467106901053E-02 
2127	-9.88444871604412E-02 
2128	-0.227818014494858 
2129	-0.13730419274709 
2130	-3.87571441173553E-03 
2131	 4.09693213063157E-02 
2132	 4.86557124025827E-02 
2133	 4.92434093615439E-02 
2134	 0.145457243806953 
2135	 0.359590581020702 
2136	 0.372377611394877 
2137	 0.391823548384309 
2138	 0.422296721255088 
2139	 0.280978207736555 
2140	 0.184082290713118 
2141	 0.168597532044416 
2142	 7.43556301602894E-02 
2143	-0.225524341349611 
2144	-0.193584431452883 
2145	-0.154782574089584 
2146	-0.256012993914071 
2147	-0.193990765259016 
2148	-0.218097537598337 
2149	-0.15132730560854 
2150	 2.58345133245355E-02 
2151	 0.095765314662085 
2152	 0.150061736884704 
2153	 0.172404181039382 
2154	 0.171833364069544 
2155	 0.275525277344768 
2156	 0.368536164966048 
2157	 0.43631142053575 
2158	 0.536570602181186 
2159	 0.496765593279026 
2160	 0.347135565437044 
2161	 0.266773686961684 
2162	 0.163889658493256 
2163	-1.86848029841226E-02 
2164	-0.310886413050728 
2165	-0.395327885067919 
2166	-0.382849835510378 
2167	-0.371104126400359 
2168	-0.261966293149567 
2169	-0.187281268371386 
2170	-9.76761943122334E-02 
2171	-5.69661709565035E-02 
2172	-8.42879510737201E-02 
2173	 0.120885672896963 
2174	 0.194268454932061 
2175	 0.102695513827552 
2176	 0.133182246521566 
2177	-2.32205620444682E-02 
2178	-4.33820549844913E-02 
2179	 1.63908149734261E-02 
2180	-3.58402701545901E-02 
2181	-2.43239531742126E-02 
2182	-9.90514538067874E-03 
2183	 4.08511480075807E-02 
2184	 6.70647691486011E-02 
2185	 0.111556788441245 
2186	 0.100746054169213 
2187	 3.99053329513326E-02 
2188	-1.07147876777378E-02 
2189	-0.177486354039573 
2190	-0.230679375400201 
2191	-0.19121653871372 
2192	-0.152581225227557 
2193	 2.27283279317238E-02 
2194	 6.35258636698077E-02 
2195	-9.15196466228146E-03 
2196	-4.30276163087882E-02 
2197	-0.21417434150053 
2198	-0.223582355391878 
2199	-8.28907025606077E-02 
2200	 0.223919705275059 
2201	 0.223860622824616 
2202	 6.26161395916828E-02 
2203	 2.54520103291722E-03 
2204	-0.200074611489231 
2205	 4.55013357224528E-02 
2206	 0.255891581828661 
2207	 0.199448898145715 
2208	 0.30605339093165 
2209	 0.441605320946729 
2210	 0.545411279543343 
2211	 0.778154879819775 
2212	 0.857720187632764 
2213	 0.549023326312387 
2214	 0.376516036779743 
2215	 0.172122505832829 
2216	-6.38931624539753E-02 
2217	-0.154479305413521 
2218	-0.175671473200347 
2219	-0.180611737417551 
2220	-9.74969616844067E-02 
2221	-5.33610343908193E-02 
2222	-2.09093400951923E-02 
2223	-7.2645478972528E-03 
2224	 2.35293832097258E-02 
2225	 3.89927749913709E-02 
2226	-5.05069988924596E-03 
2227	 8.33932278236774E-04 
2228	 8.97413007912648E-02 
2229	 9.45873548204633E-02 
2230	 1.77405930030656E-02 
2231	 1.75944708254097E-02 
2232	 8.87387352836464E-02 
2233	 2.84164656536245E-02 
2234	-0.13241200688903 
2235	-0.14758256174717 
2236	-0.204638602213446 
2237	-0.250720331502592 
2238	-0.157919365430478 
2239	 4.66212000900221E-02 
2240	 0.154915012385258 
2241	 8.68140680245312E-03 
2242	-0.117724978330372 
2243	-0.189216221562008 
2244	-0.21627145112966 
2245	-0.117711469351979 
2246	-7.50627424217211E-02 
2247	-0.186682610813414 
2248	-0.271705917996498 
2249	-0.404331794693409 
2250	-0.512259422132402 
2251	-0.261184579338235 
2252	-2.78469709294032E-02 
2253	 0.229771204374638 
2254	 0.518362874905479 
2255	 0.313801350156968 
2256	 0.149958041578233 
2257	 0.173881402081317 
2258	 0.248989092294171 
2259	 0.202379440784535 
2260	 0.191077462287849 
2261	 0.217598705076372 
2262	 0.161762929392333 
2263	 2.94337363463145E-03 
2264	-0.016737259907734 
2265	-2.63031014921209E-02 
2266	-4.89792488310692E-02 
2267	 0.265427312982385 
2268	 0.241964977650533 
2269	-0.294398156018775 
2270	-0.326065024358771 
2271	-0.199859803989641 
2272	-0.116300999087801 
2273	 0.253619415148225 
2274	 0.305201783738388 
2275	 5.19073131216376E-02 
2276	 0.029266772818122 
2277	-0.146379181758561 
2278	-0.111849564017709 
2279	 0.585521386286268 
2280	 0.634689313809782 
2281	 0.320688711083734 
2282	 0.285187467865281 
2283	 0.23789121199698 
2284	 0.232135839359994 
2285	 0.631979307480375 
2286	 2.26406816264733 
2287	-3.66297288778701 
2288	 307.15432174819 
2289	-0.054621026208918 
2290	 0.122689321896044 
2291	 0.230769467444948 
2292	-0.184334626921635 
2293	-1.42675084115402 
2294	-5.64020184309638 
2295	-6.58577352622111 
2296	-1.16173982149347 
2297	-0.608313730798635 
2298	-8.04877062482021E-02 
2299	-0.364371375416328 
2300	-0.564595721716819 
2301	-0.38949094473619 
2302	-0.664976550183998 
2303	-0.602671816809657 
2304	 0.269896512728567 
2305	 0.193304937939349 
2306	 0.220943227842629 
2307	 7.08200030391843E-03 
2308	-0.266065507384327 
2309	-0.237637438114519 
2310	-0.205555925270292 
2311	-2.17704203839713E-02 
2312	 0.132168141125277 
2313	-0.107367087801599 
2314	-0.254560091868739 
2315	-0.349383973518763 
2316	-0.42204574930234 
2317	-0.427259838502967 
2318	-0.863125828658749 
2319	-1.24198306679289 
2320	-0.913496656435375 
2321	 0.125855010000174 
2322	 1.34557487052356 
2323	 1.95912418744816 
2324	 1.2187156575428 
2325	 0.64332979020096 
2326	 0.405640310397214 
2327	 0.749793533749396 
2328	 0.842766385994755 
2329	 0.682193102743671 
2330	 0.722972605584361 
2331	 0.642214959662534 
2332	 0.296718458272635 
2333	 4.35646585686635E-02 
2334	 1.32786987552838E-02 
2335	 0.236317723125048 
2336	 0.81189101272138 
2337	 1.743107291478 
2338	 2.11461132839392 
2339	 1.48830851540928 
2340	 0.750344083237995 
2341	-0.138577394047488 
2342	-0.84749057789157 
2343	-1.90337200857193 
2344	-6.34318652107938 
2345	-34.9718310846937 
2346	 3.85740398156267 
2347	 2.17669322958458 
2348	 2.06746994763757 
2349	 1.85158027033648 
2350	-0.33269531156676 
2351	 0.123144208773658 
2352	 0.309459870296946 
2353	-0.093185047693744 
2354	-0.301481944594814 
2355	 0.170913453430892 
2356	 0.496926760898415 
2357	-3.11941335935438 
2358	-1.42886059807061 
2359	-2.53151473208106 
2360	-1.53951778091477 
2361	 7.89526436503736 
2362	 0.674218446834447 
2363	 0.109495884688682 
2364	-1.56795608350858E-02 
2365	 0.286250088070939 
2366	 0.830996837592395 
2367	-47.4720751017696 
2368	-1.07157737277612 
2369	 3.36509439390539E-02 
2370	 0.111393106189491 
2371	 0.134484405146958 
2372	 0.576542675546681 
2373	 1.05510556335557 
2374	 1.03125439621067 
2375	 3.02718578605559 
2376	 3.89651976579203 
2377	 2.26617133497179 
2378	-1.10871133600252 
2379	-0.37600919848778 
2380	-0.353561561991901 
2381	-0.312700310142755 
2382	-1.03101421598549 
2383	 1.7069642177937 
2384	 1.05301557802601 
2385	 1.73074271772486 
2386	 5.86497930678884 
2387	 2.28237820526123 
2388	 3.92556437495198 
2389	-0.252643023490097 
2390	-0.26991854771937 
2391	-0.389601318489416 
2392	 0.61770180645706 
2393	 1.07695966214114 
2394	 1.22587596498801 
2395	-2.09724418515134 
2396	 0.744619438110357 
2397	 0.804867842616745 
2398	 2.39251434846732 
2399	 5.54891660739874 
2400	 12.2853415145639 
2401	-3.27502020177105 
2402	-3.35022789384895 
2403	 5.60721199206731 
2404	 4.88814427812194 
2405	 1.5752781467972 
2406	 0.150835504296245 
2407	 2.06036498462768 
2408	-5.12661322599201 
2409	 1.46877934333825 
2410	 0.930194957325922 
2411	 0.565399526258111 
2412	-5.74297406566071E-02 
2413	 5.52175804548216E-02 
2414	 0.171286424092081 
2415	 0.436339226559257 
2416	 1.14620528247786 
2417	 2.92010140685535 
2418	 6.56905362148319 
2419	 12.6630899372998 
2420	 15.4276168487653 
2421	-2.45741041621294 
2422	-0.324128651827902 
2423	 0.324295012884288 
2424	 1.94567129889614 
2425	 1.13185103377015 
2426	 0.17583442216146 
2427	 1.23050095183244 
2428	 0.863763714965885 
2429	 0.420039308793666 
2430	 0.136653192104552 
2431	 0.101628515172011 
2432	 0.228300864569018 
2433	 0.182964350826647 
2434	 0.482143317348201 
2435	 0.814880991709566 
2436	-181.295467578168 
2437	-3.19955242303956 
2438	-0.824246933913755 
2439	-0.324971301056131 
2440	-0.606789676680041 
2441	-2.19413233117471 
2442	 13.5844967216631 
2443	 2.95394188727291 
2444	-7.87412116101843 
2445	-0.585359554364144 
2446	 0.67692225472709 
2447	 1.4892047691981 
2448	 2.06391653382806 
2449	 4.41868620473199 
2450	 7.06074460422867 
2451	 1.62786046960014 
2452	-4.65092640859777 
2453	-0.40425034628172 
2454	-0.430798116492325 
2455	 0.87890769586839 
2456	 8.29683159745891 
2457	 0.421264551053812 
2458	 0.630568838021608 
2459	 0.84506368938415 
2460	 1.7185357156905 
2461	 2.93426160675115 
2462	 33.4891836932937 
2463	 13.9283949567237 
2464	 10.3144445866105 
2465	-168.350560914734 
2466	-7.05103249901957 
2467	-1.81934655944801 
2468	-0.110500003673897 
2469	 3.63377756263262E-02 
2470	-0.689625221299747 
2471	-2.46048758647828 
2472	-5.51976044592057 
2473	 4.53124024180014 
2474	 2.78160601896472 
2475	 1.70028330493586 
2476	 1.32779544274705 
2477	-0.162293060405037 
2478	-0.560644930524011 
2479	-8.67555660767639E-02 
2480	-0.380612207170276 
2481	-0.179663974323733 
2482	 0.619606950153264 
2483	-3.25881419657346E-02 
2484	-2.93323833640886E-02 
2485	 0.250310897963716 
2486	 5.72443117654038E-02 
2487	 0.274103685635062 
2488	 0.949290067956633 
2489	-4.05561029237624 
2490	-1.07541827958391 
2491	-1.04656758059231 
2492	-0.725121847081549 
2493	-1.34629730436943 
2494	-0.791683359537153 
2495	 2.85464195601381 
2496	-1.85476185574284 
2497	-0.242072086892974 
2498	-0.249516791055568 
2499	-1.16256016033756 
2500	 1.33135714257886 
