Wavelength	rt0712EAST_CLOSE00002.asd
350	 4.43687595053411E-02 
351	 4.49836535818485E-02 
352	 4.44034578003716E-02 
353	 4.44192738278594E-02 
354	 4.57188527584573E-02 
355	 4.56631130565273E-02 
356	 4.57734390394919E-02 
357	 4.58485337961036E-02 
358	 4.54466398261933E-02 
359	 4.53538701926646E-02 
360	 4.53482260440977E-02 
361	 4.52980932840135E-02 
362	 4.51979009357198E-02 
363	 4.54109391312315E-02 
364	 4.56879110333614E-02 
365	 4.58210069746947E-02 
366	 4.57913472113221E-02 
367	 4.55661584072894E-02 
368	 4.55178719759086E-02 
369	 0.04587442674568 
370	 4.60320348773607E-02 
371	 4.59255470691852E-02 
372	 4.56614242589307E-02 
373	 4.55067735932326E-02 
374	 4.60233263813183E-02 
375	 4.64749101133797E-02 
376	 4.64858290573684E-02 
377	 4.63782681295482E-02 
378	 4.64915573084137E-02 
379	 4.62970609667054E-02 
380	 4.57399172795655E-02 
381	 4.69890775893652E-02 
382	 4.75364006045993E-02 
383	 4.72434763926557E-02 
384	 4.70443856682583E-02 
385	 4.60149665658023E-02 
386	 4.62380875226352E-02 
387	 4.77428538128057E-02 
388	 4.81273800306254E-02 
389	 4.87073521782138E-02 
390	 4.88877880382213E-02 
391	 4.83567179700036E-02 
392	 4.82138927894876E-02 
393	 4.86921297601923E-02 
394	 0.049081890458699 
395	 4.86314090754679E-02 
396	 4.82880037212741E-02 
397	 4.84521985912155E-02 
398	 4.89900510947626E-02 
399	 4.93668080421999E-02 
400	 0.049307185077304 
401	 4.91419055036232E-02 
402	 4.91246680982005E-02 
403	 4.91142351268719E-02 
404	 4.91432692536145E-02 
405	 0.049355731364897 
406	 4.97631660950976E-02 
407	 4.93606647609135E-02 
408	 4.93055227048854E-02 
409	 4.97697388069407E-02 
410	 4.98636170433762E-02 
411	 4.99779245606556E-02 
412	 5.00233390542067E-02 
413	 4.99990861973491E-02 
414	 5.03379393094937E-02 
415	 5.04625825297185E-02 
416	 5.04882313794108E-02 
417	 5.07016689541937E-02 
418	 5.05227257025429E-02 
419	 5.04426092842804E-02 
420	 0.050609857857033 
421	 5.07296743370871E-02 
422	 5.09298251342141E-02 
423	 5.11305765960496E-02 
424	 5.12454257907016E-02 
425	 5.12550002231811E-02 
426	 5.13942524660564E-02 
427	 5.16789389775964E-02 
428	 5.19848243995249E-02 
429	 5.21375182367764E-02 
430	 5.21352888241867E-02 
431	 5.21275259845795E-02 
432	 5.24017086907372E-02 
433	 5.26507619244903E-02 
434	 5.29315713376755E-02 
435	 5.32531128793065E-02 
436	 5.32079210185242E-02 
437	 5.32485300555029E-02 
438	 5.35106580554406E-02 
439	 5.38982947899425E-02 
440	 5.40224918460977E-02 
441	 5.42571087840208E-02 
442	 5.46521289140915E-02 
443	 5.46454118067232E-02 
444	 0.054952516967476 
445	 5.53243332759699E-02 
446	 5.54359931677429E-02 
447	 5.57664538265089E-02 
448	 5.60631814896751E-02 
449	 5.62393322303014E-02 
450	 0.056353943572104 
451	 5.65245697026106E-02 
452	 0.056761936033647 
453	 5.69723479835928E-02 
454	 5.68589455657892E-02 
455	 5.69987177621003E-02 
456	 5.72320504863429E-02 
457	 5.72465740572903E-02 
458	 0.057512956386427 
459	 5.76797924200258E-02 
460	 5.76228412405776E-02 
461	 5.75028372435402E-02 
462	 5.77201882656771E-02 
463	 0.058086144667103 
464	 5.83239328103348E-02 
465	 5.82501340121865E-02 
466	 5.83693749527054E-02 
467	 5.86341395234605E-02 
468	 5.87545673924827E-02 
469	 5.89480719344225E-02 
470	 5.91840022553977E-02 
471	 0.059369011120806 
472	 5.93571777219593E-02 
473	 5.93628654367317E-02 
474	 5.96184764083938E-02 
475	 0.060159337916371 
476	 6.03546454718417E-02 
477	 6.05687671583269E-02 
478	 6.08868204862456E-02 
479	 6.11930696411228E-02 
480	 6.14732609400437E-02 
481	 0.06173516837824 
482	 6.19441233337622E-02 
483	 6.19309339817792E-02 
484	 6.22880465266651E-02 
485	 0.062833133798211 
486	 6.31427762453025E-02 
487	 6.32863554397095E-02 
488	 6.35198872502039E-02 
489	 6.39585616367641E-02 
490	 6.45469050714908E-02 
491	 6.46703402480276E-02 
492	 6.47962675857722E-02 
493	 6.53222426148094E-02 
494	 6.58740556077014E-02 
495	 6.63487989724115E-02 
496	 6.67117220547591E-02 
497	 6.70047117653788E-02 
498	 6.74653454151571E-02 
499	 6.77983185283806E-02 
500	 6.80187064975604E-02 
501	 6.87200439422214E-02 
502	 6.90239653403493E-02 
503	 6.93189413825381E-02 
504	 7.00748357138803E-02 
505	 7.04787495731414E-02 
506	 7.10063465684387E-02 
507	 7.16348040033595E-02 
508	 7.19710585482322E-02 
509	 7.25920032340366E-02 
510	 7.31364175306949E-02 
511	 7.34192530345563E-02 
512	 7.40196518594682E-02 
513	 7.45954828094487E-02 
514	 7.50933543981497E-02 
515	 7.55684422155226E-02 
516	 7.59462834553452E-02 
517	 7.67714060027757E-02 
518	 7.77942058789518E-02 
519	 0.07777630786569 
520	 7.84231893224117E-02 
521	 7.92339053163284E-02 
522	 7.95791383679786E-02 
523	 8.02322345326344E-02 
524	 8.09458278839068E-02 
525	 8.15715441088546E-02 
526	 8.20740517066685E-02 
527	 8.27930865237543E-02 
528	 8.35748564935322E-02 
529	 8.42631909541295E-02 
530	 8.48340270983906E-02 
531	 8.54755776171868E-02 
532	 8.61730787106254E-02 
533	 8.68619470013261E-02 
534	 8.77287046494563E-02 
535	 8.84874321031237E-02 
536	 8.91229859924375E-02 
537	 8.99485586878364E-02 
538	 9.07670713738838E-02 
539	 9.15296591599655E-02 
540	 9.22438511998546E-02 
541	 9.29769361040844E-02 
542	 9.38132819226132E-02 
543	 0.09463652888467 
544	 9.52629195138108E-02 
545	 9.61752839165964E-02 
546	 9.70925038458603E-02 
547	 9.78474127529934E-02 
548	 9.86884466197355E-02 
549	 9.94220528516139E-02 
550	 0.100161805721182 
551	 0.101054314168108 
552	 0.101795335568114 
553	 0.10251400212061 
554	 0.103300224840286 
555	 0.104162430828219 
556	 0.10492765050224 
557	 0.105631785407332 
558	 0.106338335040366 
559	 0.10703817509467 
560	 0.107730466132829 
561	 0.10833927496336 
562	 0.108783008639229 
563	 0.109381358341749 
564	 0.109983592286495 
565	 0.11045373897526 
566	 0.110801820118672 
567	 0.111128682049615 
568	 0.111506571182651 
569	 0.111942767464046 
570	 0.11217744076217 
571	 0.11249495442829 
572	 0.112915235232125 
573	 0.113145366493647 
574	 0.113551319632561 
575	 0.113803535250728 
576	 0.113693536959651 
577	 0.113899214703787 
578	 0.114198948364194 
579	 0.114390594206024 
580	 0.114337696619661 
581	 0.114457310364643 
582	 0.114564773544209 
583	 0.114485749419179 
584	 0.114192327209306 
585	 0.113774408510251 
586	 0.113292950201337 
587	 0.112785447629863 
588	 0.112206851615557 
589	 0.111812696600644 
590	 0.111655616833434 
591	 0.111496474060702 
592	 0.111316623881953 
593	 0.111024556224379 
594	 0.110609073973673 
595	 0.110293188772038 
596	 0.109947593855162 
597	 0.109564757291629 
598	 0.10916706279035 
599	 0.108346172119281 
600	 0.107721059894161 
601	 0.107551315515791 
602	 0.107327290681902 
603	 0.107088146490495 
604	 0.106853365919968 
605	 0.106675208757077 
606	 0.106703976963146 
607	 0.10675403141441 
608	 0.106734146518706 
609	 0.106672657208963 
610	 0.106675021369465 
611	 0.106564326603092 
612	 0.106266058386527 
613	 0.1061696095816 
614	 0.106192273165911 
615	 0.106145126554894 
616	 0.105843401022678 
617	 0.105780493364657 
618	 0.105684230806501 
619	 0.105477409549434 
620	 0.105542736780092 
621	 0.105606436413429 
622	 0.105544610041916 
623	 0.105346792723958 
624	 0.105307223770184 
625	 0.105266586805965 
626	 0.10505170115644 
627	 0.104539223784764 
628	 0.104547793228875 
629	 0.104601298580343 
630	 0.104329323308556 
631	 0.104330165221492 
632	 0.104362264899642 
633	 0.104424737791522 
634	 0.104580143577272 
635	 0.104544101809727 
636	 0.104428319481772 
637	 0.10439801698565 
638	 0.104648294296837 
639	 0.104479701503431 
640	 0.10431799530686 
641	 0.104623763003174 
642	 0.104575788112867 
643	 0.104375364080239 
644	 0.104102242267028 
645	 0.103720563121646 
646	 0.103196297900937 
647	 0.102998202705514 
648	 0.103228218344392 
649	 0.102916162997707 
650	 0.102725769372918 
651	 0.102609771325402 
652	 0.102289271240721 
653	 0.101665575388334 
654	 0.101018151871759 
655	 0.100500607435725 
656	 0.100094933487446 
657	 9.93341574202897E-02 
658	 9.84138406084716E-02 
659	 9.75834173239604E-02 
660	 9.69628902338343E-02 
661	 9.63562103615088E-02 
662	 0.095599834934915 
663	 9.46257029416922E-02 
664	 9.39034053056362E-02 
665	 0.093465691669782 
666	 9.31437012571085E-02 
667	 0.092524732537795 
668	 9.22298259159963E-02 
669	 9.20167119167447E-02 
670	 9.15655240204773E-02 
671	 9.16779634639269E-02 
672	 9.17769334740198E-02 
673	 9.17612664806051E-02 
674	 9.20210063407845E-02 
675	 9.24394344596395E-02 
676	 9.27425929959699E-02 
677	 9.28843264794657E-02 
678	 9.34850203147567E-02 
679	 9.39793435074927E-02 
680	 9.44072415528753E-02 
681	 9.50708482685274E-02 
682	 9.60294022115094E-02 
683	 0.096935956417816 
684	 9.75290962183578E-02 
685	 9.77314767769995E-02 
686	 9.84970366525833E-02 
687	 9.92926641655995E-02 
688	 9.94273678955947E-02 
689	 9.99131263139501E-02 
690	 0.100182469895142 
691	 0.100217612100221 
692	 0.10029339132506 
693	 0.10004192925112 
694	 0.10002670190791 
695	 0.100296104749561 
696	 9.99946719267272E-02 
697	 9.94943435374267E-02 
698	 0.098826512511058 
699	 9.80495465250035E-02 
700	 9.73346800518591E-02 
701	 9.68274681823862E-02 
702	 9.63103542041542E-02 
703	 9.53491573338312E-02 
704	 9.47568249805885E-02 
705	 9.38796071380152E-02 
706	 9.25030109341034E-02 
707	 9.17709613313711E-02 
708	 9.04289445285108E-02 
709	 8.89399503149921E-02 
710	 8.80847791678708E-02 
711	 8.66134085099464E-02 
712	 8.50142946988642E-02 
713	 8.34359217114143E-02 
714	 8.15290106370479E-02 
715	 7.97357488303594E-02 
716	 7.75734172420489E-02 
717	 7.49435939894892E-02 
718	 7.36264608213797E-02 
719	 7.16880144039426E-02 
720	 6.99389426492161E-02 
721	 6.90405884259385E-02 
722	 0.067478471787389 
723	 6.54306180979582E-02 
724	 6.36317391294353E-02 
725	 6.24471029605893E-02 
726	 6.01943713135995E-02 
727	 0.05800792604321 
728	 5.67273377583203E-02 
729	 5.45437456693191E-02 
730	 5.27635543247312E-02 
731	 5.13433148667813E-02 
732	 4.96220037033736E-02 
733	 4.82461707329371E-02 
734	 4.70489590040174E-02 
735	 4.60590341435774E-02 
736	 4.55501214594149E-02 
737	 4.49042542022841E-02 
738	 4.42753527367413E-02 
739	 4.39280515191187E-02 
740	 4.38872356869569E-02 
741	 4.39663331490043E-02 
742	 4.39257195316696E-02 
743	 4.36077427033872E-02 
744	 4.35952221966305E-02 
745	 4.37218967985113E-02 
746	 4.37683290439215E-02 
747	 4.35510823541422E-02 
748	 4.36784297967373E-02 
749	 4.37235405391011E-02 
750	 4.33262195493682E-02 
751	 4.32108306277966E-02 
752	 4.33772381682371E-02 
753	 4.34483878251634E-02 
754	 4.30165389587144E-02 
755	 4.32905108554733E-02 
756	 4.33221420835536E-02 
757	 4.28703564299091E-02 
758	 4.30772092899085E-02 
759	 0.042468195546731 
760	 4.12919673654453E-02 
761	 0.041733947313099 
762	 4.22180030437272E-02 
763	 4.25176622922525E-02 
764	 4.26629698204284E-02 
765	 4.28545990497542E-02 
766	 4.33738288278262E-02 
767	 4.36310892423816E-02 
768	 4.35657728816536E-02 
769	 4.35323493138852E-02 
770	 0.043919727252752 
771	 4.41362221175325E-02 
772	 4.38878880591336E-02 
773	 4.42452582969017E-02 
774	 4.44503267334465E-02 
775	 4.45235333900891E-02 
776	 4.47659683798481E-02 
777	 4.49705233311153E-02 
778	 4.53278255703769E-02 
779	 4.56746981347934E-02 
780	 4.55408732018361E-02 
781	 4.60114898676081E-02 
782	 4.63285697760551E-02 
783	 4.60540773013674E-02 
784	 4.62478533310351E-02 
785	 4.66823744235997E-02 
786	 0.047223190525298 
787	 4.76542626995028E-02 
788	 4.73909233842149E-02 
789	 4.74528308824972E-02 
790	 4.79794187250483E-02 
791	 4.83415311462088E-02 
792	 4.90345349989078E-02 
793	 4.94554235446993E-02 
794	 4.94500015705303E-02 
795	 4.97634500914644E-02 
796	 5.01407902127172E-02 
797	 5.03204888947221E-02 
798	 5.02549304814083E-02 
799	 5.05326562664273E-02 
800	 5.10113129030574E-02 
801	 5.14803789654325E-02 
802	 0.051743612501822 
803	 5.20608076536705E-02 
804	 5.21354470782032E-02 
805	 5.20131047339195E-02 
806	 5.21020246473169E-02 
807	 5.21941069480387E-02 
808	 5.19950005393032E-02 
809	 5.15149205446194E-02 
810	 5.17622475882199E-02 
811	 5.12150638945375E-02 
812	 5.02540599981365E-02 
813	 5.01199696748453E-02 
814	 5.04829944007129E-02 
815	 4.99559264940143E-02 
816	 0.048842274423579 
817	 4.87948997451398E-02 
818	 4.88469955740759E-02 
819	 4.86087512439669E-02 
820	 4.78797435674848E-02 
821	 4.64829574705364E-02 
822	 4.58785257496655E-02 
823	 4.54756671321968E-02 
824	 4.45515262396142E-02 
825	 4.34489695484249E-02 
826	 4.19917388459014E-02 
827	 4.05244975895749E-02 
828	 3.96839542113537E-02 
829	 3.95079796658354E-02 
830	 3.86353404349172E-02 
831	 3.70426759025731E-02 
832	 3.58095650726647E-02 
833	 3.58226493519471E-02 
834	 3.61945646022871E-02 
835	 3.61039705453695E-02 
836	 3.51276634600545E-02 
837	 3.46679067961978E-02 
838	 3.46701994585507E-02 
839	 3.47556054626126E-02 
840	 3.46332502261935E-02 
841	 3.43656410391542E-02 
842	 3.39473492834701E-02 
843	 3.35500946597905E-02 
844	 3.42252868864441E-02 
845	 3.41303499081244E-02 
846	 3.34592452131422E-02 
847	 3.36556495116637E-02 
848	 3.35992947705973E-02 
849	 3.33733858857185E-02 
850	 3.32263420213244E-02 
851	 3.33989047976653E-02 
852	 3.30055509716918E-02 
853	 3.27035584083936E-02 
854	 3.30066088288646E-02 
855	 3.34471000358205E-02 
856	 3.33383516795978E-02 
857	 0.032778798102384 
858	 3.22381977514009E-02 
859	 0.032633329900203 
860	 3.22998722264178E-02 
861	 3.19336002201262E-02 
862	 0.032904449019862 
863	 3.28281152465275E-02 
864	 3.23943319628809E-02 
865	 3.19875589275572E-02 
866	 3.15943853082697E-02 
867	 0.031980378735269 
868	 0.031987391532884 
869	 3.13981828942349E-02 
870	 3.14868708195106E-02 
871	 3.12048337808174E-02 
872	 3.07956734650708E-02 
873	 3.06108254661574E-02 
874	 3.06336621480727E-02 
875	 3.03512492758933E-02 
876	 3.01449053835648E-02 
877	 0.030426833379379 
878	 3.06757539397036E-02 
879	 3.04495437833078E-02 
880	 2.98971797869514E-02 
881	 2.95383380564578E-02 
882	 3.00113351423082E-02 
883	 2.99480106588025E-02 
884	 2.95535781488937E-02 
885	 3.00322345620844E-02 
886	 2.94596394775846E-02 
887	 2.90932030256924E-02 
888	 2.92806929328763E-02 
889	 2.89806047021882E-02 
890	 2.88664501140097E-02 
891	 0.029204368897911 
892	 2.96546732245765E-02 
893	 2.87488126410805E-02 
894	 2.88674926478768E-02 
895	 2.90865253764218E-02 
896	 0.028054215246121 
897	 2.74110053157029E-02 
898	 2.75909191188304E-02 
899	 2.87719871950803E-02 
900	 3.00446677093132E-02 
901	 2.81793440718992E-02 
902	 2.76534456764817E-02 
903	 2.79168069977162E-02 
904	 2.72635960536244E-02 
905	 2.84237541444619E-02 
906	 2.79378520963245E-02 
907	 2.58874168748429E-02 
908	 2.53813755050349E-02 
909	 2.63466745336582E-02 
910	 2.70231721831871E-02 
911	 2.67429231844601E-02 
912	 2.62936831296169E-02 
913	 2.77025164541623E-02 
914	 2.52653532387518E-02 
915	 2.14501494309243E-02 
916	 2.67029169206292E-02 
917	 2.67073145125321E-02 
918	 2.53444170559004E-02 
919	 0.026001890624566 
920	 2.82903801032872E-02 
921	 0.028912870042447 
922	 0.027495845690865 
923	 2.52206456178966E-02 
924	 2.55186047235638E-02 
925	 2.58937089321623E-02 
926	 2.54156885137004E-02 
927	 2.40702807077503E-02 
928	 2.39312070189595E-02 
929	 0.022345287807717 
930	 1.53555490582946E-02 
931	 5.61398437521984E-04 
932	-6.42541342079395E-03 
933	 2.54363886893288E-02 
934	 3.60427979286866E-02 
935	-2.62365872843068E-02 
936	 1.49024944731594E-02 
937	 3.20695986284833E-02 
938	 2.89690432388201E-02 
939	 3.66023428192375E-02 
940	 2.44494114005564E-02 
941	 2.54215515951207E-02 
942	 2.89706714077453E-02 
943	 1.13341372916716E-02 
944	 2.48201343115777E-02 
945	 1.51007875712728E-02 
946	-2.93909182907055E-04 
947	 2.51821713056015E-02 
948	 2.07231995721916E-02 
949	 1.30838306152306E-02 
950	 0.018486102503926 
951	 3.53605458340724E-02 
952	 2.95400817711015E-02 
953	 2.54290853579617E-02 
954	 0.024051700974702 
955	 1.38158373097213E-02 
956	 2.14153881439131E-02 
957	 2.98135738226844E-02 
958	 2.98307104265631E-02 
959	 0.023036395004734 
960	 2.99841766183579E-02 
961	 3.17676082895829E-02 
962	 2.74335237507623E-02 
963	 2.76944817292008E-02 
964	 3.16936622645069E-02 
965	 2.88994624816997E-02 
966	 2.31093191127879E-02 
967	 2.49385966622463E-02 
968	 2.66766326335782E-02 
969	 2.63392371700525E-02 
970	 2.57108618360163E-02 
971	 2.75218040306957E-02 
972	 1.78720133773998E-02 
973	 1.56002185322515E-02 
974	 2.49297312906694E-02 
975	 3.02965603732761E-02 
976	 1.47480023838659E-02 
977	 1.22115271325415E-02 
978	 2.50890215363845E-02 
979	 2.69343386065747E-02 
980	 2.54754581001085E-02 
981	 2.22746749529249E-02 
982	 0.022916252677686 
983	 3.21791808457737E-02 
984	 2.95502772933733E-02 
985	 2.54427017718402E-02 
986	 2.42119771154018E-02 
987	 2.36193480877223E-02 
988	 2.60584336467996E-02 
989	 2.33174086723995E-02 
990	 1.91471805984835E-02 
991	 2.38076942475009E-02 
992	 2.57120649059988E-02 
993	 2.56394962268305E-02 
994	 2.49851595289367E-02 
995	 2.46788242072922E-02 
996	 2.33459380751258E-02 
997	 0.024176737715218 
998	 2.39572445627413E-02 
999	 1.85296321930856E-02 
1000	 2.15712638801959E-02 
1001	 0.028226946266769 
1002	 2.87676916989611E-02 
1003	 2.92208080704439E-02 
1004	 2.97072113503201E-02 
1005	 0.030315369099076 
1006	 3.13067111364026E-02 
1007	 3.19913263077883E-02 
1008	 3.17966736247824E-02 
1009	 0.030729567295837 
1010	 2.83798501050517E-02 
1011	 2.66219238420215E-02 
1012	 2.64749532204905E-02 
1013	 2.71368497149618E-02 
1014	 2.76701360976061E-02 
1015	 2.94109628393746E-02 
1016	 0.030004010220483 
1017	 3.04312500711339E-02 
1018	 3.03231329643632E-02 
1019	 2.89151633419722E-02 
1020	 2.89462145576698E-02 
1021	 2.96336260493868E-02 
1022	 2.96203428995774E-02 
1023	 2.94968790556613E-02 
1024	 2.98105156147009E-02 
1025	 2.84322771485782E-02 
1026	 2.69517290596433E-02 
1027	 2.64007053988625E-02 
1028	 2.65993271719419E-02 
1029	 2.64585368115838E-02 
1030	 2.61938825435734E-02 
1031	 0.026624629573177 
1032	 2.78264022233433E-02 
1033	 0.028161405666901 
1034	 2.85831181707886E-02 
1035	 2.88769580964003E-02 
1036	 2.89184115226973E-02 
1037	 0.028492789247189 
1038	 2.76968540392672E-02 
1039	 2.73067399664871E-02 
1040	 2.65868187364503E-02 
1041	 0.025060422957467 
1042	 2.50866582827898E-02 
1043	 2.61572200772785E-02 
1044	 0.02701783281664 
1045	 2.89781285609172E-02 
1046	 2.93558147529588E-02 
1047	 2.91223494786971E-02 
1048	 2.88908301601236E-02 
1049	 2.73668517064563E-02 
1050	 2.70238354394893E-02 
1051	 2.76589495964162E-02 
1052	 2.76601187329159E-02 
1053	 2.77375031034501E-02 
1054	 2.76857624327493E-02 
1055	 2.72542625544773E-02 
1056	 2.68661220932372E-02 
1057	 2.64767733559081E-02 
1058	 2.59753810970674E-02 
1059	 2.60144628555292E-02 
1060	 2.62694497490877E-02 
1061	 0.02638874093449 
1062	 2.69153870131243E-02 
1063	 2.72098658733104E-02 
1064	 2.73956775331346E-02 
1065	 2.73159862521716E-02 
1066	 0.026918457720979 
1067	 2.69794459429821E-02 
1068	 2.70072478518333E-02 
1069	 2.70369878321872E-02 
1070	 2.79487314016785E-02 
1071	 2.80319182770067E-02 
1072	 2.83260664305171E-02 
1073	 0.026413742234671 
1074	 2.62776758459931E-02 
1075	 2.60598460883509E-02 
1076	 2.65221769327291E-02 
1077	 2.84471136182888E-02 
1078	 2.87603996375262E-02 
1079	 2.83340058227321E-02 
1080	 2.81999682181988E-02 
1081	 2.75607270976052E-02 
1082	 2.70614284563314E-02 
1083	 2.66600952476448E-02 
1084	 2.66650297289797E-02 
1085	 2.62442870572093E-02 
1086	 2.63617090395502E-02 
1087	 0.028351341406262 
1088	 0.028645283068631 
1089	 2.74753821661773E-02 
1090	 2.76109626325224E-02 
1091	 2.68765673028842E-02 
1092	 2.41705472383636E-02 
1093	 2.40712801602433E-02 
1094	 2.57211562936159E-02 
1095	 2.60868227386049E-02 
1096	 2.75668769250934E-02 
1097	 2.80421316110484E-02 
1098	 2.69378017033663E-02 
1099	 2.66467828908399E-02 
1100	 2.59430569496259E-02 
1101	 2.62074631244549E-02 
1102	 2.83978648705127E-02 
1103	 2.87587095421443E-02 
1104	 2.92449526827144E-02 
1105	 2.89239103225844E-02 
1106	 2.52533428309598E-02 
1107	 2.20898254681589E-02 
1108	 1.98161535900611E-02 
1109	 1.84890436639414E-02 
1110	 1.83484301308972E-02 
1111	 2.08758874373322E-02 
1112	 2.24776408068741E-02 
1113	 2.80150321164437E-02 
1114	 2.80227120188009E-02 
1115	 0.020042655600616 
1116	 1.82503857139512E-02 
1117	 1.57710858384394E-02 
1118	 1.32047195520384E-02 
1119	 2.95322479023332E-02 
1120	 0.031041876227778 
1121	 1.63057492439116E-02 
1122	-0.038288765059989 
1123	-6.48322844126446E-02 
1124	-5.12348752531651E-02 
1125	-5.10526678704069E-02 
1126	-1.04807921655552E-02 
1127	 6.54859126670359E-03 
1128	-9.27607936318807E-03 
1129	 6.00969274235974E-03 
1130	 5.62210238571607E-02 
1131	 5.27344484077492E-02 
1132	 2.27378727013133E-02 
1133	 2.56538426908692E-02 
1134	 2.34640073099927E-02 
1135	 2.13788250349137E-02 
1136	 4.09406249624586E-02 
1137	 4.33352239972077E-02 
1138	 2.85428002007076E-02 
1139	 2.27037814625703E-02 
1140	 2.75993247083896E-02 
1141	 2.61223897503574E-02 
1142	 3.48978565857029E-02 
1143	 4.70039523548531E-02 
1144	 4.82732005695778E-02 
1145	 4.49613425308492E-02 
1146	 3.54639458400299E-02 
1147	 3.50756893617451E-02 
1148	 3.45529213292256E-02 
1149	 2.00099505848892E-02 
1150	 1.68994945425314E-02 
1151	 0.015076672872628 
1152	 1.50973040175418E-02 
1153	 1.94082381361734E-02 
1154	 2.18636898385799E-02 
1155	 2.42391284335347E-02 
1156	 2.38271461024764E-02 
1157	 2.33152792060793E-02 
1158	 2.22927044106146E-02 
1159	 2.59792811262493E-02 
1160	 2.93915802290652E-02 
1161	 2.76816122281737E-02 
1162	 2.78970051355372E-02 
1163	 2.91378072450244E-02 
1164	 2.81824450674612E-02 
1165	 2.85934975546197E-02 
1166	 0.029227862362285 
1167	 2.79516156462853E-02 
1168	 2.67780521722638E-02 
1169	 2.61182103628218E-02 
1170	 2.71351733554833E-02 
1171	 2.76008286451477E-02 
1172	 2.77395803204105E-02 
1173	 2.77321745499722E-02 
1174	 2.74662721128849E-02 
1175	 2.84778800450274E-02 
1176	 2.83639297499668E-02 
1177	 2.95731805568006E-02 
1178	 3.10780579828765E-02 
1179	 3.05346239964925E-02 
1180	 3.03513080604908E-02 
1181	 3.02389444429142E-02 
1182	 2.85186606320226E-02 
1183	 2.74678398075957E-02 
1184	 2.89084969370094E-02 
1185	 3.04183425927328E-02 
1186	 2.99956056349514E-02 
1187	 3.00686451486191E-02 
1188	 3.07752831777457E-02 
1189	 2.87819650394241E-02 
1190	 2.74330796632682E-02 
1191	 2.75495250392483E-02 
1192	 0.027050523466576 
1193	 2.49198876072133E-02 
1194	 2.46455180547626E-02 
1195	 2.60590305390874E-02 
1196	 2.71306671933699E-02 
1197	 2.75292905280344E-02 
1198	 2.67411722777907E-02 
1199	 2.62014882673184E-02 
1200	 2.63454125062743E-02 
1201	 2.68817830453493E-02 
1202	 2.87986142890237E-02 
1203	 2.96084651810903E-02 
1204	 2.77556893295738E-02 
1205	 0.02731838104727 
1206	 2.74055915524218E-02 
1207	 0.026437983762313 
1208	 2.73774626009617E-02 
1209	 2.83859320452549E-02 
1210	 2.72805269558559E-02 
1211	 2.71185299925622E-02 
1212	 2.81527153502223E-02 
1213	 2.74448291635308E-02 
1214	 2.69600704801417E-02 
1215	 0.026494296386744 
1216	 2.70430137671079E-02 
1217	 2.69815298027704E-02 
1218	 2.75773524102043E-02 
1219	 2.77960755536377E-02 
1220	 2.72456062577493E-02 
1221	 2.68673667464831E-02 
1222	 2.64903083357198E-02 
1223	 2.66370016684953E-02 
1224	 2.69257421680148E-02 
1225	 2.74530070965622E-02 
1226	 0.027309204914526 
1227	 2.63196203010371E-02 
1228	 2.64796937985064E-02 
1229	 2.69334079955815E-02 
1230	 2.65400415604072E-02 
1231	 2.63177999217548E-02 
1232	 2.66153762694989E-02 
1233	 2.65153147268053E-02 
1234	 2.64516023725815E-02 
1235	 2.65788860296311E-02 
1236	 2.73777949744147E-02 
1237	 2.75544724051256E-02 
1238	 0.027409344783933 
1239	 2.72420603765857E-02 
1240	 2.72745548683734E-02 
1241	 2.69935677544549E-02 
1242	 2.66599684924638E-02 
1243	 2.68305659112226E-02 
1244	 2.66883346714162E-02 
1245	 2.66455957146537E-02 
1246	 2.62710487399305E-02 
1247	 2.56727287311645E-02 
1248	 2.59267766358347E-02 
1249	 2.64182841917712E-02 
1250	 2.65766158701154E-02 
1251	 2.62205888424583E-02 
1252	 0.025512973295814 
1253	 2.48592075407826E-02 
1254	 2.46527469906115E-02 
1255	 2.52343040971243E-02 
1256	 2.56446442913954E-02 
1257	 2.62395955617624E-02 
1258	 0.026134349800112 
1259	 2.59361146976833E-02 
1260	 2.57946313456261E-02 
1261	 2.48013295483336E-02 
1262	 2.50484940013074E-02 
1263	 0.026410267220107 
1264	 2.66187690622765E-02 
1265	 2.70692520961745E-02 
1266	 2.70682960530346E-02 
1267	 2.58093938292677E-02 
1268	 2.48962045898142E-02 
1269	 2.45868332805046E-02 
1270	 2.48025163668551E-02 
1271	 2.50208000298907E-02 
1272	 2.49217849817064E-02 
1273	 2.56444980120818E-02 
1274	 2.64752372738396E-02 
1275	 0.026239250944657 
1276	 2.62191927507767E-02 
1277	 2.60531382618913E-02 
1278	 0.025051639912315 
1279	 2.45989206590454E-02 
1280	 2.49950825794569E-02 
1281	 2.51287257707362E-02 
1282	 2.48877049275367E-02 
1283	 2.50352870022429E-02 
1284	 2.58892223996638E-02 
1285	 2.59836527427531E-02 
1286	 2.53902746930818E-02 
1287	 2.55004986434623E-02 
1288	 2.59770215853156E-02 
1289	 2.59149557013375E-02 
1290	 2.56333031527708E-02 
1291	 2.63879438222205E-02 
1292	 2.61831958903755E-02 
1293	 2.51832801020876E-02 
1294	 2.53726754191743E-02 
1295	 2.52487983528775E-02 
1296	 2.45460476661584E-02 
1297	 2.48949757669072E-02 
1298	 2.53330746775851E-02 
1299	 2.43812907906868E-02 
1300	 2.36624612805307E-02 
1301	 0.024279215330642 
1302	 0.024114944862967 
1303	 2.27326840768607E-02 
1304	 2.30749442388408E-02 
1305	 2.27430022573275E-02 
1306	 2.23565243370296E-02 
1307	 2.26976845823988E-02 
1308	 2.27433789214118E-02 
1309	 2.15794800499741E-02 
1310	 2.15197492970325E-02 
1311	 2.26250836534143E-02 
1312	 2.30401373214539E-02 
1313	 2.40134176567678E-02 
1314	 2.41955440805484E-02 
1315	 2.16070769665069E-02 
1316	 0.021950268348311 
1317	 2.64782816207074E-02 
1318	 2.62076166681153E-02 
1319	 2.36832573593759E-02 
1320	 2.34350259165391E-02 
1321	 2.12222172409114E-02 
1322	 1.75928725244777E-02 
1323	 1.99131764955889E-02 
1324	 2.38394292053546E-02 
1325	 2.05134286193737E-02 
1326	 0.01488211840443 
1327	 1.74872058358767E-02 
1328	 0.022375537990646 
1329	 2.51108024642601E-02 
1330	 2.58307917196648E-02 
1331	 2.46428816063489E-02 
1332	 2.64886484808352E-02 
1333	 2.69269882126605E-02 
1334	 3.01291544163529E-02 
1335	 2.90770662550811E-02 
1336	 1.29191589273576E-02 
1337	 1.12370680886897E-02 
1338	 2.24592327421181E-02 
1339	 0.020437289391099 
1340	 1.84744706161377E-02 
1341	 1.69501730850553E-02 
1342	 4.62734403860866E-04 
1343	-4.97663724231522E-03 
1344	-1.4082403443025E-03 
1345	 9.21937611457662E-04 
1346	 2.44031066590977E-02 
1347	 2.64861693174806E-02 
1348	-1.17728386746423E-03 
1349	-1.12699148193301E-03 
1350	-4.4804848951918E-03 
1351	-5.35581026109513E-02 
1352	-0.122943275912682 
1353	-0.118201763591053 
1354	-9.94018658866387E-02 
1355	-0.152016733680673 
1356	-0.132301905525013 
1357	 0.172093311171721 
1358	 0.316453789382876 
1359	 6.58618472606277E-02 
1360	-4.78649690284585E-02 
1361	 0.2569309065771 
1362	 0.393418151653038 
1363	 0.279187528606718 
1364	 0.474871096562261 
1365	 0.165182376748189 
1366	-7.81639814710817E-02 
1367	 5.29085767846921E-02 
1368	-6.83466640542602E-02 
1369	-0.460042660729895 
1370	-0.718688465905234 
1371	-1.56736519307454 
1372	-3.08074168020328 
1373	-7.36747279220177 
1374	 39.7018100985864 
1375	-5.01994148829879 
1376	-3.11750168655852 
1377	-1.46995776311864 
1378	-1.50849105362775 
1379	-2.59110139431215 
1380	-2.19429454609828 
1381	-3.88187327910122 
1382	-3.59629087730651 
1383	-1.58082800320281 
1384	-0.996266668989534 
1385	-8.32095098918567E-02 
1386	 0.023605515043264 
1387	-0.994549732129769 
1388	-0.737341165614364 
1389	-0.314166376295483 
1390	-0.767978883425163 
1391	-1.87489217034549 
1392	-0.107569309021929 
1393	 0.113603827239066 
1394	-7.00209721131739E-02 
1395	-6.78111697416852E-02 
1396	 0.383438883197995 
1397	 0.490277742414528 
1398	 58.0802828761268 
1399	-1.38885436755584 
1400	-1.38337843595398 
1401	-2.72349728324355 
1402	 71.0375918250091 
1403	 3.3544257582946 
1404	 17.1729915683561 
1405	 195.327127825905 
1406	-2.10046761487036 
1407	-1.90265941720994 
1408	-1.10856059665817 
1409	-0.622939142582461 
1410	 3.80326470747958 
1411	 8.53377370647352 
1412	-0.459480582805597 
1413	-0.241584098740489 
1414	-0.94985333570472 
1415	-0.766409793487522 
1416	-1.58969190841926 
1417	-5.61478289775816 
1418	-1.68627501765272 
1419	-0.853087473675829 
1420	-1.40659570999674 
1421	-1.38058044307867 
1422	-0.887350694527931 
1423	-0.813503216516202 
1424	-1.4545632999315 
1425	-1.1079622021171 
1426	 1.10709029061819 
1427	 1.01981879101141 
1428	-0.236351803430054 
1429	-0.306699843229628 
1430	-0.508669440466196 
1431	-0.544738057064427 
1432	-0.245607765963914 
1433	 0.040405588622395 
1434	 0.691249325520677 
1435	 0.911243375282562 
1436	 0.572386211406223 
1437	 0.299780406012048 
1438	 0.507906257680593 
1439	 0.527978176917722 
1440	 0.334582854355772 
1441	 0.302667977476016 
1442	 0.165187391136496 
1443	-0.235384975726171 
1444	-0.279757207471181 
1445	-0.180433721669183 
1446	-0.239237288860419 
1447	-0.206230544989494 
1448	-9.57549526543784E-02 
1449	 3.00694466407438E-02 
1450	 2.72236867478199E-02 
1451	-6.42682209178719E-02 
1452	-6.14353074329714E-02 
1453	-2.98927973562085E-02 
1454	-3.52826626441521E-02 
1455	-4.24221288601993E-02 
1456	-1.05568026026569E-02 
1457	 2.98954487994216E-02 
1458	 3.20624122508263E-02 
1459	 0.058492165639684 
1460	 9.77116235719496E-02 
1461	 0.11607323010276 
1462	 7.49638846735948E-02 
1463	 0.018164101566991 
1464	 1.89059210797512E-02 
1465	-1.70846738641815E-02 
1466	-4.70097236220255E-02 
1467	-7.41943293960999E-03 
1468	 3.84410302679103E-02 
1469	 4.25198943258439E-02 
1470	 3.25283354708793E-02 
1471	 9.92726086662394E-02 
1472	 0.108081674143238 
1473	 5.25887006402932E-03 
1474	-1.31865028365565E-02 
1475	 4.14361461937486E-02 
1476	 4.23776813770926E-02 
1477	 7.5042055301719E-03 
1478	-4.91054631563353E-03 
1479	-4.14250668315875E-02 
1480	-2.04324196878281E-02 
1481	 5.75923569286292E-02 
1482	 6.01184623590435E-02 
1483	 4.37580005242972E-02 
1484	 4.73342549088727E-02 
1485	 3.12180267175816E-02 
1486	 1.88784120394523E-02 
1487	 0.0283180964536 
1488	 0.030221980743039 
1489	 1.45055967965078E-02 
1490	 8.83411765452707E-03 
1491	 1.54381825320094E-02 
1492	 1.84873320018576E-02 
1493	 1.44592770632394E-02 
1494	 1.71985482575258E-02 
1495	 3.05957753056352E-02 
1496	 3.01321926430874E-02 
1497	 2.04595693979197E-02 
1498	 2.03020613992539E-02 
1499	 2.19356350642254E-02 
1500	 1.92903029164975E-02 
1501	 1.73692085078572E-02 
1502	 1.87022421604299E-02 
1503	 1.76176010735671E-02 
1504	 1.84760724983816E-02 
1505	 2.51693188207725E-02 
1506	 2.74360402205585E-02 
1507	 3.02224331188652E-02 
1508	 2.77032880641681E-02 
1509	 0.020377138578741 
1510	 2.14971942952435E-02 
1511	 2.16750946340328E-02 
1512	 1.92741917217101E-02 
1513	 0.020628360403708 
1514	 2.01938783439182E-02 
1515	 1.92105047184709E-02 
1516	 1.76698263952669E-02 
1517	 1.58770387779974E-02 
1518	 0.017875555459903 
1519	 1.88838791436551E-02 
1520	 1.88957457884207E-02 
1521	 2.05794425994777E-02 
1522	 2.17082684784088E-02 
1523	 2.42893144508539E-02 
1524	 2.52523577200567E-02 
1525	 2.41101428998082E-02 
1526	 2.43090834048524E-02 
1527	 2.33352620138768E-02 
1528	 2.21943192038941E-02 
1529	 2.27391032177229E-02 
1530	 2.32253887073679E-02 
1531	 2.36636737510747E-02 
1532	 2.41860525837624E-02 
1533	 2.33489086994341E-02 
1534	 2.31296796021604E-02 
1535	 2.28553939139699E-02 
1536	 1.97561883575228E-02 
1537	 1.95361147365451E-02 
1538	 0.021101738158154 
1539	 1.99770996468916E-02 
1540	 2.08998555052504E-02 
1541	 0.022643342016438 
1542	 0.023732267582119 
1543	 2.41186428936692E-02 
1544	 2.37337932758319E-02 
1545	 2.39246790950741E-02 
1546	 2.10843880930924E-02 
1547	 1.68836770253902E-02 
1548	 1.62617725293803E-02 
1549	 1.82830887523004E-02 
1550	 1.90601624724784E-02 
1551	 0.020228756833864 
1552	 2.31232977582094E-02 
1553	 0.021765142907757 
1554	 1.89820903950518E-02 
1555	 0.019279086126652 
1556	 1.84376158364791E-02 
1557	 1.82040028975621E-02 
1558	 2.02912424349743E-02 
1559	 2.01744499042129E-02 
1560	 1.81541005835516E-02 
1561	 1.74665470602032E-02 
1562	 1.76161600500451E-02 
1563	 1.92830827551503E-02 
1564	 2.16293692381415E-02 
1565	 2.15299190006174E-02 
1566	 2.17336179360043E-02 
1567	 2.05543589315906E-02 
1568	 0.018450603857193 
1569	 1.95885334879991E-02 
1570	 1.98009300424492E-02 
1571	 1.90490796926172E-02 
1572	 1.94953079646062E-02 
1573	 2.01064449931652E-02 
1574	 1.86540453607204E-02 
1575	 1.75537306097901E-02 
1576	 1.97123602723831E-02 
1577	 2.07510172350593E-02 
1578	 1.93126982122252E-02 
1579	 1.85953326852945E-02 
1580	 1.96086431709764E-02 
1581	 2.02912329992962E-02 
1582	 2.12563370967782E-02 
1583	 2.11441497444941E-02 
1584	 0.018720736293939 
1585	 1.88690044838751E-02 
1586	 2.04787105729297E-02 
1587	 1.89610787561133E-02 
1588	 1.84431955573523E-02 
1589	 2.07218096322099E-02 
1590	 2.10877443045432E-02 
1591	 2.02516823702711E-02 
1592	 2.04311219944348E-02 
1593	 0.019900470738303 
1594	 1.77162885109954E-02 
1595	 1.86285326568786E-02 
1596	 2.16793466020454E-02 
1597	 2.14134486428549E-02 
1598	 2.03636744513742E-02 
1599	 2.09349506632437E-02 
1600	 2.22936429243189E-02 
1601	 2.17932548369922E-02 
1602	 1.97832693966711E-02 
1603	 1.98602285754007E-02 
1604	 2.05512819622974E-02 
1605	 1.96123285662824E-02 
1606	 2.05850541575324E-02 
1607	 2.19932882015188E-02 
1608	 2.00082774219393E-02 
1609	 2.06156884439611E-02 
1610	 0.023014897683825 
1611	 2.15637446702369E-02 
1612	 2.07365373205136E-02 
1613	 0.021806066201499 
1614	 2.19115887069561E-02 
1615	 2.23266911306974E-02 
1616	 2.31637913702565E-02 
1617	 2.23633930015082E-02 
1618	 2.05314103524197E-02 
1619	 2.07572436453085E-02 
1620	 2.14055173462493E-02 
1621	 2.15944907861679E-02 
1622	 2.08616430402316E-02 
1623	 1.78329717333431E-02 
1624	 1.72810250547824E-02 
1625	 1.72366927571456E-02 
1626	 1.59935967670373E-02 
1627	 0.017186151806625 
1628	 1.87850030499379E-02 
1629	 1.85706281457296E-02 
1630	 1.74815647720076E-02 
1631	 1.77132498606053E-02 
1632	 1.81228893059831E-02 
1633	 1.79658775980877E-02 
1634	 1.95305406040618E-02 
1635	 2.19561582380211E-02 
1636	 2.15878248685717E-02 
1637	 0.020524585499738 
1638	 2.08763937827553E-02 
1639	 0.020362070849994 
1640	 0.019596929893952 
1641	 1.97180316275611E-02 
1642	 2.02380860516589E-02 
1643	 2.05982558967577E-02 
1644	 2.15955499188044E-02 
1645	 2.10115015596272E-02 
1646	 2.09906511577631E-02 
1647	 2.30677519083405E-02 
1648	 0.022277018518926 
1649	 2.22433558028139E-02 
1650	 2.37447356933819E-02 
1651	 2.32451038539361E-02 
1652	 2.25112193633096E-02 
1653	 2.21777115062298E-02 
1654	 2.18814117989312E-02 
1655	 2.10348475881114E-02 
1656	 2.02999122076937E-02 
1657	 1.95258991373442E-02 
1658	 1.92779258069013E-02 
1659	 1.94787783247733E-02 
1660	 0.02035854705434 
1661	 2.22705692028862E-02 
1662	 0.022557688213358 
1663	 2.25781907199819E-02 
1664	 2.20162277798854E-02 
1665	 1.98455191249539E-02 
1666	 1.95945295971595E-02 
1667	 2.05780854481456E-02 
1668	 1.87782985143176E-02 
1669	 0.018505801063133 
1670	 0.019059079218912 
1671	 1.70337322029469E-02 
1672	 1.73087758717853E-02 
1673	 1.84076959651636E-02 
1674	 1.70594898955325E-02 
1675	 1.89630613252813E-02 
1676	 2.12145316747957E-02 
1677	 2.00850229379912E-02 
1678	 1.88453019105356E-02 
1679	 1.80700035471738E-02 
1680	 1.73634951731215E-02 
1681	 0.020051696650591 
1682	 2.31489391059853E-02 
1683	 2.21047301987963E-02 
1684	 2.01219508993986E-02 
1685	 2.10787316911003E-02 
1686	 2.26119531364651E-02 
1687	 2.18889782313751E-02 
1688	 2.16267567502426E-02 
1689	 0.021479995801914 
1690	 1.96399995836848E-02 
1691	 1.95049665048354E-02 
1692	 2.27455397033567E-02 
1693	 2.18107793977467E-02 
1694	 1.91268721179029E-02 
1695	 2.12077152389503E-02 
1696	 2.16394365252529E-02 
1697	 2.14725306150576E-02 
1698	 2.46916675937319E-02 
1699	 2.49644444874798E-02 
1700	 2.14389134366084E-02 
1701	 1.92630349591822E-02 
1702	 1.71425414368719E-02 
1703	 1.66731928702467E-02 
1704	 1.99185433362959E-02 
1705	 2.11883422944483E-02 
1706	 2.11628733577822E-02 
1707	 2.06706149341709E-02 
1708	 0.019373908767576 
1709	 2.34429476339211E-02 
1710	 2.70512754016222E-02 
1711	 2.40495677253273E-02 
1712	 2.30925581193811E-02 
1713	 2.15199919078035E-02 
1714	 1.93120657776547E-02 
1715	 0.02157257834962 
1716	 2.24876044112177E-02 
1717	 1.91204939291405E-02 
1718	 2.10948627418287E-02 
1719	 2.13739543125481E-02 
1720	 1.92778050141473E-02 
1721	 1.97507518254474E-02 
1722	 1.95067780629539E-02 
1723	 2.12615539881482E-02 
1724	 2.32782776176596E-02 
1725	 2.14355937994507E-02 
1726	 1.90339647118239E-02 
1727	 1.50149143117745E-02 
1728	 1.18467535026689E-02 
1729	 1.52538979158025E-02 
1730	 2.00228843220804E-02 
1731	 2.32016076613744E-02 
1732	 2.37702756894912E-02 
1733	 2.04003999354061E-02 
1734	 1.97876487796863E-02 
1735	 1.97829676534119E-02 
1736	 2.04146538413567E-02 
1737	 2.62841371217849E-02 
1738	 2.54290042516021E-02 
1739	 2.10580099865749E-02 
1740	 1.96553971956659E-02 
1741	 1.46923430347505E-02 
1742	 1.38188232440877E-02 
1743	 1.58513475236208E-02 
1744	 1.17008443570799E-02 
1745	 8.26842806530351E-03 
1746	 6.34546093744841E-03 
1747	 6.27597287447754E-03 
1748	 1.27995032375302E-02 
1749	 1.40343056354289E-02 
1750	 1.25971764769664E-02 
1751	 1.12211251070123E-02 
1752	 5.51259772861244E-03 
1753	 6.50826349359696E-03 
1754	 0.01267219907617 
1755	 1.33006145268544E-02 
1756	 0.015129741761111 
1757	 9.71074527042703E-03 
1758	 8.68446387608834E-03 
1759	 1.26639727384252E-02 
1760	 1.56981293482256E-02 
1761	 2.28113678360472E-02 
1762	 0.025438526462253 
1763	 2.77963379810523E-02 
1764	 2.97735952906076E-02 
1765	 2.50335524705255E-02 
1766	 2.29373295488239E-02 
1767	 0.0201740130567 
1768	 1.86501940373965E-02 
1769	 1.48350425825779E-02 
1770	 8.41913731279532E-03 
1771	 1.22379109206767E-02 
1772	 1.24762862326112E-02 
1773	 1.36496119718519E-02 
1774	 2.13682083936555E-02 
1775	 1.23856721551792E-02 
1776	 8.86908877469495E-03 
1777	 0.010734088397717 
1778	 1.54018277903387E-02 
1779	 2.22005921374879E-02 
1780	 2.49903850537161E-02 
1781	 3.80872151109037E-02 
1782	 3.44106402919912E-02 
1783	 8.71240231647673E-03 
1784	 1.00651791254081E-02 
1785	 2.30557151834499E-02 
1786	 1.44504631702414E-02 
1787	 6.73525611203964E-03 
1788	-1.05491559925522E-03 
1789	-3.72446182035041E-02 
1790	-4.10027195029623E-02 
1791	-2.21039578538139E-02 
1792	-3.33115432360655E-02 
1793	-4.28319887904556E-02 
1794	-3.10865695619616E-02 
1795	-3.27015640137688E-02 
1796	-4.47590435610934E-03 
1797	 6.34907601101405E-02 
1798	 0.128529009651826 
1799	 0.15747396340733 
1800	-7.93663393829532E-03 
1801	-7.43563444704673E-02 
1802	-0.164021847792505 
1803	-0.176640852378975 
1804	 0.134246443442012 
1805	 0.150387604208366 
1806	-0.110796818014544 
1807	-0.280866135072843 
1808	-0.786157797931448 
1809	-0.865052343288655 
1810	-0.269698281684311 
1811	-0.269632675515939 
1812	-0.35165512833034 
1813	-0.547085251035132 
1814	-1.07974934996495 
1815	-0.959473733283962 
1816	-0.585595257913256 
1817	-0.780569986188708 
1818	-0.261835014447184 
1819	-0.10603076364022 
1820	-7.60861204730265E-02 
1821	-0.368648875671063 
1822	-0.531779913073278 
1823	-9.21735395225859E-02 
1824	-0.58937981452088 
1825	-0.979981917338019 
1826	-0.726978480509891 
1827	-0.73538994588173 
1828	-0.623374413483849 
1829	 1.19656717598737 
1830	 1.41684196578904 
1831	-2.23826354713257 
1832	-4.680126881646 
1833	-2.14005390805041 
1834	-4.49155622748487 
1835	 13.7427884036743 
1836	 6.01195541756659 
1837	 2.11938630697826 
1838	 1.95095915237001 
1839	 2.21111264978467 
1840	 16.8688260966442 
1841	-2.17423678011371 
1842	-1.43000400213201 
1843	-1.44011743092733 
1844	-3.38955748260809 
1845	-4.83507130460914 
1846	 2.05637701609987 
1847	 0.777839556763177 
1848	-0.849382669600901 
1849	 0.432886478984368 
1850	 4.49057570061648 
1851	 5.27811141823577 
1852	 0.569063206118487 
1853	 3.10675632893875E-02 
1854	-0.147188567059373 
1855	-0.277717491592789 
1856	-0.180362006172196 
1857	 4.11764599008078E-02 
1858	 9.97459360444235E-02 
1859	 0.220781046661505 
1860	 0.254054276207079 
1861	 0.315107453662087 
1862	 0.71158826520403 
1863	 0.9788800021041 
1864	 0.904560182230409 
1865	 1.08276280082847 
1866	 10.2122701315711 
1867	 5.11259285069548 
1868	 3.32406752655517 
1869	 11.77731471 
1870	-19.0777434480887 
1871	-0.43702695789752 
1872	-0.606543086599103 
1873	-0.489459213064968 
1874	-0.19626045021572 
1875	-0.762922483533669 
1876	-1.00075901835229 
1877	-2.02195464022782 
1878	-1.55445687166653 
1879	-0.22298376620769 
1880	-3.37803764600404E-03 
1881	 0.261792214676003 
1882	-4.10103683117856E-02 
1883	-0.521377114548154 
1884	-1.33650563369684 
1885	-1.20770058488995 
1886	 18.9301447979521 
1887	-2.22482402437705 
1888	 2.14611625348137 
1889	 5.41281026693522E-02 
1890	-0.930920943810278 
1891	-1.06911862416969 
1892	-0.844436014874321 
1893	-1.62471958084731 
1894	-3.2005491030735 
1895	-4.36313200985599 
1896	-4.79660702973271 
1897	-1.72956077016154 
1898	-1.47546945927481 
1899	-3.07257998882215 
1900	-7.84524413188496 
1901	-1.23176471987032 
1902	-1.55529344367087 
1903	-1.3757266550277 
1904	-1.62177515879515 
1905	-0.245677173154678 
1906	-0.130495920624236 
1907	-6.80362533349145E-02 
1908	-0.600009690028956 
1909	-1.7238388147417 
1910	-8.54547008033377 
1911	 30.0151681800545 
1912	-19.3119104955787 
1913	-91.0795136117269 
1914	 3.97685795002455 
1915	 2.35378246391277 
1916	 1.44021708661064 
1917	 1.21655455870765 
1918	 2.0562387830778 
1919	-1.10440218036156 
1920	-0.599562840568715 
1921	-1.50327580244861 
1922	-1.47900433560488 
1923	-0.720176669485345 
1924	 0.158521533276367 
1925	 0.412093040818928 
1926	 0.461883402761362 
1927	 0.423642610214875 
1928	-0.201529274663062 
1929	-9.86183937328203 
1930	 2.28706690791621 
1931	 1.24937471753804 
1932	 0.625942583267911 
1933	 0.935473889539136 
1934	 1.66268698076161 
1935	 2.65989499961618 
1936	 5.7794377640571 
1937	 1.92489378641114 
1938	 1.14615576301903 
1939	 1.02471946231902 
1940	 0.957191647037294 
1941	 1.59328443086729 
1942	 1.32278139448216 
1943	 0.807468260525688 
1944	 1.46722682351599 
1945	 1.79604245274016 
1946	 1.9002020080883 
1947	-105.16539586581 
1948	 1.99842762043777 
1949	 0.644821478780521 
1950	 0.568022091066069 
1951	 0.157454962677064 
1952	-8.57130425051174E-02 
1953	-3.06158707744158 
1954	 2.40290462946386 
1955	 1.68644062616749 
1956	 1.08868327996546 
1957	 0.797063167591871 
1958	 0.730066445015453 
1959	 0.322207749967641 
1960	-8.85941972015051E-03 
1961	-0.189089678898345 
1962	 8.31770981653254E-03 
1963	 0.116362232468859 
1964	 0.38246648508467 
1965	 0.390296618150438 
1966	 0.159592680367961 
1967	-1.07809174184329 
1968	-0.499125076825048 
1969	-1.02143016409546E-02 
1970	-0.334498907177391 
1971	-0.195484986047721 
1972	-0.193690122994571 
1973	-0.454778343338117 
1974	-0.480243923810088 
1975	-0.415078773998986 
1976	-0.375223991829483 
1977	-0.381973742404119 
1978	-0.310524576948055 
1979	-0.265198823105897 
1980	-0.177711836238161 
1981	-0.239882267657354 
1982	-0.26551846005 
1983	-0.222397495620713 
1984	-0.192626285087286 
1985	-0.197267792644131 
1986	-0.238841723488214 
1987	-0.28859612973506 
1988	-0.316205745535311 
1989	-0.165448595914119 
1990	 3.44529178910347E-02 
1991	 6.49979586984806E-02 
1992	 0.101780388907515 
1993	 0.136130031014256 
1994	 0.120603342836478 
1995	 5.28285549069589E-02 
1996	 0.053215333925842 
1997	-1.66924969551245E-02 
1998	-0.268460381952238 
1999	-0.286840165145371 
2000	-0.399537950310705 
2001	-0.460199318113816 
2002	-0.228738861202086 
2003	-0.369769568286427 
2004	-0.219993001465502 
2005	-0.124947319893249 
2006	-0.360889835095253 
2007	-0.253012822612849 
2008	-0.412830770734457 
2009	-0.441419965555856 
2010	-0.147608025780854 
2011	 8.48179381184845E-02 
2012	 0.202620816253543 
2013	 0.15328341149984 
2014	 2.04203758420742E-02 
2015	-0.13200086070133 
2016	-0.138784434450865 
2017	-0.230657514674758 
2018	-0.347422290818237 
2019	-0.344180380965075 
2020	-0.390461165999013 
2021	-0.360631941295035 
2022	-0.28875995569484 
2023	-0.22766408918573 
2024	-0.115288877137996 
2025	 0.104776040402885 
2026	 0.116151366982153 
2027	 6.96723853383308E-02 
2028	 3.86950204952734E-02 
2029	-0.011313542328844 
2030	-6.84255463894179E-02 
2031	-6.55661065408885E-02 
2032	-5.54912534023174E-02 
2033	-8.34565905774528E-02 
2034	-5.50172084032896E-02 
2035	-2.22138303998277E-02 
2036	-1.37703396566803E-02 
2037	 0.009949290593834 
2038	-2.89595869630226E-02 
2039	-5.69619619332843E-02 
2040	-0.114137572736602 
2041	-0.12225213964839 
2042	-0.103239863788523 
2043	-9.12846091161911E-02 
2044	-0.06772163321592 
2045	-3.56641157138276E-02 
2046	-1.66214990698134E-02 
2047	 2.60150555075824E-03 
2048	 8.13450673797516E-02 
2049	 0.115134423657083 
2050	 0.095445544302598 
2051	 5.76734483618393E-02 
2052	-3.71421124004861E-02 
2053	-0.102401239188574 
2054	-0.104655060358929 
2055	-7.39991337127949E-02 
2056	-0.051582989193673 
2057	-3.39849864906509E-03 
2058	 1.18178935669956E-02 
2059	 1.11669361762827E-02 
2060	 1.30735429089321E-02 
2061	-2.06566749655114E-03 
2062	 0.013549401879441 
2063	 6.39112032031593E-03 
2064	 2.50163270365167E-02 
2065	 4.28689545618589E-02 
2066	 3.20061248381053E-02 
2067	 4.51274834542798E-02 
2068	 0.029356427144576 
2069	 1.44239467581033E-02 
2070	 4.15827508208696E-02 
2071	 0.058870981872249 
2072	 6.23213662758509E-02 
2073	 0.059015331253025 
2074	 4.23331891563186E-02 
2075	 2.49633311668104E-02 
2076	-7.74275193652231E-03 
2077	-0.010863196378172 
2078	 6.41094618495245E-03 
2079	 0.011552532204606 
2080	 2.28005713227191E-02 
2081	 2.40063116558826E-02 
2082	 0.033047179499131 
2083	 2.70255128509741E-02 
2084	 2.71249529237326E-02 
2085	 5.84956598472404E-02 
2086	 4.97688287244851E-02 
2087	 2.77833533901691E-02 
2088	 3.87747261264283E-02 
2089	 0.029574786124163 
2090	 2.30373129066901E-02 
2091	 3.77310605781506E-02 
2092	 3.87313721744678E-02 
2093	 2.43767637496663E-02 
2094	 1.51130431257062E-02 
2095	 8.60708428241143E-03 
2096	 1.55064703796478E-03 
2097	-1.02005283637847E-02 
2098	-1.96012496747769E-02 
2099	-2.71960168754042E-02 
2100	-2.93097342458655E-02 
2101	-0.032067067526833 
2102	-4.58132022135169E-02 
2103	-3.29570844743563E-02 
2104	-1.87288174643097E-02 
2105	-1.25919066987272E-02 
2106	 2.86807252644053E-03 
2107	 9.78399522031038E-03 
2108	 1.44232420180449E-02 
2109	 1.63827557173726E-02 
2110	 3.07655163932304E-02 
2111	 4.59919643775877E-02 
2112	 4.47597647570101E-02 
2113	 0.047020866329021 
2114	 5.50599725423807E-02 
2115	 4.71794835753205E-02 
2116	 2.09332721040398E-02 
2117	 1.30673234917614E-02 
2118	-1.81856878397025E-03 
2119	-1.09747038153577E-03 
2120	 1.40084585473044E-02 
2121	 4.17698848386064E-02 
2122	 4.85659981270884E-02 
2123	 0.048381963135072 
2124	 4.03999579210751E-02 
2125	 1.22451321845716E-02 
2126	-2.74350877539269E-04 
2127	-2.01320502786667E-03 
2128	-9.64003506575641E-03 
2129	-1.67381687780018E-02 
2130	-0.028192844446615 
2131	-3.61799802826007E-02 
2132	-4.30103949657285E-02 
2133	-4.06038996444844E-02 
2134	-2.82823037258258E-02 
2135	 1.88245893898802E-03 
2136	 8.42710996407108E-03 
2137	 1.28900132003882E-02 
2138	 1.92443485829292E-02 
2139	 1.22730811398462E-02 
2140	 1.23585857630285E-02 
2141	 2.12733795188215E-02 
2142	 2.51753382412524E-02 
2143	 2.22906283021111E-02 
2144	 0.026854229521417 
2145	 2.92330715366218E-02 
2146	 4.40391461970707E-02 
2147	 6.59422560397066E-02 
2148	 6.36738287288142E-02 
2149	 5.60267602626152E-02 
2150	 0.046993624250486 
2151	 3.31691340641135E-02 
2152	 2.31814214243104E-02 
2153	 6.19676544003839E-03 
2154	-6.42024352864267E-03 
2155	-1.48378823411083E-02 
2156	-0.019337954693014 
2157	-1.73817709215933E-02 
2158	 4.82182465359893E-03 
2159	 1.14846774574169E-02 
2160	 7.56698418963597E-03 
2161	 1.61227276316776E-02 
2162	 2.86999884828017E-02 
2163	 3.52240213549107E-02 
2164	 6.07023729960137E-02 
2165	 5.69622113073104E-02 
2166	 1.65184299763281E-02 
2167	 1.12244177326532E-02 
2168	 1.40256872153027E-02 
2169	 6.78660333370782E-03 
2170	 6.77850494499638E-03 
2171	 2.04223521697438E-02 
2172	 0.01246392211251 
2173	 3.52557313395558E-03 
2174	 1.64607267702336E-02 
2175	 2.69041048710629E-02 
2176	 3.05962103490265E-02 
2177	 0.021632376883186 
2178	 0.014698707386217 
2179	 8.9456543364852E-03 
2180	-8.89805013570989E-03 
2181	-7.51541953954215E-03 
2182	-1.07546818729318E-02 
2183	-2.44119290115354E-02 
2184	-9.54442927253379E-03 
2185	 2.49065472437885E-03 
2186	 1.61937887134505E-02 
2187	 0.047247407931453 
2188	 5.39189292968038E-02 
2189	 5.03235086880015E-02 
2190	 4.21238917333806E-02 
2191	 8.98424368367863E-03 
2192	 4.86731819716013E-04 
2193	 6.87692181888636E-03 
2194	 9.88334852354744E-04 
2195	-1.29750994915417E-02 
2196	-1.82495096617673E-02 
2197	-2.45797885048943E-02 
2198	-2.43812489040999E-02 
2199	-1.24093162589033E-02 
2200	 9.91657289304444E-03 
2201	 1.60824092262503E-02 
2202	 7.10350794959382E-03 
2203	-2.18589207006524E-02 
2204	-2.75308998333198E-02 
2205	-1.61862555563251E-02 
2206	-3.18888528031285E-02 
2207	-0.024515970680218 
2208	-2.69689771166554E-03 
2209	-3.11485133985534E-03 
2210	 0.011172085113074 
2211	 1.46026210118208E-02 
2212	 1.97759546525115E-03 
2213	 1.59631093530334E-02 
2214	 8.11736321651745E-03 
2215	-2.09109163988287E-03 
2216	 0.013585194384996 
2217	 1.49326869274232E-02 
2218	 0.009296458333748 
2219	 3.05800020962201E-03 
2220	 1.12279960512026E-03 
2221	-0.022293301000719 
2222	-8.82198864723866E-02 
2223	-0.093072111167631 
2224	-7.25443589906791E-02 
2225	-6.16540892638677E-02 
2226	-1.09137872818573E-02 
2227	 8.30575917641448E-03 
2228	 5.95025531881922E-03 
2229	 8.6250265699574E-03 
2230	 1.12596829855962E-02 
2231	 6.50463511067346E-04 
2232	-4.03723855258118E-02 
2233	-0.04724924938209 
2234	-0.04178743197213 
2235	-2.99099381500059E-02 
2236	-0.013915330715301 
2237	-6.48462123834288E-03 
2238	-2.79413374312769E-02 
2239	-3.78419630718798E-02 
2240	-1.73689978812632E-02 
2241	-1.50855494104799E-02 
2242	-8.19847266620171E-03 
2243	 4.41129212946007E-03 
2244	-4.89559967222041E-03 
2245	-8.83246881097403E-03 
2246	-2.44055649911075E-02 
2247	-2.48511949154262E-02 
2248	-8.87943692199639E-03 
2249	-2.32936189564442E-03 
2250	 1.47570446078389E-02 
2251	-7.12768370927668E-03 
2252	-1.82953610402632E-02 
2253	-2.77580595716505E-02 
2254	-5.24145270023905E-02 
2255	-3.36643283396281E-02 
2256	-1.15089971296278E-02 
2257	 1.33116862164185E-02 
2258	 4.21128132752097E-02 
2259	 5.55473035942863E-02 
2260	 0.051160512372435 
2261	 1.36647189574413E-02 
2262	-1.45253567956984E-02 
2263	-6.46811265829175E-02 
2264	-7.65119445180356E-02 
2265	-7.80927989191832E-02 
2266	-0.069861886673895 
2267	-0.019241450214318 
2268	-6.6517708770324E-04 
2269	 1.39211414858021E-02 
2270	 1.56755798437434E-02 
2271	-1.08181689799243E-02 
2272	-1.44979649660519E-02 
2273	-2.31263603505124E-02 
2274	-3.09298629703127E-02 
2275	-0.01800535907118 
2276	-1.74174954346732E-02 
2277	-2.99085934208083E-02 
2278	-1.18734697427856E-02 
2279	 2.48102701284442E-02 
2280	 2.48218722671693E-02 
2281	 2.60273384505069E-02 
2282	 1.38807448234419E-02 
2283	-0.044162517018614 
2284	-5.58847816240786E-02 
2285	-0.026873576100975 
2286	-1.64628359582697E-02 
2287	-2.41756288365453E-02 
2288	-5.89324816058051E-03 
2289	-3.27427759278638E-02 
2290	-6.43805050211117E-02 
2291	-2.68610844908803E-02 
2292	-9.32879380355429E-03 
2293	-1.07693214226036E-03 
2294	 5.55958225618433E-02 
2295	 9.44511154768109E-02 
2296	 0.102744708255367 
2297	 0.130753981609066 
2298	 0.115289312588761 
2299	 7.89995291070928E-02 
2300	 4.14218470922167E-02 
2301	 9.25020145946921E-03 
2302	 6.55902752841952E-03 
2303	 4.20052534120155E-03 
2304	 1.79155257062656E-02 
2305	 5.89827581702549E-02 
2306	 6.17077055975615E-02 
2307	 7.56512803654954E-02 
2308	 9.29701445971016E-02 
2309	 7.09482276833892E-02 
2310	 7.56956633329541E-02 
2311	 3.40615826714086E-02 
2312	 3.42845412447823E-02 
2313	 5.28402631362761E-03 
2314	-0.124226584615409 
2315	-0.112409735013592 
2316	-0.160228643727245 
2317	-0.225995472455901 
2318	-0.133593104637752 
2319	-8.81828132421511E-02 
2320	-2.49604992694114E-02 
2321	 4.67538673237456E-02 
2322	 1.34087175249187E-02 
2323	-0.034785109274893 
2324	-0.101770888999819 
2325	-0.131381379475676 
2326	-4.13057866076308E-02 
2327	-2.21264783855684E-03 
2328	-0.106199290088709 
2329	-0.164864429655425 
2330	-9.87657312330382E-02 
2331	-5.22046319207855E-02 
2332	 3.70337878018302E-02 
2333	 0.102934970472922 
2334	 2.73253269233675E-02 
2335	-8.45061231788916E-02 
2336	-0.228591599996847 
2337	-0.313855138674488 
2338	-0.253013038264869 
2339	-0.259087126665832 
2340	-0.235525191927343 
2341	-0.3131842445043 
2342	-0.460000704481801 
2343	-0.569335949402031 
2344	-0.526216243160513 
2345	-0.362317254030992 
2346	-0.22053710501307 
2347	-0.124690074610145 
2348	-0.133231465624338 
2349	-6.01364029796258E-02 
2350	-8.59155603305626E-02 
2351	 8.03653037591225E-02 
2352	 0.202062315439187 
2353	 5.12898255127161E-02 
2354	-8.46432916691395E-02 
2355	-0.290535767542016 
2356	-0.510899469695707 
2357	-0.46766974236221 
2358	-0.476183927098696 
2359	-0.48271836343632 
2360	-0.309575983683153 
2361	-0.164759457123667 
2362	-0.121295461462161 
2363	-0.243858945698925 
2364	-0.337431311392786 
2365	-0.315565281146392 
2366	-0.115346846264897 
2367	 0.392413464706394 
2368	 0.461642275479277 
2369	 0.294182599969218 
2370	 0.185160345184362 
2371	-7.86560226539065E-02 
2372	-0.368727601680645 
2373	-6.16296356966745E-02 
2374	 0.290327034770408 
2375	 0.278510784521478 
2376	 0.559075509856401 
2377	 0.24366842443187 
2378	 7.63949000562193E-02 
2379	 0.136854653351715 
2380	 0.201457491972795 
2381	 0.417716652530798 
2382	 0.223637140426633 
2383	 0.144943198965165 
2384	 0.664368616955479 
2385	-2.30224869125735 
2386	 1.24004493245088 
2387	 0.8659553707137 
2388	 3.23112473556974 
2389	 1.67931205018634 
2390	-1.98571081899721 
2391	-0.942108301358409 
2392	-1.99021096840967 
2393	-60.0564209146646 
2394	 3.96914882155586 
2395	 379.686239224854 
2396	 22.1597449453642 
2397	 1.97211857997241 
2398	 33.5409026976799 
2399	-5.400244802769 
2400	 40.7699965414325 
2401	-15.1688692861599 
2402	-3.69233299570795 
2403	-2.77945127809807 
2404	-3.09474131531899 
2405	-0.614037861109674 
2406	-0.382954798601963 
2407	-0.256887759843933 
2408	-5.06595773819943 
2409	-1.35129559988151 
2410	-0.885629907453915 
2411	-1.7173257810126 
2412	-1.39922494901246 
2413	-1.41288543708527 
2414	-6.31787868304187E-02 
2415	 2.86736183034834 
2416	-15.5423315690357 
2417	-5.45638179234228 
2418	-1.74450711446658 
2419	-1.64394045736836 
2420	-1.19230842083368 
2421	-0.866776470328624 
2422	-1.21618684172387 
2423	-3.29210107121078 
2424	 1.45514072755344 
2425	 0.809912276883174 
2426	-9.24539594946341 
2427	-2.60886849164969 
2428	-1.82196961685141 
2429	-0.263169051778778 
2430	-0.287317438435923 
2431	-3.72787372391263 
2432	-2.21080248185514 
2433	-3.83628537738761 
2434	-2.75537982975401 
2435	-1.1291342092091 
2436	-0.928577877553274 
2437	-2.08325727495125 
2438	-8.42095780496396 
2439	 1.58276604127471 
2440	 0.749862528828147 
2441	 0.587434452275093 
2442	 0.567939958967855 
2443	 4.76072248402533E-02 
2444	-0.460435500009628 
2445	-4.51123784868482 
2446	 3.16470129177178 
2447	 10.7888801167694 
2448	-8.53952142546166 
2449	-0.506244493200253 
2450	-0.496505980383764 
2451	-0.573862612927692 
2452	-3.81875263276224 
2453	 2.16116660294695 
2454	 1.11884615327263 
2455	 0.405081926828987 
2456	 0.298479330853776 
2457	 0.302433172379471 
2458	 4.77226392036359E-02 
2459	-0.109455046730571 
2460	-0.24708224732119 
2461	-0.443996326650169 
2462	-0.726428747369919 
2463	-2.64696393226739 
2464	-3.53524594007959 
2465	-2.60650341289247 
2466	-2.09486624476148 
2467	-1.17276774242624 
2468	-3.33189364685349 
2469	 31.3602241856825 
2470	 0.699985630349568 
2471	 0.451063923805886 
2472	 0.314023986176609 
2473	 0.366594657853556 
2474	 0.482582885251262 
2475	-0.190467781864488 
2476	-1.49730278967851 
2477	-1.94905395443376 
2478	-0.950996717033406 
2479	-0.555250784556728 
2480	-0.357883420636846 
2481	-0.310438229270972 
2482	-0.260718704004854 
2483	-0.423628250216357 
2484	-0.727300377213024 
2485	-7.40897331652022 
2486	 6.33465893135361 
2487	 32.0949083033016 
2488	 8.14706582647172 
2489	 18.9690951166985 
2490	 9.50673375394143 
2491	 6.30847756414594 
2492	-1.01711993661215 
2493	-0.399137312115121 
2494	-9.94192150963513E-02 
2495	-0.978456733937177 
2496	-0.378010598757099 
2497	-0.497984005792018 
2498	-0.427796370928901 
2499	-0.106671837231061 
2500	 4.47499261009707E-02 
