Wavelength	rt0712EAST_CLOSE200002.asd
350	 5.01935629105343E-02 
351	 5.11567486107908E-02 
352	 5.11884390798866E-02 
353	 5.14350173368375E-02 
354	 5.24373682048661E-02 
355	 5.23672010033513E-02 
356	 0.05187821097693 
357	 5.17327613358071E-02 
358	 5.22373712562937E-02 
359	 5.15203437269898E-02 
360	 5.14217012922537E-02 
361	 5.20124906019782E-02 
362	 5.21018110069491E-02 
363	 5.15892887961583E-02 
364	 0.051750510799697 
365	 5.26039890875709E-02 
366	 5.20433246636197E-02 
367	 5.15853336026251E-02 
368	 5.15484715947211E-02 
369	 5.18805068769262E-02 
370	 5.24703018951084E-02 
371	 5.26529569301102E-02 
372	 5.23815328925874E-02 
373	 5.21046537216122E-02 
374	 5.27720055609101E-02 
375	 0.053529239574893 
376	 5.37299145302376E-02 
377	 5.33258458034385E-02 
378	 0.053056711584488 
379	 5.27686744259295E-02 
380	 5.25374457984446E-02 
381	 5.40437708614535E-02 
382	 5.43513182165407E-02 
383	 5.38432843242394E-02 
384	 5.41987614698594E-02 
385	 5.31620001266534E-02 
386	 5.36631943560235E-02 
387	 5.57519214180894E-02 
388	 5.59808645195626E-02 
389	 5.61329312305482E-02 
390	 0.055861696110972 
391	 5.51375341413765E-02 
392	 5.56156125360236E-02 
393	 5.62481877359653E-02 
394	 5.64896399234077E-02 
395	 0.05620050778752 
396	 5.60105208156924E-02 
397	 5.63980965177463E-02 
398	 5.70314518318766E-02 
399	 5.69877369208904E-02 
400	 5.68390216802615E-02 
401	 0.056882921692187 
402	 0.057098530409647 
403	 5.68267502253713E-02 
404	 5.70390753122346E-02 
405	 5.73311621685525E-02 
406	 0.05702948763025 
407	 5.70996521079022E-02 
408	 5.73176954425322E-02 
409	 5.75441151828968E-02 
410	 5.77986174589504E-02 
411	 5.80243708170145E-02 
412	 0.058043162019505 
413	 5.78994658644337E-02 
414	 5.82229715384326E-02 
415	 5.84353482089376E-02 
416	 5.86024131484884E-02 
417	 5.89321867453326E-02 
418	 5.87607486915338E-02 
419	 5.87626724316934E-02 
420	 0.059073194104877 
421	 5.91607806228103E-02 
422	 5.91739068529112E-02 
423	 5.94231145804799E-02 
424	 5.99301021802524E-02 
425	 5.98072228714803E-02 
426	 5.96768314725942E-02 
427	 5.98450440710947E-02 
428	 6.03559873766433E-02 
429	 0.060655293851872 
430	 6.08203443861669E-02 
431	 6.09683357310689E-02 
432	 6.11808323948324E-02 
433	 6.13187503598397E-02 
434	 6.16061654549663E-02 
435	 6.21141664416265E-02 
436	 6.22309344678849E-02 
437	 6.23620809131342E-02 
438	 6.25860181200274E-02 
439	 6.28127385145922E-02 
440	 6.31866499797591E-02 
441	 6.36620188018026E-02 
442	 6.40722224969524E-02 
443	 6.40958931242938E-02 
444	 6.44019166588109E-02 
445	 6.48292747548431E-02 
446	 6.50995633946593E-02 
447	 0.06547218449386 
448	 6.57396709529927E-02 
449	 6.59055732927796E-02 
450	 6.61302327252862E-02 
451	 6.63754482292102E-02 
452	 6.66507022171822E-02 
453	 6.68749188922915E-02 
454	 6.67290718936875E-02 
455	 6.69688529699881E-02 
456	 6.73095323066908E-02 
457	 6.72578265015712E-02 
458	 6.74508039959371E-02 
459	 6.76532186006986E-02 
460	 6.77101019711024E-02 
461	 6.76133704122935E-02 
462	 6.78852737957939E-02 
463	 6.82529645350892E-02 
464	 6.84077991200956E-02 
465	 6.83757198730131E-02 
466	 6.86266540398375E-02 
467	 6.90063992724786E-02 
468	 6.91067889550342E-02 
469	 6.92755613271338E-02 
470	 6.94836771753604E-02 
471	 6.97196307549272E-02 
472	 7.00405446873403E-02 
473	 7.02244259577171E-02 
474	 0.070436131223864 
475	 7.08181967866375E-02 
476	 7.10257763093731E-02 
477	 7.14419781529592E-02 
478	 7.19193082060029E-02 
479	 7.20128815793143E-02 
480	 7.23119770117645E-02 
481	 7.26708133449626E-02 
482	 7.29704387449041E-02 
483	 7.33486840271755E-02 
484	 7.37367617358255E-02 
485	 7.42046677285083E-02 
486	 7.47567409593501E-02 
487	 7.47779018946635E-02 
488	 7.50598786534723E-02 
489	 7.57051862946432E-02 
490	 7.61030341844714E-02 
491	 7.65292686127961E-02 
492	 7.69783010960941E-02 
493	 7.74272606566211E-02 
494	 7.79466284140075E-02 
495	 7.85154789650158E-02 
496	 7.89946951850696E-02 
497	 0.079272657140293 
498	 8.00087753804322E-02 
499	 8.06438018375976E-02 
500	 8.09663592110284E-02 
501	 8.15008359004171E-02 
502	 8.20896323603375E-02 
503	 8.27135174490977E-02 
504	 0.083352379416685 
505	 8.38424798955309E-02 
506	 8.44878338912974E-02 
507	 8.52379619451671E-02 
508	 8.57878943186061E-02 
509	 8.65590223285398E-02 
510	 8.72147831578511E-02 
511	 8.76303770479604E-02 
512	 8.84856463354982E-02 
513	 8.90861948871493E-02 
514	 8.95980913117972E-02 
515	 9.04527113593536E-02 
516	 0.091122841350537 
517	 0.091860909269681 
518	 9.27153673303047E-02 
519	 9.34138168807514E-02 
520	 9.40772641905651E-02 
521	 9.48220132416941E-02 
522	 9.56928628602641E-02 
523	 9.64920714595794E-02 
524	 9.71750509441254E-02 
525	 9.78668302109965E-02 
526	 9.87846360468693E-02 
527	 9.96681485300664E-02 
528	 0.100509358784615 
529	 0.101362003750304 
530	 0.102348447857699 
531	 0.103230388761156 
532	 0.104019019771625 
533	 0.104847053113562 
534	 0.10594909432304 
535	 0.10700529834408 
536	 0.107909969970424 
537	 0.108834443938894 
538	 0.109903724047594 
539	 0.110946403104205 
540	 0.111845636351922 
541	 0.112934191364899 
542	 0.114073177242495 
543	 0.115143764162292 
544	 0.116085106075349 
545	 0.117219207430306 
546	 0.118312531531098 
547	 0.119268044499074 
548	 0.120395787608632 
549	 0.121463203949047 
550	 0.122494913235746 
551	 0.123574878636029 
552	 0.12459698203867 
553	 0.125533471929358 
554	 0.126483823387699 
555	 0.127668260107199 
556	 0.128636981508169 
557	 0.129592215139671 
558	 0.130697941022126 
559	 0.13146304560989 
560	 0.132369005168184 
561	 0.133356662588912 
562	 0.134068670981941 
563	 0.134798543246012 
564	 0.135589193852407 
565	 0.136329854152506 
566	 0.136634440229398 
567	 0.137250485518645 
568	 0.137923943169928 
569	 0.13819279262132 
570	 0.13883048868907 
571	 0.139385470911417 
572	 0.139733318092016 
573	 0.140171181410307 
574	 0.14065196833046 
575	 0.141019057413713 
576	 0.141188000316346 
577	 0.141378443609781 
578	 0.14174705963866 
579	 0.142068928925958 
580	 0.141972222254613 
581	 0.142140564553836 
582	 0.14230262052046 
583	 0.142264079624957 
584	 0.142194317734039 
585	 0.141895956203916 
586	 0.141382189909665 
587	 0.140763107093662 
588	 0.140216644624002 
589	 0.139926802013979 
590	 0.139838034776128 
591	 0.139626184154667 
592	 0.139392174891857 
593	 0.139115371197937 
594	 0.138743741323537 
595	 0.138147347162637 
596	 0.137625282337547 
597	 0.137156613989897 
598	 0.136538683636435 
599	 0.135592275547444 
600	 0.13489012913171 
601	 0.134659794677959 
602	 0.134440596700669 
603	 0.134169405130076 
604	 0.133930311172258 
605	 0.133851358700463 
606	 0.133943193236805 
607	 0.13389673815497 
608	 0.133745196503873 
609	 0.13386817985778 
610	 0.133760053495903 
611	 0.133520713923933 
612	 0.133358651576702 
613	 0.13342968784613 
614	 0.13333279881143 
615	 0.133139472829214 
616	 0.133152384059051 
617	 0.133081455428214 
618	 0.132875152758853 
619	 0.132655634523501 
620	 0.132803057354689 
621	 0.132653752226743 
622	 0.132406170340014 
623	 0.1324228283221 
624	 0.132363367245153 
625	 0.132329681073334 
626	 0.132183834509278 
627	 0.131596269829109 
628	 0.131575083270465 
629	 0.131689051287365 
630	 0.131529097238928 
631	 0.131537906670358 
632	 0.131456233706717 
633	 0.131410017823269 
634	 0.131632483912297 
635	 0.131755658509532 
636	 0.131684120174942 
637	 0.131544188187139 
638	 0.131733674150345 
639	 0.131771457941663 
640	 0.131604334521809 
641	 0.131386688666911 
642	 0.131548447630309 
643	 0.131634050928045 
644	 0.131417285081706 
645	 0.13090504872191 
646	 0.130632200060107 
647	 0.130708176394403 
648	 0.13090159496462 
649	 0.130483370865981 
650	 0.130167912761779 
651	 0.130021872476932 
652	 0.129816899939525 
653	 0.128996750500465 
654	 0.128208330517114 
655	 0.127633327180813 
656	 0.126771080086255 
657	 0.125648683144078 
658	 0.124652384250934 
659	 0.123958976040906 
660	 0.123084812729606 
661	 0.122213192443983 
662	 0.121320254664644 
663	 0.120314980519008 
664	 0.119532346680354 
665	 0.118795025148232 
666	 0.11803049050387 
667	 0.117481417582641 
668	 0.117264404038405 
669	 0.117083024193935 
670	 0.116659973320835 
671	 0.116552095368537 
672	 0.11662758139168 
673	 0.116765164796944 
674	 0.116904935863234 
675	 0.117403838147087 
676	 0.118012995412425 
677	 0.118505404058985 
678	 0.118983187044408 
679	 0.119616073844891 
680	 0.120392178137046 
681	 0.121216391083722 
682	 0.122118243446288 
683	 0.123174306001771 
684	 0.124240250432417 
685	 0.124951627132987 
686	 0.125776471114599 
687	 0.126607403172316 
688	 0.12720209595521 
689	 0.127775428643216 
690	 0.128082027737306 
691	 0.128238967219666 
692	 0.128539427578594 
693	 0.128531823609539 
694	 0.128349910200958 
695	 0.128117676400055 
696	 0.127717182512032 
697	 0.127054584864384 
698	 0.126254392485161 
699	 0.125530526647469 
700	 0.124539368523296 
701	 0.12373589731014 
702	 0.123101219770589 
703	 0.122193788545842 
704	 0.121110562075863 
705	 0.119774275194219 
706	 0.118341726317886 
707	 0.117429654749988 
708	 0.11566231089452 
709	 0.113626770395957 
710	 0.112310654803061 
711	 0.11037707193003 
712	 0.108386677609225 
713	 0.106520258206583 
714	 0.104405077783678 
715	 0.102297421603559 
716	 9.98741790294627E-02 
717	 9.71943054131965E-02 
718	 0.095147991447952 
719	 9.26001196332077E-02 
720	 9.02987036314391E-02 
721	 8.85233232138036E-02 
722	 8.66601723320234E-02 
723	 8.42818346595291E-02 
724	 8.17634440302671E-02 
725	 7.95491603495283E-02 
726	 7.70441611785893E-02 
727	 0.074482727543104 
728	 7.20480266257191E-02 
729	 6.92242319301264E-02 
730	 6.66807858731101E-02 
731	 6.43458665723474E-02 
732	 6.17531250287796E-02 
733	 0.059972445685159 
734	 5.84251603352862E-02 
735	 5.70207887543963E-02 
736	 5.63022358664593E-02 
737	 0.055416610836281 
738	 5.44954404781489E-02 
739	 5.38787278701725E-02 
740	 5.37945584567439E-02 
741	 5.37575460258082E-02 
742	 5.35720196377434E-02 
743	 5.32754191913498E-02 
744	 5.34114610615761E-02 
745	 5.34804829704326E-02 
746	 5.32892777301665E-02 
747	 5.31833270288254E-02 
748	 5.31374322145001E-02 
749	 0.053086384525254 
750	 5.29614345966997E-02 
751	 5.27004089722727E-02 
752	 5.28134925085542E-02 
753	 5.29712584588249E-02 
754	 5.25684980388766E-02 
755	 5.28856619788231E-02 
756	 5.30094200257509E-02 
757	 5.26624590216105E-02 
758	 5.28248872497743E-02 
759	 0.052657328607459 
760	 5.25081004838403E-02 
761	 5.31123379550597E-02 
762	 5.24443858830538E-02 
763	 5.24225135861307E-02 
764	 0.052761084887699 
765	 5.27470803820334E-02 
766	 0.052929650265013 
767	 5.32931687617068E-02 
768	 5.35938498152611E-02 
769	 5.33856363173654E-02 
770	 5.38756269057205E-02 
771	 5.41826785981607E-02 
772	 5.37667866960813E-02 
773	 5.41482537862935E-02 
774	 5.44304973995687E-02 
775	 0.054553435845611 
776	 5.48080372026926E-02 
777	 0.055316803909122 
778	 0.055685565877099 
779	 5.57865761284491E-02 
780	 5.58333628106429E-02 
781	 5.64021325323315E-02 
782	 5.69532530162557E-02 
783	 5.71306689078442E-02 
784	 0.05749592479486 
785	 0.057772826474915 
786	 5.80714957565939E-02 
787	 0.058544847659657 
788	 5.87812446531253E-02 
789	 5.92203883838027E-02 
790	 0.059768808952221 
791	 5.99630080357407E-02 
792	 6.05197318194864E-02 
793	 6.11002039100845E-02 
794	 6.14900622564648E-02 
795	 6.18379490093233E-02 
796	 6.23471062344347E-02 
797	 6.26852070784312E-02 
798	 6.26763629645524E-02 
799	 6.30764397282616E-02 
800	 6.37115413844814E-02 
801	 6.42296131482208E-02 
802	 6.43215090974775E-02 
803	 6.47388951957645E-02 
804	 6.49797202139521E-02 
805	 6.49355475018265E-02 
806	 6.49937934382004E-02 
807	 0.065164241705644 
808	 6.51338268403567E-02 
809	 6.47720383989524E-02 
810	 6.47208459192472E-02 
811	 6.41633609390753E-02 
812	 6.34598067366193E-02 
813	 6.34018631504875E-02 
814	 6.30780480488009E-02 
815	 6.27429148682935E-02 
816	 6.22730985442159E-02 
817	 6.13287998342872E-02 
818	 6.07757612537631E-02 
819	 6.01528077955426E-02 
820	 0.059360335765978 
821	 5.89126093972402E-02 
822	 5.74820424555873E-02 
823	 5.63106683097697E-02 
824	 0.055959310822118 
825	 5.39404536459623E-02 
826	 5.20407222703256E-02 
827	 5.05287420759259E-02 
828	 4.92286835499075E-02 
829	 4.79321284165682E-02 
830	 4.60947736627903E-02 
831	 4.44089641872541E-02 
832	 4.42310215007766E-02 
833	 4.40574710194816E-02 
834	 4.36467140882376E-02 
835	 4.29990984615157E-02 
836	 4.22102651642339E-02 
837	 4.19276721836008E-02 
838	 4.17668964820319E-02 
839	 4.13806212228644E-02 
840	 4.10937693211536E-02 
841	 4.07473970541324E-02 
842	 4.06283396105697E-02 
843	 4.09509379169758E-02 
844	 0.040985375282718 
845	 4.06203306201779E-02 
846	 4.01396474846038E-02 
847	 4.00183571437032E-02 
848	 3.99942356035568E-02 
849	 3.99876930498298E-02 
850	 3.97438664274672E-02 
851	 0.03886265329327 
852	 3.91583065121702E-02 
853	 3.95793096608469E-02 
854	 3.93298493680309E-02 
855	 3.95471022396188E-02 
856	 3.87973051286113E-02 
857	 3.78951310583346E-02 
858	 3.78646783876501E-02 
859	 3.83164771426024E-02 
860	 3.81378951314644E-02 
861	 0.037769203982574 
862	 3.81881137053965E-02 
863	 3.83435355933945E-02 
864	 3.78735264233929E-02 
865	 3.72233343017272E-02 
866	 3.74020728230614E-02 
867	 0.037708368458183 
868	 3.73359455987088E-02 
869	 3.64463760902773E-02 
870	 3.63832491157503E-02 
871	 0.036719389142549 
872	 0.036532286813067 
873	 3.56386224280281E-02 
874	 3.57625034384672E-02 
875	 3.54271011495801E-02 
876	 3.51679024191274E-02 
877	 3.56675001341549E-02 
878	 3.58707935012316E-02 
879	 0.035511270790032 
880	 3.49527839482317E-02 
881	 3.47525749591844E-02 
882	 3.44828736752592E-02 
883	 3.45551694266723E-02 
884	 3.46161780020666E-02 
885	 3.39289453184655E-02 
886	 3.38354481022555E-02 
887	 0.03403785954314 
888	 0.034133662270046 
889	 3.38824823723084E-02 
890	 3.39568193592329E-02 
891	 3.43524298598941E-02 
892	 3.45844910015413E-02 
893	 3.34475325877431E-02 
894	 0.03330599189481 
895	 3.40068902760648E-02 
896	 3.44000924121363E-02 
897	 0.033488304590999 
898	 3.29772956640898E-02 
899	 3.30377626813747E-02 
900	 3.31524979330622E-02 
901	 3.32018898306295E-02 
902	 3.32575473798586E-02 
903	 3.28644252978358E-02 
904	 3.18744261213439E-02 
905	 0.03270314184433 
906	 3.21220498971174E-02 
907	 3.05688711120191E-02 
908	 3.12306665303989E-02 
909	 3.17633337012476E-02 
910	 3.22182054189592E-02 
911	 3.24517290634165E-02 
912	 3.21653409087646E-02 
913	 3.30827917204071E-02 
914	 3.25011775513077E-02 
915	 3.09137048334156E-02 
916	 3.22096623744496E-02 
917	 2.94736206105009E-02 
918	 2.83565078491406E-02 
919	 3.05311598587276E-02 
920	 3.12261334108518E-02 
921	 3.16356127658175E-02 
922	 3.06452800419196E-02 
923	 2.81381961776158E-02 
924	 0.027045301749498 
925	 3.06242325126222E-02 
926	 3.32055044715089E-02 
927	 2.84819833295071E-02 
928	 2.39779833219197E-02 
929	 2.10481714895106E-02 
930	 1.90710950221506E-02 
931	 1.54921252934083E-02 
932	 1.36480024661499E-02 
933	 0.031551140651984 
934	 3.05310410078358E-02 
935	-1.89004302690692E-02 
936	 4.06451456078463E-03 
937	 0.028679511310196 
938	 3.05626110520484E-02 
939	 1.42374640267705E-02 
940	 2.84646844749341E-02 
941	 3.41795864618433E-02 
942	 2.63648002197731E-02 
943	 1.86010933309702E-02 
944	 2.95969213747156E-02 
945	 1.47594129819154E-02 
946	 2.37673683374102E-03 
947	 4.09973131511639E-02 
948	 2.66836332988264E-02 
949	 8.58969072692417E-03 
950	 7.96993931672853E-03 
951	 1.87480653286221E-02 
952	 0.029481787798191 
953	 2.99914649728846E-02 
954	 2.55089044432497E-02 
955	 0.027672578826018 
956	 2.02082291325852E-02 
957	 1.92516074875102E-02 
958	 2.51476156465973E-02 
959	 2.84325432148937E-02 
960	 3.00617939080355E-02 
961	 3.11960140178573E-02 
962	 3.21521753772284E-02 
963	 3.26676606686555E-02 
964	 3.48838089700664E-02 
965	 3.09323053574243E-02 
966	 2.49662912966135E-02 
967	 2.64532206181818E-02 
968	 2.59600333553782E-02 
969	 2.92373089986627E-02 
970	 3.36535354865358E-02 
971	 3.05016627813814E-02 
972	 2.56864427716746E-02 
973	 2.44115735252278E-02 
974	 2.74236082929569E-02 
975	 3.02416300397919E-02 
976	 2.67701618090404E-02 
977	 2.67687053376729E-02 
978	 2.96156198184215E-02 
979	 2.65900591304161E-02 
980	 2.67464035370833E-02 
981	 2.78473849658592E-02 
982	 2.95383604375123E-02 
983	 3.29572513694851E-02 
984	 0.034283858710615 
985	 3.18240226273438E-02 
986	 2.84195941724472E-02 
987	 2.90342610762129E-02 
988	 3.12242005612007E-02 
989	 2.87338183387329E-02 
990	 0.024579203818609 
991	 2.70332528788656E-02 
992	 2.99368230369837E-02 
993	 3.06601225468279E-02 
994	 0.028452656486179 
995	 2.52687648942131E-02 
996	 3.00134903130264E-02 
997	 3.29188539460773E-02 
998	 3.06205427413092E-02 
999	 2.60221063549065E-02 
1000	 2.60374081126281E-02 
1001	 3.22826246170641E-02 
1002	 0.032718716240585 
1003	 0.03280777098881 
1004	 3.16341805781561E-02 
1005	 3.10767932703566E-02 
1006	 0.03079322452596 
1007	 3.05016308890256E-02 
1008	 3.01111852897091E-02 
1009	 0.029475327302471 
1010	 2.94766033907695E-02 
1011	 2.97844580159774E-02 
1012	 3.04907336711819E-02 
1013	 3.07418388322987E-02 
1014	 3.04452219334015E-02 
1015	 2.95009938557234E-02 
1016	 2.92628259645861E-02 
1017	 2.82752383685507E-02 
1018	 2.84454811246142E-02 
1019	 2.98932902581792E-02 
1020	 3.04662161208897E-02 
1021	 3.10796268878736E-02 
1022	 3.20858668008692E-02 
1023	 3.13349091241439E-02 
1024	 3.03117336092913E-02 
1025	 2.88414793169116E-02 
1026	 2.71864495333281E-02 
1027	 2.70227465070848E-02 
1028	 2.79676500675647E-02 
1029	 2.83937049853273E-02 
1030	 2.95157965971831E-02 
1031	 3.01650748143292E-02 
1032	 3.09911596548693E-02 
1033	 0.030922754349164 
1034	 3.01659733725916E-02 
1035	 2.98699460052723E-02 
1036	 2.84208710632144E-02 
1037	 2.80928219001734E-02 
1038	 2.81864346351234E-02 
1039	 2.98910670366684E-02 
1040	 3.04009827973132E-02 
1041	 3.03920331855099E-02 
1042	 3.04843131553163E-02 
1043	 3.00327393348031E-02 
1044	 2.98053970378533E-02 
1045	 2.95814438186292E-02 
1046	 2.97517535619947E-02 
1047	 0.030286237447504 
1048	 3.01422372405562E-02 
1049	 2.99746419799284E-02 
1050	 0.029874805159537 
1051	 2.90577149801234E-02 
1052	 2.86637222094925E-02 
1053	 2.86090849600381E-02 
1054	 2.87946637060683E-02 
1055	 2.94766669528374E-02 
1056	 2.96560624380649E-02 
1057	 2.97268346881395E-02 
1058	 2.99798675866746E-02 
1059	 2.99672748371229E-02 
1060	 2.93390527707865E-02 
1061	 2.91394729185152E-02 
1062	 2.90029743024716E-02 
1063	 2.92686285734754E-02 
1064	 3.01469443850453E-02 
1065	 3.01057533430947E-02 
1066	 2.97756255400577E-02 
1067	 2.98208461503508E-02 
1068	 2.94819035690244E-02 
1069	 2.91077666554728E-02 
1070	 2.89351611988461E-02 
1071	 2.90095586718473E-02 
1072	 2.81889027134038E-02 
1073	 2.88257929651151E-02 
1074	 2.90830118756334E-02 
1075	 3.01971551837773E-02 
1076	 3.04344662408842E-02 
1077	 3.02535733147597E-02 
1078	 0.030109528872062 
1079	 2.96648012550875E-02 
1080	 2.94215685680771E-02 
1081	 2.93044419050967E-02 
1082	 2.89924221528693E-02 
1083	 2.83174345319605E-02 
1084	 0.028265703622816 
1085	 2.86489953920178E-02 
1086	 2.86317517320598E-02 
1087	 2.82944665435643E-02 
1088	 2.87677878190121E-02 
1089	 2.97577208211945E-02 
1090	 3.03600209988246E-02 
1091	 3.08438080273052E-02 
1092	 3.26416239887374E-02 
1093	 3.24494204707999E-02 
1094	 2.98601481584162E-02 
1095	 2.88944541894921E-02 
1096	 2.76900855911734E-02 
1097	 2.74441967213501E-02 
1098	 2.87248915717559E-02 
1099	 2.94924779811144E-02 
1100	 3.03528912984944E-02 
1101	 3.09278148684297E-02 
1102	 3.24187164957972E-02 
1103	 3.23378643075687E-02 
1104	 3.05256257169934E-02 
1105	 2.90410282814846E-02 
1106	 3.04837830287766E-02 
1107	 3.05501270044703E-02 
1108	 2.90873854875687E-02 
1109	 3.38215014343976E-02 
1110	 3.41454840937553E-02 
1111	 2.66165786709995E-02 
1112	 0.026054978390787 
1113	 3.22721690926139E-02 
1114	 3.44790542707372E-02 
1115	 3.73730528857266E-02 
1116	 4.24721720717374E-02 
1117	 4.75345733657669E-02 
1118	 0.047706842829318 
1119	 5.71423972512175E-02 
1120	 6.22572633413202E-02 
1121	 0.052193313175775 
1122	 5.18149486729136E-03 
1123	 3.26799661083797E-02 
1124	 2.57991033263556E-02 
1125	-1.25107404972988E-02 
1126	 0.022978334979415 
1127	 4.46774347179696E-02 
1128	-6.60582337314125E-03 
1129	-1.10476620692136E-02 
1130	 3.71303786888567E-02 
1131	 2.73097003115414E-02 
1132	-1.32443111345142E-02 
1133	-1.43352823339953E-02 
1134	-2.34904657980301E-02 
1135	-1.71960986400982E-02 
1136	 0.018114884344297 
1137	 2.94256795090152E-02 
1138	 3.38873995557978E-02 
1139	 3.99844951238944E-02 
1140	 3.69165253602309E-02 
1141	 2.75950100432803E-02 
1142	 0.023064627969469 
1143	 1.89288811362058E-02 
1144	 0.021087820727456 
1145	 3.13125024921328E-02 
1146	 2.11692949368615E-02 
1147	 1.22313989209364E-02 
1148	 1.40300520790089E-02 
1149	 1.26701618608813E-02 
1150	 1.68682878726838E-02 
1151	 3.15614595709593E-02 
1152	 3.38959782913195E-02 
1153	 3.20200739831453E-02 
1154	 3.12561473539235E-02 
1155	 2.74601533472463E-02 
1156	 2.89534891903456E-02 
1157	 0.029460881735152 
1158	 2.82573449056472E-02 
1159	 3.07225792383255E-02 
1160	 3.31247132593421E-02 
1161	 3.17487787307535E-02 
1162	 3.20117413164386E-02 
1163	 3.10649413502348E-02 
1164	 2.82448204584207E-02 
1165	 2.90785286624063E-02 
1166	 3.00563315969575E-02 
1167	 2.96353276143309E-02 
1168	 2.85150675531721E-02 
1169	 2.78283825826691E-02 
1170	 2.93092581045584E-02 
1171	 2.96502388670801E-02 
1172	 3.04041794662434E-02 
1173	 3.07349740092888E-02 
1174	 3.12853945875282E-02 
1175	 2.90225500382304E-02 
1176	 2.84763950587731E-02 
1177	 2.87515928970125E-02 
1178	 2.79873786567716E-02 
1179	 2.87303497504828E-02 
1180	 2.86824929477394E-02 
1181	 2.80012075856152E-02 
1182	 2.91301247085016E-02 
1183	 3.01025127294755E-02 
1184	 3.01560315623175E-02 
1185	 3.00606460815478E-02 
1186	 2.95358381174079E-02 
1187	 2.78179943587445E-02 
1188	 2.66341468698236E-02 
1189	 2.75367701863599E-02 
1190	 0.027592902060576 
1191	 0.027428116107093 
1192	 2.76925861599885E-02 
1193	 0.028642376248067 
1194	 2.77287278628328E-02 
1195	 2.72911460488038E-02 
1196	 2.78134305675826E-02 
1197	 2.68483045532241E-02 
1198	 2.60776673860119E-02 
1199	 2.55469430363829E-02 
1200	 2.53550443150577E-02 
1201	 2.67658520030059E-02 
1202	 2.70678342527394E-02 
1203	 2.72031388762975E-02 
1204	 2.87489639374196E-02 
1205	 2.90946770326666E-02 
1206	 2.84741553376524E-02 
1207	 2.81698128316135E-02 
1208	 2.80580160176981E-02 
1209	 2.85029949527367E-02 
1210	 2.95203887615358E-02 
1211	 2.97199423487998E-02 
1212	 0.029191017300691 
1213	 2.93036675769575E-02 
1214	 2.91932187393126E-02 
1215	 0.029226238641506 
1216	 3.00419093329923E-02 
1217	 3.03954851976961E-02 
1218	 2.90043781509686E-02 
1219	 2.83253804946576E-02 
1220	 2.88149292095338E-02 
1221	 2.95115403650318E-02 
1222	 3.04145761047919E-02 
1223	 3.00389997824919E-02 
1224	 0.028409580025234 
1225	 2.80064486936292E-02 
1226	 2.81822283729955E-02 
1227	 2.76368527976244E-02 
1228	 2.77777178236881E-02 
1229	 2.82992199356247E-02 
1230	 2.82031180497047E-02 
1231	 2.80480228060695E-02 
1232	 0.028858688384329 
1233	 2.97700775692828E-02 
1234	 2.90860160071495E-02 
1235	 2.84615983528369E-02 
1236	 2.77009638529448E-02 
1237	 2.78226910123315E-02 
1238	 2.80670189870182E-02 
1239	 0.027680711957032 
1240	 2.72167965897185E-02 
1241	 2.69971121948057E-02 
1242	 2.62760842516696E-02 
1243	 2.58322836021808E-02 
1244	 2.72135954832929E-02 
1245	 2.82872324367738E-02 
1246	 2.74268658175847E-02 
1247	 2.69661761329695E-02 
1248	 2.76272534020799E-02 
1249	 2.77022774932771E-02 
1250	 2.73596746158673E-02 
1251	 2.73024854511079E-02 
1252	 2.72253295117385E-02 
1253	 0.027028132450101 
1254	 2.68381792583329E-02 
1255	 2.69586409135116E-02 
1256	 2.70946843094988E-02 
1257	 2.65195133348301E-02 
1258	 2.67315553239497E-02 
1259	 0.028035569113626 
1260	 0.028067208943809 
1261	 2.76047191121587E-02 
1262	 2.76141599251935E-02 
1263	 2.72673836500673E-02 
1264	 0.026851977839984 
1265	 2.73816930983605E-02 
1266	 2.73680265748283E-02 
1267	 2.61806083288911E-02 
1268	 2.62567128125069E-02 
1269	 2.68099196565265E-02 
1270	 0.025673097586072 
1271	 2.54503685492454E-02 
1272	 2.65033536558529E-02 
1273	 2.67838492312515E-02 
1274	 2.68942248267968E-02 
1275	 2.71706403648225E-02 
1276	 0.027175522676124 
1277	 2.71586928558846E-02 
1278	 2.70513529569832E-02 
1279	 2.74117822282738E-02 
1280	 2.78702664386976E-02 
1281	 2.78458194962736E-02 
1282	 2.79527254679402E-02 
1283	 2.82466600080694E-02 
1284	 2.79532285673892E-02 
1285	 2.75321735553663E-02 
1286	 2.72987734861852E-02 
1287	 2.74568481879635E-02 
1288	 2.77463107959935E-02 
1289	 2.77176091338166E-02 
1290	 2.81902983883258E-02 
1291	 2.77806058765325E-02 
1292	 2.79267440675212E-02 
1293	 2.80841863245901E-02 
1294	 2.62314631847837E-02 
1295	 2.53245028854387E-02 
1296	 2.65728690471703E-02 
1297	 2.66380281913503E-02 
1298	 2.64887359661759E-02 
1299	 2.82744718349595E-02 
1300	 2.84382863980992E-02 
1301	 2.69466558738116E-02 
1302	 2.76115967103124E-02 
1303	 2.95889098655058E-02 
1304	 2.93141945971075E-02 
1305	 2.64366808475025E-02 
1306	 2.54003948334182E-02 
1307	 2.62124665266814E-02 
1308	 2.53074899126001E-02 
1309	 2.31555214596744E-02 
1310	 0.021778833890813 
1311	 0.019300418496176 
1312	 1.86944062799755E-02 
1313	 2.01650869885192E-02 
1314	 2.12402969617318E-02 
1315	 2.38525863595878E-02 
1316	 2.40489617899973E-02 
1317	 2.26599748742761E-02 
1318	 2.24218031372665E-02 
1319	 0.020387484302482 
1320	 2.13816759616514E-02 
1321	 0.026711519896146 
1322	 2.71012374752552E-02 
1323	 0.027777001114119 
1324	 3.15702719281416E-02 
1325	 2.99808051151346E-02 
1326	 2.59636344300689E-02 
1327	 2.31511376627743E-02 
1328	 2.06917144672568E-02 
1329	 1.87823962658029E-02 
1330	 1.41601982293093E-02 
1331	 1.43962876658002E-02 
1332	 0.018430983494144 
1333	 1.37994847209342E-02 
1334	 0.011438915177833 
1335	 1.34076634878064E-02 
1336	 1.54690828741747E-02 
1337	 1.16747317238287E-02 
1338	 1.56862922896218E-02 
1339	 1.73628100937961E-02 
1340	 2.78779891167253E-03 
1341	 2.56136665607762E-03 
1342	 1.73510411595086E-02 
1343	 2.18235098523551E-02 
1344	 3.23582845569759E-02 
1345	 3.97266573401656E-02 
1346	 0.040207011172028 
1347	 0.033378059666916 
1348	-1.3889028268974E-03 
1349	-2.60605671011809E-02 
1350	-7.25063247034786E-02 
1351	-0.104962119976846 
1352	 8.28063755035163E-03 
1353	 3.92869751645779E-02 
1354	 2.58837106352239E-02 
1355	-1.33309850822586E-02 
1356	-0.207684518938391 
1357	-0.498438713531337 
1358	-0.520490216503533 
1359	-0.4572974826137 
1360	-0.414293153914154 
1361	-0.327436936571213 
1362	-0.515404326436129 
1363	-0.805139115560513 
1364	 0.388888523271231 
1365	 0.509566728231503 
1366	 0.346998558990941 
1367	 0.162272909842024 
1368	-2.66023237679377E-02 
1369	-0.780160408990735 
1370	-1.50770361187003 
1371	-4.78402978578208 
1372	-5.66177284389889 
1373	-4.53936104152253 
1374	 19.9723675112882 
1375	-1.50252979181426 
1376	-0.431494880236227 
1377	-0.668944177411916 
1378	-1.0191290380448 
1379	-0.407543414521437 
1380	-0.500366091349419 
1381	-3.73990992939691 
1382	-3.55097775182656 
1383	-0.581402023785825 
1384	-0.28910226420821 
1385	 9.46063764181897E-02 
1386	 0.167175937116377 
1387	-1.20098498896028 
1388	-1.93018866848385 
1389	-1.39335720509398 
1390	-1.93453877018669 
1391	-2.67067680860693 
1392	-0.523586888482899 
1393	 4.89332035610686E-02 
1394	 9.00443563702931E-02 
1395	-0.033754425318387 
1396	 0.144882734200474 
1397	-0.441833543470514 
1398	 106.476623256044 
1399	 0.373178517676791 
1400	 0.572615481339634 
1401	 0.620183425126468 
1402	-93.9330777701402 
1403	-4.26849241319217 
1404	-4.7011693024967 
1405	-0.693490852655326 
1406	-0.506613496574232 
1407	-0.398105920013624 
1408	-1.90038978650473 
1409	-6.62557763104511 
1410	-4.58809303591218 
1411	-6.5717800172609 
1412	-2.4332192673379 
1413	-2.91881496274024 
1414	-4.545506398113 
1415	-4.49295020183719 
1416	-5.06969105511555 
1417	-9.44744310986429 
1418	-6.79204610742721 
1419	-3.28745605661797 
1420	-3.77209374060875 
1421	-2.08117159057727 
1422	-0.511126906268379 
1423	-0.514635697328367 
1424	-0.582762206006842 
1425	 0.279488679451013 
1426	-0.57828825348619 
1427	-0.521186609131293 
1428	 0.32970696994359 
1429	 0.415871614129576 
1430	 0.309252444295661 
1431	 0.203859219075521 
1432	-0.134627313652431 
1433	-0.201063540806512 
1434	-9.61810053971016E-02 
1435	-0.190725749803599 
1436	-0.157184040413611 
1437	 2.00806052069713E-02 
1438	 0.1089781969391 
1439	-0.24328855858717 
1440	-0.216197245077614 
1441	 0.32825352198357 
1442	 0.129020425637209 
1443	-5.20365919373228E-02 
1444	 0.220463879851785 
1445	 0.218983350825411 
1446	-6.82147819039668E-03 
1447	-2.95075027323138E-02 
1448	-1.91427010179728E-02 
1449	-6.89044611159842E-03 
1450	 1.39047201292165E-02 
1451	 6.93857547700383E-02 
1452	 0.154062772347063 
1453	 5.66443375869188E-02 
1454	 2.70256862302722E-03 
1455	 1.80169931568091E-02 
1456	 5.34422428268879E-02 
1457	 5.16413999251798E-02 
1458	 2.27286836055366E-02 
1459	 3.89307440853025E-02 
1460	 6.39050673518631E-02 
1461	 1.77669319187131E-02 
1462	 7.37109660882192E-03 
1463	 9.82929933864354E-02 
1464	 0.123864526655318 
1465	 0.046341976142921 
1466	 2.02796329319806E-02 
1467	 4.59043545930619E-02 
1468	 4.55697846395951E-02 
1469	-2.24382594908935E-03 
1470	-4.16594410906147E-03 
1471	 2.45894487702977E-02 
1472	 6.20550218373102E-02 
1473	 0.123328052570259 
1474	 0.125824064814661 
1475	 0.109770377325942 
1476	 0.118225825087696 
1477	 0.116488384836958 
1478	 0.104667252005012 
1479	 0.102405649664263 
1480	 0.100799633209765 
1481	 7.79249845574634E-02 
1482	 7.47209548121018E-02 
1483	 0.11458156772478 
1484	 0.101425415289748 
1485	 5.76170942777989E-02 
1486	 3.90844397315845E-02 
1487	 2.26358478731867E-02 
1488	 7.72234184026955E-03 
1489	-1.28468906905743E-02 
1490	-0.006723491894467 
1491	 1.14355790940533E-02 
1492	 1.58715392072203E-02 
1493	 3.18889824610997E-02 
1494	 3.57258215139769E-02 
1495	 2.42049036376035E-02 
1496	 0.019927709751327 
1497	 1.85890729783956E-02 
1498	 1.67419524384586E-02 
1499	 1.23775584185061E-02 
1500	 1.35277339140843E-02 
1501	 0.019426589832229 
1502	 2.11714410300282E-02 
1503	 2.35035213032585E-02 
1504	 2.56666289946311E-02 
1505	 2.58339313552635E-02 
1506	 2.54586635892958E-02 
1507	 2.89205539855641E-02 
1508	 2.77358773651302E-02 
1509	 2.51043759806151E-02 
1510	 2.54454762844237E-02 
1511	 0.02570958882313 
1512	 2.77568553277412E-02 
1513	 2.80812520736731E-02 
1514	 2.86150361271286E-02 
1515	 3.13260403284919E-02 
1516	 2.99379066966933E-02 
1517	 2.87269374565212E-02 
1518	 3.04272888987951E-02 
1519	 3.01751835656578E-02 
1520	 2.81420915863725E-02 
1521	 2.54366283082763E-02 
1522	 2.29080384959766E-02 
1523	 2.30255089763734E-02 
1524	 2.34212086035636E-02 
1525	 2.13996517024577E-02 
1526	 2.05914317790898E-02 
1527	 2.07493160302189E-02 
1528	 1.96350538451632E-02 
1529	 2.08568174033968E-02 
1530	 2.42975922453708E-02 
1531	 2.55515674514918E-02 
1532	 2.49839607388175E-02 
1533	 2.59955803485236E-02 
1534	 2.67352759429358E-02 
1535	 2.62431548623753E-02 
1536	 2.64389605679665E-02 
1537	 0.027625234054961 
1538	 2.83477828736903E-02 
1539	 2.60286324161314E-02 
1540	 2.36975506931714E-02 
1541	 2.46024305362655E-02 
1542	 2.63345507185694E-02 
1543	 2.65804857956299E-02 
1544	 2.74477295402027E-02 
1545	 2.68397205104889E-02 
1546	 2.32974017115158E-02 
1547	 2.21226199501541E-02 
1548	 2.24981910210792E-02 
1549	 2.36017830454585E-02 
1550	 2.55149447269314E-02 
1551	 2.52846998377582E-02 
1552	 2.42180630228118E-02 
1553	 2.37305094201223E-02 
1554	 2.32692951454116E-02 
1555	 2.21000362084312E-02 
1556	 2.25820979329707E-02 
1557	 0.025508345543324 
1558	 2.55367194144967E-02 
1559	 2.38181797219679E-02 
1560	 2.42216993182435E-02 
1561	 2.55472725410055E-02 
1562	 2.59262583283586E-02 
1563	 0.025805745374842 
1564	 0.026082589534436 
1565	 2.37723668326089E-02 
1566	 1.97884547421616E-02 
1567	 1.96331553028755E-02 
1568	 2.20651525338478E-02 
1569	 2.16690415668838E-02 
1570	 2.13070948191597E-02 
1571	 2.44552985935108E-02 
1572	 2.61251653599547E-02 
1573	 0.027206570747605 
1574	 2.92380380913395E-02 
1575	 0.027691439508297 
1576	 0.024736041943577 
1577	 2.50318877754221E-02 
1578	 0.026532570312139 
1579	 2.64734796726776E-02 
1580	 2.69901210054713E-02 
1581	 2.72415950357267E-02 
1582	 0.025384067573379 
1583	 2.34970487123334E-02 
1584	 2.48465965317683E-02 
1585	 2.69588551916718E-02 
1586	 2.53201438069107E-02 
1587	 0.025494521262773 
1588	 2.77519476892247E-02 
1589	 2.58692375758391E-02 
1590	 2.48045505653859E-02 
1591	 2.66661999658723E-02 
1592	 2.56468892087729E-02 
1593	 0.025129829244335 
1594	 2.65998586352903E-02 
1595	 2.55404809047219E-02 
1596	 2.38172327384123E-02 
1597	 2.35624539529012E-02 
1598	 2.46603870291052E-02 
1599	 2.53060911725149E-02 
1600	 2.41105974060819E-02 
1601	 2.28563396230593E-02 
1602	 2.26378216178736E-02 
1603	 2.34683489138193E-02 
1604	 2.51388444787453E-02 
1605	 2.64146374958373E-02 
1606	 2.60802697803049E-02 
1607	 2.39781217833275E-02 
1608	 2.27641078273099E-02 
1609	 2.41502196795676E-02 
1610	 2.45093800506814E-02 
1611	 2.41989713569445E-02 
1612	 2.48349608990055E-02 
1613	 0.024306881684063 
1614	 2.44954485222727E-02 
1615	 2.60182671570221E-02 
1616	 2.55210459988717E-02 
1617	 2.52001451198002E-02 
1618	 2.45117381427117E-02 
1619	 2.25855558372839E-02 
1620	 2.28080944827546E-02 
1621	 2.22415860816453E-02 
1622	 2.22262554345597E-02 
1623	 2.28222230459317E-02 
1624	 2.29595388529193E-02 
1625	 2.42637632596385E-02 
1626	 2.39956751304161E-02 
1627	 2.42483245387886E-02 
1628	 0.024454869527629 
1629	 2.37823385593587E-02 
1630	 2.48172747983514E-02 
1631	 2.64192092437067E-02 
1632	 2.80100464572369E-02 
1633	 2.80172499483115E-02 
1634	 0.026629220963935 
1635	 2.57825576471887E-02 
1636	 2.53504947584743E-02 
1637	 2.56984867039147E-02 
1638	 2.49734123543349E-02 
1639	 0.023083226407622 
1640	 2.44700617437273E-02 
1641	 2.70191773790506E-02 
1642	 2.79142346422998E-02 
1643	 2.91810722940476E-02 
1644	 2.70725475129499E-02 
1645	 2.30944266643809E-02 
1646	 2.38968625408717E-02 
1647	 2.65327141594912E-02 
1648	 2.69200605683232E-02 
1649	 2.60331684281937E-02 
1650	 2.55128613875231E-02 
1651	 2.33185236448026E-02 
1652	 0.021083981765017 
1653	 2.30217978161985E-02 
1654	 2.26132018421442E-02 
1655	 0.020195951943369 
1656	 2.10285914816376E-02 
1657	 0.023792707678853 
1658	 2.50380895195062E-02 
1659	 2.62823633361084E-02 
1660	 2.81289976409569E-02 
1661	 3.07521738612281E-02 
1662	 2.99111576583288E-02 
1663	 2.82977047686821E-02 
1664	 2.80433147238711E-02 
1665	 2.46375794435861E-02 
1666	 2.31311438738195E-02 
1667	 0.024615407958746 
1668	 2.46122122619568E-02 
1669	 2.48046699094962E-02 
1670	 2.64217864040937E-02 
1671	 2.77198235984613E-02 
1672	 2.88297115926243E-02 
1673	 2.91614174143928E-02 
1674	 0.027940129071296 
1675	 2.56929640577117E-02 
1676	 2.19845574627634E-02 
1677	 2.06803699742457E-02 
1678	 2.15520025865954E-02 
1679	 2.33211321898528E-02 
1680	 2.58174182452584E-02 
1681	 0.024275014378787 
1682	 2.36437416637663E-02 
1683	 2.50150382441603E-02 
1684	 2.21407410159563E-02 
1685	 2.02253598893558E-02 
1686	 2.22457769561801E-02 
1687	 2.29839325262562E-02 
1688	 2.43873015140065E-02 
1689	 2.83849625514844E-02 
1690	 2.83374713163633E-02 
1691	 2.67572293691304E-02 
1692	 2.81873824431983E-02 
1693	 2.84854294766736E-02 
1694	 2.81831060859498E-02 
1695	 2.70988724737139E-02 
1696	 2.70079718722848E-02 
1697	 2.85647163381704E-02 
1698	 2.74141620353077E-02 
1699	 0.028245610621863 
1700	 2.92907813550865E-02 
1701	 2.56430859653786E-02 
1702	 2.51763549147389E-02 
1703	 2.74782386648258E-02 
1704	 2.71605336013993E-02 
1705	 2.81783236589832E-02 
1706	 3.03422804585254E-02 
1707	 2.74057446908477E-02 
1708	 2.21759126379043E-02 
1709	 2.36319207364871E-02 
1710	 2.71655953659668E-02 
1711	 2.74338181245367E-02 
1712	 3.01443147140256E-02 
1713	 2.81340837728466E-02 
1714	 2.79086955027811E-02 
1715	 3.04048061918285E-02 
1716	 3.05141909733553E-02 
1717	 3.15016971508095E-02 
1718	 2.88911827211317E-02 
1719	 2.51998117525738E-02 
1720	 2.37801339719947E-02 
1721	 2.34624839219249E-02 
1722	 2.49708933454836E-02 
1723	 2.79016508865069E-02 
1724	 3.00549059153143E-02 
1725	 2.64306245339513E-02 
1726	 2.42731505796541E-02 
1727	 2.92283080039646E-02 
1728	 2.95442740798781E-02 
1729	 2.88730359994494E-02 
1730	 0.03010659431608 
1731	 2.32359735535174E-02 
1732	 2.22927638037562E-02 
1733	 2.98474039015673E-02 
1734	 2.95306679654675E-02 
1735	 2.76914725576421E-02 
1736	 2.33349984416747E-02 
1737	 1.54441041107603E-02 
1738	 2.04610052160378E-02 
1739	 0.028979952336004 
1740	 2.89980309365364E-02 
1741	 3.05628291038149E-02 
1742	 0.028001410493247 
1743	 1.69070798750032E-02 
1744	 0.01399036609286 
1745	 1.86333062916696E-02 
1746	 2.14963953092772E-02 
1747	 2.16527299653144E-02 
1748	 1.78897062204012E-02 
1749	 2.03138207723235E-02 
1750	 2.58445287824926E-02 
1751	 2.76809908559202E-02 
1752	 3.50758453999021E-02 
1753	 3.76190125583719E-02 
1754	 3.12733826387585E-02 
1755	 3.04283014633445E-02 
1756	 3.31669809096197E-02 
1757	 2.96683322429985E-02 
1758	 2.89812612286668E-02 
1759	 2.93646075686877E-02 
1760	 3.22453605252521E-02 
1761	 2.99338172379073E-02 
1762	 2.15854727640916E-02 
1763	 1.78184392836709E-02 
1764	 1.58374759030394E-02 
1765	 0.017005243688447 
1766	 2.12669049883944E-02 
1767	 2.15267718190791E-02 
1768	 1.79490076085685E-02 
1769	 1.30777651587799E-02 
1770	 1.17540171956099E-02 
1771	 1.65312820170474E-02 
1772	 2.03431098997286E-02 
1773	 0.013040573240993 
1774	 7.90900522592995E-03 
1775	-2.58046174224672E-03 
1776	-3.38896280135874E-03 
1777	 3.36690444715195E-02 
1778	 4.11253804535372E-02 
1779	 1.95262672218987E-02 
1780	 1.96282190821005E-02 
1781	 0.017601006315561 
1782	 8.95738287734934E-03 
1783	 0.011341651281952 
1784	 1.68391939804457E-02 
1785	 0.015837729315848 
1786	 5.14589657065237E-04 
1787	-1.60879483368887E-02 
1788	-2.02799388121219E-02 
1789	-4.60110840524526E-02 
1790	-4.88689787369252E-02 
1791	-1.09422573117651E-02 
1792	-4.12314725399258E-03 
1793	-8.70393294158323E-03 
1794	 2.70800513326228E-02 
1795	-3.31297420773866E-03 
1796	-0.084660872697325 
1797	-0.143581975192137 
1798	-0.130777034352687 
1799	-3.71405396188317E-02 
1800	-3.23998212486991E-02 
1801	 1.66328687853816E-02 
1802	 5.16163366908822E-02 
1803	-3.05739741350666E-03 
1804	-0.149042687195207 
1805	-4.48259449730027E-02 
1806	 0.175050314836813 
1807	 0.175676548557207 
1808	 0.418217234917576 
1809	 0.454358935752835 
1810	-0.603138920590811 
1811	-0.753500713608188 
1812	 0.804092377379804 
1813	 0.738652185478553 
1814	 0.430805147674204 
1815	 0.293618035649689 
1816	-0.132191982730346 
1817	-0.428542758920761 
1818	-0.157584410555512 
1819	 6.38436721528763E-02 
1820	 0.221501681730076 
1821	 0.895788063770004 
1822	 1.80076974778195 
1823	 1.09209664055393 
1824	 0.838656593252607 
1825	-0.212761931227767 
1826	-0.145185169331244 
1827	 0.433599942542606 
1828	 0.639332758326341 
1829	 1.45558989696538 
1830	 1.42320668518061 
1831	-3.30875276425951 
1832	-8.35155687854347 
1833	-3.87493984220882 
1834	-6.87803457714386 
1835	 15.5642749123692 
1836	 5.45050720230826 
1837	 0.792684953784431 
1838	 0.171963950289832 
1839	-0.59019125491311 
1840	-19.0927305100015 
1841	 0.430760268872264 
1842	 0.334257500259902 
1843	 0.372582648513176 
1844	-0.690440212757682 
1845	-0.741610647700444 
1846	-1.99316741938836 
1847	-2.2966663955065 
1848	 3.36639606840249 
1849	 3.07047074147169 
1850	 6.72339220688986 
1851	 15.1039559151974 
1852	 3.51979073286947 
1853	 1.77472732351993 
1854	 1.20878022610812 
1855	 0.451703523116977 
1856	 0.225500764645519 
1857	 0.154800861783717 
1858	 7.47568511158172E-02 
1859	-0.102671818203171 
1860	-0.137945951080601 
1861	 1.55172255656083E-02 
1862	 0.409671114156329 
1863	 1.0629937031211 
1864	 3.03626951005256 
1865	 7.54286990512268 
1866	-22.1102395321671 
1867	-4.87170848452585 
1868	 1.61717218281482 
1869	 21.2856160074609 
1870	-48.1870627122549 
1871	-3.48286230109048 
1872	-1.28739361725306 
1873	-0.250781685808967 
1874	 0.386185816766972 
1875	 0.481891160364764 
1876	 0.531509003773524 
1877	-0.130262482314601 
1878	-0.516000665222488 
1879	-0.824680469635058 
1880	-0.832721414391486 
1881	-0.352609444628555 
1882	-0.196995440821548 
1883	-0.532264929511401 
1884	-0.673068110038659 
1885	 0.284162838983246 
1886	 14.2197754235449 
1887	-3.21048505702742 
1888	 5.89152396021961 
1889	 1.74497278229633 
1890	-2.44955439850235E-02 
1891	-0.116034487841613 
1892	-0.22044580157649 
1893	 0.904308880531885 
1894	 7.43867876894497 
1895	 6.23210952859523 
1896	 3.02893163753204 
1897	 0.525223049130553 
1898	-0.368659582187103 
1899	-1.51494137877267 
1900	-7.10863227226038 
1901	 2.13704204600202 
1902	 1.88605961449671 
1903	 1.38089204730271 
1904	 1.4840789644584 
1905	-1.2087026305767 
1906	-0.778571860620172 
1907	 0.17771596641795 
1908	 0.620878353956088 
1909	 2.00747463168166 
1910	 6.85849948588043 
1911	-17.9599040538947 
1912	 14.4738808112712 
1913	 64.5081163218095 
1914	-1.66836149198897 
1915	-0.587388774687769 
1916	-0.185266733263098 
1917	 0.585215760050473 
1918	 3.33578109258108 
1919	-1.48497464004834 
1920	-0.866774868298245 
1921	-1.40171689847237 
1922	-0.370940026539505 
1923	 0.041283507923447 
1924	 4.6607253459362E-03 
1925	-2.59193644499303E-02 
1926	 4.86739308050187E-02 
1927	-9.60048225666579E-02 
1928	 0.218736686740001 
1929	 11.2279581424509 
1930	-3.43842572312931 
1931	-1.7706093469144 
1932	-1.13921200946192 
1933	-0.299235927373235 
1934	 0.513599881894644 
1935	 0.90230634674015 
1936	-1.17959684183567 
1937	-1.21565760414929 
1938	-0.259037024818845 
1939	-0.167889052047667 
1940	-3.88740054961391E-02 
1941	 6.34777705352444E-02 
1942	 0.274732607369671 
1943	 0.055759928255092 
1944	 9.98654514357445E-03 
1945	 0.538533082579532 
1946	 0.724598229646826 
1947	 46.1413172764447 
1948	-2.91475551395263 
1949	-1.96045374948667 
1950	-2.07020428033164 
1951	-1.1332858653297 
1952	-1.02507218634687 
1953	-1.17085146137176 
1954	-0.979977271247499 
1955	-2.11649887921969 
1956	-0.826067677737653 
1957	-0.921836493585079 
1958	-1.15901083904733 
1959	 0.044027334482459 
1960	 0.107106998874669 
1961	 0.224540724109774 
1962	 0.168057047987847 
1963	 0.049538905520895 
1964	-0.189728357134286 
1965	-0.688152539221818 
1966	-0.791298048392917 
1967	-0.786035912238718 
1968	 1.11013090335304E-02 
1969	 0.450724720337175 
1970	 0.493684681643658 
1971	 0.212129553340264 
1972	 3.95035087397526E-02 
1973	-0.166982547401479 
1974	-0.215182825029029 
1975	-0.168603853401097 
1976	-0.179629811020812 
1977	-0.137180188764344 
1978	-9.70094602203065E-02 
1979	-7.35624805991544E-02 
1980	-0.047418292001605 
1981	 1.25154430609878E-02 
1982	 1.99113888571203E-02 
1983	-4.02045920311418E-02 
1984	-0.038210484577143 
1985	 2.09954482086938E-02 
1986	-5.90046242056284E-02 
1987	-0.112357338599845 
1988	-0.121320600329843 
1989	-0.14787313708236 
1990	 4.33253916857472E-04 
1991	 4.84307454586391E-02 
1992	 2.07807037908429E-02 
1993	-1.94484569962284E-02 
1994	-2.95697796822947E-02 
1995	-3.84010921248652E-02 
1996	-5.04743058986857E-02 
1997	-2.19894997237222E-02 
1998	-1.59972219381128E-02 
1999	-0.27566452784412 
2000	-0.275688819332988 
2001	-0.165744299420848 
2002	-0.14353470947911 
2003	 0.301043348529969 
2004	 0.43910378452728 
2005	 0.430991912553472 
2006	 0.440176660582443 
2007	 2.97297743767831E-02 
2008	-0.285410991461362 
2009	-0.593356016365513 
2010	-1.56368563754662 
2011	-1.95859591827951 
2012	-2.27185491396429 
2013	-0.916235234619748 
2014	-0.533439051626624 
2015	-0.27982317959947 
2016	-9.78483521176473E-02 
2017	-0.111475564302136 
2018	-0.135990448167708 
2019	-0.313594513968873 
2020	-0.303654676052806 
2021	-0.145603190880014 
2022	-5.22433156900635E-02 
2023	 4.74304077534363E-02 
2024	 8.21991337564608E-02 
2025	 2.43816923541064E-02 
2026	 4.49352865903624E-02 
2027	 8.69439344226829E-02 
2028	 0.101058340964456 
2029	 7.42422420923648E-02 
2030	 5.97589153412262E-02 
2031	 4.83467729438693E-02 
2032	 4.04296166785987E-02 
2033	 4.03469708131174E-02 
2034	 2.05217304693775E-02 
2035	-3.53106473158061E-03 
2036	-3.99159405231045E-02 
2037	-5.51159118119062E-02 
2038	-2.90818262461902E-02 
2039	 4.40882804800665E-03 
2040	 6.34896732425852E-02 
2041	 8.38766979929916E-02 
2042	 0.11917388734695 
2043	 0.126828525715353 
2044	 9.53820362874974E-02 
2045	 5.81813050683874E-02 
2046	 0.074556374573707 
2047	 8.06039526077262E-02 
2048	 8.16016739098357E-02 
2049	 8.39859233420929E-02 
2050	 7.72118095869174E-02 
2051	 8.84673530769308E-02 
2052	 0.093017993175934 
2053	 0.125692993908128 
2054	 0.115924219583075 
2055	 0.056520053033757 
2056	 4.15623882395597E-02 
2057	 4.45901580455765E-02 
2058	 2.29053253284717E-02 
2059	 1.51474297385624E-02 
2060	 5.61838155991563E-03 
2061	-2.87686373068025E-02 
2062	-3.83393805882524E-02 
2063	-1.38841589345029E-02 
2064	 1.30384588795802E-02 
2065	 3.34832481722879E-02 
2066	 0.033120709828992 
2067	 3.56133614377486E-02 
2068	 3.29328734177657E-02 
2069	 1.48949300006688E-02 
2070	 3.39432839238115E-02 
2071	 4.06802019807571E-02 
2072	-7.15396883564381E-03 
2073	-1.40276042554613E-02 
2074	 3.33741024623639E-03 
2075	 2.94902535832609E-03 
2076	 9.02704923485996E-03 
2077	 9.6609701333545E-03 
2078	-8.44589469905449E-03 
2079	-1.33287918257183E-02 
2080	-1.56864348785204E-02 
2081	-8.86629500283894E-03 
2082	-2.92709844787664E-03 
2083	-5.56508896936662E-03 
2084	-1.26464242819096E-02 
2085	-0.01016258540966 
2086	 4.98701055180851E-03 
2087	 0.022540474171311 
2088	 3.37481597584565E-02 
2089	 3.42357275998325E-02 
2090	 2.99753208331724E-02 
2091	 2.15400799003671E-02 
2092	 0.016866512532997 
2093	 1.67740321317387E-02 
2094	 1.65425081116056E-02 
2095	 1.54443340146744E-02 
2096	 1.12215586056565E-02 
2097	-2.14649508177684E-03 
2098	-7.41662689935974E-03 
2099	-1.10390259962106E-02 
2100	-3.59521524570665E-03 
2101	-4.22925222211811E-03 
2102	-1.24268511957624E-02 
2103	-1.08979150760483E-02 
2104	-1.24530110935316E-03 
2105	 1.16035726673358E-02 
2106	 4.09287549628574E-02 
2107	 0.051337805630457 
2108	 4.94415723862453E-02 
2109	 0.03598521501595 
2110	 1.66817770420503E-02 
2111	 1.56780436180536E-02 
2112	 1.02546312153772E-02 
2113	 2.55154623335015E-03 
2114	-3.31737120319125E-04 
2115	-4.25732467435872E-04 
2116	-7.35065822991299E-03 
2117	-6.86774317741007E-03 
2118	 0.010665090961961 
2119	 1.44746147083338E-02 
2120	 9.16655704676213E-03 
2121	 4.30814202578236E-03 
2122	 1.91488751642006E-02 
2123	 3.23662210870345E-02 
2124	 3.52927157612681E-02 
2125	 4.85895834250439E-02 
2126	 3.97092340235216E-02 
2127	 2.48627159250043E-02 
2128	 3.28962649024961E-02 
2129	 2.64545760666707E-02 
2130	 2.74478651903332E-02 
2131	 0.040598534190138 
2132	 4.46392695757143E-02 
2133	 4.79564171157425E-02 
2134	 4.50455384147783E-02 
2135	 2.80257365013574E-02 
2136	 2.48025715148111E-02 
2137	 2.71950163162192E-02 
2138	 2.58842909924264E-02 
2139	 2.96850735038231E-02 
2140	 2.96159973568793E-02 
2141	 2.24496183941556E-02 
2142	 0.021657151417119 
2143	 2.01489877695658E-02 
2144	 2.92375091790716E-02 
2145	 4.84965389526967E-02 
2146	 4.56111541524639E-02 
2147	 3.56177807555493E-02 
2148	 3.30937943199033E-02 
2149	 1.80384251130661E-02 
2150	 0.012022121684746 
2151	 2.14738243602058E-02 
2152	 1.54277305182179E-02 
2153	 2.19517829441253E-02 
2154	 3.08925496699427E-02 
2155	 2.83312036696238E-02 
2156	 0.044066665615887 
2157	 4.49248538092883E-02 
2158	 3.30668118972436E-02 
2159	 2.31565801723124E-02 
2160	 6.5850748107705E-03 
2161	-1.10920958813232E-03 
2162	-1.01099002746395E-02 
2163	-1.67611817761669E-02 
2164	-1.87895141121788E-02 
2165	-1.41816878627523E-02 
2166	 1.60272117430808E-03 
2167	 5.96992048739738E-03 
2168	 1.51078175233918E-02 
2169	 2.09362821022015E-02 
2170	 1.48779808936382E-02 
2171	 5.30734644481961E-03 
2172	 8.14821996991715E-03 
2173	 4.02799905248384E-03 
2174	 9.37837880520118E-03 
2175	 3.73035484836081E-03 
2176	 5.70370560543557E-03 
2177	 2.19678315374284E-02 
2178	 2.29382845148397E-02 
2179	 2.47102376326118E-02 
2180	 1.77375918558161E-02 
2181	 4.91198798980027E-03 
2182	 5.08347665676237E-03 
2183	-2.70900421417783E-03 
2184	-1.85865991912697E-02 
2185	-0.026688286736575 
2186	-2.90772906915908E-02 
2187	-4.33001915489255E-02 
2188	-0.031447351227857 
2189	 0.020021481201306 
2190	 3.29267484987198E-02 
2191	 3.78266165207543E-02 
2192	 4.05258655470335E-02 
2193	 1.52502609418801E-02 
2194	 1.31425078591973E-02 
2195	 3.12724033357773E-02 
2196	 2.87249873319661E-02 
2197	 1.19779183893105E-02 
2198	 1.24723939574389E-02 
2199	 8.8841258688148E-03 
2200	 2.17232979012341E-02 
2201	 3.43049224050623E-02 
2202	 5.01773865541756E-02 
2203	 3.10398961222799E-02 
2204	-4.99649940947637E-03 
2205	-9.14238818847381E-03 
2206	-5.6952472595671E-03 
2207	 2.15528983058158E-03 
2208	 4.26907575013417E-03 
2209	-1.59207804243994E-02 
2210	-1.87270583206222E-02 
2211	-6.54959741057663E-03 
2212	 6.52432228740311E-03 
2213	 0.032524155015203 
2214	 4.13376039675492E-02 
2215	 3.69742696063724E-02 
2216	 3.38511276070642E-02 
2217	 2.99418380548654E-02 
2218	 2.09199653808987E-02 
2219	 2.16665964130922E-02 
2220	 3.06869423186634E-02 
2221	 2.67558002854041E-02 
2222	 1.15636853283808E-02 
2223	 1.19699315908832E-02 
2224	 1.63837967203592E-02 
2225	 1.28531484400212E-02 
2226	 2.30025574794328E-02 
2227	 2.57403196291388E-02 
2228	 7.91537211931222E-03 
2229	 7.63768427061262E-03 
2230	 2.22460430238054E-02 
2231	 2.45085252070018E-02 
2232	 2.66065648312034E-02 
2233	 2.53809097050253E-02 
2234	 1.39715148194105E-02 
2235	 1.18971283099398E-02 
2236	 2.04493770709338E-02 
2237	 3.33896647775442E-02 
2238	 4.99732336148399E-02 
2239	 5.84865077557216E-02 
2240	 6.20709568511953E-02 
2241	 6.66632241180616E-02 
2242	 7.96469940335174E-02 
2243	 0.105962777112523 
2244	 0.120883613333836 
2245	 0.099187225990874 
2246	 9.18254659955474E-02 
2247	 8.25431833801345E-02 
2248	 4.68412655357119E-02 
2249	 4.33215435076554E-02 
2250	 3.83795176335117E-02 
2251	 2.12567999625152E-02 
2252	 3.66221612504707E-02 
2253	 4.76546531177905E-02 
2254	 3.43750172467972E-02 
2255	 0.019998317990876 
2256	 4.93332620483415E-03 
2257	 8.49967268350813E-03 
2258	-6.5365144534797E-03 
2259	-1.82486233941515E-02 
2260	-1.17614402231249E-02 
2261	 4.28945063357691E-03 
2262	 1.26122994201352E-03 
2263	 8.32211336618355E-03 
2264	 1.35358547898873E-02 
2265	 7.98709517133876E-03 
2266	 5.23451304459939E-03 
2267	 1.08183454797932E-02 
2268	 1.06031106021201E-02 
2269	-1.01404898865897E-02 
2270	-1.48682209189481E-02 
2271	 1.03427679298784E-02 
2272	 1.64472078423649E-03 
2273	-3.73803249154956E-02 
2274	-4.64390400536845E-02 
2275	-0.059783957505455 
2276	-5.48529538474442E-02 
2277	-2.78849212035325E-02 
2278	-1.38638305473167E-02 
2279	 9.67586908403508E-03 
2280	 1.52876199584248E-02 
2281	 2.20473283496239E-04 
2282	 3.61283806310135E-02 
2283	 4.53162801167964E-02 
2284	 3.23445201725557E-02 
2285	 2.94647098797146E-02 
2286	 2.40225536617742E-02 
2287	 1.66765141706102E-02 
2288	-1.21639887901223E-02 
2289	 2.09121637781675E-02 
2290	 5.07627264773669E-02 
2291	 3.75149612848774E-02 
2292	 5.44971898656352E-02 
2293	 2.09581018352112E-02 
2294	-1.84080651373949E-02 
2295	-0.063963002514664 
2296	-8.47700571887184E-02 
2297	-0.057730308226558 
2298	-7.51609812636565E-02 
2299	-5.99705686148167E-02 
2300	-4.67765088109669E-02 
2301	-4.89945140832517E-02 
2302	-9.46155176496359E-03 
2303	 7.85353972140563E-02 
2304	 0.139280476361834 
2305	 0.123887573440075 
2306	 6.36840154569095E-02 
2307	-1.65917382297542E-02 
2308	-6.18928485458001E-02 
2309	-7.92544417804765E-02 
2310	-4.83869299597587E-02 
2311	 0.025348903366089 
2312	 6.32975811973602E-02 
2313	 2.77666546799057E-02 
2314	 9.9819830142581E-03 
2315	 7.1665884332143E-03 
2316	-5.16198832943179E-03 
2317	 0.118951374028038 
2318	 0.223282045830209 
2319	 0.156423089523489 
2320	 7.77109701269853E-02 
2321	 5.62131645401773E-02 
2322	 0.017812047702838 
2323	-6.70702241329415E-03 
2324	 8.40960614874097E-02 
2325	 8.88073674382499E-02 
2326	 6.07601734811536E-02 
2327	 8.16845570319942E-02 
2328	 8.62335863141883E-02 
2329	 0.077061956046395 
2330	 6.31611281121347E-02 
2331	 7.43023013951508E-02 
2332	 7.73520419453946E-02 
2333	 0.111073745180455 
2334	 0.11234343387399 
2335	 1.50885162144162E-02 
2336	-7.49048474908913E-03 
2337	-9.28717837873301E-02 
2338	-0.166294177695386 
2339	 1.50333341684511E-02 
2340	 0.114234496971557 
2341	 0.203948148545339 
2342	 0.258939871126979 
2343	 2.95866557323918E-02 
2344	-0.169792042898307 
2345	-0.15509882895506 
2346	-0.198613538732562 
2347	-7.53767086737963E-02 
2348	 9.07027921506903E-02 
2349	-8.17412722374296E-02 
2350	-0.164113408781284 
2351	-0.150290919576905 
2352	-0.137836304501414 
2353	-0.184262964730314 
2354	-0.106417947331897 
2355	 4.57713694099673E-02 
2356	 0.115192945818988 
2357	 0.223784159182583 
2358	 0.124698255956344 
2359	 4.18802975653146E-03 
2360	 2.72324717507011E-02 
2361	 0.139252188622281 
2362	 0.294799818129174 
2363	 0.310148388474406 
2364	 0.239680884175024 
2365	-2.96086306579549E-02 
2366	-0.101804807804032 
2367	-8.53099154118495E-02 
2368	-0.173279012271855 
2369	-0.172033539085764 
2370	-0.221231148818098 
2371	-0.228343395909196 
2372	-7.63496251335121E-02 
2373	-0.108664845738232 
2374	-0.425951198512515 
2375	-0.692723236817173 
2376	-0.867167323561951 
2377	-0.770102248900581 
2378	-0.53832969162398 
2379	-0.45908221792981 
2380	-0.615462092855052 
2381	-0.813614630811562 
2382	-0.756569522485495 
2383	-0.360333513578865 
2384	 0.269937769038143 
2385	 4.55459322582598 
2386	-3.27962008786996 
2387	-1.63722487491131 
2388	-2.13252941955133 
2389	-4.18877528887665 
2390	-2.28476741002122 
2391	-0.365716047148919 
2392	 1.27526872507682 
2393	-163.397325539351 
2394	 2.32471952723039 
2395	-235.650997131396 
2396	-45.2041791885866 
2397	-7.45846499296298 
2398	-136.697894002885 
2399	 11.3288733222215 
2400	-16.2998431090473 
2401	-4.82811377259571 
2402	-2.44846420820083 
2403	-2.06304941526183 
2404	-2.56231304349408 
2405	-1.3938134049076 
2406	-3.47142670741715 
2407	 0.953592137300141 
2408	-1.35944156730742 
2409	-0.758473060131627 
2410	-0.304943640901702 
2411	-0.294249318631069 
2412	-0.449007181816189 
2413	-0.804055554788013 
2414	-0.465374728395084 
2415	 3.25448131548292E-02 
2416	-7.35830697272291 
2417	-3.45801239156095 
2418	-0.771578332467297 
2419	-0.532620701705514 
2420	-0.233667896328348 
2421	-0.344389051773689 
2422	-1.20893136033797 
2423	-5.82831955912951 
2424	 1.85927732727472 
2425	 0.171068301850892 
2426	-1.72212173938926 
2427	-0.862743447204416 
2428	-1.74371637687971 
2429	-3.35301372824164 
2430	 5.96273295795684 
2431	-2.65385149917717 
2432	-0.298080384539551 
2433	 0.691088265814461 
2434	-0.143283389575858 
2435	-0.361972470335197 
2436	-0.442570080240603 
2437	-0.475256549047811 
2438	 0.412161195213178 
2439	-0.518025886022485 
2440	-0.578213530639811 
2441	-0.956978445295701 
2442	-5.89315849470211 
2443	 3.47722774466166 
2444	 1.40990636755235 
2445	 4.14568992338592 
2446	-1.98110724599208 
2447	 0.711150577622601 
2448	-3.57836413066507 
2449	-1.9765076621304 
2450	-1.70560926504578 
2451	-0.715031878953346 
2452	-1.63544421071499 
2453	-0.611491212043646 
2454	-8.11702479763609E-02 
2455	 0.153939925429986 
2456	 6.38330617520886E-02 
2457	 1.86008001250176E-02 
2458	-0.04733246469589 
2459	-4.37232912222762E-02 
2460	 0.490323552882049 
2461	 0.961670801555588 
2462	 1.05969264631161 
2463	 2.93899208666615 
2464	 2.36120575060545 
2465	 1.01994581897019 
2466	 1.88770185383894 
2467	 2.18098081556942 
2468	 6.2971641985773 
2469	-125.851877647113 
2470	-3.38851847566893 
2471	-0.968941628976005 
2472	-0.485245490656937 
2473	-0.529873698402121 
2474	-0.739924214568652 
2475	-1.31697482308797 
2476	-0.926634665574149 
2477	-0.648427041513149 
2478	-0.214114014597941 
2479	-5.30553157955875E-02 
2480	 0.018667170584711 
2481	-0.108514923423809 
2482	 0.123813046995133 
2483	 0.196259557402328 
2484	-1.03825755584149E-02 
2485	 6.57309036912091 
2486	-5.07764379492403 
2487	-3.50906191917748 
2488	 2.9219223662147 
2489	 9.44570790349506 
2490	 9.67340804201884 
2491	-0.444517437856385 
2492	 1.25394257700919 
2493	 0.849109826154453 
2494	 2.321920425362 
2495	-4.60632104043254 
2496	-2.32756179641591 
2497	-1.14768859914083 
2498	-0.27610123622063 
2499	 1.17899138316708E-02 
2500	-0.116453489227112 
