Wavelength	rt0712EAST100009.asd
350	 6.03745506617616E-02 
351	 6.05084435237667E-02 
352	 5.95548993896843E-02 
353	 6.00021385692923E-02 
354	 6.23493914547709E-02 
355	 6.18126533882815E-02 
356	 6.12796672707049E-02 
357	 6.11751212271875E-02 
358	 6.11408430437565E-02 
359	 6.07814329430051E-02 
360	 0.061027512885378 
361	 6.14321742638672E-02 
362	 6.08157953835808E-02 
363	 6.09472581004149E-02 
364	 6.12212280235086E-02 
365	 6.11626582642221E-02 
366	 6.09589826525016E-02 
367	 6.05099663360588E-02 
368	 6.03099585651829E-02 
369	 6.07308872506966E-02 
370	 6.12492953251157E-02 
371	 6.14389764557309E-02 
372	 0.061225759067401 
373	 6.08568292146221E-02 
374	 6.10552945442907E-02 
375	 6.15777516833586E-02 
376	 6.19507799513003E-02 
377	 6.15879353546628E-02 
378	 6.13960255336815E-02 
379	 6.11345484837653E-02 
380	 6.07598799812347E-02 
381	 6.18431460120519E-02 
382	 6.19982372477468E-02 
383	 6.16911532478357E-02 
384	 6.23764559156164E-02 
385	 6.15273807541641E-02 
386	 6.12889240649583E-02 
387	 6.21224427407265E-02 
388	 6.22580488708506E-02 
389	 6.31970647224655E-02 
390	 6.36127497882422E-02 
391	 6.27443487071516E-02 
392	 6.23249374535767E-02 
393	 6.27132344840148E-02 
394	 6.31166834851374E-02 
395	 0.062701607838005 
396	 6.30174269920036E-02 
397	 6.31871863677773E-02 
398	 6.30510129065774E-02 
399	 6.31546342315897E-02 
400	 0.063013242336681 
401	 6.29660071959246E-02 
402	 6.31584956185226E-02 
403	 6.30066816188239E-02 
404	 0.063136874593821 
405	 6.33137207349156E-02 
406	 6.31129495219816E-02 
407	 0.062973144562807 
408	 6.31047128232574E-02 
409	 6.34094655820879E-02 
410	 6.35173180664006E-02 
411	 6.33063534080179E-02 
412	 6.30303184388471E-02 
413	 0.062953396388424 
414	 6.32302743746562E-02 
415	 6.33315390785738E-02 
416	 6.33141827585401E-02 
417	 6.34281893248545E-02 
418	 6.34429847958745E-02 
419	 6.33965984142246E-02 
420	 6.33411686118575E-02 
421	 6.33203984921339E-02 
422	 6.32697740241531E-02 
423	 6.33802812891901E-02 
424	 6.36890042886738E-02 
425	 6.36837222483791E-02 
426	 6.35108837368306E-02 
427	 6.34768467640482E-02 
428	 6.38331165020277E-02 
429	 0.063824383690717 
430	 6.38288502249533E-02 
431	 6.39771326691943E-02 
432	 6.39840709240654E-02 
433	 6.39639121523308E-02 
434	 6.40749834402751E-02 
435	 6.43517156683102E-02 
436	 6.44723177353006E-02 
437	 6.43520256891485E-02 
438	 6.42659784051187E-02 
439	 6.45944546357381E-02 
440	 6.47365620027976E-02 
441	 6.48328321061781E-02 
442	 6.49821822916782E-02 
443	 6.50941048438217E-02 
444	 6.53305169455055E-02 
445	 6.54740410048924E-02 
446	 6.54052766043255E-02 
447	 6.58037674020029E-02 
448	 6.61475286810366E-02 
449	 6.62037519621769E-02 
450	 6.60308838856948E-02 
451	 6.62165837025382E-02 
452	 6.64761472783234E-02 
453	 6.65278851037847E-02 
454	 6.63453298831216E-02 
455	 6.63925937015631E-02 
456	 6.65746425037923E-02 
457	 6.66197508882538E-02 
458	 6.65686530710584E-02 
459	 6.66710898793088E-02 
460	 6.68168259519845E-02 
461	 6.65644985949756E-02 
462	 6.67385242055792E-02 
463	 6.70257332867871E-02 
464	 6.70879822612047E-02 
465	 6.71677577256742E-02 
466	 6.73319718851196E-02 
467	 6.74454554858284E-02 
468	 6.73513269276335E-02 
469	 6.75984023019751E-02 
470	 6.77323372825597E-02 
471	 6.76936383220976E-02 
472	 6.80713682684787E-02 
473	 6.81135216502812E-02 
474	 6.82081214954444E-02 
475	 6.87125904844773E-02 
476	 6.87565567800908E-02 
477	 0.068934554158661 
478	 6.92325295272694E-02 
479	 6.92690708773585E-02 
480	 6.96275502538331E-02 
481	 6.99697312325566E-02 
482	 7.00866284295786E-02 
483	 0.070270482931116 
484	 7.04764951556703E-02 
485	 7.07665197675895E-02 
486	 7.11394348402231E-02 
487	 7.11142232794551E-02 
488	 7.12161883689094E-02 
489	 7.15650791493319E-02 
490	 0.07184200017223 
491	 7.20823638265254E-02 
492	 7.23126884572768E-02 
493	 7.26103301969437E-02 
494	 7.32387831172013E-02 
495	 7.35145115883619E-02 
496	 7.35823351096485E-02 
497	 7.39564075705779E-02 
498	 7.42518554263035E-02 
499	 7.46129932287177E-02 
500	 7.50748506827645E-02 
501	 7.54295872359221E-02 
502	 7.55512499619325E-02 
503	 7.58626688537042E-02 
504	 7.66266621366609E-02 
505	 7.67660852857959E-02 
506	 7.71121236884617E-02 
507	 7.77314348451588E-02 
508	 7.80848769689381E-02 
509	 7.85945460162194E-02 
510	 0.079061886558766 
511	 7.93575195094589E-02 
512	 7.97301974700961E-02 
513	 8.00871617691756E-02 
514	 8.05264279107859E-02 
515	 8.11422423413246E-02 
516	 0.081436800789267 
517	 8.19912714962049E-02 
518	 8.27746454054248E-02 
519	 8.29142007795367E-02 
520	 8.32878380837908E-02 
521	 8.38157516069035E-02 
522	 8.42685275162066E-02 
523	 8.46982717941191E-02 
524	 8.51837061643569E-02 
525	 8.57272635608497E-02 
526	 8.62669557085612E-02 
527	 8.66528904104933E-02 
528	 8.71024792115612E-02 
529	 8.77207035886439E-02 
530	 8.83126812372487E-02 
531	 0.088799825165798 
532	 8.92187166702823E-02 
533	 8.96776554031831E-02 
534	 9.03622006207502E-02 
535	 9.09693389753554E-02 
536	 9.14403099509427E-02 
537	 9.20209645682437E-02 
538	 9.25713776071535E-02 
539	 9.31144193628246E-02 
540	 9.36978559569552E-02 
541	 9.43483323952174E-02 
542	 9.48700238574807E-02 
543	 9.53173934693341E-02 
544	 9.58900930327603E-02 
545	 9.64785709855619E-02 
546	 0.09707817254325 
547	 9.76624221443876E-02 
548	 9.81223616091043E-02 
549	 9.87441086514841E-02 
550	 9.93894119900552E-02 
551	 9.98449757094761E-02 
552	 0.10041435990388 
553	 0.10096102266274 
554	 0.101463792314963 
555	 0.102052446724553 
556	 0.102586528102804 
557	 0.103091809596474 
558	 0.103584455025444 
559	 0.103915579992104 
560	 0.104348838451705 
561	 0.104786345684286 
562	 0.104955642235118 
563	 0.105323044865037 
564	 0.105602348753727 
565	 0.105634886539133 
566	 0.105685444125828 
567	 0.105883161572426 
568	 0.106121805134579 
569	 0.106215749468486 
570	 0.106204952183437 
571	 0.10616800901455 
572	 0.106193243616737 
573	 0.106366220007591 
574	 0.106480211481208 
575	 0.106357133099996 
576	 0.105990213306856 
577	 0.105843984923762 
578	 0.105774116062623 
579	 0.105662326660079 
580	 0.105425440553389 
581	 0.105207885252502 
582	 0.104948248069855 
583	 0.104577798983746 
584	 0.104058142498798 
585	 0.103401483123728 
586	 0.102653503754398 
587	 0.101868668233685 
588	 0.101063152868317 
589	 0.10048422143806 
590	 0.100065259719898 
591	 9.93570069285659E-02 
592	 9.89512730538008E-02 
593	 9.85530631766829E-02 
594	 9.78739922764757E-02 
595	 9.71196617300593E-02 
596	 9.64554011163636E-02 
597	 9.58123373709777E-02 
598	 9.49983852558873E-02 
599	 9.39421906465736E-02 
600	 9.30135293218978E-02 
601	 9.24137523951902E-02 
602	 9.19990558563182E-02 
603	 9.16456043337527E-02 
604	 9.12756760772313E-02 
605	 9.09002830779022E-02 
606	 9.08315260078561E-02 
607	 9.07742331248469E-02 
608	 9.06192366140573E-02 
609	 9.04778284833019E-02 
610	 9.02582417467725E-02 
611	 8.99320131035451E-02 
612	 8.95523713691105E-02 
613	 0.08937823674379 
614	 8.91368428442281E-02 
615	 0.088868894336133 
616	 0.088751526024692 
617	 8.84545124502262E-02 
618	 0.088081499793114 
619	 8.78042657666728E-02 
620	 0.087849053631734 
621	 0.087781717033832 
622	 8.76249672768299E-02 
623	 0.087513199582411 
624	 8.73337597918666E-02 
625	 8.70235477463136E-02 
626	 8.66447474224312E-02 
627	 8.63847812363533E-02 
628	 8.62250203814235E-02 
629	 8.61656588008886E-02 
630	 8.61151917843636E-02 
631	 8.57350929661787E-02 
632	 8.55129898376192E-02 
633	 8.55574100091486E-02 
634	 8.57047686556412E-02 
635	 8.53105454950574E-02 
636	 8.50035035551184E-02 
637	 8.51015596012914E-02 
638	 8.53269098144954E-02 
639	 8.50441225264356E-02 
640	 8.46663184462801E-02 
641	 8.46897841324656E-02 
642	 8.44980580419717E-02 
643	 8.43726403847863E-02 
644	 8.42362528051211E-02 
645	 8.37181332098587E-02 
646	 8.31814472948513E-02 
647	 8.28931748118908E-02 
648	 8.28784451848568E-02 
649	 8.26553494515228E-02 
650	 8.23777106401938E-02 
651	 8.20084883261079E-02 
652	 8.15065506382906E-02 
653	 8.10308638784921E-02 
654	 8.04314496166448E-02 
655	 7.96596876346588E-02 
656	 7.89349041908411E-02 
657	 7.82098760725676E-02 
658	 7.74091807347944E-02 
659	 7.65553909252584E-02 
660	 7.60755841318591E-02 
661	 0.075606282220175 
662	 7.49765316508586E-02 
663	 7.41971727386477E-02 
664	 7.36918810700443E-02 
665	 0.073347237059579 
666	 7.30491777326334E-02 
667	 7.28313652231854E-02 
668	 0.072643498723049 
669	 7.26219952073162E-02 
670	 7.28584445493184E-02 
671	 7.29323545618148E-02 
672	 7.28627548062826E-02 
673	 7.28658561295572E-02 
674	 7.32885081311234E-02 
675	 7.37841052894355E-02 
676	 7.41066234699235E-02 
677	 7.42751446661108E-02 
678	 7.49561589750553E-02 
679	 7.52641201412763E-02 
680	 7.53989788428465E-02 
681	 7.59628860179433E-02 
682	 7.65292395230484E-02 
683	 7.70810028011706E-02 
684	 7.75985880405329E-02 
685	 7.80633376323796E-02 
686	 7.88694897888049E-02 
687	 7.93185492249521E-02 
688	 7.89275240567185E-02 
689	 7.91395128092777E-02 
690	 7.93356702256551E-02 
691	 7.93169803633772E-02 
692	 7.91209468422937E-02 
693	 7.88052635182338E-02 
694	 7.86393594309623E-02 
695	 7.86374894301562E-02 
696	 7.84276507247161E-02 
697	 7.78863642686766E-02 
698	 7.71390275442986E-02 
699	 0.076484746446919 
700	 7.60291698347166E-02 
701	 7.57715165952375E-02 
702	 7.53786087331842E-02 
703	 7.43739757673147E-02 
704	 7.36411433958239E-02 
705	 7.30159727727639E-02 
706	 7.23241794672527E-02 
707	 7.17038447246785E-02 
708	 7.03812998354026E-02 
709	 6.90297728567598E-02 
710	 6.85187298170424E-02 
711	 6.74877532791638E-02 
712	 6.63570830924109E-02 
713	 0.065249271828136 
714	 6.38486788931364E-02 
715	 6.27645948346028E-02 
716	 6.16686256566684E-02 
717	 6.02733154786602E-02 
718	 0.059266600789856 
719	 5.81205661038424E-02 
720	 5.71845770970659E-02 
721	 5.65479226819236E-02 
722	 5.54405117004611E-02 
723	 5.44856527369109E-02 
724	 5.40231221494779E-02 
725	 5.31073457528021E-02 
726	 5.20265720804268E-02 
727	 5.11743534201176E-02 
728	 5.06946132264775E-02 
729	 4.99455727020097E-02 
730	 4.94967388211132E-02 
731	 0.049057216047213 
732	 4.82052275696507E-02 
733	 4.79725763978786E-02 
734	 4.77675375289606E-02 
735	 4.74585680823569E-02 
736	 4.75615079322272E-02 
737	 4.72305722422577E-02 
738	 4.68124280929643E-02 
739	 4.67312424797929E-02 
740	 4.68656976066286E-02 
741	 4.68514530344456E-02 
742	 4.66929765677334E-02 
743	 4.65917478876857E-02 
744	 4.66367168733411E-02 
745	 0.046696237954336 
746	 4.67198455127013E-02 
747	 4.67964968263708E-02 
748	 4.68505437958257E-02 
749	 0.046775427317204 
750	 0.046538876811019 
751	 4.63262644120532E-02 
752	 4.63639466576593E-02 
753	 4.64274412762895E-02 
754	 4.61584051615888E-02 
755	 4.63589174986385E-02 
756	 4.63602103217324E-02 
757	 4.59667757829117E-02 
758	 0.0458425894165 
759	 4.54682699960215E-02 
760	 4.51832013266571E-02 
761	 0.045701411418898 
762	 4.58095814062278E-02 
763	 4.55256786602881E-02 
764	 4.53364080207377E-02 
765	 4.55583715579548E-02 
766	 4.57744612930801E-02 
767	 4.59432888566146E-02 
768	 4.60542130993093E-02 
769	 4.60893749663769E-02 
770	 4.59791390355017E-02 
771	 4.59817971938807E-02 
772	 4.62055142408309E-02 
773	 4.61906312179814E-02 
774	 4.61900808141824E-02 
775	 4.60980860790708E-02 
776	 4.57940567932015E-02 
777	 4.59944338258969E-02 
778	 4.61977325202117E-02 
779	 4.62076922755078E-02 
780	 0.04623264188696 
781	 4.63937856260294E-02 
782	 4.63050306467103E-02 
783	 4.59176617270296E-02 
784	 4.61862046099624E-02 
785	 4.63935267542158E-02 
786	 4.64607961944587E-02 
787	 4.65028720987666E-02 
788	 4.63498109570045E-02 
789	 4.62692334078712E-02 
790	 4.63727009359509E-02 
791	 4.65870289593073E-02 
792	 4.67603426424503E-02 
793	 0.046784639813506 
794	 4.66945333749716E-02 
795	 4.67337059546163E-02 
796	 0.046793763132693 
797	 0.04674659250713 
798	 4.65638756226256E-02 
799	 4.65217267787106E-02 
800	 4.68440870387687E-02 
801	 4.71873798448248E-02 
802	 4.70219780499927E-02 
803	 4.71107034582367E-02 
804	 4.73830648590161E-02 
805	 4.75015784595661E-02 
806	 4.69890513787935E-02 
807	 4.70039264523733E-02 
808	 4.69898660704724E-02 
809	 4.65316297198745E-02 
810	 4.67054445557602E-02 
811	 4.61962303831676E-02 
812	 4.54670946286939E-02 
813	 4.57239727708985E-02 
814	 4.63202122594343E-02 
815	 4.59423493909594E-02 
816	 4.51248270277352E-02 
817	 4.56792322274984E-02 
818	 4.56940232314917E-02 
819	 4.52883836736203E-02 
820	 4.49409362279959E-02 
821	 4.53579571396438E-02 
822	 4.52075280173016E-02 
823	 4.49886114216036E-02 
824	 4.50209149227118E-02 
825	 4.39010480013452E-02 
826	 4.37044057458264E-02 
827	 4.39240277583718E-02 
828	 4.33857723840191E-02 
829	 4.37484344172884E-02 
830	 4.36415515757183E-02 
831	 4.29458118664335E-02 
832	 4.25675524335847E-02 
833	 4.30836246099692E-02 
834	 4.36930995785547E-02 
835	 4.37179706683019E-02 
836	 4.28543092399915E-02 
837	 4.25880240405317E-02 
838	 4.28739887631014E-02 
839	 4.32082210305529E-02 
840	 4.28285029403932E-02 
841	 4.28700720445731E-02 
842	 4.30670306468274E-02 
843	 4.29340594674028E-02 
844	 4.35285859809442E-02 
845	 4.34689371340426E-02 
846	 4.27523866250298E-02 
847	 4.23592309302391E-02 
848	 4.26287456612069E-02 
849	 0.042881113835037 
850	 4.27267035284555E-02 
851	 4.23714363878367E-02 
852	 4.26483677080762E-02 
853	 4.29906083888329E-02 
854	 4.30843267287003E-02 
855	 4.38781922854084E-02 
856	 4.33678421479258E-02 
857	 4.25395275566283E-02 
858	 4.26601899806634E-02 
859	 4.29776253495855E-02 
860	 4.29534180283257E-02 
861	 4.27852562001344E-02 
862	 4.29583936772822E-02 
863	 0.043124080193345 
864	 4.29138399337265E-02 
865	 4.26094500084054E-02 
866	 4.29270053160002E-02 
867	 4.25896932314827E-02 
868	 4.25041924057799E-02 
869	 4.27485404712875E-02 
870	 4.20269017047883E-02 
871	 4.20150418336355E-02 
872	 4.22320419910245E-02 
873	 4.21907117928651E-02 
874	 4.25327028269306E-02 
875	 4.18410489231993E-02 
876	 4.13376151598693E-02 
877	 0.042168859640734 
878	 4.21006016515903E-02 
879	 4.16894576776081E-02 
880	 4.14343267788599E-02 
881	 4.16291521714216E-02 
882	 4.15722226654528E-02 
883	 4.16124561386394E-02 
884	 4.16877611943618E-02 
885	 4.14902748678025E-02 
886	 4.17408410541265E-02 
887	 4.21285450405601E-02 
888	 4.21701591686004E-02 
889	 4.14225583749475E-02 
890	 4.08672903088136E-02 
891	 4.08359633697425E-02 
892	 4.12220405752543E-02 
893	 4.12563470481088E-02 
894	 4.05548807789716E-02 
895	 4.01457383800848E-02 
896	 4.07082197494234E-02 
897	 3.95288332726272E-02 
898	 3.94844065762592E-02 
899	 4.14045785193226E-02 
900	 4.34939580456407E-02 
901	 3.95727569673545E-02 
902	 0.038072252587902 
903	 3.93763801054195E-02 
904	 4.07994793208269E-02 
905	 4.10179972872083E-02 
906	 3.97415315869572E-02 
907	 3.84949801292428E-02 
908	 3.97659567018547E-02 
909	 3.99229084528885E-02 
910	 4.07635437900344E-02 
911	 4.16052374045771E-02 
912	 3.96926825287811E-02 
913	 3.95580307892204E-02 
914	 0.039851025212906 
915	 3.95502447139871E-02 
916	 3.90719558743906E-02 
917	 3.89647294580162E-02 
918	 3.89238242122059E-02 
919	 3.89898057387498E-02 
920	 3.97403553576373E-02 
921	 4.11743237117759E-02 
922	 4.04242320311214E-02 
923	 3.67382862595506E-02 
924	 3.52985092262385E-02 
925	 3.80006470978506E-02 
926	 4.04091480886236E-02 
927	 3.75431846137739E-02 
928	 0.034466373407639 
929	 3.44112266988473E-02 
930	 3.35633355424334E-02 
931	 2.36041079735474E-02 
932	 2.03893364535032E-02 
933	 3.20210066319383E-02 
934	 2.86614704402478E-02 
935	-8.18199682170716E-03 
936	 1.82164468425788E-02 
937	 3.47859076425525E-02 
938	 3.71584381222961E-02 
939	 3.85851369831111E-02 
940	 2.99147608845286E-02 
941	 3.85371126705371E-02 
942	 4.08805830454013E-02 
943	 4.2022308815939E-03 
944	 3.13868679402275E-02 
945	 4.13595962030429E-02 
946	 2.43923071402434E-02 
947	 1.94934541904109E-02 
948	 3.16203468394375E-02 
949	 3.17309599651098E-02 
950	 0.021630869213794 
951	 2.22428751423503E-02 
952	 4.20015086772791E-02 
953	 3.22414406254371E-02 
954	 8.40238097893318E-03 
955	 2.03210562643013E-02 
956	 3.40975456209358E-02 
957	 3.48971761672129E-02 
958	 2.91989962080882E-02 
959	 3.24992656042697E-02 
960	 4.00129348739105E-02 
961	 4.34477266676604E-02 
962	 4.24868143236112E-02 
963	 4.14817443139219E-02 
964	 4.36926626827827E-02 
965	 3.70285400917695E-02 
966	 2.95872897678066E-02 
967	 3.72001926604107E-02 
968	 3.63120490650611E-02 
969	 3.62040998194652E-02 
970	 3.86143568925448E-02 
971	 3.73903607865947E-02 
972	 3.23664795596823E-02 
973	 3.28799041633299E-02 
974	 3.80968978571721E-02 
975	 3.69724405152735E-02 
976	 2.93757912626306E-02 
977	 3.19916307570618E-02 
978	 4.12935840051213E-02 
979	 3.92462152639558E-02 
980	 3.82500292229055E-02 
981	 3.88981869020974E-02 
982	 0.039395466963216 
983	 3.80704876149959E-02 
984	 4.16079941518686E-02 
985	 4.13211230602313E-02 
986	 3.65408058054298E-02 
987	 3.35985723449476E-02 
988	 3.56779243981006E-02 
989	 3.53301339453976E-02 
990	 3.42463346692172E-02 
991	 3.92320033726016E-02 
992	 4.01863853186188E-02 
993	 4.05135055983831E-02 
994	 3.96669348503293E-02 
995	 3.56747521926217E-02 
996	 3.84093875603841E-02 
997	 4.14040026240216E-02 
998	 3.94971584018513E-02 
999	 3.22502576140331E-02 
1000	 3.34170501652718E-02 
1001	 4.25213571875365E-02 
1002	 4.25725181805467E-02 
1003	 4.25308355709489E-02 
1004	 4.19468715402156E-02 
1005	 4.17638382779407E-02 
1006	 4.17845815806942E-02 
1007	 4.13315653592058E-02 
1008	 4.14197324791676E-02 
1009	 4.16304101545529E-02 
1010	 0.041666742876447 
1011	 4.12864189773038E-02 
1012	 4.14283566834278E-02 
1013	 4.04943678146607E-02 
1014	 4.00034008061458E-02 
1015	 3.96319525028234E-02 
1016	 3.94161644612836E-02 
1017	 3.90153434660948E-02 
1018	 3.89713407930646E-02 
1019	 3.87751755951992E-02 
1020	 3.92769496670879E-02 
1021	 4.01818418912035E-02 
1022	 0.0416034170876 
1023	 4.37454691470534E-02 
1024	 4.35649706594525E-02 
1025	 4.29485088642274E-02 
1026	 0.043171195584191 
1027	 4.25010947434294E-02 
1028	 4.13785798179527E-02 
1029	 4.06642959368514E-02 
1030	 3.91526041564059E-02 
1031	 3.87212777396394E-02 
1032	 3.88778851294132E-02 
1033	 3.88682396729056E-02 
1034	 3.95253301757656E-02 
1035	 3.98876690510579E-02 
1036	 4.03245715899818E-02 
1037	 4.05266087310867E-02 
1038	 4.00833893951997E-02 
1039	 0.040583532424575 
1040	 4.04642120631305E-02 
1041	 4.03689103771087E-02 
1042	 4.11113007092212E-02 
1043	 4.32068006132496E-02 
1044	 4.27787407702571E-02 
1045	 4.16628790678485E-02 
1046	 4.08535779562654E-02 
1047	 3.76461671170188E-02 
1048	 3.72405160250312E-02 
1049	 3.90106367424614E-02 
1050	 3.97816431462706E-02 
1051	 4.12959275865852E-02 
1052	 4.22639551432737E-02 
1053	 4.31804919371372E-02 
1054	 4.34651054201237E-02 
1055	 4.33048491650859E-02 
1056	 0.043088795928198 
1057	 4.25498569906484E-02 
1058	 4.09382061886268E-02 
1059	 0.040688591532276 
1060	 4.09419343725651E-02 
1061	 4.10958626879104E-02 
1062	 4.22803288451012E-02 
1063	 4.20719988060226E-02 
1064	 4.06550006800891E-02 
1065	 4.03960984394177E-02 
1066	 3.99932631825166E-02 
1067	 3.98331521995246E-02 
1068	 4.05806197182736E-02 
1069	 4.10580564107379E-02 
1070	 4.17368857726647E-02 
1071	 4.17074038278917E-02 
1072	 0.041116019489216 
1073	 4.08550874760772E-02 
1074	 4.08392078435624E-02 
1075	 4.02873491075181E-02 
1076	 4.03176794587997E-02 
1077	 4.14238201184121E-02 
1078	 4.15760761856257E-02 
1079	 4.10719112642216E-02 
1080	 4.10842400416545E-02 
1081	 4.07157391488204E-02 
1082	 4.12218530593808E-02 
1083	 4.27779122743116E-02 
1084	 4.35714806355288E-02 
1085	 4.58912441390365E-02 
1086	 4.58776138764012E-02 
1087	 4.26442056345161E-02 
1088	 4.13315384525696E-02 
1089	 3.90548813354345E-02 
1090	 3.80425517025428E-02 
1091	 3.79235946896877E-02 
1092	 4.02000860563926E-02 
1093	 4.08992969547169E-02 
1094	 4.15877103361479E-02 
1095	 4.16187300910902E-02 
1096	 4.09088001861263E-02 
1097	 4.11407365586602E-02 
1098	 4.14700135286499E-02 
1099	 4.19171733749763E-02 
1100	 4.39298481344708E-02 
1101	 4.40706613408775E-02 
1102	 4.15658159305484E-02 
1103	 4.09676994139235E-02 
1104	 4.02236107755878E-02 
1105	 4.05757164843732E-02 
1106	 4.26378765208509E-02 
1107	 4.19088330115739E-02 
1108	 3.88988536774263E-02 
1109	 3.87368163535836E-02 
1110	 3.70798709454107E-02 
1111	 3.44078435145468E-02 
1112	 3.41109520122391E-02 
1113	 0.034147150663679 
1114	 3.21297785288088E-02 
1115	 3.27191421240438E-02 
1116	 0.033936307586749 
1117	 3.11793142091018E-02 
1118	 3.15122174964576E-02 
1119	 0.042745239046037 
1120	 4.57077341993918E-02 
1121	 2.66024275348741E-02 
1122	 3.95852325304002E-02 
1123	 8.68755684621093E-02 
1124	 8.32696951174379E-02 
1125	 7.91939769612079E-02 
1126	 9.02904496342018E-02 
1127	 2.29801696583999E-02 
1128	-3.17658692089877E-02 
1129	-2.62494587232938E-02 
1130	 1.69002425723317E-02 
1131	 2.41687123376988E-02 
1132	 6.40332620141568E-02 
1133	 6.26805574574027E-02 
1134	 2.33450836388748E-02 
1135	 1.65867194458957E-02 
1136	 1.13242484060319E-02 
1137	 1.30540685676927E-02 
1138	 2.41759979208005E-02 
1139	 3.25387295660587E-02 
1140	 3.58862609298623E-02 
1141	 0.047735117997301 
1142	 5.59704793142016E-02 
1143	 5.60599686361014E-02 
1144	 5.57807650500913E-02 
1145	 3.65575253814996E-02 
1146	 2.62559953307832E-02 
1147	 3.72967577721116E-02 
1148	 3.69648475857674E-02 
1149	 4.07617278012508E-02 
1150	 0.043964111463608 
1151	 0.037456931381288 
1152	 3.80955906363317E-02 
1153	 5.21106925753331E-02 
1154	 4.96343267066919E-02 
1155	 0.042017715303717 
1156	 3.41283472566446E-02 
1157	 3.35803726515189E-02 
1158	 3.71026302575529E-02 
1159	 4.32657419435794E-02 
1160	 4.50931383287272E-02 
1161	 4.24011793555285E-02 
1162	 0.038300539021895 
1163	 3.35061709879475E-02 
1164	 3.38639299855066E-02 
1165	 3.72641528898025E-02 
1166	 3.87543018413179E-02 
1167	 4.03581699154921E-02 
1168	 4.20603302772926E-02 
1169	 4.22669677965482E-02 
1170	 4.13303012627183E-02 
1171	 4.10453911017683E-02 
1172	 4.11605354765525E-02 
1173	 4.07894001296906E-02 
1174	 3.99196547672703E-02 
1175	 3.99779418798952E-02 
1176	 4.07059745034488E-02 
1177	 4.12797758805456E-02 
1178	 4.17286465773847E-02 
1179	 4.08945422282542E-02 
1180	 3.99967612968823E-02 
1181	 3.93860223235353E-02 
1182	 3.88711283805676E-02 
1183	 4.01546000051053E-02 
1184	 4.25607497493524E-02 
1185	 4.22124637600325E-02 
1186	 4.02651922960694E-02 
1187	 3.98451430855553E-02 
1188	 3.92630294729554E-02 
1189	 3.93088703494465E-02 
1190	 4.10372277868493E-02 
1191	 4.25752239892846E-02 
1192	 4.27234519118968E-02 
1193	 4.15481702009573E-02 
1194	 3.94986162784308E-02 
1195	 3.89074329257442E-02 
1196	 3.93037659853385E-02 
1197	 3.94828406665548E-02 
1198	 3.94375263002049E-02 
1199	 3.89971301651695E-02 
1200	 3.84456943914198E-02 
1201	 3.80343223346935E-02 
1202	 3.97779386902033E-02 
1203	 4.09548257710213E-02 
1204	 3.95393338952741E-02 
1205	 4.03537528826388E-02 
1206	 4.26053235274978E-02 
1207	 4.30575599199278E-02 
1208	 4.20500925349372E-02 
1209	 4.03237513444599E-02 
1210	 3.92313094629626E-02 
1211	 3.90857650655861E-02 
1212	 3.94918720581618E-02 
1213	 4.11171683371248E-02 
1214	 4.19067102982837E-02 
1215	 4.13680000757815E-02 
1216	 4.00045414036227E-02 
1217	 4.05244434174319E-02 
1218	 4.06301118171711E-02 
1219	 4.03384326751521E-02 
1220	 4.14645235638863E-02 
1221	 4.22824166556368E-02 
1222	 0.041457246385453 
1223	 3.97817232926135E-02 
1224	 3.87755079716076E-02 
1225	 3.87700888309723E-02 
1226	 0.039256487688057 
1227	 3.96373824064815E-02 
1228	 3.91787308794388E-02 
1229	 3.87758453071353E-02 
1230	 3.87753999017922E-02 
1231	 3.89723428151358E-02 
1232	 3.97650603199796E-02 
1233	 4.04923792289767E-02 
1234	 3.98093870972855E-02 
1235	 3.92891328863717E-02 
1236	 3.86015499881517E-02 
1237	 3.86549925327698E-02 
1238	 3.85848529573578E-02 
1239	 3.87360175710773E-02 
1240	 3.93996146506066E-02 
1241	 3.95353318102138E-02 
1242	 3.90968729122509E-02 
1243	 3.85535476409581E-02 
1244	 3.89280113575685E-02 
1245	 3.92257858951855E-02 
1246	 3.90632297440503E-02 
1247	 0.039685195380029 
1248	 3.99581133453176E-02 
1249	 3.92700258046861E-02 
1250	 3.79911304153646E-02 
1251	 3.72928145503175E-02 
1252	 3.66993035103816E-02 
1253	 3.62059425579535E-02 
1254	 3.78907399977705E-02 
1255	 3.91402038784962E-02 
1256	 3.93453630773792E-02 
1257	 3.94992030722867E-02 
1258	 3.98537509570265E-02 
1259	 3.88154913420533E-02 
1260	 3.81437926093908E-02 
1261	 3.81173342605001E-02 
1262	 3.83638045757658E-02 
1263	 3.85411744791087E-02 
1264	 0.038005399901198 
1265	 3.82096535401644E-02 
1266	 0.038494720121341 
1267	 3.73653804236911E-02 
1268	 3.69080140953181E-02 
1269	 3.75949046191608E-02 
1270	 3.78640764486688E-02 
1271	 3.82094470790847E-02 
1272	 3.85119022283983E-02 
1273	 3.72227913122026E-02 
1274	 3.63127961892434E-02 
1275	 3.60820661043832E-02 
1276	 3.63186976603957E-02 
1277	 3.78741900584895E-02 
1278	 3.81755814774671E-02 
1279	 3.64010622215845E-02 
1280	 0.036503460933945 
1281	 3.69692137919334E-02 
1282	 3.80840733281356E-02 
1283	 3.79533223435038E-02 
1284	 3.82756668607492E-02 
1285	 3.85820681976894E-02 
1286	 0.03828860403087 
1287	 3.79100802241408E-02 
1288	 3.75178587170833E-02 
1289	 3.76533559771384E-02 
1290	 3.72425994756691E-02 
1291	 3.69573444891458E-02 
1292	 3.80076322118429E-02 
1293	 3.81735858178896E-02 
1294	 3.73228646331902E-02 
1295	 3.80912053126237E-02 
1296	 0.03876422297618 
1297	 3.85634789451826E-02 
1298	 3.88229477973452E-02 
1299	 3.91411912555871E-02 
1300	 3.96938524425871E-02 
1301	 4.13939820095701E-02 
1302	 4.26534865768931E-02 
1303	 4.16250740210448E-02 
1304	 4.02115981116451E-02 
1305	 3.94076258272554E-02 
1306	 3.95423424771947E-02 
1307	 3.98047989432694E-02 
1308	 3.92063168888011E-02 
1309	 0.039938358514675 
1310	 3.92978275394466E-02 
1311	 3.55323468941739E-02 
1312	 3.37774335008338E-02 
1313	 3.31556153345453E-02 
1314	 3.35809152001643E-02 
1315	 3.53686439595667E-02 
1316	 3.58661014390897E-02 
1317	 3.65299115820422E-02 
1318	 0.03745458451353 
1319	 3.82038986601065E-02 
1320	 3.90258569435492E-02 
1321	 4.13728829729175E-02 
1322	 4.26886763207307E-02 
1323	 3.93500420119357E-02 
1324	 0.036275619092391 
1325	 3.91790150187718E-02 
1326	 0.039660649743633 
1327	 3.71084891958489E-02 
1328	 3.42297915057992E-02 
1329	 3.17150198661563E-02 
1330	 2.85804911880351E-02 
1331	 2.54953827994174E-02 
1332	 2.55431728345263E-02 
1333	 2.21882663827771E-02 
1334	 1.99762762698274E-02 
1335	 1.62359448242142E-02 
1336	 2.13923963540226E-02 
1337	 0.02315067872231 
1338	 1.62649611296631E-02 
1339	 1.45849956009863E-02 
1340	 2.92995642084002E-02 
1341	 2.72294124409452E-02 
1342	-2.73529859980179E-03 
1343	-8.60545621810566E-03 
1344	 1.44411620417957E-03 
1345	-1.08860997862641E-03 
1346	 1.32443583025413E-02 
1347	 1.83783862450926E-02 
1348	-1.44836396427362E-02 
1349	-4.89957790400766E-02 
1350	-0.084562912155737 
1351	-0.1124840462513 
1352	-0.123019319213283 
1353	-0.155643721629415 
1354	-0.069286066750775 
1355	-0.16432656448108 
1356	-0.416815257539117 
1357	-0.680904207992705 
1358	-0.7609735864322 
1359	-0.312063296434572 
1360	-6.03262345888178E-02 
1361	-2.56140604389909E-02 
1362	-6.52985232384599E-03 
1363	-0.392209757183713 
1364	-0.502091338050569 
1365	-0.315385874025319 
1366	-8.65547410645294E-02 
1367	-4.78143097232475E-02 
1368	-3.13604109318317E-02 
1369	 0.101490625733323 
1370	 0.194976212088014 
1371	-0.310297258634695 
1372	-0.808478476320875 
1373	 3.93222566789921E-02 
1374	 10.1448942854081 
1375	-3.53420744807691 
1376	-2.11939969565465 
1377	-1.17288432552324 
1378	-1.43152643268244 
1379	-1.09968460840593 
1380	-0.919676994013248 
1381	-2.78518308090682 
1382	-3.98678033586374 
1383	-2.82631687249024 
1384	-2.0949177225694 
1385	-1.17715048245924 
1386	-1.18576885366666 
1387	-1.71311108235331 
1388	-0.785920903830055 
1389	-1.63372993487969 
1390	-1.56729080738433 
1391	 0.945947101565808 
1392	 0.784987081733317 
1393	 0.384996578277347 
1394	 0.517987114557312 
1395	 0.401156172108351 
1396	 0.04001808619328 
1397	 1.52241086452964E-02 
1398	-47.7155901345212 
1399	 0.57208782910912 
1400	-9.34015834579277E-02 
1401	-5.61097996418305E-02 
1402	-27.3746302187248 
1403	-1.27707737508954 
1404	-8.2663410607522 
1405	-86.1907618688761 
1406	 0.710650341016072 
1407	 0.912392848317718 
1408	 1.0038356289774 
1409	 14.8006232996921 
1410	-10.8678872177639 
1411	-26.7973734260045 
1412	 4.56849011845184 
1413	 4.14647765067407 
1414	 2.91479018340927 
1415	 1.46746785861824 
1416	 4.27254615195115 
1417	 5.15350313974492 
1418	-2.58318319273092 
1419	-2.57116701756721 
1420	-6.00347041801402 
1421	-4.68706910424056 
1422	-1.25746866860934 
1423	-1.18962807839881 
1424	-3.39533138389178 
1425	-2.84316081631324 
1426	-0.760560937667732 
1427	-0.896922719061396 
1428	-0.885321345607711 
1429	-0.64408909545075 
1430	-0.625536812932811 
1431	-0.731685182760294 
1432	-0.791796487378693 
1433	-0.59970749305742 
1434	-0.469838838713813 
1435	-0.549463387760358 
1436	-0.51497370316085 
1437	-0.159046294943731 
1438	-0.498398193961409 
1439	-1.250979071255 
1440	-1.22170539441545 
1441	-1.20518313536722 
1442	-0.933303722603527 
1443	-0.53702502650512 
1444	-0.235282157422401 
1445	-4.63706477029552E-02 
1446	 4.34970152743104E-02 
1447	 0.131989816968254 
1448	 0.242437464187777 
1449	 0.256896103959668 
1450	 0.217956933271676 
1451	 0.172995365570333 
1452	 7.89333711759801E-02 
1453	 9.81440755364375E-02 
1454	 6.65725163322961E-02 
1455	 6.58267862818168E-02 
1456	 6.44127974245525E-02 
1457	 4.10431782725826E-02 
1458	 3.57659169831571E-02 
1459	 6.67788953225951E-02 
1460	 8.28913739301875E-02 
1461	 8.38584460995296E-02 
1462	 0.073016806800221 
1463	 6.14732191893209E-02 
1464	 6.73478889524185E-02 
1465	 6.88586116407409E-02 
1466	 5.65738887558723E-02 
1467	 6.62050837086157E-02 
1468	 4.06756443655983E-02 
1469	-5.39974994492961E-02 
1470	-7.03769696062485E-02 
1471	-4.59940162204769E-02 
1472	-6.95523694370538E-02 
1473	-0.116581881379239 
1474	-5.59146570249908E-02 
1475	 5.15637432910693E-02 
1476	 6.02418439203441E-02 
1477	 0.10855460382582 
1478	 0.10743599330312 
1479	-2.25670302456337E-02 
1480	-3.49350471780319E-02 
1481	 1.74538208259198E-02 
1482	 4.55133505082131E-02 
1483	 0.134274177133654 
1484	 0.113119429698056 
1485	 2.45259377000982E-02 
1486	 1.37396611380739E-02 
1487	-2.21144790927763E-03 
1488	-9.47349705701175E-03 
1489	 1.52909556388331E-02 
1490	 0.028054182687332 
1491	 2.64262659275106E-02 
1492	 0.027622996160763 
1493	 4.13389697000997E-02 
1494	 4.28325913346929E-02 
1495	 3.09351977301154E-02 
1496	 2.92831413707236E-02 
1497	 0.028766093673548 
1498	 3.12567535118242E-02 
1499	 3.92834075603751E-02 
1500	 4.25774509190681E-02 
1501	 4.64790419185273E-02 
1502	 0.047766567236406 
1503	 4.74567790486431E-02 
1504	 4.57686622148403E-02 
1505	 4.19171843180773E-02 
1506	 3.78865763730405E-02 
1507	 3.47886932800339E-02 
1508	 3.12336703957984E-02 
1509	 0.034507842905537 
1510	 3.85074292691199E-02 
1511	 3.61428297323716E-02 
1512	 3.57757473150955E-02 
1513	 3.33944904616614E-02 
1514	 2.94444019178159E-02 
1515	 3.09060150039125E-02 
1516	 3.27401126669595E-02 
1517	 3.51238188658667E-02 
1518	 0.038449003523951 
1519	 4.04273893493521E-02 
1520	 4.18236689734074E-02 
1521	 4.18109830673371E-02 
1522	 3.97449611331313E-02 
1523	 4.05817252619654E-02 
1524	 4.23324149448324E-02 
1525	 4.27040119379583E-02 
1526	 4.23440904842541E-02 
1527	 3.84032372612163E-02 
1528	 3.58937656740554E-02 
1529	 3.73682250579519E-02 
1530	 3.72011013227555E-02 
1531	 3.65609833989844E-02 
1532	 3.93610420640691E-02 
1533	 3.88720881781375E-02 
1534	 3.57449391446589E-02 
1535	 3.61362939208651E-02 
1536	 3.65774711536604E-02 
1537	 3.67694429372746E-02 
1538	 3.71859610653251E-02 
1539	 3.71304559509701E-02 
1540	 0.036327004277838 
1541	 0.032906283429184 
1542	 0.032972309881209 
1543	 3.64078327116158E-02 
1544	 3.66494550047524E-02 
1545	 3.79979820133622E-02 
1546	 3.90904222969338E-02 
1547	 0.03690846877216 
1548	 0.035458841023818 
1549	 3.46403863732906E-02 
1550	 3.41635310290183E-02 
1551	 3.34089851824764E-02 
1552	 3.12972307202064E-02 
1553	 0.030304902028779 
1554	 0.030566239142298 
1555	 3.24749769930942E-02 
1556	 0.035131990356088 
1557	 3.56820018247024E-02 
1558	 3.66402562460638E-02 
1559	 3.76470626845944E-02 
1560	 3.74842157281234E-02 
1561	 0.037371930067284 
1562	 3.77174744706459E-02 
1563	 3.90271835819348E-02 
1564	 3.84096902076027E-02 
1565	 3.68697832615409E-02 
1566	 3.77054901559565E-02 
1567	 3.69748719000918E-02 
1568	 3.45537943612594E-02 
1569	 0.034611213703796 
1570	 3.51226966219466E-02 
1571	 3.55498304502318E-02 
1572	 3.73280476566134E-02 
1573	 3.87948618074506E-02 
1574	 3.90473224269425E-02 
1575	 3.71324912797745E-02 
1576	 3.64628112573759E-02 
1577	 3.79447157425195E-02 
1578	 3.77676046683933E-02 
1579	 4.00653358002767E-02 
1580	 4.28568348582146E-02 
1581	 4.13305039851457E-02 
1582	 4.06047144550835E-02 
1583	 4.00652572116932E-02 
1584	 3.79168944810794E-02 
1585	 0.038336382669554 
1586	 0.038744073032566 
1587	 3.78966579996685E-02 
1588	 3.82397512508856E-02 
1589	 3.79443767798181E-02 
1590	 0.039029130447574 
1591	 4.08336223151266E-02 
1592	 3.85724385239261E-02 
1593	 3.51727697670168E-02 
1594	 3.42685003787127E-02 
1595	 3.35638626779643E-02 
1596	 3.39577498842122E-02 
1597	 3.61578173950253E-02 
1598	 3.63721271449673E-02 
1599	 0.035771765371387 
1600	 3.59555426795982E-02 
1601	 3.70122741959488E-02 
1602	 3.78549348225529E-02 
1603	 3.69780344829858E-02 
1604	 0.037000865680555 
1605	 3.82079149778648E-02 
1606	 3.86227219013948E-02 
1607	 0.037940598438707 
1608	 3.78431814416841E-02 
1609	 3.73510278760377E-02 
1610	 3.53703027728817E-02 
1611	 3.63874703916144E-02 
1612	 3.88430039455307E-02 
1613	 3.68713816713252E-02 
1614	 0.036454332107766 
1615	 3.90539865838438E-02 
1616	 3.81401010721915E-02 
1617	 3.90437764438803E-02 
1618	 4.08906232919483E-02 
1619	 3.94474530762616E-02 
1620	 3.95738514917165E-02 
1621	 3.97845287002441E-02 
1622	 3.82085346094404E-02 
1623	 3.67764219787252E-02 
1624	 3.67576482246592E-02 
1625	 3.71603714480983E-02 
1626	 3.67057981300187E-02 
1627	 3.84687325125445E-02 
1628	 3.98638476202899E-02 
1629	 3.91103318707984E-02 
1630	 3.97310336810392E-02 
1631	 3.95890159868506E-02 
1632	 3.79019130764478E-02 
1633	 3.61151223853355E-02 
1634	 3.66440995192481E-02 
1635	 3.83286538727785E-02 
1636	 0.037528077802577 
1637	 3.74693835115305E-02 
1638	 3.79182951412791E-02 
1639	 3.79556574006354E-02 
1640	 3.80714823011882E-02 
1641	 3.68389929761221E-02 
1642	 3.59391925451546E-02 
1643	 3.44272227875887E-02 
1644	 3.45608746662142E-02 
1645	 3.76168435629245E-02 
1646	 3.78291227614982E-02 
1647	 3.77323448602759E-02 
1648	 3.88296914593123E-02 
1649	 3.69456268230535E-02 
1650	 3.65709358755328E-02 
1651	 3.86471070862751E-02 
1652	 3.87221231535334E-02 
1653	 4.00358707345656E-02 
1654	 0.040724905682043 
1655	 4.10146171521353E-02 
1656	 0.040121151095438 
1657	 3.75450198562888E-02 
1658	 3.79599266304156E-02 
1659	 4.01959188364807E-02 
1660	 3.96773008063263E-02 
1661	 3.86376612743182E-02 
1662	 3.76400112416621E-02 
1663	 3.43165752031249E-02 
1664	 3.43537032456801E-02 
1665	 3.76386232355132E-02 
1666	 3.82818139681903E-02 
1667	 3.86440334704774E-02 
1668	 3.46576901621099E-02 
1669	 0.033576606287653 
1670	 3.55024669251219E-02 
1671	 3.68568379206737E-02 
1672	 3.64170995667486E-02 
1673	 3.75619214292562E-02 
1674	 4.02383771072198E-02 
1675	 3.90176813118164E-02 
1676	 0.03999251232363 
1677	 4.03465618599106E-02 
1678	 3.54113120044683E-02 
1679	 3.84502286330523E-02 
1680	 4.30094083651046E-02 
1681	 3.93189449525474E-02 
1682	 3.85291003730022E-02 
1683	 3.78300983866486E-02 
1684	 3.37466004390956E-02 
1685	 3.60103162391196E-02 
1686	 4.11393154099149E-02 
1687	 4.19019101954126E-02 
1688	 0.040374880949726 
1689	 3.78401694023514E-02 
1690	 3.37060158535686E-02 
1691	 3.12569206921228E-02 
1692	 3.41950959268821E-02 
1693	 3.81942455782331E-02 
1694	 3.95733515223931E-02 
1695	 3.64570317406759E-02 
1696	 2.89613777392179E-02 
1697	 0.026868713807321 
1698	 2.93234785894962E-02 
1699	 0.032031170561755 
1700	 3.74975200826092E-02 
1701	 3.82935950297403E-02 
1702	 3.48920735431179E-02 
1703	 3.47645882927856E-02 
1704	 3.44135154282215E-02 
1705	 3.40966984752144E-02 
1706	 3.79821425467088E-02 
1707	 4.06013380937467E-02 
1708	 0.038792774388053 
1709	 3.82471006434903E-02 
1710	 3.72553078840056E-02 
1711	 3.44176510544499E-02 
1712	 3.39750860207375E-02 
1713	 3.31693884997502E-02 
1714	 3.29901253947564E-02 
1715	 3.48594670054776E-02 
1716	 3.38816863342574E-02 
1717	 3.29567456163353E-02 
1718	 3.59983380852034E-02 
1719	 3.66140779980166E-02 
1720	 3.64041774846371E-02 
1721	 3.94598652629045E-02 
1722	 4.06623537260596E-02 
1723	 3.66852717637671E-02 
1724	 3.43397468513096E-02 
1725	 0.031350395822533 
1726	 2.72477286585022E-02 
1727	 2.92520685331361E-02 
1728	 3.27460239578753E-02 
1729	 3.50040822352471E-02 
1730	 3.67389495197233E-02 
1731	 3.48396295416618E-02 
1732	 3.27161286794134E-02 
1733	 3.54272379754055E-02 
1734	 3.82710743738079E-02 
1735	 3.70211449324073E-02 
1736	 3.49861813772319E-02 
1737	 3.58960410402744E-02 
1738	 3.43606354597132E-02 
1739	 3.27385174248013E-02 
1740	 3.60940127014664E-02 
1741	 3.14463322848123E-02 
1742	 2.95880562417271E-02 
1743	 0.040898749793057 
1744	 4.46518540097519E-02 
1745	 4.51691633725937E-02 
1746	 4.15336954481058E-02 
1747	 3.65963412986562E-02 
1748	 3.29314591556986E-02 
1749	 3.22824975241202E-02 
1750	 3.03089756048125E-02 
1751	 3.04355814866437E-02 
1752	 3.31367711650387E-02 
1753	 0.035723803527136 
1754	 4.09100562702887E-02 
1755	 4.07646558891991E-02 
1756	 0.038813100198985 
1757	 3.31622928109765E-02 
1758	 3.14060658382477E-02 
1759	 3.71973101082087E-02 
1760	 0.035173293540886 
1761	 3.28053713397079E-02 
1762	 2.99165728410024E-02 
1763	 2.68153736990162E-02 
1764	 3.80236807331142E-02 
1765	 4.47397091676784E-02 
1766	 4.56696278823372E-02 
1767	 4.47495080288498E-02 
1768	 0.030328995169297 
1769	 2.36219805339926E-02 
1770	 3.01756030121571E-02 
1771	 3.40803357849666E-02 
1772	 3.62880608285719E-02 
1773	 4.13384505821159E-02 
1774	 4.09585090389335E-02 
1775	 4.17308846182425E-02 
1776	 3.90520446793908E-02 
1777	 2.13518021807862E-02 
1778	 1.93954269762963E-02 
1779	 2.94730443104422E-02 
1780	 2.82931668375253E-02 
1781	 2.88690021961544E-02 
1782	 3.19306024996311E-02 
1783	 3.00485435914845E-02 
1784	 3.45065569392563E-02 
1785	 6.01055665650477E-02 
1786	 0.059189873134051 
1787	 0.027787565354763 
1788	 1.85993557848583E-02 
1789	 5.20007049156225E-03 
1790	 6.22347763700176E-03 
1791	 2.69491818907293E-02 
1792	-9.96947923573697E-04 
1793	-2.28370896794471E-02 
1794	-9.31226070911559E-03 
1795	-2.44929391743992E-02 
1796	-2.59641038804409E-02 
1797	 4.91096039198827E-02 
1798	 0.046620175171824 
1799	-1.25702636728709E-02 
1800	-0.127502281741991 
1801	-0.139956368315248 
1802	-4.6657459502338E-03 
1803	 5.62624779071168E-02 
1804	 0.300345160104962 
1805	 0.399625491986429 
1806	 0.23063290717806 
1807	-1.02414876467844E-02 
1808	-0.615341230814825 
1809	-0.824341193832808 
1810	-1.14193232918075 
1811	-1.00846143530682 
1812	 0.577783947292038 
1813	 0.590506004951192 
1814	-4.88982217850076E-02 
1815	 6.23431779898964E-02 
1816	 0.147428815267984 
1817	 0.706382434818799 
1818	 0.766761334790458 
1819	 2.69757850627074E-02 
1820	-0.321167180483978 
1821	-1.39514550402454 
1822	-3.14147365442596 
1823	-1.86269888374585 
1824	-1.50865192264914 
1825	-0.347378918339122 
1826	-0.12335006870204 
1827	 0.248233422546826 
1828	 0.481078990459873 
1829	-4.81775273726079E-03 
1830	-8.83101986280761E-02 
1831	 1.56737193175958 
1832	 5.7128333579367 
1833	 4.23958487935785 
1834	 10.1232984632205 
1835	-42.7419123960633 
1836	-20.2496374558453 
1837	-4.74543624473721 
1838	-3.68502932725448 
1839	-4.34346386545255 
1840	-20.2182180739739 
1841	 0.335942297834341 
1842	-0.278494035836543 
1843	-0.622929026745712 
1844	-0.87426594025258 
1845	-1.95402674400648 
1846	 2.41172326026416 
1847	 2.41395065769737 
1848	-4.68839160373008 
1849	-3.62599109815174 
1850	-7.27981358222956 
1851	-7.59382800751644 
1852	-1.2674928543755 
1853	-0.159752924455309 
1854	-0.189515207958349 
1855	-0.334914817098207 
1856	-0.417908872440645 
1857	-0.907227890704254 
1858	-1.01357407357209 
1859	-0.932283709471216 
1860	-0.719640182656471 
1861	-0.436216548635724 
1862	 0.244358398565989 
1863	 0.951971244158234 
1864	 2.8687562139893 
1865	 7.69819729170195 
1866	-22.7098052290066 
1867	-9.6030717799899 
1868	-13.5181814305176 
1869	-39.5357262108287 
1870	 39.2644815472785 
1871	 1.66206503082192 
1872	-0.68088567349463 
1873	-0.610479305044024 
1874	-0.525151547960553 
1875	-0.343635689452039 
1876	-0.377196452919429 
1877	-0.494027152454678 
1878	-0.521983842631745 
1879	-0.801809543776293 
1880	-0.886667237831185 
1881	-0.686616745787452 
1882	-0.325641232691483 
1883	-0.380928850052084 
1884	-0.588881923250669 
1885	 0.640017981717301 
1886	 7.89820002467606 
1887	-1.38991415821365 
1888	 3.20779501290398 
1889	 1.03399953930664 
1890	 0.231003375628399 
1891	 0.149869992093853 
1892	-6.27229437560034E-02 
1893	 9.80074667569626E-02 
1894	 2.29020659194931 
1895	 3.40608289539839 
1896	 2.55585493684564 
1897	 1.41328890652197 
1898	 1.28408439986412 
1899	 1.0788234160196 
1900	 1.34199484161195 
1901	 0.579057065235595 
1902	 1.46519129768986 
1903	 3.30241148641652 
1904	 3.14909318546657 
1905	-1.24586919698615 
1906	-0.441160934615334 
1907	 0.614072612207242 
1908	 0.83955491190402 
1909	 1.21418647701104 
1910	 2.3119326158235 
1911	-2.45698569243743 
1912	-1.18819311754435 
1913	 0.51085992927649 
1914	-3.482693807817 
1915	-3.51419980644148 
1916	-3.71030759118974 
1917	-4.5636488030606 
1918	-5.75852663419403 
1919	 1.70794522712568 
1920	 0.619003239080039 
1921	 1.34971670062584 
1922	 1.18058274055787 
1923	 1.43803711965308 
1924	 1.46635861363858 
1925	 0.661860108601936 
1926	 0.497783915059901 
1927	 0.353363293917201 
1928	-0.266219642414336 
1929	-4.76251345717775 
1930	 1.1164671602856 
1931	 1.09705043906119 
1932	 0.545769828876529 
1933	 0.108586272124199 
1934	-0.250444949682048 
1935	-4.49597475519282 
1936	-14.3009811189592 
1937	-3.04440565708538 
1938	-1.52905451988527 
1939	-1.18250217432364 
1940	-0.604510999793576 
1941	-0.652987615866856 
1942	-0.42249657779552 
1943	-0.110626319998815 
1944	 0.199753871943297 
1945	 0.876359504190733 
1946	 1.98970390800626 
1947	-114.921658523301 
1948	 2.68151529795457 
1949	 1.43364243377628 
1950	 1.56073586844264 
1951	 0.719338483752459 
1952	 0.648976812485325 
1953	 1.17952448538582 
1954	-1.25662304757303 
1955	-1.12197286214005 
1956	-1.04038410208168 
1957	-1.03455538401723 
1958	-0.560107334782715 
1959	-0.109706798333866 
1960	 6.72196891370027E-02 
1961	 6.43237989783032E-03 
1962	-3.35122471542756E-02 
1963	 8.17828631009733E-02 
1964	 1.29876503903984E-02 
1965	 0.18108905739395 
1966	 0.116834165249704 
1967	-0.398391829792536 
1968	-0.73151339580019 
1969	-0.125370528439473 
1970	-6.99058193765648E-02 
1971	 0.268385020780601 
1972	 0.330433181523131 
1973	 0.214821906174495 
1974	 0.029408466648505 
1975	-0.160054488337598 
1976	-0.160297218035841 
1977	-0.156346082272554 
1978	-7.18870794128488E-02 
1979	-2.42145747944696E-02 
1980	 3.01123595302626E-02 
1981	 0.066211813780399 
1982	 0.143742479484735 
1983	 0.187865950733822 
1984	 0.212473878670445 
1985	 0.109955919575495 
1986	-0.048914321985373 
1987	-9.53037042599194E-02 
1988	-3.40949015957526E-02 
1989	 0.023887753547093 
1990	 0.10843578870763 
1991	 0.105916334704181 
1992	 3.96680526431418E-02 
1993	-2.14849819477779E-02 
1994	-4.08375358515527E-02 
1995	 7.46198684998167E-03 
1996	-1.20048705362655E-02 
1997	 3.43558560150982E-02 
1998	 3.31633328118418E-02 
1999	-0.106811079038309 
2000	-0.197522080941944 
2001	-0.408672951705609 
2002	-0.491417287958032 
2003	-0.505559975772764 
2004	-0.491835336288327 
2005	-0.415465011442277 
2006	-0.277873569104016 
2007	-0.106826082605338 
2008	-2.19694337739721E-02 
2009	-5.95690877313736E-02 
2010	-0.412581261244898 
2011	-0.587458238803253 
2012	-1.1321608972729 
2013	-0.642146055371341 
2014	-0.29973454625971 
2015	-0.241850000230915 
2016	-0.187723543046204 
2017	-0.155587051967701 
2018	-0.230819766577402 
2019	-7.58208283851201E-02 
2020	 4.24547100723259E-02 
2021	-2.8863910347105E-03 
2022	 6.9459814450998E-03 
2023	-8.22807509041492E-03 
2024	-2.92886030328682E-02 
2025	-6.54707368200978E-02 
2026	-5.48710013210665E-02 
2027	-1.25904121984501E-02 
2028	-3.79173513973312E-02 
2029	-6.48240953627468E-02 
2030	-3.62804021724645E-02 
2031	-8.97098661158614E-03 
2032	 5.90901349817798E-03 
2033	 4.75797860930319E-02 
2034	 7.09009020608427E-02 
2035	 6.52520320337391E-02 
2036	 5.73749444787268E-02 
2037	 7.44300706383532E-02 
2038	 9.07788422526874E-02 
2039	 7.74376880538461E-02 
2040	 4.74456976911794E-02 
2041	 4.20318618204373E-02 
2042	 3.11579925781065E-03 
2043	-2.39831058393732E-03 
2044	 2.92065595927348E-02 
2045	 5.51895434457463E-02 
2046	 5.87796037930176E-02 
2047	 8.19523016874583E-02 
2048	 8.76978341606196E-02 
2049	 7.72213058776052E-02 
2050	 7.18968605462737E-02 
2051	 8.88985096552608E-02 
2052	 0.130056503763241 
2053	 0.126868049899773 
2054	 8.73094375776682E-02 
2055	 2.85248697233941E-02 
2056	 1.48242768873987E-02 
2057	 9.02812207148956E-03 
2058	 6.59185881494913E-03 
2059	 7.39337189540817E-02 
2060	 7.83244834230155E-02 
2061	 3.45686075664978E-02 
2062	-2.17316747058714E-02 
2063	 1.04402162818184E-03 
2064	-4.45376095747272E-03 
2065	-3.17690887680789E-02 
2066	-1.79319210587799E-02 
2067	-2.35231232759829E-02 
2068	-3.25239395654364E-02 
2069	-3.65569165000544E-03 
2070	 3.00992144292003E-02 
2071	 4.31659056431344E-02 
2072	 4.83587522321694E-02 
2073	 4.48273643099045E-02 
2074	 1.88528607437591E-02 
2075	 0.022096925381356 
2076	 2.96714438847618E-02 
2077	 4.01397142369451E-02 
2078	 7.76800476886987E-02 
2079	 0.089010711819977 
2080	 9.25611975126977E-02 
2081	 7.63593299855268E-02 
2082	 7.31531520419603E-02 
2083	 6.18827134909348E-02 
2084	 3.80599392753247E-02 
2085	 3.12553934813961E-02 
2086	 3.65665752270031E-02 
2087	 4.84405654484705E-02 
2088	 7.37050317619053E-02 
2089	 8.88211453993411E-02 
2090	 8.16247526229823E-02 
2091	 5.52349635827945E-02 
2092	 3.37951180090536E-02 
2093	-1.15922777940062E-03 
2094	-1.54844761875647E-02 
2095	-2.67954347604306E-02 
2096	-2.86595483077638E-02 
2097	-1.35701288623153E-02 
2098	-7.84084887041353E-03 
2099	 4.44092839247798E-03 
2100	-7.91130942352202E-04 
2101	 2.93455806045827E-03 
2102	 1.55706060419748E-02 
2103	 2.24471984348935E-02 
2104	 5.63062640264453E-02 
2105	 7.85690305223368E-02 
2106	 7.01548205413431E-02 
2107	 7.06327092196783E-02 
2108	 5.55275756165879E-02 
2109	 4.05961449199409E-02 
2110	 4.67788853527527E-02 
2111	 4.42802100559426E-02 
2112	 3.17511431980775E-02 
2113	 2.23502491721116E-02 
2114	-1.35037694982449E-03 
2115	-7.0177232133973E-04 
2116	 2.13257891846198E-02 
2117	 3.38603341218617E-02 
2118	 6.25814119083109E-02 
2119	 7.35018526755248E-02 
2120	 7.23100524158115E-02 
2121	 5.59961976322472E-02 
2122	 6.27038013178069E-02 
2123	 0.054146934216313 
2124	 5.76728573644109E-02 
2125	 6.44143244461395E-02 
2126	 3.16818384610424E-02 
2127	 1.26710205748564E-02 
2128	 2.05560138755245E-02 
2129	 9.22655967876687E-03 
2130	 1.97686655843397E-02 
2131	 5.76807775780835E-02 
2132	 6.44454348496339E-02 
2133	 6.68467200038074E-02 
2134	 6.71225873643065E-02 
2135	 6.26832457657429E-02 
2136	 5.63965751493967E-02 
2137	 4.33823022949015E-02 
2138	 3.91912383931289E-02 
2139	 3.93995326363817E-02 
2140	 3.79012425650476E-02 
2141	 0.039606837854972 
2142	 3.55197862285067E-02 
2143	 2.96113615572318E-02 
2144	 1.94356234189556E-02 
2145	 9.58834391177707E-03 
2146	 1.46519435928012E-02 
2147	 2.20528302464743E-02 
2148	 1.88273104448556E-02 
2149	 1.16326027026622E-02 
2150	 1.08678486658134E-02 
2151	 2.59113073719161E-02 
2152	 4.96928229156558E-02 
2153	 5.66791796430593E-02 
2154	 5.46316141968414E-02 
2155	 0.031451804771662 
2156	-5.39485740597597E-03 
2157	-1.15402104761711E-02 
2158	 8.01288252434605E-03 
2159	 1.09829656494821E-02 
2160	 2.33953078159011E-02 
2161	 2.56350785777664E-02 
2162	 1.12447814595474E-02 
2163	 1.92590054123619E-02 
2164	 3.62770797086279E-02 
2165	 4.27149289181104E-02 
2166	 6.46001159492038E-02 
2167	 6.38515575238571E-02 
2168	 3.81128982374076E-02 
2169	 0.033008544845692 
2170	 3.46198806240693E-02 
2171	 2.41514350353359E-02 
2172	 1.97318364340371E-02 
2173	 2.23089877126173E-02 
2174	 2.19066292700741E-02 
2175	 2.15324058214884E-02 
2176	 3.38352596678644E-02 
2177	 0.03579311451306 
2178	 0.034473144411341 
2179	 4.40390110464984E-02 
2180	 4.64759023014393E-02 
2181	 3.56819911529904E-02 
2182	 2.60468219335731E-02 
2183	 3.05032244193005E-02 
2184	 3.19796990234269E-02 
2185	 2.42908098070742E-02 
2186	 2.02733364706673E-02 
2187	 1.55985962693321E-02 
2188	 1.09468457454736E-02 
2189	 4.01720099397691E-03 
2190	 1.61520196308478E-03 
2191	 2.68794819723706E-03 
2192	 1.44532127250682E-03 
2193	-2.37084418470516E-03 
2194	 3.29448977914817E-03 
2195	 1.47884365525514E-02 
2196	 2.24713678380706E-02 
2197	 0.042224842537648 
2198	 5.05164475768304E-02 
2199	 5.30462972507826E-02 
2200	 5.13475776424897E-02 
2201	 3.95482667537754E-02 
2202	 1.01311119615007E-02 
2203	-7.72776128610504E-03 
2204	-1.05067816895416E-02 
2205	-1.26156260017142E-02 
2206	-1.28716722136878E-02 
2207	-4.17866621219801E-04 
2208	 1.12984243944513E-02 
2209	 2.80828251398345E-02 
2210	 4.54840808326076E-02 
2211	 3.28644561513234E-02 
2212	 1.97968553621566E-02 
2213	 2.44241085720295E-02 
2214	 2.68022539149142E-02 
2215	 2.79428840514084E-02 
2216	 3.19168555010807E-02 
2217	 2.91251795783331E-02 
2218	 1.34111911868347E-03 
2219	-8.85379972218062E-03 
2220	-6.05211946029087E-03 
2221	-5.45914044848807E-03 
2222	-8.15028252667483E-03 
2223	-4.95601259202845E-03 
2224	 1.01799486016413E-02 
2225	 1.73494550530658E-02 
2226	 2.03879728693011E-02 
2227	 2.60915533231243E-02 
2228	 3.77633898573691E-02 
2229	 3.29131139835553E-02 
2230	 6.80438240865362E-03 
2231	 5.59588670772633E-03 
2232	 2.20536606305589E-03 
2233	 1.48640329501615E-02 
2234	 6.22922777102086E-02 
2235	 0.089733337257739 
2236	 0.073141574640834 
2237	 6.17865714017908E-02 
2238	 5.50510101299897E-02 
2239	 2.58123230029342E-02 
2240	 3.78904522742678E-02 
2241	 0.058710372590039 
2242	 2.43106438179635E-02 
2243	 2.64737690752429E-02 
2244	 4.02912001568023E-02 
2245	 7.03922750741864E-03 
2246	-6.82808886473622E-03 
2247	 2.93412909902952E-03 
2248	 8.8127355303011E-03 
2249	 1.56224660910594E-02 
2250	 3.34672474813987E-02 
2251	 3.40891837154442E-02 
2252	 0.020086451247145 
2253	 1.62715693194719E-02 
2254	-4.79097739033384E-03 
2255	-2.22749293450794E-02 
2256	-2.77055029540743E-02 
2257	-2.02534864533103E-02 
2258	 5.75271098452208E-03 
2259	 2.92631969511104E-02 
2260	 5.95836141916137E-02 
2261	 0.101274789137759 
2262	 0.115627076873129 
2263	 0.129704158826194 
2264	 0.135080945079173 
2265	 0.10619638430873 
2266	 9.49111965529218E-02 
2267	 8.13817655971313E-02 
2268	 7.96630763378884E-02 
2269	 9.18483905544028E-02 
2270	 0.101515578704424 
2271	 0.134483392909205 
2272	 0.138864790404374 
2273	 0.112383433234106 
2274	 0.1028180812338 
2275	 8.10165289372656E-02 
2276	 8.29043255980501E-02 
2277	 0.125468299578163 
2278	 0.113961272452382 
2279	 7.92072149374186E-02 
2280	 5.72987211730074E-02 
2281	 9.39265337634326E-03 
2282	-1.80648830500204E-02 
2283	-2.53815699185018E-02 
2284	-1.52683320453438E-02 
2285	-3.12751198324011E-02 
2286	-0.029832319340127 
2287	-5.71819397040255E-03 
2288	-2.24618099793575E-02 
2289	-8.6895344933086E-03 
2290	 1.73953458285903E-02 
2291	 3.39135746528516E-02 
2292	 5.85097821127366E-02 
2293	 5.56715308682438E-02 
2294	 3.00665914699689E-02 
2295	-2.31500192733311E-02 
2296	-5.72243627923894E-02 
2297	-5.46524526908378E-02 
2298	-2.19716033359046E-02 
2299	-1.32845355521219E-03 
2300	-0.029928948290559 
2301	-5.33778908213685E-02 
2302	-0.108409377856283 
2303	-0.120643835570446 
2304	-7.54723788965676E-02 
2305	-4.63540624753553E-02 
2306	 3.83918733271628E-03 
2307	-3.73884497696292E-02 
2308	-0.05109573609832 
2309	 2.55261611151003E-03 
2310	-2.93540419961486E-02 
2311	-2.11386190679821E-02 
2312	 4.42651619954667E-02 
2313	 5.70002920434039E-02 
2314	 3.75794706042609E-02 
2315	-1.18870564536552E-02 
2316	-7.32695501953149E-02 
2317	-0.155647823578924 
2318	-0.24556556466483 
2319	-0.251480700161145 
2320	-0.249035891534233 
2321	-0.17693097410592 
2322	-7.74810338443284E-02 
2323	 0.021053920121116 
2324	 0.185415389671347 
2325	 0.217496836441186 
2326	 0.129221868726556 
2327	 0.135882924669182 
2328	-1.37115163002289E-02 
2329	-0.113877396825902 
2330	-8.43610615858936E-02 
2331	-9.92083347135525E-02 
2332	-0.063067510924965 
2333	 1.14315744508613E-02 
2334	 0.100681601577083 
2335	 2.01392280515726E-02 
2336	-0.203844843480053 
2337	-0.296654546309451 
2338	-0.452843078678659 
2339	-0.567375760998638 
2340	-0.397368121701636 
2341	-0.403074999535136 
2342	-0.397438777394292 
2343	-0.12521630150971 
2344	 2.90208092863403E-02 
2345	-2.82169992026528E-02 
2346	-5.91936280031774E-03 
2347	-0.1785970368857 
2348	-0.399651738601652 
2349	-0.315645186161697 
2350	-0.304633589812839 
2351	-0.300503492003262 
2352	-0.274892357246319 
2353	-0.322406523479699 
2354	-0.272692064492491 
2355	-0.144799281733647 
2356	-8.87450887933958E-02 
2357	-0.144228321724919 
2358	-0.254952424084529 
2359	-0.508376509563435 
2360	-0.590588300306975 
2361	-0.477443833346846 
2362	-0.436693842650707 
2363	-0.417290085558463 
2364	-0.310996065916445 
2365	-0.211972643261952 
2366	-0.262058615794951 
2367	-0.221396260957999 
2368	-0.164172433531483 
2369	-0.129029823125214 
2370	 0.143350944291202 
2371	 0.146799747954604 
2372	-5.36945019684642E-02 
2373	-9.33370048159184E-02 
2374	-0.40826314822056 
2375	-0.972748380760009 
2376	-0.889615819751878 
2377	-0.291595393662701 
2378	-0.118857588928066 
2379	-9.72870868269534E-02 
2380	-0.253441905679379 
2381	-1.1637491246024 
2382	-1.9609943164819 
2383	-3.96063638146901 
2384	-4.55534477282748 
2385	-8.6503946969289 
2386	 3.18243575366818 
2387	 0.574000482384748 
2388	 8.10748278756365E-02 
2389	 3.28600000079694 
2390	 3.60320104110702 
2391	 2.08777564956338 
2392	 2.49820104406852 
2393	-20.6789297537963 
2394	-2.28308824476103 
2395	-279.943108021892 
2396	-11.7534579789055 
2397	 9.60487494971857E-03 
2398	 13.9771388911161 
2399	-2.07547176628961 
2400	 25.5978609077393 
2401	-10.1944425323974 
2402	-1.65393668057603 
2403	-1.02471512268704 
2404	-0.336914566784779 
2405	 0.357890996905135 
2406	 0.424531690561162 
2407	 0.122689964908491 
2408	-0.615668937718126 
2409	-0.371994082236637 
2410	 1.20701923291265E-02 
2411	 0.694013303583344 
2412	 1.64049678701031 
2413	 2.45750042336359 
2414	 1.36092502148934 
2415	 2.24737835232269 
2416	-7.43079235200743 
2417	-2.65589171889137 
2418	-1.15456658538549 
2419	-0.888123440509407 
2420	-0.417713083367232 
2421	-0.40775734369013 
2422	-0.591276794720106 
2423	-1.14460578923125 
2424	 1.43603237461233 
2425	 1.14506424030129 
2426	-7.49951115632361 
2427	-2.30873605431866 
2428	-2.82216953157552 
2429	-1.13332835923069 
2430	-0.37018605389281 
2431	 0.324167022732664 
2432	 0.159660165042268 
2433	 0.395778879307126 
2434	 6.32569482389809E-02 
2435	-0.215576394147536 
2436	-0.301905087254822 
2437	 0.154112604978678 
2438	 1.67287777268365 
2439	-0.573201545481734 
2440	-0.414511439384404 
2441	-0.525644017642219 
2442	-2.98169342398306 
2443	-0.140290448799064 
2444	-0.405916293902297 
2445	-2.16393564387655 
2446	 3.34909153542106 
2447	 3.15550382756204 
2448	-2.30072125577405 
2449	-8.61046973328696E-02 
2450	 0.14738558452856 
2451	-0.199505093070621 
2452	 0.274789354148809 
2453	-0.030124775794208 
2454	 0.389213031898249 
2455	 0.187793738486524 
2456	 0.069649048310592 
2457	 0.178756230841933 
2458	 0.292147815684319 
2459	 0.456789860964778 
2460	 0.725460642385944 
2461	 1.01506796960659 
2462	 1.29119962468443 
2463	 2.98239890682628 
2464	 3.76881313193643 
2465	 1.29261669965623 
2466	-0.253627513395617 
2467	-0.638374635745019 
2468	-1.55033200842492 
2469	 9.97438061012868 
2470	 0.302394769926626 
2471	 0.207670818704482 
2472	 0.176049785843037 
2473	 0.139465022724791 
2474	 0.343311672638482 
2475	 0.144409605440988 
2476	-1.00088273992331 
2477	-1.63487410309904 
2478	-1.72778585072733 
2479	-1.62697055136292 
2480	-1.80366278225756 
2481	-1.18765615115945 
2482	-0.223732589920504 
2483	-0.194772997315601 
2484	-0.399723739843723 
2485	-6.97752156544076 
2486	 5.95880597102215 
2487	 29.9118739709765 
2488	 4.19825197885729 
2489	 0.66963866441054 
2490	-4.35553922583847 
2491	-8.77387250710956 
2492	 2.27385438797563 
2493	 1.15530597261681 
2494	 3.06136591901471 
2495	-5.66558393863522 
2496	-1.83906557123349 
2497	-0.641034017899656 
2498	-0.545401567268372 
2499	 0.549982176186108 
2500	 1.35174727844914 
