Wavelength	rt0712EAST_FAR00006.asd
350	 6.10715438964293E-02 
351	 6.12332420970747E-02 
352	 6.09858534705365E-02 
353	 6.13358267737844E-02 
354	 6.24384059736921E-02 
355	 6.22946883601783E-02 
356	 6.17102604141578E-02 
357	 6.14692798613628E-02 
358	 6.18642118201781E-02 
359	 6.10010022546406E-02 
360	 6.10198774825419E-02 
361	 0.061859267976665 
362	 6.19128543655781E-02 
363	 0.060990623627731 
364	 0.060999444577159 
365	 6.21188127293159E-02 
366	 0.061575477640532 
367	 6.11203685916168E-02 
368	 6.12621516138396E-02 
369	 0.061841976114543 
370	 6.15385117215625E-02 
371	 6.15130670463793E-02 
372	 6.15734483059583E-02 
373	 6.09755477800567E-02 
374	 6.17780194774535E-02 
375	 6.22357966358357E-02 
376	 6.17727502788763E-02 
377	 6.19410792911982E-02 
378	 6.20268396161088E-02 
379	 6.17382153326888E-02 
380	 0.061281602354665 
381	 0.062159416588616 
382	 6.24842307343397E-02 
383	 6.21235053817945E-02 
384	 6.18372369495238E-02 
385	 6.16588412440135E-02 
386	 6.20831053467478E-02 
387	 0.062873115529611 
388	 0.063022328147305 
389	 6.32612571613027E-02 
390	 6.34369184868764E-02 
391	 6.33000705622635E-02 
392	 6.26133064999488E-02 
393	 6.32233222150314E-02 
394	 6.38740024969752E-02 
395	 6.29185772555155E-02 
396	 0.063229594619909 
397	 6.35722216158662E-02 
398	 6.35750610068794E-02 
399	 6.37972921512264E-02 
400	 6.37724590718293E-02 
401	 6.34810427024425E-02 
402	 6.30783529223228E-02 
403	 6.28825063705528E-02 
404	 6.32447711220505E-02 
405	 6.36774656181571E-02 
406	 6.35230007069887E-02 
407	 6.31382991453672E-02 
408	 6.31877368542699E-02 
409	 6.36210149234384E-02 
410	 6.37108576599795E-02 
411	 6.38562193127874E-02 
412	 6.37741022204209E-02 
413	 6.34098417341672E-02 
414	 6.35249713783342E-02 
415	 6.36402077355282E-02 
416	 6.36930408815021E-02 
417	 6.37707127316832E-02 
418	 6.38219886668819E-02 
419	 6.36929322839463E-02 
420	 6.35097342299289E-02 
421	 6.36803220351888E-02 
422	 6.36654172272444E-02 
423	 6.38090082314412E-02 
424	 6.42591572705127E-02 
425	 6.41123322595643E-02 
426	 6.37881436823065E-02 
427	 6.37069891148128E-02 
428	 6.41190327849289E-02 
429	 6.40598208522079E-02 
430	 6.40247518239188E-02 
431	 6.42166813634005E-02 
432	 0.064329958091447 
433	 0.064227708869676 
434	 6.43019397789121E-02 
435	 6.47326297043515E-02 
436	 6.47378481261201E-02 
437	 6.45897651949203E-02 
438	 6.45081921583359E-02 
439	 6.46442678249171E-02 
440	 6.47704604404605E-02 
441	 6.50250648535858E-02 
442	 6.53336493981675E-02 
443	 6.52414330052493E-02 
444	 6.54899832379949E-02 
445	 6.57967003746694E-02 
446	 6.58114044470275E-02 
447	 6.60969325675149E-02 
448	 0.066374453856422 
449	 6.64575035830136E-02 
450	 6.62915762901572E-02 
451	 0.066366010713245 
452	 6.66552252448639E-02 
453	 0.066910736633154 
454	 6.65453250836514E-02 
455	 6.67345928824616E-02 
456	 6.70808586452318E-02 
457	 6.68546653565115E-02 
458	 6.69078905524601E-02 
459	 6.71406382654293E-02 
460	 6.72381345332343E-02 
461	 6.67801872589041E-02 
462	 6.70182067169403E-02 
463	 6.74316388070796E-02 
464	 6.74641907311689E-02 
465	 6.74793364705825E-02 
466	 6.76596032976484E-02 
467	 6.78686365714622E-02 
468	 6.78549643568862E-02 
469	 6.79065600287361E-02 
470	 6.80776186232417E-02 
471	 6.83534535919186E-02 
472	 6.86639829414805E-02 
473	 0.068505013236921 
474	 6.84654045133972E-02 
475	 6.90271726446838E-02 
476	 6.92160769566616E-02 
477	 0.069369076839493 
478	 0.069561068565485 
479	 6.97023704799843E-02 
480	 7.00295619739704E-02 
481	 7.03160857463436E-02 
482	 7.04588942383137E-02 
483	 7.07329263889647E-02 
484	 7.09038046365091E-02 
485	 7.11013605101158E-02 
486	 7.14754563426204E-02 
487	 7.15391125918384E-02 
488	 7.16363172229324E-02 
489	 7.19696299374588E-02 
490	 7.25298383414633E-02 
491	 7.25814086857799E-02 
492	 7.27242094518324E-02 
493	 7.33746495650128E-02 
494	 7.37290196803437E-02 
495	 7.39694499883107E-02 
496	 7.42056227874508E-02 
497	 0.074518631198442 
498	 7.49242699220568E-02 
499	 7.52362489496022E-02 
500	 7.54818031439321E-02 
501	 7.60584763608022E-02 
502	 0.076328579129826 
503	 7.65790916106937E-02 
504	 7.71699597349998E-02 
505	 7.75790387352747E-02 
506	 7.80355244846724E-02 
507	 7.85084465360202E-02 
508	 7.87778823288477E-02 
509	 7.91657638129736E-02 
510	 7.96476672482309E-02 
511	 0.080159766784757 
512	 8.07367373479798E-02 
513	 8.09506889147454E-02 
514	 0.081124440388249 
515	 0.081785490767425 
516	 8.22475525367796E-02 
517	 8.28321572604626E-02 
518	 8.34830346826795E-02 
519	 8.35954744881761E-02 
520	 8.40817322599215E-02 
521	 8.47603346510272E-02 
522	 8.52840290479039E-02 
523	 8.56550626862881E-02 
524	 8.60668722794192E-02 
525	 8.65822137124276E-02 
526	 8.71571455792441E-02 
527	 8.77000493704739E-02 
528	 8.82493371694888E-02 
529	 8.88197636586649E-02 
530	 8.93463978696481E-02 
531	 8.98027846637215E-02 
532	 0.090274671733133 
533	 9.08619235339742E-02 
534	 9.14612467298926E-02 
535	 9.21029100126608E-02 
536	 9.27422533669623E-02 
537	 9.32409015431477E-02 
538	 9.37888574504028E-02 
539	 9.44178882787872E-02 
540	 0.095113653780379 
541	 9.58963682949213E-02 
542	 9.64236962292754E-02 
543	 9.67855633274696E-02 
544	 9.73372309851671E-02 
545	 9.80872716305702E-02 
546	 9.87642660841411E-02 
547	 9.92782668844005E-02 
548	 9.99592971015431E-02 
549	 0.100595122175374 
550	 0.101165849145004 
551	 0.101720877034268 
552	 0.102305829611885 
553	 0.102898182885151 
554	 0.103490123048731 
555	 0.104090812803061 
556	 0.104631263327895 
557	 0.105184953375666 
558	 0.105772786547701 
559	 0.10612733339846 
560	 0.106627250495352 
561	 0.107145954034449 
562	 0.107312222579134 
563	 0.107776686306534 
564	 0.108141492518878 
565	 0.108163558845074 
566	 0.108139443687975 
567	 0.108370156984129 
568	 0.108642497502333 
569	 0.108650366833331 
570	 0.108939704556356 
571	 0.10905702173233 
572	 0.108906477319414 
573	 0.108833467951047 
574	 0.108828396537145 
575	 0.108773931042185 
576	 0.10860326681134 
577	 0.10851854059714 
578	 0.10843597999188 
579	 0.108192762446944 
580	 0.107658755462354 
581	 0.107477971345148 
582	 0.107353332311209 
583	 0.107000531967304 
584	 0.106355092276934 
585	 0.105714233224596 
586	 0.105069278229503 
587	 0.104288312062091 
588	 0.103303064048426 
589	 0.102615818534727 
590	 0.102301028938724 
591	 0.101843833156982 
592	 0.101300296614225 
593	 0.100636455377334 
594	 9.98931586964176E-02 
595	 0.099311596416031 
596	 9.85944485257066E-02 
597	 9.77295601465253E-02 
598	 9.68538511749961E-02 
599	 9.58010498433151E-02 
600	 9.49428293003131E-02 
601	 9.44090251510143E-02 
602	 9.38438395164106E-02 
603	 9.33187471926473E-02 
604	 9.29918908904991E-02 
605	 9.29502160801877E-02 
606	 9.27387029797872E-02 
607	 9.24482298510257E-02 
608	 9.21991015161518E-02 
609	 9.21034165407876E-02 
610	 9.19004583837044E-02 
611	 9.16001310202664E-02 
612	 9.12878570493708E-02 
613	 9.10961580541778E-02 
614	 9.07971430262597E-02 
615	 9.04903260153452E-02 
616	 9.04184927903405E-02 
617	 9.02992016241955E-02 
618	 8.99131313792084E-02 
619	 8.94256905883625E-02 
620	 8.96322808412831E-02 
621	 8.95679356821332E-02 
622	 8.91723478593755E-02 
623	 0.088745224409717 
624	 8.87444827217504E-02 
625	 8.87406338561603E-02 
626	 8.84734959208322E-02 
627	 8.79249157736925E-02 
628	 8.77146469913326E-02 
629	 8.76747589874474E-02 
630	 0.087545636781044 
631	 8.73018999844974E-02 
632	 8.70018530898656E-02 
633	 8.68943844262766E-02 
634	 8.71771825553478E-02 
635	 8.70261199512107E-02 
636	 8.66595261580813E-02 
637	 8.63988214922708E-02 
638	 8.65653284261695E-02 
639	 0.086374903924966 
640	 8.61063491947456E-02 
641	 8.61498277737088E-02 
642	 8.59558803929998E-02 
643	 8.58565623088596E-02 
644	 8.57429931252515E-02 
645	 8.51549618930686E-02 
646	 8.46936748604238E-02 
647	 8.44330759686776E-02 
648	 8.43191998998319E-02 
649	 8.42879224164325E-02 
650	 8.40073191020497E-02 
651	 8.35074579963856E-02 
652	 8.29856153277781E-02 
653	 8.24573868085521E-02 
654	 8.17587895446813E-02 
655	 8.09060518879471E-02 
656	 0.080277135452409 
657	 7.95668455647373E-02 
658	 7.86190025877217E-02 
659	 7.75087219592273E-02 
660	 7.69832453038628E-02 
661	 7.65161674684624E-02 
662	 7.58723394627402E-02 
663	 7.50567403643625E-02 
664	 7.44505140987255E-02 
665	 7.40657223567378E-02 
666	 7.37789146397906E-02 
667	 7.33040915768902E-02 
668	 7.34516883792082E-02 
669	 7.37378827170657E-02 
670	 7.35001443714156E-02 
671	 0.073506460684095 
672	 7.36192671290515E-02 
673	 7.38136051954603E-02 
674	 7.41949567377457E-02 
675	 7.46175628424407E-02 
676	 7.50677295700791E-02 
677	 7.55280506026819E-02 
678	 7.58982535703686E-02 
679	 7.61846089902315E-02 
680	 7.65014660850602E-02 
681	 7.69899828276553E-02 
682	 7.75768159751581E-02 
683	 7.81730389265857E-02 
684	 7.87178642057516E-02 
685	 7.92432065123435E-02 
686	 8.00661836832451E-02 
687	 8.06687789014077E-02 
688	 8.06067213345511E-02 
689	 8.07366957908249E-02 
690	 8.07703158187196E-02 
691	 8.06667568159466E-02 
692	 8.05322474626134E-02 
693	 8.04886763199206E-02 
694	 8.03628731136618E-02 
695	 8.00769964473339E-02 
696	 7.97247004405223E-02 
697	 7.92469415474069E-02 
698	 7.87186953607625E-02 
699	 7.82823234493774E-02 
700	 7.78057731537235E-02 
701	 7.71429968344042E-02 
702	 7.64116277000452E-02 
703	 7.58426747656843E-02 
704	 7.53572246789338E-02 
705	 7.44809323558071E-02 
706	 7.32370710735596E-02 
707	 7.27952612329553E-02 
708	 7.16922693885685E-02 
709	 7.03149045369959E-02 
710	 6.94841713985658E-02 
711	 6.82794062707018E-02 
712	 6.71438796165094E-02 
713	 6.61342054793734E-02 
714	 6.48002277278209E-02 
715	 6.37008745414013E-02 
716	 6.23422117753219E-02 
717	 6.04936312431809E-02 
718	 6.01363647973314E-02 
719	 5.94015997419503E-02 
720	 5.80771945528909E-02 
721	 5.65931693483257E-02 
722	 5.58296519796423E-02 
723	 5.51059578749776E-02 
724	 5.41489445209734E-02 
725	 5.30497521209631E-02 
726	 5.24397784724608E-02 
727	 5.18069692382019E-02 
728	 0.050794407786032 
729	 5.01928982048967E-02 
730	 4.96371268642041E-02 
731	 4.90443044103899E-02 
732	 4.84260746734062E-02 
733	 4.79338865839273E-02 
734	 4.74761116089168E-02 
735	 4.71334113992756E-02 
736	 4.71950184561853E-02 
737	 4.68788011923564E-02 
738	 4.65206600419657E-02 
739	 0.046506236442376 
740	 4.66325853790995E-02 
741	 4.66296078046541E-02 
742	 4.65097834889323E-02 
743	 0.046449533441464 
744	 4.66533027092383E-02 
745	 4.66649827332259E-02 
746	 4.64284819575427E-02 
747	 4.64937878857428E-02 
748	 4.65042258779521E-02 
749	 4.64613958415302E-02 
750	 4.64247043346358E-02 
751	 0.046336702676349 
752	 4.63678899903949E-02 
753	 4.63656399231727E-02 
754	 4.60963323003475E-02 
755	 4.62558496397355E-02 
756	 4.61356134567064E-02 
757	 4.56431119450879E-02 
758	 4.58525053989911E-02 
759	 0.045700292132759 
760	 4.50665161688015E-02 
761	 4.50390314216391E-02 
762	 4.52484921703918E-02 
763	 0.045441412412669 
764	 4.54770687667958E-02 
765	 4.54214767307613E-02 
766	 4.57034392873203E-02 
767	 0.045811338267599 
768	 4.57000059482503E-02 
769	 4.57013150050365E-02 
770	 4.59181187605807E-02 
771	 4.59648095199889E-02 
772	 4.56807419905142E-02 
773	 4.57796837972632E-02 
774	 4.58481431996685E-02 
775	 4.58136278213292E-02 
776	 4.57780961334671E-02 
777	 4.59635062479523E-02 
778	 4.61292018590803E-02 
779	 4.60980892882419E-02 
780	 4.58357902883429E-02 
781	 4.59849097966674E-02 
782	 4.62467421942898E-02 
783	 4.62945563467488E-02 
784	 4.61356495917878E-02 
785	 4.61555686240097E-02 
786	 4.62632264538942E-02 
787	 0.046247861148283 
788	 4.64325425230557E-02 
789	 4.63761145787481E-02 
790	 4.61511111215091E-02 
791	 4.62423000186093E-02 
792	 0.046463008228975 
793	 0.046638837759323 
794	 4.66474578318227E-02 
795	 4.64113990714371E-02 
796	 4.66704965555738E-02 
797	 4.69239356991389E-02 
798	 4.66717576166059E-02 
799	 4.66597742281045E-02 
800	 0.046853123211733 
801	 4.71586323264674E-02 
802	 4.73973093192687E-02 
803	 4.72247598020857E-02 
804	 4.71143840466524E-02 
805	 4.72503723286902E-02 
806	 0.047436763065176 
807	 4.73203988627752E-02 
808	 4.68887651976904E-02 
809	 4.64144349421759E-02 
810	 4.68025594983245E-02 
811	 4.64541687216241E-02 
812	 4.59113419574139E-02 
813	 4.64666201380243E-02 
814	 4.62944059356704E-02 
815	 4.55732917050477E-02 
816	 4.49227508494329E-02 
817	 4.49973652555951E-02 
818	 4.53774893298214E-02 
819	 0.045595944207941 
820	 4.55128480848724E-02 
821	 4.52372776305109E-02 
822	 0.044872757975203 
823	 4.48331350475373E-02 
824	 4.50548224129416E-02 
825	 0.044422923430018 
826	 4.39887768480339E-02 
827	 4.36876542100907E-02 
828	 4.32361393422652E-02 
829	 4.35066809810279E-02 
830	 4.33093612530209E-02 
831	 4.26974744490627E-02 
832	 4.26342920637965E-02 
833	 4.31062162592062E-02 
834	 4.35087729663501E-02 
835	 4.33441049313746E-02 
836	 4.23418979512447E-02 
837	 4.21455224080964E-02 
838	 4.24470489176899E-02 
839	 4.26799209939941E-02 
840	 4.28084374193796E-02 
841	 4.27034562362114E-02 
842	 4.26306522878413E-02 
843	 4.28734944561144E-02 
844	 4.31664980754156E-02 
845	 4.29297911497115E-02 
846	 4.23872512450322E-02 
847	 4.22587482741435E-02 
848	 4.23705035749895E-02 
849	 4.27395623303885E-02 
850	 0.04305245452566 
851	 4.26486114094678E-02 
852	 4.24308804619063E-02 
853	 0.042242763417608 
854	 4.21396039869321E-02 
855	 4.31281524813882E-02 
856	 4.27489283412207E-02 
857	 4.19413020800951E-02 
858	 4.21030692058932E-02 
859	 4.28433886081236E-02 
860	 4.23031463261051E-02 
861	 0.041675446527579 
862	 4.30106761941247E-02 
863	 4.33573577868966E-02 
864	 4.28541023396971E-02 
865	 4.24081733992461E-02 
866	 4.31212793397655E-02 
867	 4.24537347736284E-02 
868	 4.19304573202973E-02 
869	 4.22084655106694E-02 
870	 4.21264836339502E-02 
871	 4.21927116158806E-02 
872	 4.21361544253879E-02 
873	 4.18658615091987E-02 
874	 4.20625980788839E-02 
875	 4.15066212585832E-02 
876	 4.10586646130806E-02 
877	 4.15980855557296E-02 
878	 4.16120038333777E-02 
879	 4.14174152774503E-02 
880	 0.041247314021655 
881	 4.12411904466853E-02 
882	 4.11669144578328E-02 
883	 4.13146097416307E-02 
884	 4.16021193251898E-02 
885	 4.16446334256177E-02 
886	 4.11696523555564E-02 
887	 4.12805653937372E-02 
888	 4.19415407905492E-02 
889	 4.17123327091655E-02 
890	 4.09980914150951E-02 
891	 4.07199508040789E-02 
892	 4.12398166072524E-02 
893	 0.041476943054292 
894	 4.09635917040646E-02 
895	 4.06896768752824E-02 
896	 4.11519323121118E-02 
897	 3.88913807547616E-02 
898	 3.84527198883354E-02 
899	 4.08106493524944E-02 
900	 4.36301668237322E-02 
901	 4.08825913874894E-02 
902	 3.91751485762133E-02 
903	 0.039114455795878 
904	 0.039253930446152 
905	 4.05595770976468E-02 
906	 3.99131635001586E-02 
907	 3.86922237169803E-02 
908	 4.08692470864787E-02 
909	 3.82122952658613E-02 
910	 3.84952526334777E-02 
911	 4.12016982050457E-02 
912	 3.81254923134643E-02 
913	 3.91051830987199E-02 
914	 3.97405729864605E-02 
915	 3.84022435808888E-02 
916	 3.86185785891403E-02 
917	 0.039631318373287 
918	 3.92273884892128E-02 
919	 0.038000170889375 
920	 3.98120380350329E-02 
921	 4.15183896608798E-02 
922	 4.04944058501458E-02 
923	 3.68392739426852E-02 
924	 3.65980392727045E-02 
925	 3.99434295538647E-02 
926	 3.98261161381762E-02 
927	 3.15084815299242E-02 
928	 3.44628050450842E-02 
929	 3.54470176420368E-02 
930	 2.87543011282457E-02 
931	 1.73971650519226E-02 
932	 2.65199489714063E-02 
933	 4.46517529482098E-02 
934	 3.67538106541422E-02 
935	-4.27838998486855E-03 
936	 2.40181002287226E-02 
937	 4.60603537412457E-02 
938	 4.22244446154081E-02 
939	 2.29821120648407E-02 
940	 3.87846810757329E-02 
941	 4.37926096276007E-02 
942	 3.41792213105777E-02 
943	 2.69650110871714E-02 
944	 3.03090774122344E-02 
945	 1.56298957694868E-02 
946	 4.20887985380968E-03 
947	 3.23362593869266E-02 
948	 0.034849001013789 
949	 2.46268019295413E-02 
950	 0.024038165185467 
951	 4.58806287867702E-02 
952	 4.30521020223318E-02 
953	 2.99914844908399E-02 
954	 2.51297117840901E-02 
955	 3.87593409355052E-02 
956	 3.91189789974102E-02 
957	 3.04239630272187E-02 
958	 2.68124879778184E-02 
959	 0.03966475139446 
960	 3.93627320612637E-02 
961	 4.30624569331733E-02 
962	 4.69669229186753E-02 
963	 3.75351396611779E-02 
964	 3.80326647948736E-02 
965	 0.038058302326227 
966	 3.52534936320972E-02 
967	 3.35968191078572E-02 
968	 0.031159093472759 
969	 3.38624982866831E-02 
970	 3.87373314855618E-02 
971	 3.71093661640903E-02 
972	 3.81752564375622E-02 
973	 3.76277130712534E-02 
974	 3.75081359055987E-02 
975	 4.40497359398814E-02 
976	 3.50071815519115E-02 
977	 3.11368127199098E-02 
978	 3.77124158692093E-02 
979	 4.21219171553037E-02 
980	 4.01356001996536E-02 
981	 3.54391309978984E-02 
982	 3.42413102683977E-02 
983	 4.09665839792457E-02 
984	 4.36092553834256E-02 
985	 4.16277853078234E-02 
986	 0.038604260931408 
987	 3.90821512085778E-02 
988	 0.038474829315352 
989	 3.80933871338748E-02 
990	 3.73907413585555E-02 
991	 3.52784773881241E-02 
992	 3.78335014632422E-02 
993	 0.041340446871512 
994	 4.15572701575763E-02 
995	 0.037236035699769 
996	 4.18914787353944E-02 
997	 4.06732781662863E-02 
998	 3.50949903655496E-02 
999	 3.60560285381196E-02 
1000	 3.84983141586754E-02 
1001	 0.037888849371849 
1002	 3.56888401952782E-02 
1003	 3.57745680265013E-02 
1004	 3.77493269023046E-02 
1005	 3.84617160575168E-02 
1006	 3.99623745924271E-02 
1007	 4.06294335998683E-02 
1008	 4.11315985189084E-02 
1009	 0.042128045945568 
1010	 4.36237828985437E-02 
1011	 4.50423651910608E-02 
1012	 4.31955880298626E-02 
1013	 0.041819997770734 
1014	 4.09480851426461E-02 
1015	 0.038894167919168 
1016	 3.87825126141855E-02 
1017	 4.06833144465893E-02 
1018	 4.12830309452765E-02 
1019	 4.21284580426175E-02 
1020	 0.042534375846972 
1021	 4.26539529831649E-02 
1022	 4.27139985256022E-02 
1023	 4.15194439329197E-02 
1024	 4.13041506121175E-02 
1025	 4.07176415750018E-02 
1026	 3.97436844278853E-02 
1027	 3.94849772583209E-02 
1028	 3.96077478248704E-02 
1029	 0.039684154225429 
1030	 4.05337933792061E-02 
1031	 4.03888161172459E-02 
1032	 3.92919372200376E-02 
1033	 3.94554919105147E-02 
1034	 3.97839978501335E-02 
1035	 3.99088615382989E-02 
1036	 4.09486646870953E-02 
1037	 4.16255402561631E-02 
1038	 4.19355394293361E-02 
1039	 4.20821168289758E-02 
1040	 4.20673806237805E-02 
1041	 4.16386496873657E-02 
1042	 4.15213688418097E-02 
1043	 4.08284718102126E-02 
1044	 0.0407880455698 
1045	 4.16294503877685E-02 
1046	 4.15477767120307E-02 
1047	 4.08788702130126E-02 
1048	 4.08042041639504E-02 
1049	 4.05841142593888E-02 
1050	 4.06990038421714E-02 
1051	 4.19856788858466E-02 
1052	 4.19675076189045E-02 
1053	 4.04157886206377E-02 
1054	 4.02650364122765E-02 
1055	 0.041126323138872 
1056	 4.07390987297362E-02 
1057	 4.01708820755808E-02 
1058	 0.040040327375927 
1059	 3.99487891461064E-02 
1060	 3.83146343100801E-02 
1061	 3.86007628981278E-02 
1062	 4.08839722757731E-02 
1063	 4.18790132827949E-02 
1064	 4.33923643815698E-02 
1065	 0.043466414653404 
1066	 4.24545363940914E-02 
1067	 4.17750249444539E-02 
1068	 3.93611478836085E-02 
1069	 3.87008596306097E-02 
1070	 3.94045881213411E-02 
1071	 3.97290861734009E-02 
1072	 4.05121297988599E-02 
1073	 4.19414503258203E-02 
1074	 4.20581585732075E-02 
1075	 4.17143295629675E-02 
1076	 0.040819746492132 
1077	 3.84647504111805E-02 
1078	 0.037915872425063 
1079	 3.74204734640141E-02 
1080	 0.037804097201416 
1081	 4.06287943256305E-02 
1082	 4.09434078106157E-02 
1083	 3.96167978559108E-02 
1084	 3.95789071509853E-02 
1085	 3.83399414549715E-02 
1086	 3.86850621286547E-02 
1087	 4.21627010474908E-02 
1088	 4.35964763551593E-02 
1089	 4.49619650588908E-02 
1090	 4.52674132185746E-02 
1091	 4.46807858981518E-02 
1092	 0.041970304499443 
1093	 4.07550287890577E-02 
1094	 3.86943409200694E-02 
1095	 3.87684644917194E-02 
1096	 4.15765375860855E-02 
1097	 4.14143740912149E-02 
1098	 0.040888168772403 
1099	 3.99051340692326E-02 
1100	 3.47419492213261E-02 
1101	 3.37777101387431E-02 
1102	 3.69639234897857E-02 
1103	 0.038087336928791 
1104	 0.039844998346322 
1105	 4.27672110857624E-02 
1106	 0.04229591993433 
1107	 4.13591188888607E-02 
1108	 4.40251423720354E-02 
1109	 0.042388907011633 
1110	 0.04259515009211 
1111	 4.44568909924716E-02 
1112	 4.55545904974152E-02 
1113	 0.044904869555547 
1114	 4.56027719135422E-02 
1115	 4.71116261128545E-02 
1116	 4.89102939389921E-02 
1117	 5.41058597127604E-02 
1118	 5.86934607319069E-02 
1119	 5.73194742504442E-02 
1120	 6.39158580897611E-02 
1121	 7.72793084623206E-02 
1122	 0.105939584197499 
1123	 0.131745457368527 
1124	 0.123075727655977 
1125	 8.13143482456776E-02 
1126	 6.96436212972673E-02 
1127	 6.04832309239165E-02 
1128	 3.56378603788159E-02 
1129	 4.89151745031855E-02 
1130	 9.20070109424683E-02 
1131	 8.31350824843958E-02 
1132	 0.070858467250905 
1133	 8.27895302098958E-02 
1134	 6.11702699792959E-02 
1135	 6.85308149779967E-02 
1136	 0.139347828402229 
1137	 0.137730047107156 
1138	 9.26986067109721E-02 
1139	 8.99410163443479E-02 
1140	 0.084731725274058 
1141	 5.46513164800944E-02 
1142	 7.40784542156138E-02 
1143	 0.105433491017557 
1144	 8.85987700417431E-02 
1145	 7.57467881432756E-02 
1146	 8.68099017363102E-02 
1147	 7.56568017340507E-02 
1148	 6.18248855208718E-02 
1149	 6.26015303209065E-02 
1150	 6.56836432815123E-02 
1151	 7.07929076244322E-02 
1152	 6.59792677990145E-02 
1153	 6.27314091638429E-02 
1154	 6.10992446902739E-02 
1155	 5.64230927729469E-02 
1156	 4.68965361013141E-02 
1157	 4.96055601026017E-02 
1158	 5.52400431557468E-02 
1159	 5.30395800363891E-02 
1160	 4.93236058561355E-02 
1161	 0.047487723170138 
1162	 4.66990976173676E-02 
1163	 4.44362527839955E-02 
1164	 4.28036404803902E-02 
1165	 4.23549000264735E-02 
1166	 4.07986607847189E-02 
1167	 4.06610885400805E-02 
1168	 4.18789396211773E-02 
1169	 0.040898870607531 
1170	 0.039637535819991 
1171	 3.98392816958051E-02 
1172	 4.06789343359429E-02 
1173	 4.05468095292935E-02 
1174	 4.07432746861822E-02 
1175	 4.20646606638379E-02 
1176	 4.15132984948227E-02 
1177	 4.19029083040797E-02 
1178	 4.33044562883406E-02 
1179	 4.33829347193068E-02 
1180	 0.042000458550761 
1181	 3.97075964579706E-02 
1182	 3.84049437687895E-02 
1183	 3.85795831361877E-02 
1184	 3.89790305537612E-02 
1185	 3.92172163023393E-02 
1186	 0.039902551090146 
1187	 3.98046053517456E-02 
1188	 3.94563426219278E-02 
1189	 3.96542256469424E-02 
1190	 3.92212275186214E-02 
1191	 3.87991649220478E-02 
1192	 3.89223112065409E-02 
1193	 3.91452032878939E-02 
1194	 4.00813443071403E-02 
1195	 4.10316879632013E-02 
1196	 4.10299447938946E-02 
1197	 4.07028571430788E-02 
1198	 4.07482535097782E-02 
1199	 3.96265774258333E-02 
1200	 3.83534754375638E-02 
1201	 3.92417239445947E-02 
1202	 3.98567905890229E-02 
1203	 0.040054491381734 
1204	 4.15096206542911E-02 
1205	 4.13015903700148E-02 
1206	 3.96386217104604E-02 
1207	 3.96862780694242E-02 
1208	 3.97080266122036E-02 
1209	 3.93901244413628E-02 
1210	 3.89334675321129E-02 
1211	 3.81281364414948E-02 
1212	 3.84305814347011E-02 
1213	 3.77425441015484E-02 
1214	 3.77246294505715E-02 
1215	 3.80502435768763E-02 
1216	 3.99313412920571E-02 
1217	 4.06280226933059E-02 
1218	 4.11627845418306E-02 
1219	 4.11861508459686E-02 
1220	 3.98524858969492E-02 
1221	 3.92188009434349E-02 
1222	 4.03643868931388E-02 
1223	 4.09174768387834E-02 
1224	 4.03567128693697E-02 
1225	 4.03288232252506E-02 
1226	 3.98366136523366E-02 
1227	 0.03967085067162 
1228	 3.97243344618337E-02 
1229	 3.91609411894504E-02 
1230	 3.90040083869634E-02 
1231	 3.88924548775616E-02 
1232	 3.95101753563816E-02 
1233	 0.040026226381806 
1234	 3.91098877856722E-02 
1235	 3.90254997760805E-02 
1236	 3.95465748561061E-02 
1237	 3.92749472189787E-02 
1238	 3.87664626909033E-02 
1239	 3.87045849697858E-02 
1240	 3.83303379247151E-02 
1241	 3.76177796986473E-02 
1242	 0.037688820418687 
1243	 3.79289527858782E-02 
1244	 3.76982988129839E-02 
1245	 3.77124053564844E-02 
1246	 3.86907151119869E-02 
1247	 3.91934881947685E-02 
1248	 3.90415829398603E-02 
1249	 3.94598753268346E-02 
1250	 4.01610413952984E-02 
1251	 4.02034108792028E-02 
1252	 3.96541612399304E-02 
1253	 3.97293142663394E-02 
1254	 3.98082888280896E-02 
1255	 3.89060530160096E-02 
1256	 3.84088175280534E-02 
1257	 3.87450825284087E-02 
1258	 3.91192497816882E-02 
1259	 0.038914702377264 
1260	 3.93290981797677E-02 
1261	 4.10982367316471E-02 
1262	 4.15586245916076E-02 
1263	 4.08959247171508E-02 
1264	 4.14028602084917E-02 
1265	 4.15945648392673E-02 
1266	 4.06739948188041E-02 
1267	 3.97809345840766E-02 
1268	 0.039859552968011 
1269	 4.02919989238901E-02 
1270	 3.95865790014147E-02 
1271	 3.95071898048416E-02 
1272	 3.99171854963342E-02 
1273	 3.92130539237587E-02 
1274	 3.91157616895847E-02 
1275	 3.95612862330942E-02 
1276	 3.90212165158644E-02 
1277	 3.87320082301663E-02 
1278	 4.00832581432825E-02 
1279	 4.08338867054577E-02 
1280	 4.04684494245667E-02 
1281	 4.04374987909683E-02 
1282	 3.98932026762889E-02 
1283	 3.98931159173324E-02 
1284	 4.05862625646719E-02 
1285	 4.05527821910334E-02 
1286	 3.96473064206063E-02 
1287	 4.00971668126387E-02 
1288	 0.041861397546347 
1289	 0.041613708576469 
1290	 4.07468837634863E-02 
1291	 4.07536769224487E-02 
1292	 4.06581199625309E-02 
1293	 3.95768332859201E-02 
1294	 3.90606412418941E-02 
1295	 0.040345065978077 
1296	 4.03307418843177E-02 
1297	 3.91945752623393E-02 
1298	 3.96463335296925E-02 
1299	 3.90581321322625E-02 
1300	 3.82984109004163E-02 
1301	 3.84121700403211E-02 
1302	 3.82766253653174E-02 
1303	 3.92303566882279E-02 
1304	 0.037894175760414 
1305	 3.53173484048253E-02 
1306	 3.47923527819494E-02 
1307	 3.59684147892226E-02 
1308	 3.64873515144854E-02 
1309	 3.76264053183667E-02 
1310	 3.86918216154845E-02 
1311	 0.040759807649349 
1312	 4.08227894043281E-02 
1313	 3.89615453271309E-02 
1314	 0.039784028358064 
1315	 4.06118959292203E-02 
1316	 4.02850740310967E-02 
1317	 4.34398329644203E-02 
1318	 4.34556721423676E-02 
1319	 3.64868264037961E-02 
1320	 3.52412625091037E-02 
1321	 3.74946098788473E-02 
1322	 3.77447403612419E-02 
1323	 3.92602758987321E-02 
1324	 4.36439903423278E-02 
1325	 4.14520095273946E-02 
1326	 3.80583691904356E-02 
1327	 0.038199210165441 
1328	 3.78283150111171E-02 
1329	 3.88655992431054E-02 
1330	 3.99341392673996E-02 
1331	 4.15404251912413E-02 
1332	 4.41153089146364E-02 
1333	 3.95313032494127E-02 
1334	 3.69755640004367E-02 
1335	 0.038368592140174 
1336	 3.98640427532154E-02 
1337	 3.66961009998807E-02 
1338	 3.77485680033782E-02 
1339	 3.50352780753558E-02 
1340	 2.00930928944064E-02 
1341	 1.30254350363435E-02 
1342	 1.18481493002857E-02 
1343	 1.44237869999994E-02 
1344	 0.014962952531827 
1345	 2.39274699796518E-02 
1346	 7.12900673186692E-02 
1347	 9.68903401217676E-02 
1348	 0.123003545081777 
1349	 0.137920922181642 
1350	 2.67594002254719E-02 
1351	-3.43576201396578E-03 
1352	 0.133922196638826 
1353	 0.172498234398459 
1354	 0.222398352335001 
1355	 0.365158873834261 
1356	 0.389152257955409 
1357	 0.271569835930324 
1358	 0.379762572971898 
1359	 0.487838177291633 
1360	 0.508363666295719 
1361	 0.382399498208367 
1362	 0.549955530961036 
1363	 1.91522637986449 
1364	 1.12286996262654 
1365	 0.599409226021698 
1366	 0.608117695072268 
1367	 0.744640882413178 
1368	 0.787253760119446 
1369	 0.983182614950688 
1370	 1.42187203079261 
1371	 4.05954460900533 
1372	 4.78939076886202 
1373	 7.72341548877839 
1374	-30.9340695594213 
1375	 0.717787607201295 
1376	-0.172287957177991 
1377	-0.388606566155063 
1378	-0.375869879488466 
1379	 0.964375770213916 
1380	 0.520481321319322 
1381	-1.0642319296589 
1382	-1.1770475758676 
1383	-0.748842757650827 
1384	-0.620954799630244 
1385	 2.05958541844918E-02 
1386	 0.165936148178876 
1387	-0.773397036452294 
1388	-0.724508295490555 
1389	 0.390352748749561 
1390	 0.603863951294221 
1391	 0.317428321146852 
1392	 0.355436065999105 
1393	 8.29858853665927E-02 
1394	-0.254916663596247 
1395	 0.297979000692223 
1396	 0.708586749534262 
1397	 0.621926229406449 
1398	-42.7851840747083 
1399	-1.22451433168609 
1400	-1.95121676145966 
1401	-2.95968862579139 
1402	 14.0547764916965 
1403	 1.74948841925674 
1404	 9.46597227915666 
1405	 33.7664695504061 
1406	 0.386216693794428 
1407	 0.578219746254901 
1408	 7.3701961971347 
1409	 42.8298526966121 
1410	-2.08635996678761 
1411	-3.70859411873148 
1412	 1.75376401980895 
1413	 1.58034319404432 
1414	 1.89416668435017 
1415	 1.14526915908921 
1416	-1.08938212414513 
1417	-5.19556825934142 
1418	-2.05935892689286 
1419	 0.677690760703835 
1420	 3.98255858511419 
1421	 3.06553583136684 
1422	 0.873133558939358 
1423	 0.942056411300975 
1424	 2.63980117655392 
1425	 1.80576340043752 
1426	 0.502518689782838 
1427	 0.45021944086146 
1428	 0.121936266455917 
1429	-0.101481813005732 
1430	-0.226705871963918 
1431	-5.51123577304814E-02 
1432	 0.433559658470546 
1433	 0.400261317183284 
1434	 0.425828425893233 
1435	 0.752305216812921 
1436	 0.639740176577991 
1437	 0.174638874885025 
1438	 0.262564982315899 
1439	 0.794026978842659 
1440	 0.728578898258008 
1441	 0.278202462389111 
1442	 4.46872874065278E-02 
1443	-0.149463674284414 
1444	-0.196131657784565 
1445	-9.36602403736009E-02 
1446	 4.36280955531476E-02 
1447	 0.254328866747747 
1448	 0.336271138092404 
1449	 0.24591376123753 
1450	 0.195941866944335 
1451	 0.211871352619238 
1452	 0.206809304795094 
1453	 0.208129462413569 
1454	 0.208842685912834 
1455	 0.202533715842219 
1456	 0.190200978643922 
1457	 0.180318598760384 
1458	 0.176467445530018 
1459	 0.17188235248768 
1460	 0.147929384583541 
1461	 0.107905002101555 
1462	 0.10999979513031 
1463	 0.104887944326185 
1464	 0.102136202050657 
1465	 0.152189685257895 
1466	 0.17425406214921 
1467	 0.151135066719163 
1468	 0.174624503847459 
1469	 0.283403503721417 
1470	 0.281726953198227 
1471	 0.234660592804292 
1472	 0.187634826294556 
1473	 7.61484021218572E-02 
1474	 3.76606141386281E-02 
1475	 6.15352957998293E-03 
1476	 3.44530433012199E-02 
1477	 0.150547774530197 
1478	 0.146463569095301 
1479	 0.100037919406504 
1480	 0.119780883408265 
1481	 0.119608621036531 
1482	 9.87471939304452E-02 
1483	 0.104351636814429 
1484	 0.111944737404007 
1485	 0.103780081580709 
1486	 8.53679445841629E-02 
1487	 7.42367514305004E-02 
1488	 7.04460106406015E-02 
1489	 4.78169924980147E-02 
1490	 4.00620753098526E-02 
1491	 0.055555147699568 
1492	 5.81029046254135E-02 
1493	 0.052877152080787 
1494	 4.78967202049028E-02 
1495	 3.56937574311283E-02 
1496	 4.20860955254838E-02 
1497	 6.85814689495471E-02 
1498	 6.53881441301548E-02 
1499	 4.66773797528128E-02 
1500	 4.78680489636158E-02 
1501	 4.71616211768017E-02 
1502	 4.27505987568785E-02 
1503	 5.08155546633724E-02 
1504	 5.49708484635792E-02 
1505	 5.05521011513245E-02 
1506	 4.36209996733374E-02 
1507	 0.044451118764197 
1508	 4.83222210378246E-02 
1509	 4.83125469091679E-02 
1510	 4.52652741947484E-02 
1511	 4.29874017822971E-02 
1512	 4.58432659375517E-02 
1513	 4.62297457056627E-02 
1514	 4.55703297565068E-02 
1515	 4.85075234185784E-02 
1516	 0.046883345927192 
1517	 4.04451025649055E-02 
1518	 3.70169167424137E-02 
1519	 4.00389218672746E-02 
1520	 4.28687469753659E-02 
1521	 4.23710660901721E-02 
1522	 4.32587217101833E-02 
1523	 4.35805682437734E-02 
1524	 3.98466461821981E-02 
1525	 3.72793948889964E-02 
1526	 3.83041063459046E-02 
1527	 4.02057041779248E-02 
1528	 4.06864639987941E-02 
1529	 3.99600924811579E-02 
1530	 4.13673376141636E-02 
1531	 4.07703696256654E-02 
1532	 3.87697960913646E-02 
1533	 3.94842117044086E-02 
1534	 4.01144061955418E-02 
1535	 4.03929320172267E-02 
1536	 3.90604212285692E-02 
1537	 3.85340489714244E-02 
1538	 0.039991973472896 
1539	 4.00438240150311E-02 
1540	 4.06580774028587E-02 
1541	 4.06794663830798E-02 
1542	 3.99693244075589E-02 
1543	 4.08790504355803E-02 
1544	 3.97822096759944E-02 
1545	 3.83572959031283E-02 
1546	 3.94001921573965E-02 
1547	 3.94066462102747E-02 
1548	 3.93775728083733E-02 
1549	 4.00887525116094E-02 
1550	 3.94424034075407E-02 
1551	 3.92859684549866E-02 
1552	 3.95363477281848E-02 
1553	 3.86379122217005E-02 
1554	 3.94161924159123E-02 
1555	 0.040618901234698 
1556	 3.92238501662477E-02 
1557	 0.039283374528504 
1558	 4.22865992381445E-02 
1559	 4.27743490214395E-02 
1560	 4.06986520453465E-02 
1561	 3.87449982756257E-02 
1562	 3.58222240920676E-02 
1563	 0.035910868970246 
1564	 3.83315582498357E-02 
1565	 3.75464494824295E-02 
1566	 3.64475182126732E-02 
1567	 3.74418233194482E-02 
1568	 3.79200954542152E-02 
1569	 3.76135377111756E-02 
1570	 3.85658187183181E-02 
1571	 3.88620901241236E-02 
1572	 3.62204268342561E-02 
1573	 3.58410743116652E-02 
1574	 3.79307997843025E-02 
1575	 3.48515610058082E-02 
1576	 3.21369433229503E-02 
1577	 3.55723662285761E-02 
1578	 3.74896192402449E-02 
1579	 3.69527266706501E-02 
1580	 3.88949451042716E-02 
1581	 4.01375836169155E-02 
1582	 3.84935165427023E-02 
1583	 3.83667065146821E-02 
1584	 3.91299273960985E-02 
1585	 3.80873521402309E-02 
1586	 3.71536596586085E-02 
1587	 3.78965893524905E-02 
1588	 3.75653856006368E-02 
1589	 3.51389611637536E-02 
1590	 3.47904390910544E-02 
1591	 3.60110437416934E-02 
1592	 3.66990839712552E-02 
1593	 3.77284179463558E-02 
1594	 3.88801311923247E-02 
1595	 3.97865242354354E-02 
1596	 3.88974940416179E-02 
1597	 3.79539393287889E-02 
1598	 3.91919674242388E-02 
1599	 3.96386193157638E-02 
1600	 4.03845022220458E-02 
1601	 4.10913196026318E-02 
1602	 3.92624983326017E-02 
1603	 3.69383270290549E-02 
1604	 3.51944963693138E-02 
1605	 3.62611490695995E-02 
1606	 3.95095108217122E-02 
1607	 4.10194883731181E-02 
1608	 4.14932175928318E-02 
1609	 4.08153062071356E-02 
1610	 3.81405897333335E-02 
1611	 3.60921361016094E-02 
1612	 3.68361456077755E-02 
1613	 4.02411388036671E-02 
1614	 3.94732512581488E-02 
1615	 3.49111645477962E-02 
1616	 3.57518629500479E-02 
1617	 3.76793699346054E-02 
1618	 3.70710543855542E-02 
1619	 3.78437693862068E-02 
1620	 3.82279399309973E-02 
1621	 3.74958740779386E-02 
1622	 0.038264984870784 
1623	 4.02978838351923E-02 
1624	 4.05678447512812E-02 
1625	 3.81427918868497E-02 
1626	 3.50512854082771E-02 
1627	 3.37381393163151E-02 
1628	 3.54134426109957E-02 
1629	 3.77845043703671E-02 
1630	 3.91461048711128E-02 
1631	 3.93555067301225E-02 
1632	 3.74115649960747E-02 
1633	 3.48012411859857E-02 
1634	 3.52339627735375E-02 
1635	 3.84700797202818E-02 
1636	 3.98196041504124E-02 
1637	 3.97833169858807E-02 
1638	 3.97011569490429E-02 
1639	 3.73098182588084E-02 
1640	 3.69466406576213E-02 
1641	 3.94902249669759E-02 
1642	 3.84858135052347E-02 
1643	 3.69385543045298E-02 
1644	 3.83316696917672E-02 
1645	 3.87098947304006E-02 
1646	 3.76495892670831E-02 
1647	 3.70148807827977E-02 
1648	 3.79947878624559E-02 
1649	 3.80649642802879E-02 
1650	 0.036723268331484 
1651	 3.94468215564672E-02 
1652	 4.18451805230559E-02 
1653	 3.89543747805529E-02 
1654	 3.88808477438659E-02 
1655	 3.86912059298633E-02 
1656	 3.78003947013769E-02 
1657	 3.77551421210266E-02 
1658	 3.83898941716743E-02 
1659	 0.038549040582385 
1660	 3.81694226416358E-02 
1661	 3.92888974001027E-02 
1662	 4.01298565405664E-02 
1663	 3.89720853962987E-02 
1664	 3.86106731796574E-02 
1665	 4.03424934774813E-02 
1666	 3.92694593019975E-02 
1667	 3.54197614974145E-02 
1668	 3.67738448620913E-02 
1669	 3.71148585036503E-02 
1670	 0.037604186653599 
1671	 3.80129630058352E-02 
1672	 0.037518698281942 
1673	 0.038565729224868 
1674	 0.039747242279643 
1675	 3.90270229749283E-02 
1676	 3.94615025907211E-02 
1677	 0.039340897381972 
1678	 0.037908592883627 
1679	 4.03905317138974E-02 
1680	 4.04786287814913E-02 
1681	 3.75280137762797E-02 
1682	 3.78626411113965E-02 
1683	 3.73708151465053E-02 
1684	 3.82886425767917E-02 
1685	 0.04117130148981 
1686	 0.039226257332413 
1687	 3.69986499350611E-02 
1688	 3.67085295049196E-02 
1689	 3.39254326989341E-02 
1690	 3.43483009450403E-02 
1691	 3.77068775599022E-02 
1692	 3.92743164662834E-02 
1693	 4.07720136786477E-02 
1694	 3.96785887971648E-02 
1695	 3.78148492158937E-02 
1696	 3.54992203234695E-02 
1697	 3.41000795325555E-02 
1698	 3.87999136657183E-02 
1699	 4.15099997300179E-02 
1700	 4.07337889225946E-02 
1701	 4.13414873177301E-02 
1702	 0.038956641615468 
1703	 3.73267610075254E-02 
1704	 3.92727901537538E-02 
1705	 3.81340896154897E-02 
1706	 3.63983612639677E-02 
1707	 3.60771783995902E-02 
1708	 3.59524928644745E-02 
1709	 0.039907248683219 
1710	 4.32439735667364E-02 
1711	 4.29412208477363E-02 
1712	 4.24564611041991E-02 
1713	 0.038776349304413 
1714	 3.80486918961734E-02 
1715	 3.97150712683664E-02 
1716	 3.73801869066962E-02 
1717	 3.62039975254237E-02 
1718	 3.82355032746276E-02 
1719	 3.85527911578937E-02 
1720	 0.038838525413505 
1721	 4.17396416871154E-02 
1722	 3.98300369002798E-02 
1723	 3.88083328643623E-02 
1724	 4.13014591716262E-02 
1725	 3.84412505010442E-02 
1726	 3.64225390478579E-02 
1727	 4.03091946841136E-02 
1728	 4.46773810353757E-02 
1729	 4.51347463443601E-02 
1730	 4.22866277433545E-02 
1731	 3.82185283074808E-02 
1732	 3.38134057960046E-02 
1733	 3.48751941322517E-02 
1734	 4.06872922899536E-02 
1735	 4.13304279239423E-02 
1736	 3.89464921889127E-02 
1737	 3.97130021624654E-02 
1738	 4.13530347045487E-02 
1739	 4.56065422231519E-02 
1740	 5.00521482793829E-02 
1741	 4.83908724065423E-02 
1742	 4.47001605499227E-02 
1743	 4.49125528858426E-02 
1744	 4.67143859246628E-02 
1745	 4.66333550508483E-02 
1746	 4.51312050793781E-02 
1747	 4.38172296717938E-02 
1748	 3.82098047093332E-02 
1749	 3.80831590799545E-02 
1750	 4.56738974170433E-02 
1751	 4.69058270787104E-02 
1752	 4.54018638493974E-02 
1753	 4.61971379584648E-02 
1754	 4.42253457648408E-02 
1755	 4.20059754205945E-02 
1756	 4.03336808367569E-02 
1757	 0.043904972328191 
1758	 4.67854265429241E-02 
1759	 0.049463754689884 
1760	 5.54140177879308E-02 
1761	 5.30983777570662E-02 
1762	 4.77522000974162E-02 
1763	 4.66552964508554E-02 
1764	 4.07087104017287E-02 
1765	 3.84415387816533E-02 
1766	 4.29800315881749E-02 
1767	 0.040541781848872 
1768	 4.33415896556224E-02 
1769	 4.60085620571384E-02 
1770	 4.13539293474955E-02 
1771	 5.04922475035089E-02 
1772	 5.63924709880743E-02 
1773	 5.11024282222949E-02 
1774	 5.28728552254621E-02 
1775	 5.51198663440732E-02 
1776	 4.98482043887021E-02 
1777	 4.30112596676844E-02 
1778	 4.42349818153762E-02 
1779	 3.94064271922017E-02 
1780	 4.39671621662813E-02 
1781	 7.24824230516615E-02 
1782	 7.40491894771452E-02 
1783	 5.49362863807302E-02 
1784	 0.060196722755614 
1785	 7.19065976431911E-02 
1786	 7.31751102553187E-02 
1787	 8.04569370288692E-02 
1788	 6.78811296754776E-02 
1789	 2.34217782624181E-02 
1790	 3.98764979398939E-02 
1791	 6.47322229170388E-02 
1792	 0.116507208724622 
1793	 0.11633828703325 
1794	 6.26400138115212E-02 
1795	 6.88938714782659E-02 
1796	 0.110489766193643 
1797	 0.141591125623154 
1798	 0.167047170303796 
1799	 0.144534048975614 
1800	 3.65380070064647E-02 
1801	-1.07944113556812E-02 
1802	 8.27575558908668E-02 
1803	 0.07452746060201 
1804	-4.63664865127782E-02 
1805	-0.010641955932391 
1806	 0.164278443704347 
1807	 0.246879186304395 
1808	 0.349200487932608 
1809	 0.364657944743165 
1810	-3.47664678111731E-02 
1811	 1.38655342873054E-02 
1812	 0.7612670625287 
1813	 0.912448769311604 
1814	 1.03171346596344 
1815	 0.68502959409421 
1816	 1.64954855698214E-02 
1817	-0.351956361136064 
1818	-0.330676400057162 
1819	 0.21666442721366 
1820	 0.484640402702043 
1821	-0.159577714252382 
1822	-0.658265514942459 
1823	-1.43241933946957 
1824	-1.35359985975908 
1825	 1.6772965673288 
1826	 1.58761818657115 
1827	 0.855908507677554 
1828	 0.55465487846554 
1829	-1.41531620551642 
1830	-1.95114405595163 
1831	 3.0139839627446 
1832	 2.09557467917241 
1833	-1.63870720154362 
1834	-4.19942668371009 
1835	 24.6283833470305 
1836	 10.5146263213026 
1837	-0.285124408849173 
1838	-1.01782300624067 
1839	-2.12775792782609 
1840	-24.4551926885818 
1841	 1.3410857892567 
1842	 0.567323545511937 
1843	 0.218591864203843 
1844	-0.729896261243725 
1845	-1.90335780024577 
1846	 2.25318304391688 
1847	 2.10673931490918 
1848	-3.64550406786231 
1849	-0.994751001454898 
1850	 2.43978679584576 
1851	 4.45929744661757 
1852	 1.36333937244469 
1853	 1.37553920838713 
1854	 1.21726876014777 
1855	 0.722542894333508 
1856	 0.633883928230388 
1857	 0.62917101866741 
1858	 0.589262767853128 
1859	 0.496208071586443 
1860	 0.479040792542962 
1861	 0.284766428299516 
1862	 0.293296247301676 
1863	 1.00550078000459 
1864	 1.96005983758975 
1865	 3.46152737603253 
1866	-7.92234060724901 
1867	-4.44598070583276 
1868	-4.0271417496568 
1869	-17.019651387862 
1870	 43.0763606826906 
1871	 3.38846426043396 
1872	 1.72951082185927 
1873	 1.19382811479457 
1874	 0.795434002848321 
1875	 0.730189428643367 
1876	 0.80897915831316 
1877	 2.17093141804176 
1878	 1.79208689385845 
1879	 0.613834220825405 
1880	 0.248776343681672 
1881	-0.205491792179103 
1882	-0.473831315703221 
1883	-0.748427007881471 
1884	-1.0468705816714 
1885	 0.839504059068287 
1886	 28.1786257225121 
1887	-4.49871936504354 
1888	 11.9567341138481 
1889	 3.62678100380933 
1890	 0.351438236157259 
1891	-3.30301388468696E-02 
1892	-0.43727096242007 
1893	-1.91714792724892 
1894	-4.95214007200156 
1895	-4.49124558435325 
1896	-4.04150034841057 
1897	-0.826733058904138 
1898	-0.751371159463061 
1899	-3.07514818166684 
1900	-8.21460145027763 
1901	-1.41522340691887 
1902	-1.61819877616854 
1903	-1.75372121340746 
1904	-4.49397951181584 
1905	 0.986927997847382 
1906	 0.681216944606689 
1907	 0.650069728945074 
1908	 0.959473717229672 
1909	 1.3695337771712 
1910	-0.388973894819463 
1911	 7.14901038379517 
1912	-4.99012831232201 
1913	-24.6753590444381 
1914	 1.19813503764074 
1915	 0.137926542547948 
1916	-2.17103604473011 
1917	-3.57628683571446 
1918	-4.10384917882311 
1919	 1.86604880545835 
1920	 0.86430709103249 
1921	 0.418516432986437 
1922	-0.137292173867281 
1923	-0.451707534802773 
1924	-1.09798709624632 
1925	-0.73410474116093 
1926	-0.853662135057887 
1927	-0.725301229909929 
1928	-1.45226564971583 
1929	-15.5228679034782 
1930	 4.67338822434626 
1931	 2.5451102962134 
1932	 1.53958651452338 
1933	 1.11730273292558 
1934	-2.84693968074838E-02 
1935	-2.24641540059069 
1936	-6.77840649996695 
1937	-1.00352576803864 
1938	-0.324566572743495 
1939	-0.271295756899044 
1940	-0.295475470872776 
1941	-0.299100703555785 
1942	-0.397050281104804 
1943	-0.28351223772925 
1944	-0.188211450139289 
1945	-0.250893104967157 
1946	 0.268941784154388 
1947	-30.3810608930852 
1948	 0.295606871544363 
1949	 0.312111123095736 
1950	 0.320739952505656 
1951	 0.105827089122286 
1952	 0.316670681172879 
1953	 4.24224843148768 
1954	-3.02311667416518 
1955	-1.61250809333117 
1956	-1.03565833619088 
1957	-1.07995838906775 
1958	-1.20572467768754 
1959	-0.690166267593988 
1960	-0.562738498186396 
1961	-0.355116850184259 
1962	-0.233713825293157 
1963	-0.407324478892006 
1964	-0.978390840862332 
1965	-1.4522370689303 
1966	-1.85487908154991 
1967	-3.16944567786805 
1968	-3.36988299227416 
1969	-1.18532114350358 
1970	-0.407110167864255 
1971	 8.39387497484137E-03 
1972	 0.202530441784037 
1973	 0.306304863232408 
1974	 0.296450460725 
1975	 0.182714009699232 
1976	 0.089818299597785 
1977	 0.186453099537477 
1978	 0.312896332972592 
1979	 0.294820638871101 
1980	 0.242233605047554 
1981	 0.209600585305714 
1982	 5.08034927840939E-03 
1983	-0.142050383883372 
1984	-8.01312081584077E-02 
1985	-1.91822891994212E-02 
1986	 6.85208084357164E-02 
1987	 0.170005078204285 
1988	 0.135507505389325 
1989	 0.176188514991973 
1990	 0.201913098939713 
1991	 0.104025026887683 
1992	 0.046327722763346 
1993	 0.029434581417609 
1994	-0.026658135244056 
1995	-0.139734529318747 
1996	-0.304896231596224 
1997	-0.502933567218509 
1998	-0.534271999512974 
1999	-0.424995763966551 
2000	-0.666369719152347 
2001	-0.64595050801141 
2002	-0.380725216268281 
2003	-0.416323230264897 
2004	-0.107476649916157 
2005	 0.1655895918963 
2006	 0.135872274756851 
2007	 4.69932070898861E-02 
2008	-0.164720773325184 
2009	-0.286347853130839 
2010	-0.506797708319374 
2011	-0.514694383486834 
2012	-0.537607182339078 
2013	-8.79482031410898E-03 
2014	-9.58385246131046E-02 
2015	-0.071124979573133 
2016	 5.37092659902121E-02 
2017	-0.016946979306147 
2018	 6.17371110611819E-02 
2019	 8.97463742375937E-02 
2020	-2.63932238583063E-02 
2021	-5.68339619919437E-02 
2022	-3.04931560659167E-02 
2023	-0.011039617775852 
2024	-1.99533072865003E-02 
2025	-3.35389038012281E-02 
2026	-3.13396999777904E-02 
2027	-2.49284930411697E-02 
2028	-6.02791038419742E-02 
2029	-6.54877545852257E-02 
2030	-6.91880188922316E-02 
2031	-8.63774300491718E-02 
2032	-7.20915232532822E-02 
2033	-2.28502471516752E-02 
2034	 3.79047475024108E-03 
2035	 7.27764376534495E-03 
2036	 4.52257942960216E-02 
2037	 6.96672781949653E-02 
2038	 0.071303809498968 
2039	 0.089952263119781 
2040	 0.148107574606121 
2041	 0.140535061518007 
2042	 8.42397226273262E-02 
2043	 7.02465922007557E-02 
2044	 5.79719296666418E-02 
2045	 1.04883061207435E-02 
2046	-0.01563426801575 
2047	-3.07375023929362E-02 
2048	-5.76889488457587E-02 
2049	-7.59337494219709E-02 
2050	-3.99216605285946E-02 
2051	 1.27125201943697E-02 
2052	 1.85071998018523E-02 
2053	 3.54738601801874E-02 
2054	 5.13849759787352E-02 
2055	 5.52791737425107E-02 
2056	 4.85720250467565E-02 
2057	 3.58489047110857E-02 
2058	 3.60803653337657E-02 
2059	 1.35042232868217E-02 
2060	 1.11610956957974E-02 
2061	 4.25326493884712E-02 
2062	 4.59860493179771E-02 
2063	 5.43437193029881E-02 
2064	 5.57228337724855E-02 
2065	 2.02816874119092E-02 
2066	 2.12098563812992E-02 
2067	 2.54569331354582E-03 
2068	-8.37200132354829E-03 
2069	 1.76016135751827E-02 
2070	 0.019058683748705 
2071	 6.3824050651734E-03 
2072	 2.53871262942002E-02 
2073	 3.69589100474744E-02 
2074	 4.85836184848402E-02 
2075	 4.96465964574863E-02 
2076	 5.04650684801306E-02 
2077	 4.48858737142392E-02 
2078	 3.77738929730274E-02 
2079	 2.86080163138111E-02 
2080	 1.68806738032251E-02 
2081	-1.17308012872181E-03 
2082	-4.92459609316093E-03 
2083	 9.51968248492028E-04 
2084	 1.05871430978495E-02 
2085	 2.71630267333038E-02 
2086	 2.88620207347693E-02 
2087	 1.50851630983466E-02 
2088	-3.44819548488161E-03 
2089	-5.98829299992679E-03 
2090	 4.3173541671722E-03 
2091	-1.08087631989786E-02 
2092	-1.46795085569449E-02 
2093	-5.16466543099659E-03 
2094	-8.11483283736801E-03 
2095	-2.29211718946774E-02 
2096	-0.021486018521823 
2097	-1.50999390675943E-02 
2098	-8.47159072921877E-03 
2099	 2.95771939508434E-03 
2100	 1.42842234594581E-02 
2101	 3.44190704581158E-02 
2102	 2.16654071502322E-02 
2103	 2.52079651433854E-02 
2104	 4.06394108337623E-02 
2105	 3.56232560481757E-02 
2106	 5.16041679865385E-02 
2107	 6.34687724425999E-02 
2108	 5.66651392236982E-02 
2109	 4.43645545511664E-02 
2110	 3.05329406901099E-02 
2111	 1.32941505348486E-02 
2112	-5.10793432006257E-03 
2113	-3.20121539576431E-03 
2114	 2.22490185436755E-02 
2115	 3.33327138353985E-02 
2116	 0.059654474723016 
2117	 6.97466637015783E-02 
2118	 6.74646280035882E-02 
2119	 6.58375100975371E-02 
2120	 5.99676052941328E-02 
2121	 4.36512601431244E-02 
2122	 4.09237118489832E-02 
2123	 3.73756396515998E-02 
2124	 3.66660197661645E-02 
2125	 3.84761932375569E-02 
2126	 2.94736759853639E-02 
2127	 3.11756873342796E-02 
2128	 3.74470734446161E-02 
2129	 3.87735889597668E-02 
2130	 3.71958039930148E-02 
2131	 2.43550122371396E-02 
2132	 9.01836683434879E-03 
2133	 4.01245033987424E-03 
2134	 4.46924898513828E-03 
2135	 1.17969579913113E-02 
2136	 2.09510567491845E-02 
2137	 4.03717134947747E-02 
2138	 5.12036484008753E-02 
2139	 6.73583896568986E-02 
2140	 7.21772962521368E-02 
2141	 6.31002069597991E-02 
2142	 5.92325399092459E-02 
2143	 4.93748577918924E-02 
2144	 4.71966305108869E-02 
2145	 0.04815207969502 
2146	 4.65821471948529E-02 
2147	 5.57204608315158E-02 
2148	 6.09517242518678E-02 
2149	 6.40248102729229E-02 
2150	 8.12918045096393E-02 
2151	 8.22716008802547E-02 
2152	 7.84622782904913E-02 
2153	 7.78531206875477E-02 
2154	 6.44192009684762E-02 
2155	 0.06284206864963 
2156	 6.49527054646221E-02 
2157	 5.84286882232211E-02 
2158	 5.34956133710512E-02 
2159	 4.51386519299059E-02 
2160	 2.18400967431454E-02 
2161	 1.36427698422742E-02 
2162	 8.6375285208885E-03 
2163	 9.53504241453009E-03 
2164	 2.73474416087734E-02 
2165	 3.07009496274341E-02 
2166	 2.88201985161933E-02 
2167	 3.00110528124848E-02 
2168	 2.39763295146541E-02 
2169	 1.94286243401394E-02 
2170	 1.28062226835438E-02 
2171	 2.36985808756531E-02 
2172	 3.22091415579433E-02 
2173	 3.30493260821079E-02 
2174	 2.85948877423429E-02 
2175	 2.61017811057041E-02 
2176	 2.90154343592508E-02 
2177	 3.99027961561347E-02 
2178	 4.31452449062914E-02 
2179	 4.69460291139547E-02 
2180	 5.27989357673439E-02 
2181	 3.38741035570103E-02 
2182	 2.19736821625005E-02 
2183	 2.62600964853511E-02 
2184	 2.70734491395384E-02 
2185	 2.68703406504888E-02 
2186	 2.23508731089921E-02 
2187	 3.10180819904386E-02 
2188	 2.12368754228778E-02 
2189	-1.96994483340117E-02 
2190	-3.59698670753255E-02 
2191	-4.96265898414064E-02 
2192	-4.77896014416573E-02 
2193	-0.02048954446449 
2194	-9.90209225585808E-03 
2195	 8.13558817645793E-03 
2196	 1.89147148489152E-02 
2197	 1.32681427118853E-02 
2198	 8.78341407965793E-03 
2199	 8.87451396659108E-03 
2200	-5.34797484987521E-04 
2201	-1.50363563325184E-02 
2202	 4.3465423969538E-03 
2203	 1.54832634751993E-02 
2204	 0.025499966427538 
2205	 1.79308137583578E-02 
2206	 1.72146061188785E-02 
2207	 3.92521605072966E-02 
2208	 4.43862429973853E-02 
2209	 5.93368683794025E-02 
2210	 0.041093140374916 
2211	 9.3812386130524E-03 
2212	-9.54293394167275E-03 
2213	-1.17316620114865E-02 
2214	 6.37907786770534E-03 
2215	 9.79399130149719E-03 
2216	 1.51384716425778E-02 
2217	 1.92373935069755E-02 
2218	 1.00262638772143E-02 
2219	 9.01563777725425E-03 
2220	 1.68996543131468E-02 
2221	 2.51495680750307E-02 
2222	 3.13359478052269E-02 
2223	 2.51463295813379E-02 
2224	 0.018092041396451 
2225	 2.16144353305816E-02 
2226	 0.018208006587949 
2227	 2.34625308176594E-02 
2228	 5.64565824144665E-02 
2229	 5.31374770511168E-02 
2230	 1.77631899958189E-02 
2231	 6.48328342770776E-04 
2232	-2.59049817583332E-02 
2233	-4.01825557458063E-02 
2234	-3.81569545060517E-02 
2235	-0.037534598541611 
2236	-4.81192195632144E-02 
2237	-4.45656420179475E-02 
2238	-4.61430238345695E-02 
2239	-4.07437509812109E-02 
2240	-1.27908343751288E-02 
2241	-8.94105407622769E-03 
2242	-0.017807268650619 
2243	-7.18291891346574E-03 
2244	-9.20515993868685E-03 
2245	-4.13117223345743E-03 
2246	 8.89280321957207E-03 
2247	 1.26906684804027E-02 
2248	 3.68465226242505E-02 
2249	 4.81422592208477E-02 
2250	 6.55082780425773E-02 
2251	 9.82230802664481E-02 
2252	 8.72669677356973E-02 
2253	 0.061841692156245 
2254	 3.39992917469433E-02 
2255	-4.01753041579102E-03 
2256	-9.93877189788372E-03 
2257	-7.77252425086684E-03 
2258	-3.89256260846889E-03 
2259	 1.62085435945407E-02 
2260	 1.92156968664631E-02 
2261	-1.61437629519738E-03 
2262	 6.01887869772999E-03 
2263	 2.59217706025386E-02 
2264	 3.81839278884725E-02 
2265	 7.22017425152876E-02 
2266	 7.15791871435327E-02 
2267	 3.12603293745319E-02 
2268	 2.16223029364961E-02 
2269	 2.18776635788996E-02 
2270	 1.55226655451019E-02 
2271	 1.13924455741221E-02 
2272	 1.73343241563023E-02 
2273	 1.91750622467838E-02 
2274	 1.55094589829863E-02 
2275	 3.67463987387323E-02 
2276	 4.94850149237935E-02 
2277	 2.50403653683673E-02 
2278	 3.79383607786578E-02 
2279	 0.100492712115782 
2280	 0.116039310697203 
2281	 0.132717874923414 
2282	 0.114581346672248 
2283	 0.06381915300261 
2284	 1.28074855529068E-02 
2285	-1.31839013537024E-02 
2286	-2.62150672395116E-02 
2287	-2.85838783295768E-02 
2288	-9.23995916383954E-03 
2289	 1.03085431813433E-02 
2290	 3.87761760754312E-02 
2291	 6.85342013924915E-02 
2292	 6.46109492209023E-02 
2293	 3.94486539181854E-02 
2294	-3.27386056209401E-03 
2295	-6.36114415410624E-02 
2296	-0.110918110694392 
2297	-0.101598830943619 
2298	-0.106833889696206 
2299	-9.44419897164954E-02 
2300	-4.63776060996605E-02 
2301	-5.80493618841834E-02 
2302	-5.44675730539453E-02 
2303	-1.01598463121637E-02 
2304	 2.11332993283447E-02 
2305	 7.27347234505599E-02 
2306	 9.38352409950728E-02 
2307	 8.11367834832731E-02 
2308	 8.17198492312532E-02 
2309	 3.69108272588369E-02 
2310	 1.18460031398527E-02 
2311	 4.35718978971077E-02 
2312	 4.87914877092521E-02 
2313	 8.97705916128083E-02 
2314	 0.160900019735035 
2315	 0.177343808051388 
2316	 0.166372897036391 
2317	 0.18447791693539 
2318	 0.149582326869927 
2319	 0.122467709094827 
2320	 0.122245465111352 
2321	 7.16657885646632E-02 
2322	 0.115611363084594 
2323	 0.156197723399284 
2324	 0.018090363874492 
2325	-8.43115533308586E-02 
2326	-0.123141849722183 
2327	-0.134358720638627 
2328	-6.05009707650095E-02 
2329	 1.86830324994086E-02 
2330	 3.94358156650283E-02 
2331	-7.34825442191778E-04 
2332	 1.44400717922863E-02 
2333	 1.52694355810536E-02 
2334	-5.83107190422248E-02 
2335	-6.46819878699615E-02 
2336	-0.175758845273342 
2337	-0.270166953804172 
2338	-0.166592392368577 
2339	-0.290075074931406 
2340	-0.326678769645704 
2341	-0.296906982894531 
2342	-0.431345672949311 
2343	-0.378804765203632 
2344	-0.398945125982196 
2345	-0.596541653450709 
2346	-0.489834573163804 
2347	-0.606110936234898 
2348	-0.684709071126648 
2349	-0.272694729817354 
2350	-9.53605466591212E-02 
2351	-4.77541595547482E-02 
2352	 8.79865250171131E-02 
2353	 0.101912634008039 
2354	-0.102843236169484 
2355	-0.203095666471225 
2356	-0.136103144875615 
2357	-0.108254432719765 
2358	-6.07607610662551E-02 
2359	 0.119488721345202 
2360	 0.208302695063279 
2361	 0.106563288930326 
2362	-2.68522903309007E-02 
2363	-0.186139904757309 
2364	-0.414647068512765 
2365	-0.298767960999566 
2366	-0.146291095790035 
2367	-6.01128105906864E-02 
2368	 0.120298707253876 
2369	 0.338657548453968 
2370	 0.612041087449728 
2371	 0.641080258573192 
2372	 0.583332551141555 
2373	 0.131538964321788 
2374	-0.482135089184053 
2375	-0.711670933040483 
2376	-0.620264133459474 
2377	-0.246551207164708 
2378	-0.120950840054969 
2379	-0.252938505103745 
2380	-0.460067983937687 
2381	-0.655008652199932 
2382	-1.03207912561486 
2383	-2.00429674422475 
2384	-2.33988153267447 
2385	-3.8911280814178 
2386	 0.450868248245684 
2387	-0.417748712689279 
2388	-2.33582726423097 
2389	-14.6086182523486 
2390	-13.5389568192495 
2391	-3.0634952320713 
2392	-2.55715642970294 
2393	 120.116963894102 
2394	-1.47697097930015 
2395	-73.0538705388636 
2396	-4.00980581315268 
2397	-0.558995920633329 
2398	-9.39713604749793 
2399	 1.45826727002213 
2400	-14.7879295899808 
2401	 4.94170232842652 
2402	 1.48937463264628 
2403	 2.31623944916237 
2404	 4.86887030476269 
2405	 3.54897327979417 
2406	 7.78465708040301 
2407	-1.97993709959894 
2408	-3.74816643316068 
2409	 0.205643348022932 
2410	 0.37342868457289 
2411	-5.26930973592117E-02 
2412	 0.558731561392165 
2413	 1.20478935498864 
2414	 0.864961144166967 
2415	 1.50203738752305 
2416	-3.93234917988251 
2417	-1.83970520519682 
2418	-0.877832762134604 
2419	-1.31477259381711 
2420	-1.30332908890629 
2421	-1.13293252776959 
2422	-2.66901363084095 
2423	-8.95786834037794 
2424	 4.21217412496811 
2425	 2.39111415328893 
2426	-9.99299455066664 
2427	-2.83122329702181 
2428	-3.3718761626975 
2429	-0.872433255735754 
2430	-0.404604404989921 
2431	 3.08116248781425 
2432	 0.960377006459317 
2433	 1.58751740298374 
2434	 1.20781550694018 
2435	-0.135924282580624 
2436	-0.415317378571156 
2437	-0.408074867059902 
2438	-2.13710485369995 
2439	 0.239874632770014 
2440	 9.11321702378576E-02 
2441	 0.722740140804228 
2442	 6.63439935994235 
2443	-1.37509295376733 
2444	-9.96051609700829E-02 
2445	 0.853006381643008 
2446	-2.57707638412545 
2447	-7.74981506810811 
2448	 7.37508716155292 
2449	 1.55830780302013 
2450	 1.0349387805662 
2451	 0.109394363229646 
2452	-2.28993442891606 
2453	 0.713468338140969 
2454	 0.403339350124657 
2455	 0.175443579310533 
2456	 0.182114299290237 
2457	 0.39932665895099 
2458	 0.402846489347397 
2459	 0.513537022579868 
2460	 0.797292713529424 
2461	 0.33661227743875 
2462	 0.35030243092307 
2463	 0.531256909477566 
2464	 0.119528324997902 
2465	 1.37383985366708 
2466	 1.68197094592612 
2467	 1.47090576428078 
2468	 3.33197022053112 
2469	-32.3550694252208 
2470	-0.517403845146544 
2471	 0.22174430111152 
2472	 0.494153547029212 
2473	 0.782875230208761 
2474	 1.08730562385469 
2475	 0.856304450537102 
2476	-0.741303993778889 
2477	-2.04332838549675 
2478	-1.08657022799538 
2479	-0.528942050494728 
2480	-0.567075399457582 
2481	-0.113342906195037 
2482	 1.4845197204667 
2483	 1.06317117515353 
2484	 9.41145977464269E-02 
2485	-3.11547663544497 
2486	 4.48618442527324 
2487	 36.3446332158563 
2488	 4.04880279700505 
2489	 0.705130099559666 
2490	 7.73938054988491 
2491	 5.18159066523154 
2492	-1.51724475779233 
2493	-1.76839637539494 
2494	-3.62273516536509 
2495	 4.67901222786805 
2496	 1.91895121283233 
2497	 0.778851071628322 
2498	 0.663379860748917 
2499	 0.862930353105528 
2500	 0.642981609549841 
