Wavelength	rt0712EAST_CLOSE00003.asd
350	 4.74467150014577E-02 
351	 4.81253557884684E-02 
352	 4.74201277143396E-02 
353	 4.77131179737425E-02 
354	 4.96369741167049E-02 
355	 4.91500965620976E-02 
356	 4.86677653148078E-02 
357	 0.048785775026948 
358	 4.92174411144502E-02 
359	 4.84139302315685E-02 
360	 4.80790589031212E-02 
361	 4.83177544032563E-02 
362	 4.81647115663778E-02 
363	 4.85177438304048E-02 
364	 4.87112065743692E-02 
365	 4.85608989580398E-02 
366	 4.88902156622434E-02 
367	 4.88999290981429E-02 
368	 4.88545000768847E-02 
369	 4.90744649240198E-02 
370	 4.90851506794724E-02 
371	 4.86974511603251E-02 
372	 4.84078245298095E-02 
373	 4.89549572880737E-02 
374	 4.93773645924747E-02 
375	 4.97177360597098E-02 
376	 4.98998933801433E-02 
377	 4.95539519427281E-02 
378	 4.92544072679811E-02 
379	 4.88562723997074E-02 
380	 4.84900612418259E-02 
381	 4.98477887065765E-02 
382	 4.99661303982269E-02 
383	 4.93895592478701E-02 
384	 5.00319977662648E-02 
385	 0.049905635013149 
386	 4.99592204955374E-02 
387	 5.05836988718792E-02 
388	 5.12815050860871E-02 
389	 5.20777226790568E-02 
390	 5.22450852765452E-02 
391	 5.15469895315808E-02 
392	 5.10219579497774E-02 
393	 5.15129111785651E-02 
394	 5.21607480888982E-02 
395	 5.18276972372023E-02 
396	 5.16250356484818E-02 
397	 5.17030765759057E-02 
398	 0.052052110644521 
399	 5.25533692493954E-02 
400	 5.23946077017402E-02 
401	 5.22068726282767E-02 
402	 5.23782037250201E-02 
403	 5.22373269809637E-02 
404	 5.21946813438257E-02 
405	 5.23201316024977E-02 
406	 5.25274522695013E-02 
407	 5.26200986610059E-02 
408	 5.26928241758734E-02 
409	 5.28416813057275E-02 
410	 5.31286513518765E-02 
411	 5.33234656343343E-02 
412	 5.34035368219888E-02 
413	 5.34280236072313E-02 
414	 5.35667190010132E-02 
415	 5.34399107996986E-02 
416	 5.33371448139345E-02 
417	 5.36442922444238E-02 
418	 5.35073648027139E-02 
419	 5.35026804002012E-02 
420	 5.37730293453121E-02 
421	 5.38965997955745E-02 
422	 0.053983701959923 
423	 5.42771586183438E-02 
424	 5.47480978182196E-02 
425	 5.45093936247083E-02 
426	 5.43243390926996E-02 
427	 5.44956438964793E-02 
428	 5.49731321959853E-02 
429	 5.50463481661712E-02 
430	 5.50562575274045E-02 
431	 5.52229329069866E-02 
432	 5.54930348704501E-02 
433	 0.055660031787994 
434	 5.59311086827898E-02 
435	 5.63796499178013E-02 
436	 5.63988493744421E-02 
437	 5.63329020924107E-02 
438	 5.64773920353448E-02 
439	 5.69970838364019E-02 
440	 0.057228045055839 
441	 5.74336315248641E-02 
442	 5.77245281278023E-02 
443	 5.78209991479541E-02 
444	 5.81301509111311E-02 
445	 5.85014172327245E-02 
446	 5.86992591239529E-02 
447	 5.87773737328234E-02 
448	 5.89974655911064E-02 
449	 0.059353650561873 
450	 5.96298991918641E-02 
451	 5.96860605028906E-02 
452	 5.97760483843603E-02 
453	 5.99705351081897E-02 
454	 5.98007809346228E-02 
455	 6.00735227408515E-02 
456	 6.04663725044409E-02 
457	 6.04212287882503E-02 
458	 0.060516689515054 
459	 6.07855398092282E-02 
460	 6.09533555532656E-02 
461	 6.05261436867938E-02 
462	 6.07131673046038E-02 
463	 6.11266316535608E-02 
464	 6.12837271786783E-02 
465	 6.13765022043276E-02 
466	 6.15125558386195E-02 
467	 6.16943472271945E-02 
468	 6.18780218216657E-02 
469	 6.21950148302638E-02 
470	 0.062312292463771 
471	 6.22514147867629E-02 
472	 6.25536462160547E-02 
473	 6.27019977716351E-02 
474	 6.29054921443181E-02 
475	 6.33536499521919E-02 
476	 6.34529281557178E-02 
477	 6.37898932806525E-02 
478	 6.42707522325148E-02 
479	 6.43846105966424E-02 
480	 6.45956003620196E-02 
481	 6.49102632186159E-02 
482	 6.52185782156684E-02 
483	 6.52778293959271E-02 
484	 6.55380657265294E-02 
485	 6.59414415107142E-02 
486	 6.62582091017137E-02 
487	 6.64918288109254E-02 
488	 6.67488139442824E-02 
489	 6.71217006227396E-02 
490	 6.76633493744809E-02 
491	 6.79193553596724E-02 
492	 6.81615591471232E-02 
493	 6.86304751426786E-02 
494	 6.90894740332326E-02 
495	 0.069491904574336 
496	 6.98581122473265E-02 
497	 7.02580268739967E-02 
498	 7.07793523986101E-02 
499	 0.071321540527259 
500	 7.17766399418254E-02 
501	 7.20551334520844E-02 
502	 7.23778236501404E-02 
503	 7.28549644598948E-02 
504	 7.34652492244326E-02 
505	 7.38341466187481E-02 
506	 7.43153758647521E-02 
507	 7.49174509035724E-02 
508	 7.53860812080176E-02 
509	 7.60360342562082E-02 
510	 7.66074566883491E-02 
511	 7.69671706476363E-02 
512	 7.74934979480682E-02 
513	 0.077883252295655 
514	 7.83182866228137E-02 
515	 7.90815320967184E-02 
516	 7.96072143793859E-02 
517	 8.02316514821985E-02 
518	 8.09903977750498E-02 
519	 0.081465716087194 
520	 8.20839144362382E-02 
521	 8.27140847919932E-02 
522	 8.32344531488391E-02 
523	 8.40163045267471E-02 
524	 8.46983473709778E-02 
525	 8.52621708113014E-02 
526	 0.085930446445029 
527	 8.65877288414402E-02 
528	 8.72354846608791E-02 
529	 8.78758343139242E-02 
530	 8.84691868772993E-02 
531	 8.92193411143379E-02 
532	 8.99940547730555E-02 
533	 9.06146575983115E-02 
534	 9.14911804142979E-02 
535	 0.092282489448812 
536	 9.29299982550253E-02 
537	 9.37385828364612E-02 
538	 9.45053177512898E-02 
539	 9.52554628256516E-02 
540	 9.60597554188558E-02 
541	 9.69817232615682E-02 
542	 0.097785957567108 
543	 9.84857862638885E-02 
544	 9.92569125359621E-02 
545	 0.100125354217779 
546	 0.100999130922212 
547	 0.101820635775243 
548	 0.10262962332526 
549	 0.103426757141748 
550	 0.104254152685587 
551	 0.105133837181724 
552	 0.105899996919662 
553	 0.106658513974546 
554	 0.107454366869866 
555	 0.108240193584267 
556	 0.108987551011995 
557	 0.109729015875974 
558	 0.110492457485871 
559	 0.111269761636889 
560	 0.111997700325907 
561	 0.11262451569417 
562	 0.113138152887299 
563	 0.113778100995799 
564	 0.114385212269038 
565	 0.114826088444106 
566	 0.115101602063403 
567	 0.115501783592672 
568	 0.116002709198793 
569	 0.116447214317846 
570	 0.116761707765139 
571	 0.117040378397404 
572	 0.117319757660377 
573	 0.117558830029295 
574	 0.117887781288861 
575	 0.118057179125028 
576	 0.117969334495303 
577	 0.118292772063413 
578	 0.118595715261344 
579	 0.118737501333062 
580	 0.118772524352053 
581	 0.118766458618283 
582	 0.118758185364211 
583	 0.11875175362706 
584	 0.11872189274531 
585	 0.118347600383657 
586	 0.117676844466829 
587	 0.116928550108206 
588	 0.116343747787561 
589	 0.1161545201878 
590	 0.11615916273707 
591	 0.115742275700613 
592	 0.115597228093499 
593	 0.115374129266547 
594	 0.1147893264044 
595	 0.114340821431817 
596	 0.113986949588146 
597	 0.113654278811698 
598	 0.113237224108289 
599	 0.112550996937656 
600	 0.11187984589207 
601	 0.111442258398218 
602	 0.111273316185654 
603	 0.11109930174397 
604	 0.110897146205671 
605	 0.110748406212522 
606	 0.110785160480748 
607	 0.110827584265771 
608	 0.110755782190491 
609	 0.110540118620922 
610	 0.110394700328305 
611	 0.110321788186476 
612	 0.110263012337023 
613	 0.110136798866595 
614	 0.110020566131132 
615	 0.109931570119379 
616	 0.109845407851413 
617	 0.109680994140509 
618	 0.109540643966413 
619	 0.109493006724048 
620	 0.109534468331353 
621	 0.109478137278125 
622	 0.109357741502287 
623	 0.109271073994635 
624	 0.109230652068716 
625	 0.109045677548271 
626	 0.108694182180731 
627	 0.108350960156333 
628	 0.108407985004325 
629	 0.10858474968994 
630	 0.10855558349534 
631	 0.108210203551979 
632	 0.108069105707092 
633	 0.108154567649247 
634	 0.108235386717811 
635	 0.108249938187141 
636	 0.10832027932478 
637	 0.10843463907093 
638	 0.108366785354057 
639	 0.108179283979859 
640	 0.108134024211757 
641	 0.108355198777222 
642	 0.108149253060088 
643	 0.108152481477493 
644	 0.108231409574251 
645	 0.107620585459378 
646	 0.107011886638553 
647	 0.106724111084625 
648	 0.106813666204834 
649	 0.106951554343461 
650	 0.106774495203319 
651	 0.106376264803923 
652	 0.10600087143485 
653	 0.105314191142765 
654	 0.104615369171385 
655	 0.104050040572051 
656	 0.10354382587796 
657	 0.102869384245491 
658	 0.102005474064854 
659	 0.101051927262951 
660	 0.100417830683229 
661	 0.099799700298022 
662	 9.89821969778514E-02 
663	 9.78955924254698E-02 
664	 9.71629938287868E-02 
665	 9.67236587360938E-02 
666	 9.63398884316932E-02 
667	 9.56200935335257E-02 
668	 9.53949348660055E-02 
669	 9.53480862726716E-02 
670	 9.49711337616161E-02 
671	 9.48534206664428E-02 
672	 9.47841384358708E-02 
673	 9.48205201323279E-02 
674	 9.52652307779551E-02 
675	 9.55509310349401E-02 
676	 9.57971981939733E-02 
677	 9.62121216864279E-02 
678	 9.69133393010193E-02 
679	 9.73917912463645E-02 
680	 9.77568197784166E-02 
681	 9.83784938414182E-02 
682	 9.91605957752489E-02 
683	 0.100126473640673 
684	 0.101051997835696 
685	 0.101423144412271 
686	 0.101979027761122 
687	 0.102624719113889 
688	 0.103080994505958 
689	 0.103746728633364 
690	 0.10399327936487 
691	 0.103811558281523 
692	 0.103593094709697 
693	 0.103775795192874 
694	 0.10403478946246 
695	 0.104020883765284 
696	 0.103630240056675 
697	 0.102876191067524 
698	 0.102090609467133 
699	 0.101651914326302 
700	 0.100870477516347 
701	 0.10005818585605 
702	 9.93590109820995E-02 
703	 9.86761004671247E-02 
704	 9.80387547207103E-02 
705	 9.71119828826968E-02 
706	 0.095851600625996 
707	 0.094837915830515 
708	 9.35528140908612E-02 
709	 9.21299127021594E-02 
710	 9.08707009941292E-02 
711	 8.94828577776845E-02 
712	 8.80144281820719E-02 
713	 8.63953962643074E-02 
714	 8.43695733547515E-02 
715	 0.082539463033637 
716	 8.05059630891885E-02 
717	 7.80694640936454E-02 
718	 7.61163107751805E-02 
719	 7.42538380065143E-02 
720	 7.27600137574851E-02 
721	 7.14716264383531E-02 
722	 6.98793960949455E-02 
723	 6.79718754167751E-02 
724	 6.61578150684964E-02 
725	 6.44421877276203E-02 
726	 6.24693076025026E-02 
727	 6.06811050490225E-02 
728	 5.91694506935673E-02 
729	 5.64241274247118E-02 
730	 5.45877563591147E-02 
731	 0.053285758668158 
732	 5.12643553145957E-02 
733	 4.99964576896794E-02 
734	 4.89401212135846E-02 
735	 4.79204348977551E-02 
736	 4.72882150474897E-02 
737	 4.67180978839051E-02 
738	 4.60945667667626E-02 
739	 4.55251705498613E-02 
740	 4.55677877516162E-02 
741	 4.56897607775762E-02 
742	 4.55671092086246E-02 
743	 4.51404991129692E-02 
744	 4.54303672654659E-02 
745	 0.045571441341923 
746	 4.52532790702481E-02 
747	 4.51383983055105E-02 
748	 4.52418029762799E-02 
749	 4.53021504498685E-02 
750	 4.51276545786552E-02 
751	 4.50404167107362E-02 
752	 4.49480196164492E-02 
753	 4.48556070098313E-02 
754	 4.48257839295412E-02 
755	 4.49720505858475E-02 
756	 4.49222186855614E-02 
757	 4.46361675262894E-02 
758	 4.46279892813933E-02 
759	 4.43459015757093E-02 
760	 4.38727276785616E-02 
761	 0.043972606139734 
762	 0.04394507049403 
763	 4.43982295341822E-02 
764	 4.46701204305688E-02 
765	 4.43267972558282E-02 
766	 4.46508459176853E-02 
767	 4.50811454357579E-02 
768	 4.53266642150513E-02 
769	 4.52981756810344E-02 
770	 4.55438567917822E-02 
771	 4.57312826813359E-02 
772	 4.56460590547198E-02 
773	 4.58970913577148E-02 
774	 4.59725990897212E-02 
775	 4.59727095668439E-02 
776	 4.62124809446279E-02 
777	 4.65744764412803E-02 
778	 4.68624400938012E-02 
779	 4.70019911749906E-02 
780	 4.70787600442575E-02 
781	 0.047614370903321 
782	 4.79262449296184E-02 
783	 0.047717856517054 
784	 4.80941104015085E-02 
785	 4.84619780492235E-02 
786	 4.87998201134253E-02 
787	 4.92054168845901E-02 
788	 0.049334677742215 
789	 4.94382425069707E-02 
790	 4.96622090793188E-02 
791	 5.00140407883605E-02 
792	 0.050415044864663 
793	 5.07778533696339E-02 
794	 5.10366183223053E-02 
795	 5.11015025834317E-02 
796	 5.16976563093109E-02 
797	 5.22211549434027E-02 
798	 5.20886232756564E-02 
799	 5.19487326375125E-02 
800	 0.052482589495447 
801	 5.32808120803506E-02 
802	 5.34060995643053E-02 
803	 5.34761515892793E-02 
804	 5.36566647977329E-02 
805	 5.38606097900901E-02 
806	 0.053799430974377 
807	 0.053820990522808 
808	 5.36770115506305E-02 
809	 5.32778266501922E-02 
810	 5.33947039379355E-02 
811	 0.052658103294067 
812	 5.18021620855304E-02 
813	 5.22746956515917E-02 
814	 5.20104681760991E-02 
815	 5.15699661879371E-02 
816	 5.12417916940402E-02 
817	 0.050872933850401 
818	 5.03965854011922E-02 
819	 0.04977162713153 
820	 4.89842003223524E-02 
821	 4.80824083241398E-02 
822	 0.047976127077709 
823	 4.76928827461064E-02 
824	 4.64898111982749E-02 
825	 4.49937175471513E-02 
826	 4.38173143542927E-02 
827	 4.27383590606374E-02 
828	 0.041402684081191 
829	 4.03930170585921E-02 
830	 3.93957669716324E-02 
831	 3.85573444795336E-02 
832	 0.038303513105438 
833	 3.77727838176502E-02 
834	 3.75055633906762E-02 
835	 3.74350509267571E-02 
836	 3.66272892271126E-02 
837	 3.64110241573699E-02 
838	 3.64899432971243E-02 
839	 0.036387371056826 
840	 3.60731045290789E-02 
841	 3.56585078730243E-02 
842	 3.55289499343196E-02 
843	 3.59385659317506E-02 
844	 3.62620710178786E-02 
845	 3.58593698285034E-02 
846	 3.51707946953839E-02 
847	 0.035234754223137 
848	 3.54646261151489E-02 
849	 3.54184696049314E-02 
850	 3.50529018056693E-02 
851	 0.034815228870385 
852	 0.034775518044496 
853	 0.034818594640992 
854	 3.49074315399531E-02 
855	 3.53254023841557E-02 
856	 3.48890720322958E-02 
857	 3.41663511353074E-02 
858	 3.39960406672511E-02 
859	 3.44100839998686E-02 
860	 0.034311974358417 
861	 3.40098220071415E-02 
862	 3.43145480640765E-02 
863	 3.42598341972805E-02 
864	 3.40758211542602E-02 
865	 3.39063631524514E-02 
866	 3.37558538991016E-02 
867	 3.37236521726801E-02 
868	 3.37333829414786E-02 
869	 0.033561601294687 
870	 3.28684667826925E-02 
871	 3.26236616853753E-02 
872	 0.03259516583992 
873	 3.24830228961995E-02 
874	 3.24780110220861E-02 
875	 3.23896444802478E-02 
876	 3.23158146283657E-02 
877	 0.032418754583062 
878	 3.28226564704986E-02 
879	 3.25741199572116E-02 
880	 0.031621279562493 
881	 3.06364120277143E-02 
882	 3.12030567100495E-02 
883	 3.16522959269694E-02 
884	 3.16586510620833E-02 
885	 3.19837798094715E-02 
886	 0.03208478178649 
887	 3.16800106875149E-02 
888	 3.10618343029335E-02 
889	 3.10655674975201E-02 
890	 3.10778304227271E-02 
891	 3.12093030784038E-02 
892	 3.14047089295231E-02 
893	 0.031005014628602 
894	 3.09937694129181E-02 
895	 3.03269129587152E-02 
896	 2.82991086946048E-02 
897	 2.78655546842722E-02 
898	 2.98136275175169E-02 
899	 3.16473137377715E-02 
900	 3.08246686739759E-02 
901	 0.029047603768486 
902	 0.027981495278671 
903	 2.88427003382787E-02 
904	 3.14075895488365E-02 
905	 2.98858710942109E-02 
906	 2.83470050656498E-02 
907	 0.028374004236754 
908	 0.029178779916398 
909	 2.93117758868386E-02 
910	 3.07240172556922E-02 
911	 3.16459653700245E-02 
912	 2.78968635300804E-02 
913	 2.86137744247438E-02 
914	 2.94766973094548E-02 
915	 2.78796176011037E-02 
916	 2.58379198462139E-02 
917	 0.02697148248409 
918	 2.82835804386946E-02 
919	 2.89575244898494E-02 
920	 3.16553639382501E-02 
921	 3.12633298742585E-02 
922	 2.94554698676706E-02 
923	 2.77490081777901E-02 
924	 2.44660197853581E-02 
925	 2.57351554787477E-02 
926	 2.87707715657829E-02 
927	 2.87695539365149E-02 
928	 2.80522451477359E-02 
929	 2.60478390838084E-02 
930	 1.75363923584129E-02 
931	-6.68039216746494E-04 
932	 1.11507260583297E-02 
933	 3.38254711283029E-02 
934	 2.68665288776018E-02 
935	-1.69593925829336E-02 
936	 5.60204116871186E-03 
937	 3.45116319666052E-02 
938	 3.49719838998936E-02 
939	 4.5384783492037E-03 
940	 0.021735949380549 
941	 3.96855058004972E-02 
942	 3.83463607582374E-02 
943	 1.65151587403237E-02 
944	 1.44568074315453E-02 
945	 9.39557558329142E-03 
946	 1.19063338261708E-03 
947	 6.01584760007887E-03 
948	 0.026376782565131 
949	 2.46313538107267E-02 
950	 1.62186301190575E-02 
951	 3.57390769644961E-02 
952	 2.94848258282747E-02 
953	 4.94851545606251E-03 
954	-7.25610457362611E-03 
955	 2.08125250953353E-02 
956	 2.90554128047091E-02 
957	 3.30028255422461E-02 
958	 3.74845010238075E-02 
959	 0.03718820839669 
960	 0.032734867009031 
961	 2.83142659277888E-02 
962	 2.65915890254198E-02 
963	 2.84975613976247E-02 
964	 3.38902662063046E-02 
965	 2.91888675105215E-02 
966	 2.13801946625004E-02 
967	 2.59510896579182E-02 
968	 2.28872599600398E-02 
969	 2.51225369594696E-02 
970	 3.05550356516781E-02 
971	 2.53090523215827E-02 
972	 2.03516312239672E-02 
973	 1.90491404842417E-02 
974	 2.24062507875835E-02 
975	 2.83508556119927E-02 
976	 2.91729286642057E-02 
977	 2.68533667137827E-02 
978	 2.45580441871848E-02 
979	 2.45249356714868E-02 
980	 0.027333644164342 
981	 2.41836262624867E-02 
982	 2.07646150412565E-02 
983	 2.97119096027789E-02 
984	 3.22682498494743E-02 
985	 2.70154895333525E-02 
986	 0.021431161721178 
987	 2.54688939025462E-02 
988	 2.92532570406346E-02 
989	 2.77638020839807E-02 
990	 2.47420008420269E-02 
991	 2.78408163700708E-02 
992	 2.81931957341207E-02 
993	 2.76693647372967E-02 
994	 2.62304131943237E-02 
995	 2.36346728304218E-02 
996	 2.97743180785877E-02 
997	 2.99755510585655E-02 
998	 2.31076252085506E-02 
999	 1.87118689187812E-02 
1000	 2.69122849274058E-02 
1001	 2.79262701012943E-02 
1002	 2.91596852972989E-02 
1003	 2.94970606949398E-02 
1004	 3.08882133220341E-02 
1005	 3.08541240591921E-02 
1006	 2.90872614783728E-02 
1007	 2.82848697673768E-02 
1008	 2.78423649855485E-02 
1009	 2.66930051589307E-02 
1010	 2.66653466318571E-02 
1011	 2.71973630956648E-02 
1012	 2.78461241282029E-02 
1013	 2.85130312025966E-02 
1014	 2.91937676092823E-02 
1015	 3.02416000665256E-02 
1016	 3.07603831909861E-02 
1017	 3.15156073756275E-02 
1018	 3.14200709950328E-02 
1019	 3.04940524056606E-02 
1020	 2.98476441603018E-02 
1021	 2.86223685782083E-02 
1022	 0.02751448656839 
1023	 2.70957541062123E-02 
1024	 2.75512874802316E-02 
1025	 2.85665420660655E-02 
1026	 2.91579168184413E-02 
1027	 2.95367984952572E-02 
1028	 3.01182066361661E-02 
1029	 3.01474957344205E-02 
1030	 2.95213161125042E-02 
1031	 2.91799960361118E-02 
1032	 2.85581335163192E-02 
1033	 2.82581534469814E-02 
1034	 2.78468341602661E-02 
1035	 2.81560038688459E-02 
1036	 2.94278241257832E-02 
1037	 2.97838610560288E-02 
1038	 3.07529688145889E-02 
1039	 3.03370616077331E-02 
1040	 2.90965281195463E-02 
1041	 2.88629842413776E-02 
1042	 2.82462419822883E-02 
1043	 0.027284356782739 
1044	 2.74309319783829E-02 
1045	 2.79903648892473E-02 
1046	 2.83546185688442E-02 
1047	 3.00441736939016E-02 
1048	 3.01304639573024E-02 
1049	 2.87238862293287E-02 
1050	 2.85537957579723E-02 
1051	 2.79149301041054E-02 
1052	 2.81123559267238E-02 
1053	 3.03431569168556E-02 
1054	 3.08724556833277E-02 
1055	 3.04604514924807E-02 
1056	 3.04675217278198E-02 
1057	 3.02704519171686E-02 
1058	 2.90826180298684E-02 
1059	 2.88855338079416E-02 
1060	 2.94191307341168E-02 
1061	 2.96628419622588E-02 
1062	 2.99780565092295E-02 
1063	 0.030078828106612 
1064	 3.02894775035497E-02 
1065	 3.03356911630885E-02 
1066	 2.97577849762391E-02 
1067	 2.98277353177153E-02 
1068	 3.06338982387773E-02 
1069	 3.07467829976032E-02 
1070	 3.12016350276654E-02 
1071	 3.09338513053719E-02 
1072	 2.98347073737095E-02 
1073	 2.80979762920585E-02 
1074	 2.78720902749796E-02 
1075	 2.78485824396125E-02 
1076	 2.82563569289028E-02 
1077	 3.03785940589013E-02 
1078	 3.05320489636649E-02 
1079	 2.94352062164531E-02 
1080	 2.94555359903125E-02 
1081	 2.92323755182841E-02 
1082	 2.92498389976256E-02 
1083	 0.030335878579078 
1084	 3.06016723659481E-02 
1085	 3.00326364024991E-02 
1086	 2.99192391228062E-02 
1087	 3.01959557604889E-02 
1088	 2.99566889486638E-02 
1089	 2.92335931466815E-02 
1090	 2.89847316486861E-02 
1091	 2.86163084455497E-02 
1092	 2.75757079875612E-02 
1093	 2.79780802759702E-02 
1094	 2.98224736184758E-02 
1095	 3.00694411224226E-02 
1096	 3.04491218351091E-02 
1097	 3.01343572926293E-02 
1098	 2.79726365094161E-02 
1099	 0.027284553170037 
1100	 2.69222618750761E-02 
1101	 2.73820429862534E-02 
1102	 2.93414476685278E-02 
1103	 2.98848961830621E-02 
1104	 3.03413769150724E-02 
1105	 3.14202299094283E-02 
1106	 2.85108559541271E-02 
1107	 2.86629531237935E-02 
1108	 3.15464133960517E-02 
1109	 3.06769833333356E-02 
1110	 0.031276968791806 
1111	 3.53157454672532E-02 
1112	 0.033572325462928 
1113	 2.51373046920895E-02 
1114	 2.17099325375077E-02 
1115	 1.23742004882671E-02 
1116	 9.96489894596514E-03 
1117	 2.67596211161289E-02 
1118	 2.97012255455827E-02 
1119	 2.29208274022445E-02 
1120	 2.51830713056897E-02 
1121	 2.09728370271427E-02 
1122	 1.42855427513268E-02 
1123	 2.22292350247925E-02 
1124	 5.58092692460552E-02 
1125	 8.56448053198854E-02 
1126	 5.02271540366477E-02 
1127	 0.057173899177402 
1128	 8.56907880996251E-02 
1129	 6.63704292827825E-02 
1130	 1.66672966298285E-02 
1131	 0.017282056099414 
1132	 9.0232621582417E-05 
1133	 1.25019110729941E-02 
1134	 8.25921356822219E-02 
1135	 8.19751716136893E-02 
1136	 4.60353034463665E-02 
1137	 0.044294897365057 
1138	 4.07492724365174E-02 
1139	 1.97062356235737E-02 
1140	 2.81371626937311E-02 
1141	 4.38839041728707E-02 
1142	 2.86822277947026E-02 
1143	 3.39716383974697E-02 
1144	 4.48961681587005E-02 
1145	 3.60972513434989E-02 
1146	 4.36177833564239E-02 
1147	 3.91889419914104E-02 
1148	 2.50259041851513E-02 
1149	 2.69862588902008E-02 
1150	 0.024450982025423 
1151	 1.01422193397902E-02 
1152	 1.63932099720952E-02 
1153	 3.76451685922005E-02 
1154	 3.86135023038057E-02 
1155	 3.82249111437264E-02 
1156	 3.55695976622107E-02 
1157	 2.93792277640364E-02 
1158	 2.51918101436641E-02 
1159	 2.56871716503165E-02 
1160	 2.99310744604972E-02 
1161	 2.92207131972308E-02 
1162	 2.67594459800343E-02 
1163	 0.029576004318598 
1164	 2.98952144284122E-02 
1165	 2.92016515448591E-02 
1166	 3.02964140258651E-02 
1167	 2.91323487956047E-02 
1168	 2.80927948271658E-02 
1169	 2.98081292039809E-02 
1170	 3.16860101858575E-02 
1171	 3.15229260106099E-02 
1172	 2.97670486625668E-02 
1173	 2.92065187439687E-02 
1174	 0.027544524833459 
1175	 2.73365340114444E-02 
1176	 2.94613098819964E-02 
1177	 3.01157395082549E-02 
1178	 2.96558842779964E-02 
1179	 2.88157891809504E-02 
1180	 2.72976348769907E-02 
1181	 2.66076115469355E-02 
1182	 2.69205086783905E-02 
1183	 0.027504756523003 
1184	 2.85259342160885E-02 
1185	 2.91876799046228E-02 
1186	 2.81323821751484E-02 
1187	 2.68445535874912E-02 
1188	 2.62569190420141E-02 
1189	 2.63648883520046E-02 
1190	 2.64880206497908E-02 
1191	 2.58980779315332E-02 
1192	 2.63066512729703E-02 
1193	 2.64559838231747E-02 
1194	 2.64055436297535E-02 
1195	 0.027047014492169 
1196	 0.028939373440088 
1197	 0.029091953398351 
1198	 2.75220577684714E-02 
1199	 2.66663809694417E-02 
1200	 2.73046900735454E-02 
1201	 2.81445286298666E-02 
1202	 0.02812826634959 
1203	 2.86433841647051E-02 
1204	 2.88109507355271E-02 
1205	 0.027272425471618 
1206	 2.63631264592013E-02 
1207	 2.71603438233409E-02 
1208	 0.026951520144665 
1209	 2.66380112171058E-02 
1210	 2.77611221334617E-02 
1211	 2.75440230994593E-02 
1212	 0.025919958027528 
1213	 2.54567120954759E-02 
1214	 2.60176319674458E-02 
1215	 2.73741491403148E-02 
1216	 2.79303960320667E-02 
1217	 2.81881446082709E-02 
1218	 2.81262423020578E-02 
1219	 2.66990421427751E-02 
1220	 2.68334859549224E-02 
1221	 2.87122727118274E-02 
1222	 2.92653850161275E-02 
1223	 2.86087535849033E-02 
1224	 2.79235736100988E-02 
1225	 2.69755484230364E-02 
1226	 2.66035599816945E-02 
1227	 0.027201190727827 
1228	 2.77047504283291E-02 
1229	 2.80037869864401E-02 
1230	 2.77389312303105E-02 
1231	 2.72545559006885E-02 
1232	 2.66432290835588E-02 
1233	 2.59514294494496E-02 
1234	 2.60716605009919E-02 
1235	 2.60403370215311E-02 
1236	 2.63738674914579E-02 
1237	 2.63005489773779E-02 
1238	 2.60199452907234E-02 
1239	 2.56268222273374E-02 
1240	 2.54067253700733E-02 
1241	 2.55225110722127E-02 
1242	 2.59178089025324E-02 
1243	 2.58427934260517E-02 
1244	 0.025683813770862 
1245	 2.57841006600186E-02 
1246	 2.61197007403708E-02 
1247	 2.66243141408339E-02 
1248	 2.70587393327525E-02 
1249	 2.73674112331644E-02 
1250	 2.68948782019593E-02 
1251	 2.62563603740824E-02 
1252	 2.64540810251169E-02 
1253	 2.67166120806251E-02 
1254	 2.70225366913505E-02 
1255	 2.76347814852328E-02 
1256	 2.75398704863513E-02 
1257	 2.64661518878187E-02 
1258	 2.66066004917966E-02 
1259	 2.69387207923111E-02 
1260	 0.026797561956512 
1261	 0.027716338845651 
1262	 2.79681054081435E-02 
1263	 2.71478568868518E-02 
1264	 2.66794771409119E-02 
1265	 2.71774654556386E-02 
1266	 2.63227580078784E-02 
1267	 2.51104214808303E-02 
1268	 2.49568184889784E-02 
1269	 2.51589170091702E-02 
1270	 2.45827238451856E-02 
1271	 2.43228700467617E-02 
1272	 2.57740523343208E-02 
1273	 2.65646170480264E-02 
1274	 2.61992348087407E-02 
1275	 2.69012805941807E-02 
1276	 2.68344531794451E-02 
1277	 2.55538287658924E-02 
1278	 0.02593226345196 
1279	 2.64237187563207E-02 
1280	 2.50775597065857E-02 
1281	 0.025195728455109 
1282	 2.68208796948547E-02 
1283	 2.73175344744413E-02 
1284	 2.78202365249092E-02 
1285	 2.80245538303065E-02 
1286	 0.02691577404885 
1287	 2.66877308672957E-02 
1288	 2.74614501773185E-02 
1289	 2.74907915574586E-02 
1290	 2.71318574308322E-02 
1291	 2.75145364175676E-02 
1292	 2.83574342851271E-02 
1293	 2.71446290173128E-02 
1294	 0.026750806759519 
1295	 2.86184629694158E-02 
1296	 2.85119055522297E-02 
1297	 2.73819033407118E-02 
1298	 2.79384648205564E-02 
1299	 2.78423234809673E-02 
1300	 2.79626763622898E-02 
1301	 0.029827288595361 
1302	 3.05035203166745E-02 
1303	 2.85946424373297E-02 
1304	 2.79461878215998E-02 
1305	 3.01269933025855E-02 
1306	 2.92262717265761E-02 
1307	 2.69415304696375E-02 
1308	 2.72402880972125E-02 
1309	 2.63739306545417E-02 
1310	 2.57405311224824E-02 
1311	 2.98235623098256E-02 
1312	 3.02355042099216E-02 
1313	 2.54833701818946E-02 
1314	 2.46665330517178E-02 
1315	 2.68051852250987E-02 
1316	 2.64431721833022E-02 
1317	 2.51158077487758E-02 
1318	 2.44304738422937E-02 
1319	 2.29642085407452E-02 
1320	 2.20472728730545E-02 
1321	 0.023291683487526 
1322	 2.12791792739452E-02 
1323	 2.28560003158588E-02 
1324	 2.56194342458358E-02 
1325	 2.60639283174933E-02 
1326	 0.032422132758445 
1327	 3.84656975577458E-02 
1328	 0.034229970389577 
1329	 3.07247600813916E-02 
1330	 3.08292597849747E-02 
1331	 2.62119078785603E-02 
1332	 1.71415376983086E-02 
1333	 1.36066029692467E-02 
1334	 1.95909983827193E-02 
1335	 1.84426826233241E-02 
1336	 1.48605634136146E-02 
1337	 1.58166166014484E-02 
1338	 1.86159445163671E-02 
1339	 1.61475759043663E-02 
1340	 1.28811884051673E-02 
1341	 1.29324671772634E-02 
1342	 7.01129774530938E-03 
1343	 2.92756912865276E-03 
1344	 1.11140981335252E-02 
1345	 1.73675720807398E-02 
1346	 2.01984921502089E-02 
1347	 1.94670411827606E-02 
1348	 1.48071665075622E-02 
1349	 8.20577390128893E-03 
1350	-0.027090277128302 
1351	-4.44660014447318E-02 
1352	 4.01125726696952E-02 
1353	 5.21504723055106E-02 
1354	 1.60675986374457E-02 
1355	-0.107783117820005 
1356	-0.180053232657585 
1357	-0.355366382494447 
1358	-0.198750427704213 
1359	 7.59094567709772E-02 
1360	-8.44106412268073E-02 
1361	-0.230238813095408 
1362	-0.1982494636162 
1363	-0.456519520585494 
1364	-0.283066111774883 
1365	-0.115424551761071 
1366	 0.129740296092386 
1367	 0.289889762410199 
1368	 0.166526149264548 
1369	-4.96684745514991E-02 
1370	-6.48740453262691E-02 
1371	-1.62627528922985 
1372	-3.44461014433398 
1373	-3.32620744260064 
1374	 10.5529602382897 
1375	-1.90695515379544 
1376	-1.41658223424281 
1377	-1.01123913577902 
1378	-0.95281470237406 
1379	-1.42021831948791 
1380	-0.872615914250458 
1381	 0.73770062093069 
1382	 1.03749353632403 
1383	-3.72537530436245E-02 
1384	-9.16056815761111E-02 
1385	-5.85964862292106E-02 
1386	-0.185412825379628 
1387	-1.10056767350487 
1388	-1.66647892508249 
1389	-1.95903745654987 
1390	-2.90877979050098 
1391	-3.92973684159519 
1392	-0.883553841628834 
1393	-0.213001175806928 
1394	 0.220415845386155 
1395	 0.707218016273914 
1396	 0.290777824712623 
1397	-0.56788088817332 
1398	 114.480092743276 
1399	-0.87294070166066 
1400	-0.253237325453993 
1401	-0.868459536166157 
1402	 24.5504912991402 
1403	-1.04407740695519 
1404	 4.80226663280011 
1405	 90.9233069086201 
1406	-1.02476839733867 
1407	-0.92009524946566 
1408	-3.07079279227275 
1409	-11.6130672197026 
1410	 0.096592498952022 
1411	-2.30942347282186 
1412	 1.23019616457678 
1413	 1.47868489933766 
1414	 1.85162236546749 
1415	 1.72180996586897 
1416	 4.56817533665069 
1417	 9.30860452515012 
1418	-1.47584545180135 
1419	-0.78012243153899 
1420	-2.12369196266827 
1421	-1.57593821363923 
1422	 9.95204264143751E-02 
1423	 0.339048077883749 
1424	 1.12964109548528 
1425	 1.79727544347334 
1426	 2.82110032424984 
1427	 1.87429635138013 
1428	 0.102630920772509 
1429	-4.30994354338401E-02 
1430	-5.64593618588251E-02 
1431	-0.208235374882547 
1432	-0.361622195326771 
1433	-0.341855203075402 
1434	-0.547403741804726 
1435	-0.659161751773334 
1436	-0.286586378331188 
1437	-0.239127134855612 
1438	-0.267842065750887 
1439	-0.257022845143649 
1440	-0.156575244515828 
1441	 0.240805161346999 
1442	 0.304603251117054 
1443	 0.200830878435513 
1444	 5.46478507382173E-02 
1445	-7.13798264816202E-02 
1446	 2.16547676015385E-03 
1447	 0.113767519154828 
1448	 5.11095122989855E-03 
1449	-8.32160509024622E-02 
1450	 3.35223026797403E-02 
1451	 6.39193132874777E-02 
1452	 5.47271313032542E-03 
1453	 9.65174269182661E-02 
1454	 9.73185218876912E-02 
1455	-2.67943042495372E-02 
1456	-8.30457343257657E-02 
1457	-9.43884232713429E-02 
1458	-6.11248603744442E-02 
1459	-2.67354931520906E-02 
1460	-2.90637563058931E-02 
1461	 1.06101361666459E-02 
1462	 3.95668032329852E-02 
1463	 2.60909412585447E-02 
1464	-2.15602339366159E-02 
1465	-6.41290541895407E-02 
1466	-4.13584398490587E-02 
1467	-4.75066660541748E-02 
1468	-8.61077275650819E-02 
1469	-5.09622226412968E-02 
1470	-3.54193713746491E-02 
1471	-0.112166568345796 
1472	-0.145055727134464 
1473	-0.133137269017261 
1474	-0.076201402694427 
1475	 2.98162127734611E-03 
1476	-3.12994995656083E-03 
1477	-2.03975218759192E-03 
1478	 2.38058075768384E-02 
1479	-4.2708265912382E-03 
1480	-0.014031589134187 
1481	 2.44379072779165E-02 
1482	 4.19891195690256E-02 
1483	 3.77385838160614E-02 
1484	 2.95922528965369E-02 
1485	 2.50627099842023E-02 
1486	 3.48073827564021E-02 
1487	 0.051426863618472 
1488	 4.10544213130714E-02 
1489	 2.81883502670216E-02 
1490	 2.44352813806423E-02 
1491	 2.79379405882078E-03 
1492	-1.70918159495434E-03 
1493	 1.32911565727961E-02 
1494	 1.97943953720576E-02 
1495	 2.31578330793802E-02 
1496	 2.42033421927418E-02 
1497	 2.21652450262397E-02 
1498	 0.023764704161215 
1499	 2.84557342013215E-02 
1500	 2.90519773033908E-02 
1501	 0.028958387678449 
1502	 0.028589607347185 
1503	 2.41802807584175E-02 
1504	 2.24033313460868E-02 
1505	 2.20969049814961E-02 
1506	 2.56161532288283E-02 
1507	 2.24692114788327E-02 
1508	 2.13889253876944E-02 
1509	 2.61157898197805E-02 
1510	 2.18699634725548E-02 
1511	 1.86346523223145E-02 
1512	 2.08380161969084E-02 
1513	 1.93396377414601E-02 
1514	 1.89006669135869E-02 
1515	 2.51057961841058E-02 
1516	 2.77896165997462E-02 
1517	 0.025950175953001 
1518	 2.74048531498194E-02 
1519	 0.026205493558383 
1520	 2.42976006441857E-02 
1521	 2.69875857727887E-02 
1522	 2.81323187461517E-02 
1523	 0.026011996144365 
1524	 2.60788378934378E-02 
1525	 2.68813888681996E-02 
1526	 2.51949813568721E-02 
1527	 2.38261855901085E-02 
1528	 2.29254515084386E-02 
1529	 2.20970369101078E-02 
1530	 2.20862565781774E-02 
1531	 2.32558060204149E-02 
1532	 2.25486667094316E-02 
1533	 1.84782590604946E-02 
1534	 1.67723902843663E-02 
1535	 1.75685538351906E-02 
1536	 0.018064458486117 
1537	 1.99265073666389E-02 
1538	 0.021957206717464 
1539	 2.25213138266155E-02 
1540	 2.35842570469598E-02 
1541	 2.43705749390066E-02 
1542	 2.32933162198703E-02 
1543	 2.11610036166096E-02 
1544	 0.020649468051003 
1545	 2.09241031622716E-02 
1546	 0.021252916534247 
1547	 2.22544977175531E-02 
1548	 2.19685859013867E-02 
1549	 2.35337744465483E-02 
1550	 2.51931712593674E-02 
1551	 2.39842356640738E-02 
1552	 2.40792905509924E-02 
1553	 2.44037069305565E-02 
1554	 0.024607305740699 
1555	 2.58605006297229E-02 
1556	 2.52292902546917E-02 
1557	 2.33493783878576E-02 
1558	 0.022466866815622 
1559	 2.23829053850936E-02 
1560	 2.35725976434142E-02 
1561	 2.53994774081535E-02 
1562	 2.50705987794104E-02 
1563	 2.43325103911624E-02 
1564	 2.49327409236763E-02 
1565	 2.32326063782779E-02 
1566	 1.94649481328633E-02 
1567	 0.019314051295785 
1568	 2.27952125019851E-02 
1569	 2.50458042692368E-02 
1570	 2.63403357136349E-02 
1571	 2.62101216095514E-02 
1572	 2.28860352528205E-02 
1573	 2.08371134140284E-02 
1574	 2.32196896943776E-02 
1575	 2.54240812156948E-02 
1576	 2.46885480060823E-02 
1577	 2.52179342211368E-02 
1578	 2.67691129846891E-02 
1579	 2.71524066064369E-02 
1580	 2.70834187887187E-02 
1581	 2.48184009946927E-02 
1582	 0.022693357280713 
1583	 2.28419137592662E-02 
1584	 2.47110120008361E-02 
1585	 0.026175466222098 
1586	 2.52428390379898E-02 
1587	 2.45499735871597E-02 
1588	 2.34881493228643E-02 
1589	 2.26020722090104E-02 
1590	 2.36539983405401E-02 
1591	 2.50458648175728E-02 
1592	 2.45640880004456E-02 
1593	 2.41946036093964E-02 
1594	 2.68681551282681E-02 
1595	 2.72066529592463E-02 
1596	 2.45265390188689E-02 
1597	 2.42231688576954E-02 
1598	 2.49546432171993E-02 
1599	 2.36760149248083E-02 
1600	 2.32195195682735E-02 
1601	 2.34379136147733E-02 
1602	 2.08582810042085E-02 
1603	 1.96383889174155E-02 
1604	 2.19418055620894E-02 
1605	 2.52506283465858E-02 
1606	 2.72040465261615E-02 
1607	 2.64458093764917E-02 
1608	 2.62083378087906E-02 
1609	 2.56708363976344E-02 
1610	 2.35711193461412E-02 
1611	 2.40187456347867E-02 
1612	 2.54669309988652E-02 
1613	 2.47558942397452E-02 
1614	 2.45759683982026E-02 
1615	 2.54204029765531E-02 
1616	 2.43922388249028E-02 
1617	 2.36911457468187E-02 
1618	 2.52038316422411E-02 
1619	 2.62407321895956E-02 
1620	 2.74056423474402E-02 
1621	 2.85739132575103E-02 
1622	 0.027702150936914 
1623	 2.61713193491173E-02 
1624	 2.43722989467313E-02 
1625	 2.24646509501007E-02 
1626	 2.16207398304603E-02 
1627	 2.21408821682856E-02 
1628	 0.022131967916407 
1629	 2.13727133136938E-02 
1630	 2.09792641631916E-02 
1631	 1.98624044827038E-02 
1632	 2.12928736474507E-02 
1633	 2.34715447649539E-02 
1634	 2.35507584087114E-02 
1635	 2.48220796707433E-02 
1636	 2.44839903033916E-02 
1637	 2.30948391495608E-02 
1638	 2.38768943501633E-02 
1639	 2.44419133110922E-02 
1640	 2.37609070640916E-02 
1641	 2.40401801656008E-02 
1642	 2.54759951110264E-02 
1643	 2.58224214805925E-02 
1644	 2.48320655068418E-02 
1645	 2.26918875339873E-02 
1646	 2.26334327361788E-02 
1647	 2.42039184220107E-02 
1648	 2.48416200129552E-02 
1649	 2.63625036761654E-02 
1650	 2.65050455955916E-02 
1651	 2.58639108290126E-02 
1652	 2.58889148381606E-02 
1653	 2.47157544349168E-02 
1654	 0.024263156452378 
1655	 2.24580450625151E-02 
1656	 2.15929826824592E-02 
1657	 2.21377192504138E-02 
1658	 2.29954327387502E-02 
1659	 2.36384596391102E-02 
1660	 2.33869562425374E-02 
1661	 2.45092374438592E-02 
1662	 2.49812853072444E-02 
1663	 2.36532046891189E-02 
1664	 0.023800479916395 
1665	 2.43512770311975E-02 
1666	 2.45593742706661E-02 
1667	 2.58950723720715E-02 
1668	 2.24567421205977E-02 
1669	 2.23748272203353E-02 
1670	 2.24634763414093E-02 
1671	 1.96044735456485E-02 
1672	 2.14632521678608E-02 
1673	 2.41215835887261E-02 
1674	 0.023897737153992 
1675	 2.44682173963713E-02 
1676	 2.44024761434935E-02 
1677	 2.28568611396035E-02 
1678	 2.21293902973678E-02 
1679	 2.27536330803232E-02 
1680	 2.30634477526802E-02 
1681	 2.30439443515318E-02 
1682	 2.37435607374206E-02 
1683	 2.51138720718422E-02 
1684	 2.48677833426995E-02 
1685	 0.023247768787109 
1686	 2.25088787096664E-02 
1687	 0.021478444198489 
1688	 2.39303739267275E-02 
1689	 2.75273948618592E-02 
1690	 2.57347823969573E-02 
1691	 2.51435089753472E-02 
1692	 2.60746601915243E-02 
1693	 2.35665814545984E-02 
1694	 2.40933357388098E-02 
1695	 2.82621057588761E-02 
1696	 0.027499473945501 
1697	 2.54547377422387E-02 
1698	 2.73585064690236E-02 
1699	 2.51714230075176E-02 
1700	 2.07515204320513E-02 
1701	 2.30068196869303E-02 
1702	 2.58710402762983E-02 
1703	 2.52075433780859E-02 
1704	 0.024366866112863 
1705	 2.18246887195276E-02 
1706	 1.96802953287201E-02 
1707	 2.14300337111546E-02 
1708	 2.50726865899533E-02 
1709	 2.85756928840505E-02 
1710	 2.81745753373672E-02 
1711	 2.47271419853155E-02 
1712	 2.24636576098026E-02 
1713	 2.09951673830595E-02 
1714	 2.19060940316388E-02 
1715	 2.43352394123058E-02 
1716	 2.57252167174812E-02 
1717	 2.84944234746249E-02 
1718	 2.72841295322804E-02 
1719	 2.37158828267176E-02 
1720	 2.17028827019805E-02 
1721	 2.18593099519483E-02 
1722	 2.19670860400647E-02 
1723	 2.28325575311271E-02 
1724	 2.61815980497316E-02 
1725	 2.42716064176852E-02 
1726	 2.04489552359022E-02 
1727	 2.08650356792095E-02 
1728	 2.08963315898536E-02 
1729	 2.28020713415943E-02 
1730	 2.33870355736502E-02 
1731	 2.25574992011598E-02 
1732	 2.24638667042906E-02 
1733	 1.90488026810929E-02 
1734	 2.00004566660928E-02 
1735	 2.38736452937206E-02 
1736	 2.08895722068362E-02 
1737	 1.67606950691379E-02 
1738	 1.47028035880575E-02 
1739	 1.10815268059113E-02 
1740	 1.30073699059406E-02 
1741	 1.93049735151365E-02 
1742	 2.09046750987214E-02 
1743	 2.17548019569241E-02 
1744	 1.98790885738302E-02 
1745	 0.016470626445401 
1746	 2.31536165100242E-02 
1747	 0.026086402886339 
1748	 3.30895160070653E-02 
1749	 3.52741612539805E-02 
1750	 3.06237478041238E-02 
1751	 2.65508987328552E-02 
1752	 1.70859702901076E-02 
1753	 1.72416894806293E-02 
1754	 2.63707783432481E-02 
1755	 2.69196335952664E-02 
1756	 2.85939096175109E-02 
1757	 2.47533361511822E-02 
1758	 1.37283137518529E-02 
1759	 1.24846058508583E-02 
1760	 2.21490401448005E-02 
1761	 2.59697503977274E-02 
1762	 3.26155697869235E-02 
1763	 3.55642622853101E-02 
1764	 2.78410394658029E-02 
1765	 2.32543213315804E-02 
1766	 1.90903767870604E-02 
1767	 1.61542734467569E-02 
1768	 1.93841309851972E-02 
1769	 2.34845291025155E-02 
1770	 2.84571455781499E-02 
1771	 2.85410599277557E-02 
1772	 1.83442024707965E-02 
1773	 9.39430604453803E-03 
1774	 6.5041880544922E-03 
1775	 2.10503008624556E-02 
1776	 2.46078304830111E-02 
1777	 1.44540389022806E-02 
1778	 2.03261032900295E-02 
1779	 3.78971297907402E-02 
1780	 3.26486490460612E-02 
1781	 2.63307647531036E-02 
1782	 0.027785224049418 
1783	-2.08698657497993E-03 
1784	 1.33975064467507E-03 
1785	 5.98417063057201E-02 
1786	 7.27326875961776E-02 
1787	 6.89056215964027E-02 
1788	 6.10389001646186E-02 
1789	 1.98059672090226E-02 
1790	 1.70304969652421E-02 
1791	 1.77442328561883E-02 
1792	 2.21368458355038E-02 
1793	 4.67688176892326E-03 
1794	-8.18327201512872E-02 
1795	-0.136215478914187 
1796	-4.08430772483614E-02 
1797	 2.23773104764061E-02 
1798	-2.53166848458367E-02 
1799	 0.043631671938095 
1800	-0.282778423415954 
1801	-0.373737140636265 
1802	 0.012809744205615 
1803	 0.044678781967916 
1804	-7.55349086544473E-02 
1805	-0.164064669974956 
1806	-0.856174482726411 
1807	-1.00548147662318 
1808	-0.256329430758767 
1809	-2.40253839610938E-02 
1810	 0.907038726562733 
1811	 1.34875982626739 
1812	 0.190655621529573 
1813	 6.41801345568863E-02 
1814	 0.135534276382055 
1815	 0.151039055006217 
1816	 0.28611239680537 
1817	 0.563341640813795 
1818	 0.397280790846165 
1819	 2.40585861314127E-02 
1820	-0.255469839348485 
1821	-1.27862401514069 
1822	-2.60656773885158 
1823	-0.529986559636286 
1824	-0.140511326292146 
1825	-0.314711180052512 
1826	-0.392575010418925 
1827	-1.2501380393045 
1828	-1.54025127484639 
1829	-1.15099479430992 
1830	-0.661500844506962 
1831	 1.67540008957924 
1832	 2.09329545140358 
1833	 0.7032678006495 
1834	 0.646605941233801 
1835	 3.65693735853851 
1836	 0.593693481879382 
1837	-0.75781958328094 
1838	-0.868513388390737 
1839	-1.08859065191063 
1840	-33.2681050966701 
1841	 2.55677905805476 
1842	 1.87945532082631 
1843	 2.03999010164206 
1844	 4.67462806192264 
1845	 5.53107287495907 
1846	-1.35916392567871 
1847	-0.134743162678262 
1848	-2.64257694142511 
1849	-0.844661247331109 
1850	 2.45500141030324 
1851	 5.84640237373688 
1852	 2.13829711136324 
1853	 1.30983684636142 
1854	 0.878443813938594 
1855	 0.125081914805941 
1856	 2.43625391520258E-03 
1857	 7.53221147415184E-03 
1858	-4.73226494508448E-02 
1859	-0.100524467744508 
1860	-5.43156866587001E-02 
1861	-0.15464048279068 
1862	-0.85031706301088 
1863	-0.715285187329713 
1864	-0.215657307257872 
1865	-0.484720467168516 
1866	-0.823734543746463 
1867	-0.924270620517625 
1868	 4.28325002344988 
1869	 16.4410569359547 
1870	-8.30171328734828 
1871	 0.301055411599221 
1872	 0.649813233180006 
1873	 0.451747713185076 
1874	 0.157392333559311 
1875	-2.29370260059452E-02 
1876	-0.171678852632434 
1877	-0.728551857659823 
1878	-1.00870717374484 
1879	-0.931370690607145 
1880	-1.16876280248667 
1881	-1.29404576976948 
1882	-1.0891800285166 
1883	-1.37650263251324 
1884	-3.00096048927294 
1885	-4.63146497351581 
1886	-36.1819481312279 
1887	 3.45011661746521 
1888	-3.28579328827408 
1889	-0.99501844954023 
1890	-1.02741687895332 
1891	-0.918333979208603 
1892	-0.511250228712407 
1893	-1.11372081102839 
1894	-0.652044210263166 
1895	 5.93404671954093 
1896	 5.15091662303517 
1897	 1.94965135449603 
1898	 1.90455630520327 
1899	 5.05609858792485 
1900	 17.5736287509204 
1901	-2.82867273558688 
1902	-1.16494943714547 
1903	 0.2967134513359 
1904	 4.0875612008408 
1905	-1.24506568673456 
1906	 0.107454939948058 
1907	 0.721488117755615 
1908	 1.21887437290284 
1909	 0.785890779824666 
1910	-1.47965882039946 
1911	 8.49397079889284 
1912	-11.8310444553613 
1913	-82.368030677203 
1914	 6.03539142684884 
1915	 5.20388715601019 
1916	 6.31117362348146 
1917	 5.01183786825438 
1918	 2.27585556048828 
1919	 1.14850028588967 
1920	 0.809478546961131 
1921	 0.494330516348254 
1922	 0.300537096232566 
1923	 0.198522912560016 
1924	 0.780362500084977 
1925	 0.885569924081307 
1926	 0.910223462726891 
1927	 0.650470848677268 
1928	 0.764190775949356 
1929	 3.50897072280834 
1930	-1.25408485285997 
1931	-1.27829650668605 
1932	-1.19428371023182 
1933	-1.03271316001887 
1934	-0.592505588405636 
1935	-0.359217063720365 
1936	 2.09681198168236E-02 
1937	-1.26772486477278 
1938	-0.749065781420962 
1939	-0.500129852622607 
1940	-1.82904054032733E-03 
1941	 7.25137710184755E-02 
1942	 0.345757257671618 
1943	 2.76683761883409E-02 
1944	-0.396806387323927 
1945	-0.195328166098091 
1946	-1.12601623823714 
1947	 6.71780775612448 
1948	 0.535259750471742 
1949	-0.224053458585271 
1950	-0.201460050828588 
1951	-0.327407754309316 
1952	-0.600464451132407 
1953	-3.75803811313514 
1954	 2.46408328714627 
1955	 1.82724748657338 
1956	 0.791767886531377 
1957	 0.654135414974079 
1958	 0.707076734244529 
1959	 0.38835692102313 
1960	 0.142309912632633 
1961	-0.116514839199098 
1962	-0.247343456347576 
1963	-0.585516598836003 
1964	-1.46644581489321 
1965	-1.31263280749914 
1966	-1.32646711838499 
1967	-1.5714114917784 
1968	-0.871992877373319 
1969	-0.156818046292877 
1970	-0.372199986897858 
1971	-0.562326842209314 
1972	-0.488000990793917 
1973	-0.401170012474394 
1974	-0.256432034317048 
1975	-0.148413783516063 
1976	-0.124916061046263 
1977	-0.163725507155512 
1978	-0.171682548910809 
1979	-0.172938776686042 
1980	-0.128522813158824 
1981	-0.104807780077619 
1982	-5.49382996634263E-02 
1983	-1.22597946420206E-02 
1984	 8.93782070718948E-02 
1985	 0.104977252380052 
1986	 0.123139292430329 
1987	 7.91162432500488E-02 
1988	-0.115586964182469 
1989	-7.89905753796309E-02 
1990	 5.27046271125482E-03 
1991	 1.34294124837637E-02 
1992	 0.120887109551709 
1993	 0.169040595876235 
1994	 0.159430761964106 
1995	 4.95018491511109E-02 
1996	-9.24883826864271E-02 
1997	-0.174568105432503 
1998	-0.159450407349427 
1999	-0.183297949870231 
2000	 3.14871221607117E-02 
2001	 7.06488822808377E-02 
2002	-8.30936908254458E-02 
2003	 0.103352275575532 
2004	 0.283194983943525 
2005	 0.434686109512621 
2006	 0.804593485234597 
2007	 0.697649928748634 
2008	 0.568138421284383 
2009	 0.440825739079397 
2010	-0.103081110523542 
2011	-0.394127434098282 
2012	-0.432062636259661 
2013	-4.68646670502136E-02 
2014	 7.87100426378008E-02 
2015	 0.125301489817333 
2016	 9.03133781816366E-02 
2017	 0.117181401794548 
2018	 1.84617140442439E-02 
2019	 6.59204897686236E-04 
2020	 3.80529128605088E-02 
2021	 3.36993929022698E-02 
2022	 7.27136014076851E-02 
2023	 5.41576077312137E-02 
2024	 5.04091148560724E-02 
2025	 1.67001659832925E-02 
2026	 3.40718988905761E-02 
2027	 7.71218443768904E-02 
2028	 8.67781028090538E-02 
2029	 8.24151790407592E-02 
2030	 5.52328543314961E-02 
2031	 1.37678720027882E-03 
2032	 0.01576003732865 
2033	 5.67026125669706E-02 
2034	 0.061781162470651 
2035	 5.18471930254058E-02 
2036	 2.98737651423266E-02 
2037	 4.34923812676319E-02 
2038	 0.074626364520415 
2039	 7.69249675784899E-02 
2040	 9.81894858213296E-02 
2041	 8.97919098428886E-02 
2042	 0.010195487602238 
2043	-6.37629597880126E-03 
2044	 3.69396777380571E-04 
2045	 0.023111724303987 
2046	 4.54446129105698E-02 
2047	 6.64077727021434E-02 
2048	 4.42348447220514E-02 
2049	 3.39332138825171E-03 
2050	 1.06724925249928E-02 
2051	 1.46433675515261E-02 
2052	 3.60170450323784E-02 
2053	 6.97093467434093E-02 
2054	 5.81463166173423E-02 
2055	 5.89928700795547E-02 
2056	 5.65260331449362E-02 
2057	 6.23009169361798E-02 
2058	 5.11147727563868E-02 
2059	 1.47602468768283E-02 
2060	 9.53001975457325E-03 
2061	 1.61428989149686E-02 
2062	 8.98776925260402E-03 
2063	 4.72630706800116E-02 
2064	 5.52103256817103E-02 
2065	 1.54969698354039E-02 
2066	 5.53913750575049E-02 
2067	 5.65673668982861E-02 
2068	 6.41436585167628E-02 
2069	 0.103160058519362 
2070	 6.39561555360654E-02 
2071	 2.05333688549963E-02 
2072	-5.96303513474831E-03 
2073	-6.60462658957365E-03 
2074	 0.01646526019077 
2075	 0.029725243878105 
2076	 6.22385475585849E-02 
2077	 7.52820621701269E-02 
2078	 7.62294285800344E-02 
2079	 6.69843625952853E-02 
2080	 0.046858089874349 
2081	 4.59554107454279E-02 
2082	 3.34201885394244E-02 
2083	 1.33215561243691E-02 
2084	 3.29181487717538E-03 
2085	-0.017414632343659 
2086	-4.04177958309879E-02 
2087	-0.033983580533562 
2088	-1.63216186426946E-02 
2089	 8.58989393545609E-04 
2090	 1.83283217762996E-02 
2091	 1.76180191020955E-02 
2092	 2.57881850229328E-02 
2093	 3.23701637888969E-02 
2094	 3.81497313029106E-02 
2095	 6.17056781488377E-02 
2096	 0.065263736169979 
2097	 4.90577557865806E-02 
2098	 4.32547133321529E-02 
2099	 3.81926783935899E-02 
2100	 1.43362728104539E-02 
2101	 0.011484667116615 
2102	 2.72433698550867E-02 
2103	 4.00774268787437E-02 
2104	 3.98129457113931E-02 
2105	 3.77740145009825E-02 
2106	 4.01529855978715E-02 
2107	 3.64413495150536E-02 
2108	 4.32881660394041E-02 
2109	 5.07225173236333E-02 
2110	 0.051074078484017 
2111	 5.65480378916559E-02 
2112	 4.53020657902136E-02 
2113	 4.10215903178012E-02 
2114	 3.89716631817875E-02 
2115	 3.68749943243207E-02 
2116	 3.18315196214324E-02 
2117	 3.17931681049185E-02 
2118	 3.34609783297396E-02 
2119	 2.61473880180563E-02 
2120	 1.04144267884893E-02 
2121	 1.87427783273042E-02 
2122	 1.11823224230306E-02 
2123	 1.01954711011524E-02 
2124	 1.54678368937554E-02 
2125	 2.31504564458037E-02 
2126	 4.06767527976944E-02 
2127	 5.50295676608233E-02 
2128	 6.76205388617837E-02 
2129	 6.27626610579844E-02 
2130	 5.01551367590596E-02 
2131	 0.039995791520403 
2132	 2.64746294563677E-02 
2133	 2.13079556667211E-02 
2134	 2.18534135311586E-02 
2135	 2.59189600251347E-02 
2136	 2.68909004026191E-02 
2137	 4.41876942899517E-02 
2138	 0.042988446330171 
2139	 2.24898432994533E-02 
2140	 1.46502477301802E-02 
2141	 1.26920056750473E-03 
2142	-5.84160794989286E-03 
2143	-1.15624191506847E-02 
2144	 0.005139605656994 
2145	 1.45516686271627E-02 
2146	 9.21988810686169E-03 
2147	 1.99649684371543E-03 
2148	-1.10063398048007E-02 
2149	-1.35914332961774E-02 
2150	-3.80893717172292E-03 
2151	 1.27062038669921E-02 
2152	 3.28765289967193E-02 
2153	 4.81713277325037E-02 
2154	 4.34715141535571E-02 
2155	 2.40525933395158E-02 
2156	 1.37443591510693E-02 
2157	 6.95024837121291E-03 
2158	-2.55317169499571E-03 
2159	-4.18336893616424E-03 
2160	 1.36006846917241E-03 
2161	 4.56242929834654E-03 
2162	 9.60100770478966E-03 
2163	 6.20789653502975E-03 
2164	 1.34875370154922E-03 
2165	 8.7768343221815E-03 
2166	 1.76833786195363E-02 
2167	 2.25159846998234E-02 
2168	 3.62869679296319E-02 
2169	 4.04706466513577E-02 
2170	 3.69243381064799E-02 
2171	 2.26383729780781E-02 
2172	 2.16194298550351E-02 
2173	 3.11461495508169E-02 
2174	 0.020598547358879 
2175	 2.21007032975522E-02 
2176	 3.35914203631257E-02 
2177	 2.08215134732969E-02 
2178	 0.020872585611729 
2179	 2.81758987903213E-02 
2180	 0.016449081250043 
2181	 1.90776983860103E-02 
2182	 1.04114114401072E-02 
2183	-1.80967791763793E-03 
2184	 9.15274025092074E-03 
2185	-9.35307814675459E-03 
2186	-1.07056698431595E-02 
2187	 6.41660069491709E-03 
2188	 1.02663163926325E-02 
2189	 1.33824912970127E-02 
2190	 1.70334268735951E-02 
2191	 4.64115917816221E-03 
2192	 7.9724246267436E-03 
2193	 2.42049033110748E-02 
2194	 2.58403140808268E-02 
2195	 2.24586165130286E-02 
2196	 2.80292306796198E-02 
2197	 0.032859116585452 
2198	 0.040270894741973 
2199	 6.38514795698782E-02 
2200	 7.82432706211634E-02 
2201	 6.83724612934158E-02 
2202	 5.09534273852271E-02 
2203	 2.93909940273559E-02 
2204	 3.50629677741063E-02 
2205	 4.45252706098537E-02 
2206	 4.21508654689876E-02 
2207	 4.73536361470694E-02 
2208	 4.81993362057949E-02 
2209	 3.82300280628696E-02 
2210	 2.63531742197234E-02 
2211	 1.82994380394163E-02 
2212	-8.21643154584767E-03 
2213	-2.81871763576361E-02 
2214	-2.68375752202028E-02 
2215	-2.57222121839755E-02 
2216	-1.25202952957146E-02 
2217	-1.02857840690677E-04 
2218	 0.025918756988404 
2219	 3.85536830822912E-02 
2220	 4.69073345114686E-02 
2221	 5.01280652696359E-02 
2222	 3.84908023945546E-02 
2223	 4.50091109291951E-02 
2224	 6.40983215452489E-02 
2225	 6.75569465432327E-02 
2226	 0.076767879883116 
2227	 7.62537634271312E-02 
2228	 0.04802070904078 
2229	 4.40983095935099E-02 
2230	 0.061482022183766 
2231	 6.16710356059522E-02 
2232	 5.98395942812097E-02 
2233	 5.88808408507965E-02 
2234	 4.44977319436027E-02 
2235	 4.29841850576545E-02 
2236	 5.35555710887744E-02 
2237	 5.57971531303117E-02 
2238	 7.03883471311884E-02 
2239	 7.33705549048586E-02 
2240	 5.82815775104499E-02 
2241	 7.38025717550644E-02 
2242	 7.78098298829863E-02 
2243	 5.61018841395904E-02 
2244	 3.71662013765877E-02 
2245	 2.38966596661059E-02 
2246	 4.39233176847178E-02 
2247	 0.069909821090896 
2248	 9.40103942581584E-02 
2249	 0.101232161136684 
2250	 6.63777518274256E-02 
2251	 3.48427462649914E-02 
2252	 3.07818502504231E-02 
2253	 0.047914346701234 
2254	 6.26150502690374E-02 
2255	 5.94959622582827E-02 
2256	 3.43254023213788E-02 
2257	 1.89723018208299E-02 
2258	 1.96645478388953E-02 
2259	-2.08347537115394E-03 
2260	-1.09572333460991E-02 
2261	-5.02410186097782E-03 
2262	-5.5006310258746E-03 
2263	-8.64243191602793E-03 
2264	-6.72824284367703E-03 
2265	 1.90038192678774E-03 
2266	-4.58921603890584E-03 
2267	-3.24403067006958E-02 
2268	-2.78504429182042E-02 
2269	-1.76175310434449E-02 
2270	 8.5063912716646E-04 
2271	 6.96507326997177E-02 
2272	 8.22361446956486E-02 
2273	 6.34240527089353E-02 
2274	 6.26286836196156E-02 
2275	 2.04335667567439E-02 
2276	 1.16987693573577E-02 
2277	 4.21053499976386E-02 
2278	 5.26256174530007E-02 
2279	 7.68457210484753E-02 
2280	 7.31786568091014E-02 
2281	 3.85459896920084E-02 
2282	 4.12967138549487E-02 
2283	 4.39648521559728E-02 
2284	-7.89325016937642E-03 
2285	-2.96702511465237E-02 
2286	-5.65864665033705E-02 
2287	-6.15216157076418E-02 
2288	-1.47030578191097E-02 
2289	 2.42899424910093E-03 
2290	 6.65435212430371E-03 
2291	 1.23925783932228E-03 
2292	-2.08794115999175E-02 
2293	-1.39807522402392E-03 
2294	 6.41015676867939E-02 
2295	 8.04425415748026E-02 
2296	 8.09395157155696E-02 
2297	 9.54951882216799E-02 
2298	 0.102397055339217 
2299	 0.119502474623523 
2300	 0.140052670004925 
2301	 0.185409541775526 
2302	 0.168146664535115 
2303	 0.10310831480981 
2304	 5.70325075205949E-02 
2305	-2.17886625498882E-02 
2306	-4.75794424009096E-02 
2307	-0.035813180204668 
2308	-3.64557963192952E-02 
2309	 1.13301319919622E-02 
2310	 0.070736025881648 
2311	 7.35156772328333E-02 
2312	 9.20042107395258E-02 
2313	 7.40906811455595E-02 
2314	-7.19716995412158E-03 
2315	-1.74254544235143E-02 
2316	 1.41819450120852E-02 
2317	 6.65775089430497E-02 
2318	 5.64187326388905E-02 
2319	 5.37452187821522E-02 
2320	 7.81002638837314E-02 
2321	-4.32995246872439E-02 
2322	-6.55539047146334E-02 
2323	 5.12715918158394E-02 
2324	 7.16013791394989E-02 
2325	 4.35864188155235E-02 
2326	 3.70211451702071E-02 
2327	 3.00311359950866E-02 
2328	 2.69595151488337E-03 
2329	 7.12759652761726E-02 
2330	 0.070675818267905 
2331	-4.42295750284617E-02 
2332	-0.110359658920352 
2333	-0.170088667000281 
2334	-0.20340899730976 
2335	-0.1032029358244 
2336	-3.01252205384274E-02 
2337	 2.96801655299126E-03 
2338	 0.15526943699758 
2339	 0.320117726555027 
2340	 0.283764181454914 
2341	 0.276461066908741 
2342	 0.407981285974159 
2343	 0.361480492600338 
2344	 0.289986482850261 
2345	 0.408838254169354 
2346	 0.424966458373788 
2347	 0.364255064530047 
2348	 0.340609311263661 
2349	 0.23416142171085 
2350	 0.130193898611483 
2351	 0.085783546612759 
2352	 9.78377952325982E-02 
2353	 3.84412103827354E-02 
2354	-0.175700153980253 
2355	-0.298649921037861 
2356	-0.470808390550346 
2357	-0.379720297505893 
2358	-0.221589268768863 
2359	-0.236473926975917 
2360	-3.84415823868819E-02 
2361	 0.116574563913486 
2362	 0.414319866278339 
2363	 0.794159329039212 
2364	 0.822012859679063 
2365	 0.648416427744824 
2366	 0.432870623719194 
2367	 0.143513382797688 
2368	-3.31080308372617E-02 
2369	-0.239137966270176 
2370	-0.42182177494696 
2371	-0.466922646172482 
2372	-0.434443118649797 
2373	 1.02365479384714E-02 
2374	 0.498932333039468 
2375	 1.15560736181681 
2376	 1.80655410005219 
2377	 0.886191228148657 
2378	 0.1004758509921 
2379	-0.152148625619135 
2380	-0.269680400640916 
2381	 0.146485993158766 
2382	 1.21582730069468 
2383	 2.78020889655673 
2384	 1.80057228032808 
2385	-0.158732933451434 
2386	 1.49676266949363 
2387	 1.87781371353791 
2388	 3.62487132687188 
2389	 15.915230947656 
2390	 13.9204661453654 
2391	 3.07571151016951 
2392	 2.79784940592951 
2393	-141.854002207204 
2394	-0.675964645863146 
2395	-32.9091461435806 
2396	 0.429498985950754 
2397	-0.506682124460026 
2398	 2.5030677912945 
2399	-0.259535207773305 
2400	 6.20988077109245 
2401	-6.00476287573636 
2402	-0.924412368572558 
2403	-0.994009585994853 
2404	-2.54179074685741 
2405	-0.938043275903306 
2406	-4.85396614565976 
2407	 3.45782367162763 
2408	 6.84378392000887 
2409	 2.06774940376615 
2410	 1.16076348810967 
2411	 1.6233524819378 
2412	 2.52087791559896 
2413	 3.02134912945317 
2414	 1.71121375389117 
2415	 2.77648400887494 
2416	-2.71286400485228 
2417	 1.27686852864808 
2418	 0.692800696979145 
2419	 1.07939056692887 
2420	 0.757876835127273 
2421	 5.69041568591341E-02 
2422	-0.597559913473758 
2423	-4.05072131298824 
2424	 2.6466311727958 
2425	 1.37936147955562 
2426	-2.77079423433356 
2427	-0.343150227761881 
2428	-0.294500962012888 
2429	 0.213583727257395 
2430	 2.15273921202593 
2431	-1.01611885986663 
2432	 0.113927962018819 
2433	 1.08729193641245 
2434	 0.417066456089506 
2435	-0.378659328464791 
2436	-0.546865752922466 
2437	-1.25567906223317 
2438	-4.3660447076748 
2439	 5.54097703603753E-02 
2440	 7.95684802702798E-02 
2441	 0.287714862160928 
2442	 0.50105615912469 
2443	-2.13272768657735 
2444	-1.18142032046898 
2445	-3.72690472365605 
2446	 4.79531267672039 
2447	 7.63151232868423 
2448	-5.59755046747061 
2449	-0.44722766826235 
2450	 0.202745711285088 
2451	 0.333359422529146 
2452	 3.77737815821613 
2453	-0.771789688723059 
2454	 0.216884260294022 
2455	 4.29918733770403E-02 
2456	 0.141301685583404 
2457	 0.392075997493828 
2458	 0.358008462128976 
2459	 0.579712122168408 
2460	 0.722734853424567 
2461	 0.353491417090062 
2462	 0.450764323565255 
2463	 1.09644169886202 
2464	 0.550235162647717 
2465	 0.475085497971132 
2466	 0.360799762562606 
2467	-0.456552454484054 
2468	-1.26613734420538 
2469	 8.06625950463603 
2470	 0.607174590037286 
2471	 0.473908014815958 
2472	 0.376630107227625 
2473	 0.241453440333993 
2474	-0.300639851803671 
2475	-2.98225672798822 
2476	-1.83857167367076 
2477	-1.69117109957913 
2478	-0.682788761406543 
2479	-9.18381166801554E-02 
2480	-0.128624533985509 
2481	-2.61496500144564E-02 
2482	 1.12318478201001 
2483	 0.42663051255902 
2484	-0.535604226186245 
2485	-6.60276811699302 
2486	 4.02412422938426 
2487	 26.9098503405531 
2488	 2.71352035278097 
2489	 0.163700489765813 
2490	 4.72964801109576 
2491	 2.20312086662431 
2492	-2.61874458856079 
2493	-1.3412293260902 
2494	-2.41047994992205 
2495	 3.20467132003531 
2496	 1.44519021103889 
2497	 1.11891378531431 
2498	 1.44897193945933 
2499	 1.83027590923592 
2500	 1.60448269110956 
