Wavelength	rt0712EAST_CLOSE200004.asd
350	 5.26755656623409E-02 
351	 5.25685759441502E-02 
352	 5.21997363265466E-02 
353	 5.28607796771589E-02 
354	 5.44979544274404E-02 
355	 5.39847019581651E-02 
356	 5.37850755424161E-02 
357	 5.41239499262876E-02 
358	 5.43942836155409E-02 
359	 0.053625639675562 
360	 5.32103828144807E-02 
361	 5.34583059226198E-02 
362	 5.38329927996962E-02 
363	 5.39959228012077E-02 
364	 0.054007380945409 
365	 5.39649783938908E-02 
366	 5.39222104808604E-02 
367	 5.36108770771768E-02 
368	 0.053801992452636 
369	 5.49014932405858E-02 
370	 5.51614007733081E-02 
371	 0.055057718126627 
372	 5.46589322895243E-02 
373	 5.39777444173388E-02 
374	 5.45647770504469E-02 
375	 5.51452209570223E-02 
376	 5.50834732773094E-02 
377	 0.055055162485279 
378	 5.54934177830925E-02 
379	 0.055431607607326 
380	 5.45408869728092E-02 
381	 5.55750005133323E-02 
382	 5.63287005536774E-02 
383	 5.62845808658351E-02 
384	 5.58710293460395E-02 
385	 5.54192004500701E-02 
386	 5.60384615209904E-02 
387	 5.73821422690211E-02 
388	 5.75636724175571E-02 
389	 5.84349621372959E-02 
390	 0.058305966844251 
391	 5.66670482289693E-02 
392	 5.74065620328287E-02 
393	 5.84266402032675E-02 
394	 5.87399585906309E-02 
395	 5.81585957122751E-02 
396	 5.79718178138314E-02 
397	 5.83079307358976E-02 
398	 5.88944702231267E-02 
399	 5.92188329158586E-02 
400	 5.90291458003305E-02 
401	 5.88288927512869E-02 
402	 5.89287927925322E-02 
403	 5.89671347363666E-02 
404	 5.90451321434482E-02 
405	 5.91286745615506E-02 
406	 5.91681561278194E-02 
407	 5.92699879194593E-02 
408	 5.95212997496979E-02 
409	 5.98300761933813E-02 
410	 5.99523612306747E-02 
411	 6.01147453632595E-02 
412	 6.01296477750101E-02 
413	 6.00210350800456E-02 
414	 6.05759878238481E-02 
415	 6.05163606576753E-02 
416	 6.02902710110355E-02 
417	 6.07775635799253E-02 
418	 6.07576535080438E-02 
419	 6.06954549635077E-02 
420	 6.08759904716701E-02 
421	 6.12480759723175E-02 
422	 6.14081521948188E-02 
423	 6.15575170203331E-02 
424	 6.18564676913478E-02 
425	 6.19645504506114E-02 
426	 6.20633888620496E-02 
427	 6.22562967485228E-02 
428	 6.25722323582569E-02 
429	 6.28299561774798E-02 
430	 6.29735773510359E-02 
431	 6.30716046660587E-02 
432	 6.33143931724581E-02 
433	 6.35544121064241E-02 
434	 6.38642286166072E-02 
435	 6.42500860597462E-02 
436	 6.43624906035623E-02 
437	 6.45940615879845E-02 
438	 0.064948740236148 
439	 6.52225980127147E-02 
440	 6.54568586105905E-02 
441	 6.58423018348271E-02 
442	 6.63019785396856E-02 
443	 6.63324482123475E-02 
444	 6.67429759906847E-02 
445	 6.71942323883596E-02 
446	 6.72792634863287E-02 
447	 0.067622026561267 
448	 6.80730553207287E-02 
449	 6.84297655980312E-02 
450	 6.84949345840114E-02 
451	 6.84853482239977E-02 
452	 6.87302071026557E-02 
453	 6.92052242572794E-02 
454	 6.91211979085889E-02 
455	 0.069304823891597 
456	 6.96304415758637E-02 
457	 6.97342645792352E-02 
458	 6.99789194915575E-02 
459	 7.00939167716728E-02 
460	 7.00667729663735E-02 
461	 7.01704353829568E-02 
462	 7.04553617886022E-02 
463	 7.07409979120683E-02 
464	 7.08902003156188E-02 
465	 0.071019553102462 
466	 7.11684089662961E-02 
467	 7.13282003010517E-02 
468	 7.14889801547204E-02 
469	 7.18748976961441E-02 
470	 7.20953746910278E-02 
471	 7.21564207511521E-02 
472	 7.26637619382922E-02 
473	 7.26208576920695E-02 
474	 7.26554909622546E-02 
475	 7.33806586257416E-02 
476	 7.37999834863417E-02 
477	 7.40598124421944E-02 
478	 7.43270741899906E-02 
479	 7.47445438527029E-02 
480	 7.49705066869547E-02 
481	 7.52684576048823E-02 
482	 7.57599585703005E-02 
483	 7.61283816357714E-02 
484	 7.62801008991688E-02 
485	 7.65551011748803E-02 
486	 7.72537904285793E-02 
487	 0.077506264316721 
488	 7.77294191820413E-02 
489	 0.07817870433403 
490	 7.88565414697613E-02 
491	 7.91692229249932E-02 
492	 7.94947284293198E-02 
493	 8.01154714948398E-02 
494	 8.04878906428458E-02 
495	 8.10680948963779E-02 
496	 8.17255526533772E-02 
497	 8.20949579646153E-02 
498	 8.25311171699016E-02 
499	 8.30805728583416E-02 
500	 8.37061712582864E-02 
501	 8.42964410886224E-02 
502	 8.47618393717595E-02 
503	 8.53104176264196E-02 
504	 8.60762181644659E-02 
505	 8.64945872683791E-02 
506	 0.08709792460773 
507	 8.78875017772052E-02 
508	 8.84583926793009E-02 
509	 8.92358076890999E-02 
510	 8.98669835366429E-02 
511	 9.02430998614451E-02 
512	 9.11490830255534E-02 
513	 9.17145591353769E-02 
514	 9.20975331662153E-02 
515	 9.28409951418982E-02 
516	 9.37678591130223E-02 
517	 9.46721809306953E-02 
518	 9.54095850067487E-02 
519	 9.59372426356088E-02 
520	 9.66642880419834E-02 
521	 9.74632447673014E-02 
522	 9.81884885579783E-02 
523	 9.91162191170464E-02 
524	 9.98951446388453E-02 
525	 0.100535819382023 
526	 0.101317954688464 
527	 0.102357206622553 
528	 0.103250688355267 
529	 0.103876779237146 
530	 0.104814661968972 
531	 0.105778309048939 
532	 0.106628377242836 
533	 0.107350318760232 
534	 0.10838542948679 
535	 0.109528342963376 
536	 0.110593138410519 
537	 0.111466012241159 
538	 0.112281896868729 
539	 0.113237203333227 
540	 0.114399290122182 
541	 0.115397179293543 
542	 0.116329036838138 
543	 0.117279717710806 
544	 0.118321255276912 
545	 0.119440725924244 
546	 0.120463403630477 
547	 0.121357657023703 
548	 0.122394492087574 
549	 0.123492021961607 
550	 0.124586032706635 
551	 0.125629121485273 
552	 0.126687734233199 
553	 0.12763970817409 
554	 0.128554824941094 
555	 0.129711526989951 
556	 0.130563239251242 
557	 0.131426717571133 
558	 0.132559290124816 
559	 0.133327916557037 
560	 0.134213496562105 
561	 0.135113164924015 
562	 0.135636359763125 
563	 0.136418223925562 
564	 0.137279104805885 
565	 0.137974948806833 
566	 0.138319839742619 
567	 0.138839998279613 
568	 0.139450079277022 
569	 0.13988914825238 
570	 0.140420392512769 
571	 0.140877156499155 
572	 0.141223977860046 
573	 0.141587911095075 
574	 0.142097122146804 
575	 0.142426961964123 
576	 0.142419533567656 
577	 0.142814552598843 
578	 0.143032545301482 
579	 0.143093071004135 
580	 0.14334622104995 
581	 0.143538392960843 
582	 0.143543135442504 
583	 0.1433664691957 
584	 0.143227053509529 
585	 0.142937078754235 
586	 0.142438770339123 
587	 0.141768253094777 
588	 0.141269294588522 
589	 0.141020033601449 
590	 0.140920455145491 
591	 0.140696834299381 
592	 0.140240347865502 
593	 0.139880348797843 
594	 0.139756280969517 
595	 0.139121705614863 
596	 0.138541935256294 
597	 0.138040668933875 
598	 0.13736143359683 
599	 0.136525094501116 
600	 0.135804674769313 
601	 0.135360190079623 
602	 0.135138490288939 
603	 0.134856366272106 
604	 0.134604681370363 
605	 0.134555628799863 
606	 0.134602550856254 
607	 0.134537914949411 
608	 0.134387336471786 
609	 0.134410988820181 
610	 0.134372522590107 
611	 0.134219525129908 
612	 0.134003395064954 
613	 0.133960041555887 
614	 0.13390132164842 
615	 0.133800611061071 
616	 0.13371597804202 
617	 0.133598239586854 
618	 0.133358820389438 
619	 0.133112071517441 
620	 0.133331750641177 
621	 0.133239731709134 
622	 0.133101494269023 
623	 0.133320021848847 
624	 0.133200100649323 
625	 0.132922715848562 
626	 0.132651272397939 
627	 0.132496136352298 
628	 0.132296963667598 
629	 0.132200837673942 
630	 0.132258431877541 
631	 0.132124832932288 
632	 0.132145380223481 
633	 0.132285073405183 
634	 0.132335786534962 
635	 0.132280296207819 
636	 0.132190934610918 
637	 0.132179743094437 
638	 0.132409622018342 
639	 0.132298139934273 
640	 0.132183889517287 
641	 0.132419347873572 
642	 0.13221865797796 
643	 0.132101157071817 
644	 0.132039134425376 
645	 0.131546048838316 
646	 0.130962352815545 
647	 0.130841573906216 
648	 0.131230411000442 
649	 0.13094793828332 
650	 0.130734616713339 
651	 0.130501166261842 
652	 0.129933138889205 
653	 0.129115174909038 
654	 0.128513546679148 
655	 0.128080787065478 
656	 0.127092642017558 
657	 0.126324949923335 
658	 0.125528947487799 
659	 0.124420311472408 
660	 0.123259750893419 
661	 0.122351735271874 
662	 0.121603481041047 
663	 0.120725397830023 
664	 0.12000872786952 
665	 0.119291132513048 
666	 0.118533695086427 
667	 0.118030531761714 
668	 0.117691167035562 
669	 0.117479026178148 
670	 0.117340931296618 
671	 0.117067100128019 
672	 0.117008312079641 
673	 0.117250812309437 
674	 0.117603796082592 
675	 0.117904474901146 
676	 0.118259452974685 
677	 0.118746197711672 
678	 0.119199202268158 
679	 0.119822967871299 
680	 0.120527631545081 
681	 0.121165774716622 
682	 0.122224950763146 
683	 0.123341052588212 
684	 0.124182817741055 
685	 0.124607363243777 
686	 0.125409063135019 
687	 0.126355294927435 
688	 0.126948889347015 
689	 0.127541949605013 
690	 0.127949868060913 
691	 0.128126148476737 
692	 0.128096770599898 
693	 0.128007748166123 
694	 0.128049622748666 
695	 0.128098401408124 
696	 0.127608884738053 
697	 0.126854557186493 
698	 0.125913920076474 
699	 0.12496361778103 
700	 0.124234453302878 
701	 0.123516779594921 
702	 0.122643715305679 
703	 0.121497437160025 
704	 0.120558975212493 
705	 0.119241634142045 
706	 0.117528810581274 
707	 0.116917321187015 
708	 0.115283678019927 
709	 0.113258491556822 
710	 0.112061182541116 
711	 0.109969425858771 
712	 0.107941956787166 
713	 0.106175148014226 
714	 0.10386854230729 
715	 0.101838719186245 
716	 9.96653258072815E-02 
717	 9.71049235567202E-02 
718	 9.51079987130309E-02 
719	 0.092328683962126 
720	 8.98252777693909E-02 
721	 8.81069858577865E-02 
722	 0.086363809695858 
723	 8.43047987807294E-02 
724	 8.20606987394356E-02 
725	 7.93793038992839E-02 
726	 7.69526129831727E-02 
727	 7.46089805697199E-02 
728	 7.20588276869365E-02 
729	 6.91845303176929E-02 
730	 0.06693050080361 
731	 6.48157979209421E-02 
732	 6.19958140408509E-02 
733	 6.04533914462068E-02 
734	 5.92122333360706E-02 
735	 5.78797753280631E-02 
736	 5.68922376879703E-02 
737	 5.61748734736872E-02 
738	 5.54769158857674E-02 
739	 5.47539385856908E-02 
740	 5.46193153616693E-02 
741	 5.45382712347299E-02 
742	 0.054401154736078 
743	 5.43127671595834E-02 
744	 5.42443918053454E-02 
745	 5.41782786168011E-02 
746	 5.40826987585244E-02 
747	 5.39055582199493E-02 
748	 5.39307118540543E-02 
749	 5.39907904218172E-02 
750	 5.38885213574973E-02 
751	 5.37280042524016E-02 
752	 0.053609661520819 
753	 5.35634631640235E-02 
754	 5.35827271620633E-02 
755	 5.38055418151391E-02 
756	 5.36723427410448E-02 
757	 5.32558836965797E-02 
758	 5.38105693701489E-02 
759	 5.36678862213382E-02 
760	 0.052988455275792 
761	 0.053536939294124 
762	 5.35435725082798E-02 
763	 5.33015918747062E-02 
764	 5.31967768668775E-02 
765	 5.34321284307799E-02 
766	 5.38901905952101E-02 
767	 5.41494121703632E-02 
768	 5.41864304272318E-02 
769	 5.42706400522326E-02 
770	 0.054507820768309 
771	 5.47572743554318E-02 
772	 5.49003473961568E-02 
773	 5.50295132904442E-02 
774	 5.51311170822701E-02 
775	 0.055260185613283 
776	 5.54977282149865E-02 
777	 5.59066324718359E-02 
778	 5.62374082149246E-02 
779	 5.63797845633779E-02 
780	 5.64245821178895E-02 
781	 5.70158375445333E-02 
782	 5.75700681043706E-02 
783	 5.76677860406379E-02 
784	 5.77516325540864E-02 
785	 5.83058820360049E-02 
786	 5.90147698690986E-02 
787	 5.93002794941785E-02 
788	 5.92356663802324E-02 
789	 0.059527498139257 
790	 6.02107909201158E-02 
791	 0.060737371754731 
792	 6.11265992645893E-02 
793	 6.13595121176627E-02 
794	 6.15753983063537E-02 
795	 6.21471284200166E-02 
796	 6.27669772822017E-02 
797	 6.32221367548143E-02 
798	 6.34223703638679E-02 
799	 6.33212618092014E-02 
800	 6.37933437018904E-02 
801	 6.45966440960101E-02 
802	 6.49016366958044E-02 
803	 6.51541539073316E-02 
804	 6.52452102133251E-02 
805	 6.52034369409832E-02 
806	 6.52269342745704E-02 
807	 6.55000118753464E-02 
808	 6.55907536499902E-02 
809	 6.52288839470488E-02 
810	 6.50045012131666E-02 
811	 6.45265375036399E-02 
812	 6.41351299756901E-02 
813	 6.43398051852383E-02 
814	 6.40391459227561E-02 
815	 6.33571852897606E-02 
816	 6.28457380038008E-02 
817	 6.29272221074788E-02 
818	 6.13468588418376E-02 
819	 6.06031164559094E-02 
820	 6.07899231484204E-02 
821	 5.90127430401207E-02 
822	 5.81683134329374E-02 
823	 5.75385169774582E-02 
824	 5.61477147968803E-02 
825	 5.45150121526591E-02 
826	 0.05295182193553 
827	 5.15189115727002E-02 
828	 5.02819843655192E-02 
829	 4.92982746911249E-02 
830	 4.77862225689518E-02 
831	 0.04605236121918 
832	 4.51869494498403E-02 
833	 4.51905691797849E-02 
834	 4.50952311294911E-02 
835	 4.44080073854382E-02 
836	 4.33466674410857E-02 
837	 4.31241397178102E-02 
838	 4.30383309710718E-02 
839	 4.25675069942981E-02 
840	 4.27753545106081E-02 
841	 4.24112917724084E-02 
842	 4.19008798181387E-02 
843	 4.20553664748216E-02 
844	 4.25605544038482E-02 
845	 4.25058160216931E-02 
846	 4.18614295705558E-02 
847	 4.12636106590966E-02 
848	 4.13356513208936E-02 
849	 4.14462362029711E-02 
850	 4.12570200685119E-02 
851	 4.10274602056073E-02 
852	 4.09316891229654E-02 
853	 4.08224157305849E-02 
854	 4.06302164789995E-02 
855	 4.05896673318234E-02 
856	 4.07774881420636E-02 
857	 4.06363877122502E-02 
858	 3.99074473009687E-02 
859	 3.99775951348358E-02 
860	 3.97599457226511E-02 
861	 0.039687351111612 
862	 4.04914440161107E-02 
863	 3.97988508100943E-02 
864	 3.89284083546089E-02 
865	 3.88676511858428E-02 
866	 3.97532509530444E-02 
867	 3.92004974690043E-02 
868	 3.87313002596896E-02 
869	 3.88856211602848E-02 
870	 0.038271293840671 
871	 3.83997087320703E-02 
872	 3.84184290369523E-02 
873	 3.78031700840529E-02 
874	 3.79204708096228E-02 
875	 0.037706477102578 
876	 3.73388162667914E-02 
877	 3.72506299147636E-02 
878	 3.73600241108047E-02 
879	 3.70751671235576E-02 
880	 3.65419030901176E-02 
881	 3.63165274902974E-02 
882	 3.68922974819806E-02 
883	 3.71597401129812E-02 
884	 3.69832821823483E-02 
885	 3.69424614400753E-02 
886	 3.61525601393295E-02 
887	 3.60609725982493E-02 
888	 3.65610725608919E-02 
889	 3.56822130672611E-02 
890	 3.57935747122613E-02 
891	 3.63961394498879E-02 
892	 3.65946395076042E-02 
893	 3.57749177232562E-02 
894	 3.58813093854388E-02 
895	 3.60210402151121E-02 
896	 3.49763745808585E-02 
897	 3.42655970188085E-02 
898	 3.54059054500888E-02 
899	 3.76887150793211E-02 
900	 3.88948507997832E-02 
901	 3.59551359498157E-02 
902	 3.38883297736598E-02 
903	 3.37103749258278E-02 
904	 3.45197637394779E-02 
905	 3.45507394372331E-02 
906	 3.43677024295394E-02 
907	 3.48967515268293E-02 
908	 3.66184172861406E-02 
909	 3.47676640296976E-02 
910	 3.39853877009235E-02 
911	 3.48508015845819E-02 
912	 3.37755403768687E-02 
913	 3.49661523824562E-02 
914	 3.55098382865561E-02 
915	 3.40471682363286E-02 
916	 3.23611268390832E-02 
917	 3.24445856430301E-02 
918	 3.23160745248094E-02 
919	 3.19795927455669E-02 
920	 0.034253910134005 
921	 3.40689116497341E-02 
922	 3.33630635593747E-02 
923	 3.31692010362118E-02 
924	 2.94617437582138E-02 
925	 3.18209262949409E-02 
926	 3.53744181383519E-02 
927	 0.033303494794825 
928	 3.55161932347898E-02 
929	 3.44497748665911E-02 
930	 2.84640159744355E-02 
931	 2.17594608711374E-02 
932	 2.09448433600805E-02 
933	 3.60083744054264E-02 
934	 4.31939341848948E-02 
935	 0.018636774962286 
936	 5.88741157210257E-03 
937	 2.65372135791784E-02 
938	 4.46342675853568E-02 
939	 3.09557736950486E-02 
940	 4.03948792164724E-02 
941	 4.76367188278082E-02 
942	 4.10069427146556E-02 
943	 2.16252564434212E-02 
944	 0.034114837508845 
945	 3.57150127947774E-02 
946	 2.21393414332767E-02 
947	 1.77348258746061E-02 
948	 3.78239232269214E-02 
949	 3.56718696275409E-02 
950	 2.47217274558236E-02 
951	 0.042189391254557 
952	 2.92851493267189E-02 
953	 2.14961969683815E-02 
954	 2.60297352072807E-02 
955	 0.028423485386082 
956	 0.03426650182906 
957	 3.56350319212131E-02 
958	 3.18410424752568E-02 
959	 2.81183430531252E-02 
960	 3.62081878390382E-02 
961	 4.13988716140472E-02 
962	 3.86865439440833E-02 
963	 3.24246914630698E-02 
964	 3.50931086605052E-02 
965	 3.15816958379503E-02 
966	 2.67929262324227E-02 
967	 3.44997074193512E-02 
968	 3.09803926824037E-02 
969	 2.98351923731033E-02 
970	 3.38024251717962E-02 
971	 3.44823519632619E-02 
972	 2.88852169136788E-02 
973	 2.60967653581458E-02 
974	 3.15050895775071E-02 
975	 4.16749626458797E-02 
976	 3.40338611337756E-02 
977	 2.71614139883111E-02 
978	 0.027598894578289 
979	 2.73413039773656E-02 
980	 3.15428533023824E-02 
981	 0.032623988228991 
982	 3.03480633389202E-02 
983	 3.05269686570925E-02 
984	 3.50530995410446E-02 
985	 3.22597611995567E-02 
986	 2.54300279623701E-02 
987	 2.74804982422779E-02 
988	 3.12220636585278E-02 
989	 3.07586766070686E-02 
990	 2.83722839355961E-02 
991	 3.07206388507413E-02 
992	 3.16957776257755E-02 
993	 3.24354919108535E-02 
994	 3.15298989470217E-02 
995	 2.75585496874008E-02 
996	 3.11689230918823E-02 
997	 3.10288618730877E-02 
998	 2.87228252559346E-02 
999	 3.21671973047024E-02 
1000	 3.17820767114678E-02 
1001	 2.85996885944767E-02 
1002	 2.87378406585542E-02 
1003	 2.89006078453581E-02 
1004	 0.02905629575825 
1005	 2.92526700361498E-02 
1006	 3.01779604594983E-02 
1007	 2.91155986006851E-02 
1008	 2.85549988040135E-02 
1009	 2.97149413802763E-02 
1010	 3.02289370646452E-02 
1011	 3.13403557924909E-02 
1012	 3.19240936791995E-02 
1013	 3.21464788982164E-02 
1014	 3.28055684502044E-02 
1015	 3.34527035182457E-02 
1016	 3.40627339820665E-02 
1017	 3.56139247026751E-02 
1018	 3.55764635405314E-02 
1019	 3.42912357011471E-02 
1020	 3.34904253887234E-02 
1021	 0.031690638517669 
1022	 0.03115167939491 
1023	 3.08392846790995E-02 
1024	 3.04619507039237E-02 
1025	 3.01880491418514E-02 
1026	 2.95434879489505E-02 
1027	 2.97976762591874E-02 
1028	 0.030712064849617 
1029	 3.07769414348537E-02 
1030	 0.031181464982772 
1031	 3.12219403531475E-02 
1032	 3.00446306881802E-02 
1033	 3.02218317386719E-02 
1034	 0.032118772672003 
1035	 3.19861275772177E-02 
1036	 3.06639811944752E-02 
1037	 3.02882278528385E-02 
1038	 2.94882113769889E-02 
1039	 2.82202651243069E-02 
1040	 2.82514765378304E-02 
1041	 3.00045601261097E-02 
1042	 3.04696977290648E-02 
1043	 3.05589946904226E-02 
1044	 3.09385356214957E-02 
1045	 0.031472596773931 
1046	 3.15318291497839E-02 
1047	 3.18941064438937E-02 
1048	 0.031313021494851 
1049	 2.87022435467858E-02 
1050	 2.86837560152936E-02 
1051	 0.029892690680977 
1052	 0.030379466135454 
1053	 3.27028905979259E-02 
1054	 3.36606398201434E-02 
1055	 3.27335921384167E-02 
1056	 3.24650722139253E-02 
1057	 3.22705851980771E-02 
1058	 3.21945618448944E-02 
1059	 3.20479037050623E-02 
1060	 0.031960900407998 
1061	 3.18241676240324E-02 
1062	 3.16975511933946E-02 
1063	 3.14814375622193E-02 
1064	 3.13702817560148E-02 
1065	 3.09381021767291E-02 
1066	 2.97043093683465E-02 
1067	 2.95429467724514E-02 
1068	 2.97605803497279E-02 
1069	 3.00155066242262E-02 
1070	 3.18025668303426E-02 
1071	 3.22126188478596E-02 
1072	 3.24547795705988E-02 
1073	 3.09373879708383E-02 
1074	 0.030511121020742 
1075	 2.92633133873213E-02 
1076	 2.95439414954355E-02 
1077	 3.12414143289729E-02 
1078	 0.03176171730688 
1079	 3.25828244608822E-02 
1080	 0.032491863687452 
1081	 0.031102764546005 
1082	 3.05980532676789E-02 
1083	 3.04907586595505E-02 
1084	 3.01099344416884E-02 
1085	 2.93770384377161E-02 
1086	 2.92111630283039E-02 
1087	 2.85025768238933E-02 
1088	 2.86298888006344E-02 
1089	 0.02933117231922 
1090	 3.21191421794525E-02 
1091	 3.27272583909839E-02 
1092	 3.31013224098528E-02 
1093	 3.33146048406769E-02 
1094	 3.27495387481169E-02 
1095	 3.09786676347884E-02 
1096	 2.75420831764861E-02 
1097	 2.69596278941471E-02 
1098	 0.025889412323309 
1099	 2.64606970353741E-02 
1100	 3.26172308905734E-02 
1101	 3.40260107542228E-02 
1102	 3.15623931107283E-02 
1103	 3.13729557368677E-02 
1104	 2.95092594778236E-02 
1105	 3.03347060397005E-02 
1106	 3.28015941162333E-02 
1107	 3.30710213957803E-02 
1108	 3.03389420543362E-02 
1109	 2.83880536351164E-02 
1110	 2.79384728317725E-02 
1111	 2.85012198209862E-02 
1112	 2.86994368134544E-02 
1113	 3.11604127551022E-02 
1114	 3.16250184022919E-02 
1115	 2.95387411590023E-02 
1116	 2.94254885288235E-02 
1117	 2.99990836816326E-02 
1118	 3.23428986237001E-02 
1119	 4.24436814412186E-02 
1120	 4.56034313734577E-02 
1121	 3.92411346225116E-02 
1122	 4.73925275225147E-02 
1123	 3.59845335347826E-02 
1124	-2.30776298013234E-02 
1125	-4.78046378648783E-02 
1126	-5.94464861033018E-02 
1127	-4.17675635164297E-02 
1128	 1.80646549460681E-02 
1129	 2.39243998290287E-02 
1130	 1.05987484100868E-02 
1131	 1.50526483662359E-02 
1132	 4.73111274449286E-03 
1133	 1.5246719480783E-03 
1134	 1.39078665275983E-02 
1135	 2.67308950132239E-02 
1136	 3.51701524946944E-02 
1137	 3.18995968739146E-02 
1138	 3.98433924586138E-02 
1139	 2.46415478510463E-02 
1140	-7.81012655873188E-03 
1141	 1.49177130160976E-02 
1142	 2.48458206438201E-02 
1143	 1.98304742614409E-02 
1144	 4.91231587930164E-02 
1145	 0.051881945435601 
1146	 4.32120943430912E-02 
1147	 4.79195111503484E-02 
1148	 3.37740727747184E-02 
1149	 8.18306481195389E-03 
1150	 4.86913720067885E-03 
1151	 1.90833655981639E-02 
1152	 2.43889222257449E-02 
1153	 2.86082377136287E-02 
1154	 3.14716169496715E-02 
1155	 3.40571161100373E-02 
1156	 3.16836102503081E-02 
1157	 3.12040874081939E-02 
1158	 3.53762405337055E-02 
1159	 3.12861387280946E-02 
1160	 2.94437623907819E-02 
1161	 3.07434974609945E-02 
1162	 2.90022005844447E-02 
1163	 3.21041959237332E-02 
1164	 3.28933646424974E-02 
1165	 2.93772386923067E-02 
1166	 2.98379031368401E-02 
1167	 3.02554404361144E-02 
1168	 2.99084191846608E-02 
1169	 3.07711985198562E-02 
1170	 3.02956547388311E-02 
1171	 3.05287659360827E-02 
1172	 3.08953671987408E-02 
1173	 3.06978593633163E-02 
1174	 3.04204012278172E-02 
1175	 3.10467616778656E-02 
1176	 3.03692059345014E-02 
1177	 2.90892134333767E-02 
1178	 2.85075124708203E-02 
1179	 2.97483943759529E-02 
1180	 3.16126110425673E-02 
1181	 0.032157244156954 
1182	 3.28184895938163E-02 
1183	 0.031992674132001 
1184	 3.02582405340421E-02 
1185	 2.98585011504955E-02 
1186	 2.98193889277391E-02 
1187	 3.04673623563271E-02 
1188	 3.03028390401761E-02 
1189	 2.96033023806977E-02 
1190	 3.10284134490432E-02 
1191	 3.20046369058209E-02 
1192	 3.21764872310741E-02 
1193	 3.22601633601041E-02 
1194	 3.22845202976486E-02 
1195	 3.06272380483512E-02 
1196	 2.95630431692947E-02 
1197	 2.98426222862493E-02 
1198	 3.13357118320664E-02 
1199	 3.19662112042263E-02 
1200	 3.15977762088631E-02 
1201	 3.24591627879902E-02 
1202	 3.25262781943839E-02 
1203	 0.031743421780214 
1204	 3.26402433380449E-02 
1205	 3.32237865704239E-02 
1206	 3.19166048913444E-02 
1207	 3.25030128742031E-02 
1208	 0.033543823535663 
1209	 3.23507351581783E-02 
1210	 0.032082051872654 
1211	 3.26215269813249E-02 
1212	 3.18584484657565E-02 
1213	 3.09439276795527E-02 
1214	 3.07396361844464E-02 
1215	 3.08780284963829E-02 
1216	 3.03073794414852E-02 
1217	 3.04105213168481E-02 
1218	 3.17179838772689E-02 
1219	 3.09526534499106E-02 
1220	 3.00620868068623E-02 
1221	 3.07022316967053E-02 
1222	 0.030171240206882 
1223	 2.95356557655082E-02 
1224	 0.030106497897993 
1225	 3.06095563876463E-02 
1226	 3.00960027407163E-02 
1227	 2.96276678512724E-02 
1228	 2.96338235433031E-02 
1229	 3.00121392088664E-02 
1230	 3.09813455674748E-02 
1231	 3.17389369686255E-02 
1232	 3.20014982400674E-02 
1233	 3.13436934664134E-02 
1234	 3.04387168105526E-02 
1235	 3.00888973400036E-02 
1236	 3.05441918259382E-02 
1237	 3.07232624869854E-02 
1238	 3.11063212064739E-02 
1239	 3.10242288892047E-02 
1240	 3.04088772204928E-02 
1241	 2.98453956772137E-02 
1242	 2.92040884103582E-02 
1243	 2.83410325248723E-02 
1244	 2.81864810854006E-02 
1245	 2.87559740003407E-02 
1246	 2.90066781952341E-02 
1247	 2.90132466473152E-02 
1248	 2.96816878319037E-02 
1249	 3.03713329185487E-02 
1250	 3.01401008978486E-02 
1251	 3.01168683331728E-02 
1252	 3.00431119927968E-02 
1253	 3.01472654093159E-02 
1254	 3.05176027271748E-02 
1255	 3.02767252007625E-02 
1256	 3.07718761515703E-02 
1257	 3.19752888515328E-02 
1258	 3.18826521738349E-02 
1259	 0.031224084442506 
1260	 3.14697128323725E-02 
1261	 3.10953346325732E-02 
1262	 3.05984146898523E-02 
1263	 3.00671916474001E-02 
1264	 3.20933969899043E-02 
1265	 3.27657969647162E-02 
1266	 3.17622640932841E-02 
1267	 3.19411514095872E-02 
1268	 3.13605627951586E-02 
1269	 2.99820431651894E-02 
1270	 3.02728188871739E-02 
1271	 3.07622695726911E-02 
1272	 3.09963416058608E-02 
1273	 0.030755177380997 
1274	 2.94578060807775E-02 
1275	 2.98629020261746E-02 
1276	 0.030855774373958 
1277	 3.09323292615488E-02 
1278	 3.18681188898726E-02 
1279	 3.18226105587494E-02 
1280	 3.03262574785043E-02 
1281	 2.98414459848636E-02 
1282	 3.01041339807331E-02 
1283	 2.96596553680602E-02 
1284	 2.84341751971269E-02 
1285	 0.028510333560139 
1286	 2.91918442988471E-02 
1287	 2.94862011186084E-02 
1288	 3.12919033443353E-02 
1289	 3.16843564084455E-02 
1290	 3.09793486895103E-02 
1291	 2.94915170798003E-02 
1292	 2.98155809264821E-02 
1293	 2.92302628485806E-02 
1294	 2.88331582465769E-02 
1295	 2.98469837122504E-02 
1296	 2.97677731105008E-02 
1297	 3.04400451915101E-02 
1298	 3.19880956750552E-02 
1299	 3.11627807719222E-02 
1300	 2.97818222044425E-02 
1301	 2.97524295596954E-02 
1302	 3.01271550286582E-02 
1303	 0.030970877928182 
1304	 3.11865279164155E-02 
1305	 3.06770558925032E-02 
1306	 3.04896732228124E-02 
1307	 2.92274064502526E-02 
1308	 2.90034486164061E-02 
1309	 3.02020309225539E-02 
1310	 2.97796041659584E-02 
1311	 2.86930708663238E-02 
1312	 2.80534613106304E-02 
1313	 2.64515072021897E-02 
1314	 2.59291714091846E-02 
1315	 2.49423431186827E-02 
1316	 2.56904210678484E-02 
1317	 3.06812672941247E-02 
1318	 0.031934262556058 
1319	 3.16581410891724E-02 
1320	 3.23698089167962E-02 
1321	 3.13419684333732E-02 
1322	 0.029275033479272 
1323	 2.95369542811443E-02 
1324	 3.06545114260401E-02 
1325	 3.12560342627516E-02 
1326	 2.85607123245589E-02 
1327	 2.93374126799253E-02 
1328	 3.16437135782636E-02 
1329	 2.63432183335796E-02 
1330	 2.67962332230735E-02 
1331	 3.30646090364116E-02 
1332	 0.035170504886749 
1333	 4.02634405781358E-02 
1334	 4.81426754540405E-02 
1335	 0.051179266383529 
1336	 4.55248813584402E-02 
1337	 0.039184108417402 
1338	 2.69812401846851E-02 
1339	 2.63777991429837E-02 
1340	 2.70163682126519E-02 
1341	 2.50168027294335E-02 
1342	 4.11553318423472E-02 
1343	 4.68073795512303E-02 
1344	 2.60303727165095E-02 
1345	 2.60646838793129E-02 
1346	 5.34167121963967E-02 
1347	 6.13192308868149E-02 
1348	 6.11084310018225E-02 
1349	 8.44399076637803E-02 
1350	 0.1370866148939 
1351	 0.159740254305917 
1352	 0.131376944700479 
1353	 9.69249915034446E-02 
1354	-8.68834284562413E-02 
1355	-0.255869046658623 
1356	-0.400304608040407 
1357	-0.370412862948487 
1358	-0.36002228951742 
1359	-0.424374367614193 
1360	-0.363492982412823 
1361	-0.395009022297989 
1362	-0.461997051756241 
1363	-0.665953798015801 
1364	-0.487829910129795 
1365	-0.378277745089091 
1366	-0.357732548627191 
1367	-0.111902951434597 
1368	-1.68092936026287E-02 
1369	 0.197272897636717 
1370	 0.36984958600358 
1371	 0.863620062042984 
1372	 0.581258471935027 
1373	 0.377240706922148 
1374	 9.72358571874089 
1375	-4.28470472473983 
1376	-2.53828638085217 
1377	-0.725671838434658 
1378	-1.02245332854349 
1379	-1.38711110729461 
1380	-0.966253659357704 
1381	-4.42237304799906 
1382	-4.49793736859621 
1383	-0.651696771063236 
1384	-0.150903007079313 
1385	 9.48977605008426E-02 
1386	 0.153917590309751 
1387	-0.411223940742335 
1388	-0.695798607912755 
1389	-0.719700430017222 
1390	-0.956325969914425 
1391	-0.238227031103847 
1392	-2.62785268416094E-02 
1393	-0.160872718055493 
1394	-0.426791724052715 
1395	-0.509014757861135 
1396	-0.314988492111989 
1397	-0.793179880852895 
1398	 37.8529684814861 
1399	 0.623007099781874 
1400	 1.09027139995303E-02 
1401	-2.09316886574473 
1402	 133.08131364959 
1403	 2.42939745032102 
1404	 11.7803183228315 
1405	 249.468045845915 
1406	-3.09440646123032 
1407	-2.74546953616749 
1408	-10.0132312058815 
1409	-57.9278461533786 
1410	 6.22526462382571 
1411	 11.4305706040603 
1412	-4.19547630512895 
1413	-4.00932525775141 
1414	-1.93725118468065 
1415	-1.08120034297042 
1416	-4.55461222609745 
1417	-12.6879478474942 
1418	-5.93810900416886 
1419	-1.77193801302767 
1420	-0.948399649494724 
1421	-6.97840502932037E-02 
1422	 0.351888872574082 
1423	 0.160820200236792 
1424	-1.32635017791633 
1425	-1.63093576263097 
1426	-1.94921603166789 
1427	-2.00503939498982 
1428	-0.492122899703689 
1429	-0.237342835966196 
1430	-0.317973192392937 
1431	-0.386835754553634 
1432	-0.356582537593082 
1433	-0.258220248456455 
1434	-0.329785524021119 
1435	-0.478120961057247 
1436	-0.502642896274053 
1437	-0.43078659757362 
1438	-0.300676523677048 
1439	-0.137639893796737 
1440	-0.113305256580741 
1441	-1.41309433794583E-03 
1442	 0.098473669502949 
1443	-7.33545236020865E-02 
1444	-8.12891292730469E-02 
1445	 2.94373446449617E-02 
1446	-0.15454748278657 
1447	-0.282827543496376 
1448	-0.205448545542229 
1449	-0.158297713349887 
1450	-3.23451755232229E-02 
1451	 9.49926691845056E-02 
1452	 2.19645354514543E-02 
1453	-3.22657504229732E-02 
1454	-4.94980683641743E-02 
1455	-9.68951145337268E-02 
1456	-0.127570483698477 
1457	-0.132153837765509 
1458	-9.65769638879302E-02 
1459	-5.58746209578595E-02 
1460	-3.01803379166216E-02 
1461	 4.68199226395296E-02 
1462	 9.66533212155377E-02 
1463	 0.13172026674155 
1464	 0.123652422319338 
1465	 0.088126405132504 
1466	 8.08917442594871E-02 
1467	 2.69721575816595E-02 
1468	-1.13565774621615E-02 
1469	 1.83304684125958E-02 
1470	 1.85978472056684E-02 
1471	-6.30306624402225E-02 
1472	-7.86117017590383E-02 
1473	-2.64796956137903E-02 
1474	-1.81550556214671E-02 
1475	-2.42204381628835E-02 
1476	-1.62386534375547E-02 
1477	 0.022866849604504 
1478	 1.20977018970415E-02 
1479	-5.78307701785557E-02 
1480	-4.86294194785473E-02 
1481	-1.26648363435224E-02 
1482	-6.28011978524465E-03 
1483	 0.018840230128413 
1484	 0.03297085204773 
1485	 3.30370309807607E-02 
1486	 0.022346163251601 
1487	 8.81406874593299E-03 
1488	 7.44514455456529E-03 
1489	 6.47428736823733E-04 
1490	-2.91869329575026E-03 
1491	-1.39516255300813E-03 
1492	 1.91438492209938E-03 
1493	 2.79002423653646E-03 
1494	 6.53729042094781E-03 
1495	 2.02403348429526E-02 
1496	 2.45507568030795E-02 
1497	 0.021812658058312 
1498	 2.14557217230018E-02 
1499	 2.24856600220399E-02 
1500	 2.06773736259975E-02 
1501	 1.55063405576388E-02 
1502	 1.51698713845282E-02 
1503	 1.31633877912725E-02 
1504	 1.26733265744136E-02 
1505	 1.48390442341437E-02 
1506	 0.023040243893765 
1507	 2.01873085463002E-02 
1508	 1.83065826629296E-02 
1509	 2.25796864770186E-02 
1510	 2.37329945080048E-02 
1511	 2.60636030159128E-02 
1512	 3.08634570172944E-02 
1513	 3.25761450326486E-02 
1514	 2.86995715780494E-02 
1515	 2.52013783307268E-02 
1516	 2.52249979750748E-02 
1517	 2.07717482066532E-02 
1518	 1.87299845147956E-02 
1519	 0.023909448881134 
1520	 2.45565794990684E-02 
1521	 2.37313841432077E-02 
1522	 2.49469215380879E-02 
1523	 2.24257373894587E-02 
1524	 0.019935137627231 
1525	 2.13442703542153E-02 
1526	 2.11164628374699E-02 
1527	 1.80438017196948E-02 
1528	 1.81054286633049E-02 
1529	 2.09788027052071E-02 
1530	 2.18127433868174E-02 
1531	 0.02248166240275 
1532	 2.40487590802701E-02 
1533	 2.25822128051821E-02 
1534	 2.26410148371613E-02 
1535	 2.48569753309528E-02 
1536	 2.48608632115323E-02 
1537	 2.61185621488051E-02 
1538	 2.48980409452168E-02 
1539	 0.021249863767886 
1540	 2.24063535584654E-02 
1541	 2.23942547959122E-02 
1542	 1.95476177789556E-02 
1543	 2.05420340228278E-02 
1544	 2.07040413554887E-02 
1545	 1.88903938789915E-02 
1546	 1.98290629348589E-02 
1547	 2.10350928650809E-02 
1548	 2.20966311452851E-02 
1549	 2.37143296021591E-02 
1550	 2.46481464804763E-02 
1551	 2.34507037743779E-02 
1552	 2.27118698147636E-02 
1553	 2.36316272973536E-02 
1554	 2.30485983824165E-02 
1555	 2.32426938748195E-02 
1556	 2.37143893633331E-02 
1557	 2.31931134539552E-02 
1558	 0.022752466145979 
1559	 2.18881613570327E-02 
1560	 2.23284744510126E-02 
1561	 2.46089485975205E-02 
1562	 2.58927165689474E-02 
1563	 2.66943222606707E-02 
1564	 2.61387324262702E-02 
1565	 2.12321006490947E-02 
1566	 1.88159357873009E-02 
1567	 1.98862411847017E-02 
1568	 1.90449749136259E-02 
1569	 0.020204051940757 
1570	 0.022224692092569 
1571	 2.09658643607598E-02 
1572	 2.14269793076621E-02 
1573	 2.36893655153779E-02 
1574	 2.39086264804781E-02 
1575	 2.36325712859342E-02 
1576	 2.26773322213148E-02 
1577	 2.07332174357811E-02 
1578	 1.95250135195953E-02 
1579	 2.05280938828105E-02 
1580	 2.33273518588985E-02 
1581	 2.28205061682512E-02 
1582	 1.98464235137668E-02 
1583	 1.96781091428683E-02 
1584	 2.11769893669247E-02 
1585	 0.022658101151298 
1586	 2.29637528687778E-02 
1587	 2.24707144588643E-02 
1588	 2.26907531985132E-02 
1589	 2.32255488328149E-02 
1590	 2.35683501979023E-02 
1591	 2.45382836835196E-02 
1592	 2.59353471174462E-02 
1593	 2.53796771166354E-02 
1594	 2.44067502996313E-02 
1595	 2.45559165713895E-02 
1596	 2.28863009238205E-02 
1597	 2.06465609623921E-02 
1598	 2.08834032335124E-02 
1599	 2.17856769669081E-02 
1600	 2.11531327226312E-02 
1601	 2.00799151673985E-02 
1602	 2.10628476296817E-02 
1603	 2.19586008376313E-02 
1604	 2.07931743417706E-02 
1605	 0.02000458519993 
1606	 0.021357882274728 
1607	 2.33645172587175E-02 
1608	 2.39592238160563E-02 
1609	 2.39265565147278E-02 
1610	 2.42221535143658E-02 
1611	 2.27041967413704E-02 
1612	 2.03520446837457E-02 
1613	 0.021785088965267 
1614	 2.35539733797136E-02 
1615	 2.40922381833485E-02 
1616	 2.41179527552419E-02 
1617	 2.11254356804855E-02 
1618	 2.01409063743898E-02 
1619	 2.23609717966846E-02 
1620	 2.29325432161917E-02 
1621	 2.25121255890097E-02 
1622	 2.18203511145134E-02 
1623	 2.10477673829271E-02 
1624	 2.11218714595927E-02 
1625	 2.31316136595906E-02 
1626	 2.64116591923718E-02 
1627	 2.66159047015377E-02 
1628	 2.52898764458665E-02 
1629	 2.47923007172789E-02 
1630	 0.021947507580711 
1631	 1.96648916292347E-02 
1632	 2.13397310800335E-02 
1633	 2.13643492879353E-02 
1634	 2.08474107878181E-02 
1635	 2.25063340838423E-02 
1636	 0.021822891520138 
1637	 0.020582590033406 
1638	 1.86701448471274E-02 
1639	 0.014409673956484 
1640	 1.30319003369009E-02 
1641	 1.39689660689683E-02 
1642	 1.59738850653648E-02 
1643	 2.11848811088999E-02 
1644	 2.24994626042154E-02 
1645	 1.92122652204199E-02 
1646	 2.03841989578222E-02 
1647	 2.26682613287012E-02 
1648	 0.020802972492164 
1649	 2.06691543557851E-02 
1650	 2.23614642876272E-02 
1651	 0.020741364301531 
1652	 2.08191284181636E-02 
1653	 2.56606705612703E-02 
1654	 2.52027357334851E-02 
1655	 0.021133980185901 
1656	 2.09562076365792E-02 
1657	 2.03815409076206E-02 
1658	 1.99544388586445E-02 
1659	 2.19221318370058E-02 
1660	 2.23183277061331E-02 
1661	 0.020459519297129 
1662	 2.10969518587997E-02 
1663	 2.51665955695225E-02 
1664	 2.61554264034926E-02 
1665	 2.52967983719003E-02 
1666	 2.50560536349556E-02 
1667	 2.34575333085511E-02 
1668	 2.21213955703232E-02 
1669	 2.32435333542201E-02 
1670	 2.52525085960592E-02 
1671	 2.42446122218039E-02 
1672	 0.022693239232283 
1673	 2.28636771407296E-02 
1674	 0.021797282386234 
1675	 0.020697288184016 
1676	 2.14157847003009E-02 
1677	 2.07479817667708E-02 
1678	 1.92643512440763E-02 
1679	 2.06979701364974E-02 
1680	 2.39531281036425E-02 
1681	 0.025409272129837 
1682	 2.35349467798127E-02 
1683	 2.17306461614312E-02 
1684	 2.19174655209476E-02 
1685	 2.16525011209389E-02 
1686	 2.23792997132693E-02 
1687	 2.50874383359374E-02 
1688	 2.59817055783456E-02 
1689	 2.59363246749436E-02 
1690	 2.85017254347148E-02 
1691	 2.70502010949191E-02 
1692	 2.09933977704907E-02 
1693	 0.020903552390409 
1694	 2.16566540173914E-02 
1695	 2.04497957635915E-02 
1696	 2.38583454008279E-02 
1697	 2.36035374667817E-02 
1698	 1.82843653854011E-02 
1699	 1.88080636088377E-02 
1700	 2.10804254370313E-02 
1701	 2.24274190990831E-02 
1702	 2.82556774516681E-02 
1703	 3.13365059482883E-02 
1704	 2.88983501889664E-02 
1705	 2.69106690252372E-02 
1706	 2.68117233070435E-02 
1707	 2.56602057918774E-02 
1708	 2.40630993184193E-02 
1709	 2.54605917011199E-02 
1710	 2.23567760881378E-02 
1711	 1.85551021574379E-02 
1712	 0.021888708903523 
1713	 1.92736170230989E-02 
1714	 2.04097576241355E-02 
1715	 2.62741333945479E-02 
1716	 2.87594292799693E-02 
1717	 3.02319925150204E-02 
1718	 2.88791529439549E-02 
1719	 2.51332671645545E-02 
1720	 0.021451438134142 
1721	 2.09623300939564E-02 
1722	 2.25150376775818E-02 
1723	 2.42517847545093E-02 
1724	 2.55482954353397E-02 
1725	 2.68335662281213E-02 
1726	 0.027979428242821 
1727	 2.61323271832917E-02 
1728	 2.62410581237437E-02 
1729	 2.88992113159341E-02 
1730	 0.025804072703575 
1731	 2.16597511742794E-02 
1732	 2.18116063050452E-02 
1733	 0.019786220762254 
1734	 2.00526239208972E-02 
1735	 2.34935484290074E-02 
1736	 2.17069472313784E-02 
1737	 2.04052826385757E-02 
1738	 2.18543657649263E-02 
1739	 1.92317625621196E-02 
1740	 1.51651247073028E-02 
1741	 1.74684946553224E-02 
1742	 1.73412597522473E-02 
1743	 1.95921803694848E-02 
1744	 3.19568055401988E-02 
1745	 3.47485988806359E-02 
1746	 3.04541192941593E-02 
1747	 3.07745493176621E-02 
1748	 3.11317669039826E-02 
1749	 2.83671759664882E-02 
1750	 2.40064814267849E-02 
1751	 0.022725697180538 
1752	 1.57938172277232E-02 
1753	 1.65429773475787E-02 
1754	 3.23991135617713E-02 
1755	 3.40274999162984E-02 
1756	 2.69981949489675E-02 
1757	 2.97338076230936E-02 
1758	 2.63618996684768E-02 
1759	 2.51293505524617E-02 
1760	 3.29069529805302E-02 
1761	 0.030763732460296 
1762	 2.05169833290523E-02 
1763	 2.04720680821863E-02 
1764	 2.22893823333118E-02 
1765	 1.56307423300104E-02 
1766	 1.65540891408061E-02 
1767	 2.20294254230289E-02 
1768	 1.31820839324131E-02 
1769	 1.36230220760349E-02 
1770	 2.57533935248684E-02 
1771	 2.17977179664538E-02 
1772	 2.22400405421445E-02 
1773	 2.59332602343221E-02 
1774	 1.62452934480355E-02 
1775	 3.01232006641055E-02 
1776	 3.42875504214468E-02 
1777	 3.31007507858641E-02 
1778	 3.28185261433896E-02 
1779	 2.12858523583511E-02 
1780	 1.66771657776736E-02 
1781	 2.33795523620856E-02 
1782	 2.61678998795021E-02 
1783	 2.85703001165796E-02 
1784	 2.46270112277725E-02 
1785	 1.33810624704644E-02 
1786	 1.53124225838985E-02 
1787	 1.79277345830523E-02 
1788	 0.012233693095175 
1789	 1.24999676146209E-02 
1790	 6.45732739520828E-04 
1791	 2.34197262820855E-02 
1792	 9.45227739329548E-02 
1793	 0.115824250307881 
1794	 7.67106370724629E-02 
1795	 0.049856216163761 
1796	 2.31364764338444E-02 
1797	-3.67293106857808E-02 
1798	 1.70246608885664E-02 
1799	 0.117179849253439 
1800	 0.269822631470932 
1801	 0.325536829745463 
1802	 0.307821805928809 
1803	 0.271553728609532 
1804	-0.112348834309734 
1805	-0.234041484840978 
1806	-0.166599408761448 
1807	 3.25391736907002E-02 
1808	 0.936643553373115 
1809	 1.21733499125871 
1810	 1.61870749187173 
1811	 1.65660075351464 
1812	-7.48568515118822E-02 
1813	-0.215848093547428 
1814	 0.273218019672462 
1815	 0.249000904528175 
1816	 0.310261698425468 
1817	 0.475731023542065 
1818	 0.330584460695718 
1819	 5.85027260741398E-02 
1820	 1.18268998581666E-02 
1821	-0.784455258476515 
1822	-1.88389076699288 
1823	-0.559588828354414 
1824	-0.497197463039438 
1825	-0.376876726320859 
1826	-0.355457262379318 
1827	-0.899677807482195 
1828	-0.952271033139472 
1829	 0.574608950300748 
1830	-0.164132539002474 
1831	-4.02017792676547 
1832	-8.31759725122081 
1833	-0.692561043166231 
1834	-0.574343335443943 
1835	 10.6277287876596 
1836	 5.73332002716067 
1837	 1.6141302530845 
1838	 1.31167917299601 
1839	 0.736723102206438 
1840	 13.5899008645996 
1841	-0.787209668967806 
1842	 1.00962199862096E-02 
1843	 0.296997587032398 
1844	 1.64337397730395 
1845	 2.64231944755548 
1846	-1.26579133900629 
1847	-0.947730807930936 
1848	 0.967791758710467 
1849	-0.299029747019059 
1850	 0.809645404956315 
1851	 0.698313328632416 
1852	 0.57491515583148 
1853	 0.63421456382606 
1854	 0.534502578852451 
1855	 0.461247080869829 
1856	 0.395657218150291 
1857	 0.17842889431305 
1858	 0.210816917547089 
1859	 0.485394491388192 
1860	 0.438868624722487 
1861	 0.769751148390563 
1862	 0.868918556311905 
1863	 0.640045593616685 
1864	 0.688144941692995 
1865	 0.760385888430984 
1866	-10.0030795963206 
1867	-0.958740645421996 
1868	 7.61501921976344 
1869	 33.1961416566259 
1870	-38.9594230231445 
1871	-3.07453768610138 
1872	-1.09339522035042 
1873	-0.67498493612086 
1874	-1.03210781050204 
1875	-1.22726855065274 
1876	-1.4438890924303 
1877	-2.98665506612471 
1878	-2.64960930067237 
1879	-1.35887345178471 
1880	-0.771276580814051 
1881	 4.66888494987572E-02 
1882	 0.304083693489741 
1883	 0.46687339733519 
1884	 0.707097609794203 
1885	 0.518922805277999 
1886	-0.639286824413485 
1887	 0.133058858376064 
1888	 0.98406699771229 
1889	 0.891636455030552 
1890	 0.637027208540572 
1891	 0.56975505016079 
1892	 0.423059455381005 
1893	 1.43256780630593 
1894	 2.14859647904244 
1895	 0.507146619041738 
1896	 1.73315597619387 
1897	 0.371437604588315 
1898	-1.63516568595792E-02 
1899	 8.70165070222667E-02 
1900	-0.160255757403904 
1901	 0.142100557348182 
1902	 0.040933927971979 
1903	-0.768884574444906 
1904	 1.01310471068174 
1905	-0.860176245540207 
1906	-0.645487917905314 
1907	-0.190495560029912 
1908	 0.466826450903405 
1909	 0.278168732491239 
1910	 1.0862878936114 
1911	-6.98533657540437 
1912	 0.405203740070105 
1913	-5.07069237009312 
1914	-2.08184735948322 
1915	-1.28272550506812 
1916	 2.02655259966722 
1917	 2.90728616959015 
1918	 3.88190930278256 
1919	-2.88308590081341 
1920	-1.17240449192264 
1921	-0.577998898040571 
1922	 0.595207181181059 
1923	 0.791296631393738 
1924	 1.08242539658419 
1925	 1.04129454192235 
1926	 1.06801469477008 
1927	 0.723178896608481 
1928	 0.96004024060857 
1929	 4.43456423533157 
1930	 0.473757279335055 
1931	 0.651511704390485 
1932	 0.480511262795005 
1933	 1.09553109525167 
1934	 1.99163913283454 
1935	 3.20644408543345 
1936	 7.85523313154439 
1937	 0.401894450039455 
1938	-0.60639285660132 
1939	-0.717031669005345 
1940	-0.420678201983463 
1941	-9.86827614371715E-02 
1942	 0.386248564570735 
1943	 0.453206091642933 
1944	 1.29850054163549 
1945	 2.63739047249325 
1946	 3.66894835917622 
1947	-161.642104411292 
1948	 3.60147536427309 
1949	 1.60202942928826 
1950	 1.38198213518946 
1951	 0.594468040830738 
1952	 0.327461644085613 
1953	-1.64820942859875 
1954	 2.80846546176845 
1955	 2.01495367079716 
1956	 7.09346948692525E-02 
1957	-0.916889402641697 
1958	-2.1109757101627 
1959	-0.762277601321937 
1960	-0.293029106618783 
1961	-0.159366275455543 
1962	-6.23688636775924E-04 
1963	-2.04158012240741E-02 
1964	-0.157405235178118 
1965	 0.111683259530139 
1966	 0.15317649418715 
1967	 0.297823367363048 
1968	 0.696215015793915 
1969	 0.213421190894694 
1970	-0.128149185792942 
1971	-0.1553382695239 
1972	-0.221536271129838 
1973	-0.326973757546074 
1974	-0.214495522683039 
1975	-0.149116781723435 
1976	-0.113782384097398 
1977	-0.105394438899927 
1978	-0.223647622087605 
1979	-0.256701864347264 
1980	-0.293689874195768 
1981	-0.360790758470858 
1982	-0.231651606135771 
1983	-0.017861331782168 
1984	 2.56823539484201E-02 
1985	 7.64938064404634E-02 
1986	 6.05776375242485E-02 
1987	-3.00115591212433E-02 
1988	 2.73326215225132E-02 
1989	 2.90303854620625E-02 
1990	 2.95383555559899E-02 
1991	 0.113288856225227 
1992	 7.81818996982072E-02 
1993	 0.131323066572226 
1994	 0.213501496676072 
1995	 0.437973716887691 
1996	 0.546975345226829 
1997	 0.609621366817093 
1998	 0.614584223053777 
1999	 0.434673933698832 
2000	 0.176227703240401 
2001	 0.13283331157238 
2002	 0.154978357598813 
2003	 1.79600746694811E-02 
2004	-0.152646293473944 
2005	-0.228251533050199 
2006	-0.429477283339422 
2007	-0.483040009592156 
2008	-0.335501982964296 
2009	-0.228934202626786 
2010	-0.195315914762885 
2011	 1.41632311196874E-02 
2012	 0.300848802717501 
2013	 0.240585988939136 
2014	 0.304250326750862 
2015	 0.41177762827516 
2016	 0.332442244486003 
2017	 0.360873508354015 
2018	 0.401589378560872 
2019	 0.388716847965347 
2020	 0.362844001204349 
2021	 0.279205475578443 
2022	 0.199751050351526 
2023	 0.137681063297506 
2024	 9.15207997706167E-02 
2025	 9.31776480474229E-02 
2026	 5.79590571927386E-02 
2027	 1.51155690666743E-02 
2028	-7.2050534167754E-03 
2029	-4.72765758678845E-02 
2030	-6.08490753890028E-02 
2031	-1.39143994293049E-02 
2032	-3.50020513050571E-03 
2033	 7.65629524921308E-03 
2034	 6.51385613501399E-02 
2035	 9.53757326593347E-02 
2036	 8.53224376000137E-02 
2037	 6.55056066305828E-02 
2038	 5.86239014713214E-02 
2039	 0.035422526476423 
2040	-3.12627060993379E-02 
2041	-3.72529111716472E-02 
2042	-1.38218475483758E-02 
2043	-9.44225938044934E-03 
2044	 3.6009280916901E-03 
2045	 3.34835197975721E-02 
2046	 0.053277511165756 
2047	 8.06525969522694E-02 
2048	 0.111573007485031 
2049	 0.134204385211118 
2050	 0.156337882968981 
2051	 0.153837118132128 
2052	 0.112194084156767 
2053	 6.63594740684817E-02 
2054	 4.71952870247634E-02 
2055	 1.81996179625557E-02 
2056	-2.53344820103368E-03 
2057	 2.49058491576541E-02 
2058	 1.56979297883486E-02 
2059	-3.99501448851364E-02 
2060	-5.20445472616934E-02 
2061	-0.049576738294359 
2062	-4.12294877750899E-02 
2063	-1.80897309316201E-02 
2064	-1.12075928059085E-02 
2065	-7.05720504285323E-03 
2066	-6.20963549622101E-03 
2067	-6.13880377995488E-03 
2068	-2.24030609751833E-04 
2069	-2.44620346583014E-02 
2070	-4.16874955445702E-02 
2071	-1.56654786814808E-02 
2072	-4.07104947359094E-03 
2073	 5.34537755148934E-03 
2074	 4.95381503573676E-02 
2075	 5.25761479204829E-02 
2076	 1.20979981518412E-02 
2077	 1.06292490689291E-02 
2078	 1.21417018182155E-02 
2079	 2.14917925249629E-02 
2080	 0.049261611090574 
2081	 7.02343327708488E-02 
2082	 5.96958308770812E-02 
2083	 5.61430364695704E-02 
2084	 3.56479528787226E-02 
2085	 6.83703162620464E-03 
2086	 2.04025803477318E-02 
2087	 2.37986620487606E-02 
2088	-5.03626086526836E-03 
2089	-2.11759766280915E-02 
2090	-1.56650836701408E-02 
2091	-2.11815657798804E-02 
2092	-1.39863720131553E-02 
2093	 3.45930624786527E-02 
2094	 0.044075273425074 
2095	 2.74462475109513E-02 
2096	 3.25017846444043E-02 
2097	 2.99263338790315E-02 
2098	 3.54923486464736E-02 
2099	 5.90735031448836E-02 
2100	 7.03462443313932E-02 
2101	 0.051819852151802 
2102	 0.04940444338194 
2103	 3.37272938394283E-02 
2104	 7.02977728294464E-03 
2105	-4.40596142023529E-03 
2106	-1.34888239220752E-02 
2107	-7.67674658256483E-03 
2108	-9.55544233030008E-05 
2109	-2.54786246631878E-03 
2110	 9.42692599818281E-03 
2111	 1.50827534645659E-02 
2112	 8.81706034613755E-03 
2113	 8.98214362037042E-03 
2114	 0.016006968999983 
2115	 1.70930795056743E-02 
2116	 1.53784129032262E-02 
2117	 1.76255905758689E-02 
2118	 2.21615258319831E-02 
2119	 2.48848584593473E-02 
2120	 0.024527991609851 
2121	 2.50898552980956E-02 
2122	 3.88917389833656E-02 
2123	 7.20466654051613E-02 
2124	 0.105957900610877 
2125	 0.118907690718181 
2126	 0.111589300496636 
2127	 8.74264581891471E-02 
2128	 7.24096105346202E-02 
2129	 6.85710810800326E-02 
2130	 7.39140475356671E-02 
2131	 9.02963431378882E-02 
2132	 9.05738049068821E-02 
2133	 8.10237148396907E-02 
2134	 0.067454580704915 
2135	 3.88255896042687E-02 
2136	 2.13299232606524E-02 
2137	-4.35498621836642E-03 
2138	-1.26578013395211E-02 
2139	-8.20749295779721E-03 
2140	-4.25306019736494E-03 
2141	 1.44484757817685E-02 
2142	 2.75337595368222E-02 
2143	 4.09647658337021E-02 
2144	 4.63283465033609E-02 
2145	 6.10425148021857E-02 
2146	 6.39428265046562E-02 
2147	 5.95825120172904E-02 
2148	 6.00649819599536E-02 
2149	 3.94632609891507E-02 
2150	 1.53123678554496E-02 
2151	 3.54330582783753E-03 
2152	-8.87132657688117E-03 
2153	-1.29831132558147E-02 
2154	-7.15674213858708E-03 
2155	-1.61919541286574E-04 
2156	-8.92766211462279E-03 
2157	-1.41861079374715E-02 
2158	-1.91883299999759E-02 
2159	-1.74570516359961E-02 
2160	-1.86683460303811E-02 
2161	-1.36023564460108E-02 
2162	-4.14995504429117E-04 
2163	 1.07353553126754E-02 
2164	 2.34833186004604E-02 
2165	 3.57013747721435E-02 
2166	 5.44847421856194E-02 
2167	 6.04589549171818E-02 
2168	 5.81469372973742E-02 
2169	 6.04233052511449E-02 
2170	 5.57162688721501E-02 
2171	 5.95333279087292E-02 
2172	 5.80213471825144E-02 
2173	 0.069238671115027 
2174	 7.66421459017926E-02 
2175	 6.27789232522723E-02 
2176	 6.47301557155428E-02 
2177	 4.86265800477912E-02 
2178	 3.91781732625726E-02 
2179	 4.29663213117698E-02 
2180	 1.91233118562825E-02 
2181	 5.77371280012805E-03 
2182	 9.60437359361673E-03 
2183	 2.33304670579369E-03 
2184	 1.00156354298196E-02 
2185	 2.41561071092279E-02 
2186	 3.31566689819309E-02 
2187	 3.02559419062953E-02 
2188	 3.98697697609742E-02 
2189	 6.46516301058294E-02 
2190	 7.29147603896351E-02 
2191	 7.48004108690176E-02 
2192	 6.80360164289386E-02 
2193	 5.29893651860837E-02 
2194	 4.49301363725662E-02 
2195	 2.69551757559454E-02 
2196	 1.43947324585017E-02 
2197	-2.57668529242339E-03 
2198	-0.011843794834957 
2199	-3.10954645785982E-02 
2200	 1.02065210242237E-03 
2201	 2.74616465435586E-02 
2202	 4.46930860372634E-02 
2203	 6.74998249944939E-02 
2204	 5.76824299812807E-02 
2205	 3.78186752413669E-02 
2206	 3.66211465057895E-02 
2207	 4.64991831562139E-02 
2208	 5.68115496321175E-02 
2209	 5.91130943681407E-02 
2210	 4.83216820677972E-02 
2211	 2.90935941258378E-02 
2212	 1.30325699402255E-02 
2213	-2.6019452162354E-03 
2214	 8.55959760272446E-03 
2215	 1.96811914551095E-02 
2216	 1.34472227590522E-02 
2217	 0.012084165787388 
2218	 5.92210484863648E-03 
2219	 9.81419540410178E-03 
2220	 2.75208830434381E-02 
2221	 2.57170963001571E-02 
2222	 2.39855322099163E-02 
2223	 2.21574780910989E-02 
2224	-1.37944458615378E-02 
2225	-1.36909934087487E-02 
2226	 2.43617507325464E-02 
2227	 0.033631111146445 
2228	 4.63416659268442E-02 
2229	 5.72527083524302E-02 
2230	 4.24736591181128E-02 
2231	 4.04245634073359E-02 
2232	 5.82258802145083E-02 
2233	 6.22504907132642E-02 
2234	 6.13857508495599E-02 
2235	 5.55926107274215E-02 
2236	 0.054035043547888 
2237	 3.39742220566201E-02 
2238	 3.28037134467736E-02 
2239	 4.09937807560116E-02 
2240	 0.028684753742358 
2241	 0.036925359536585 
2242	 2.54193867640733E-02 
2243	 3.85807263628986E-03 
2244	 1.90982569859808E-02 
2245	 3.69293110963187E-02 
2246	 3.75369575367657E-02 
2247	 4.09588364801609E-02 
2248	 3.30767620382525E-02 
2249	 6.29332415431378E-03 
2250	 5.86948204454911E-03 
2251	 2.89824713932927E-02 
2252	 3.45290906987417E-02 
2253	 4.41418836223409E-02 
2254	 5.16860807063749E-02 
2255	 2.71036389597984E-02 
2256	 8.47728608696122E-03 
2257	 1.24732199806401E-02 
2258	 3.96991768421174E-03 
2259	 1.66337414730115E-02 
2260	 2.54365163141531E-02 
2261	 5.20208286288785E-02 
2262	 3.41486135667456E-02 
2263	-2.32769559736254E-02 
2264	-3.43809390977138E-02 
2265	-4.07107371784901E-02 
2266	-3.98274016555577E-02 
2267	 5.99820243283114E-03 
2268	 1.59009091598677E-02 
2269	-4.64381787376517E-03 
2270	-8.08594436370969E-03 
2271	-8.92953569562297E-03 
2272	-1.80846922961111E-02 
2273	-4.10918131675579E-02 
2274	-4.40844931964329E-02 
2275	-4.65824014654535E-02 
2276	-3.70044774270516E-02 
2277	 2.31899598738819E-03 
2278	 0.031698122947131 
2279	 6.55285578074956E-02 
2280	 7.50396563821604E-02 
2281	 7.76030553991176E-02 
2282	 6.74207169010365E-02 
2283	 5.43167093424098E-02 
2284	 8.08480475655645E-02 
2285	 0.106062746424021 
2286	 0.107247444427325 
2287	 6.79342633814946E-02 
2288	 2.40346959543744E-02 
2289	 1.32334368932798E-02 
2290	 0.011493098223704 
2291	 2.78134084917098E-02 
2292	 7.01971916160085E-02 
2293	 0.128367676970613 
2294	 0.138471419065004 
2295	 0.119408681567628 
2296	 0.148682775867239 
2297	 9.60163565905446E-02 
2298	 2.18424220440952E-02 
2299	 4.75182582514769E-02 
2300	 3.72147700322231E-04 
2301	-8.54648116866516E-02 
2302	-9.52571256904344E-02 
2303	-0.127064055981983 
2304	-0.155717425462931 
2305	-9.63749057370702E-02 
2306	-5.75347436497569E-02 
2307	-1.05836700054597E-02 
2308	 2.26705186975664E-02 
2309	-1.70920243992035E-02 
2310	-3.79712907033931E-02 
2311	-8.28991182035776E-02 
2312	-0.152445663163477 
2313	-0.168581588941884 
2314	-0.154922688848036 
2315	-0.134917057977481 
2316	-6.56775762543341E-02 
2317	-5.97532627510664E-03 
2318	 1.14538965847807E-02 
2319	 5.11758194127387E-02 
2320	 2.91070148188274E-02 
2321	-8.16675707573407E-02 
2322	-0.136536120240057 
2323	-0.197198668667713 
2324	-0.285582258446833 
2325	-0.329347193626923 
2326	-0.310570532518135 
2327	-0.278386327234763 
2328	-0.147536958911725 
2329	-1.87512568854533E-03 
2330	 2.15317424875999E-02 
2331	 3.55405036725193E-02 
2332	 3.99837949871101E-03 
2333	-0.04061355884042 
2334	-7.68375711576988E-03 
2335	-4.67869509445287E-03 
2336	-7.87440705272463E-02 
2337	-0.250228241769409 
2338	-0.492091293003658 
2339	-0.569804134810521 
2340	-0.440354448398679 
2341	-0.359865628792223 
2342	-9.74719073060967E-02 
2343	 0.119611847594111 
2344	 0.16421188796786 
2345	 0.268999893242156 
2346	 0.06025447291754 
2347	-0.2622773547223 
2348	-0.403244971434917 
2349	-0.596719513074868 
2350	-0.647207084154592 
2351	-0.583275679460641 
2352	-0.581494850300264 
2353	-0.47565699593553 
2354	-0.323408756149339 
2355	-0.242834111021659 
2356	 1.40811594565164E-02 
2357	 6.32101968223656E-02 
2358	 0.124602836068363 
2359	 0.408951951388345 
2360	 0.440960945330441 
2361	 0.520905460472095 
2362	 0.653723112396316 
2363	 0.315100992075358 
2364	-0.033524101891528 
2365	-0.114267020408998 
2366	-0.334329665726587 
2367	-0.483738085829807 
2368	-0.218481080375308 
2369	-0.129113386027719 
2370	-0.29077716178596 
2371	-0.30102976689101 
2372	-0.218234328308385 
2373	-0.355535899382221 
2374	-0.165638801430987 
2375	 0.176192437973848 
2376	-0.200252744419118 
2377	 6.45285500444292E-02 
2378	 0.12186175403121 
2379	-6.54622314081403E-02 
2380	 2.59491675810693E-02 
2381	-5.12760609710892E-03 
2382	-0.124833218717608 
2383	 0.120395027372549 
2384	-0.072155878423855 
2385	 0.83565077202133 
2386	-7.63700847614906E-02 
2387	-3.36183558884364E-03 
2388	-1.7951662366176 
2389	-2.32733599354734 
2390	 0.659698474406856 
2391	-0.302280867749795 
2392	-0.232832980937382 
2393	-53.1978013014187 
2394	 2.03106155909302 
2395	 381.015349964343 
2396	 25.7291649727022 
2397	 1.32159602181462 
2398	 13.5717975477794 
2399	 0.165731650443098 
2400	-14.145911784193 
2401	-7.13278335419551E-02 
2402	 0.248511595479959 
2403	 0.638722563009287 
2404	 0.356380529293755 
2405	-7.63997558236882E-02 
2406	 0.271768942849243 
2407	-0.480058814538426 
2408	 1.10510637216295 
2409	 0.604757932124494 
2410	 0.744509249875755 
2411	 1.06340970634226 
2412	 0.975972160885873 
2413	 0.586030615286633 
2414	-0.402478525959023 
2415	-0.164168611504682 
2416	-0.876199165814932 
2417	-0.015732636534425 
2418	 0.417876043341147 
2419	 0.768621623578123 
2420	 0.827849337588341 
2421	 0.782628160886669 
2422	 1.39563466156245 
2423	 5.91146862096785 
2424	-2.2689492767188 
2425	 0.290686743530116 
2426	-10.5780318274408 
2427	-4.66194755328597 
2428	-8.66743763563457 
2429	-4.82920766009133 
2430	 3.57850304644879 
2431	-2.4684275361867 
2432	-0.985279925131677 
2433	-1.73590585796033 
2434	-0.963619786210538 
2435	-0.449416313949 
2436	-0.270849888002795 
2437	 1.84680987981875E-02 
2438	 0.839271315579238 
2439	-0.241738024498309 
2440	-0.288191180280155 
2441	-0.901391675534028 
2442	-3.55004733724175 
2443	 0.476005708700162 
2444	-0.138095744120109 
2445	-2.79235231032147 
2446	 2.4578074071108 
2447	 4.65868148123186 
2448	-4.12649027100934 
2449	-0.341036052069823 
2450	-0.522678612324717 
2451	-1.03880839820493 
2452	-11.6202604821817 
2453	 4.32168448923213 
2454	 1.97329775118262 
2455	 0.893853343298308 
2456	 0.434132042123653 
2457	 6.12917151542448E-02 
2458	 3.76258069754069E-02 
2459	-4.90651729699869E-02 
2460	-0.282512987058026 
2461	 0.240592798793886 
2462	 0.622043580162638 
2463	 0.895368241741573 
2464	 1.01336990190595 
2465	 0.477658244288854 
2466	-0.61238701416921 
2467	-0.956462729510316 
2468	-2.91979217643861 
2469	 64.3595580474544 
2470	 1.1103405383302 
2471	 0.294333107449797 
2472	-0.041396590976018 
2473	-0.543207816020489 
2474	-1.00347239393766 
2475	-3.89325615770791 
2476	-3.16445910829364 
2477	-2.14003734159668 
2478	-0.661876635126127 
2479	-0.244983620667323 
2480	-0.721009516152933 
2481	-1.17837357286036 
2482	-1.07482182220516 
2483	-0.992997366044002 
2484	-0.823651449933759 
2485	-1.71999360243414 
2486	-0.663119170693471 
2487	 2.12235414570847 
2488	 3.49273539708676 
2489	 5.00542517913149 
2490	 10.3123214270789 
2491	 9.64030275235448 
2492	-0.219530378497669 
2493	 1.10008500057208 
2494	 2.17617792030048 
2495	-2.87420570795679 
2496	-0.653748751378845 
2497	 0.18414708368605 
2498	 0.478727320359191 
2499	 0.405153983136237 
2500	 1.11297782921848 
