Wavelength	rt0712west_far200001.asd
350	 7.10098022918872E-02 
351	 7.03606363326527E-02 
352	 7.09460507173743E-02 
353	 7.16392222821481E-02 
354	 7.17573027585438E-02 
355	 7.26301892043687E-02 
356	 7.35058710186276E-02 
357	 7.31496990080973E-02 
358	 7.12072743164846E-02 
359	 7.14899775473445E-02 
360	 7.10844104195491E-02 
361	 7.08311439954758E-02 
362	 7.35133485738849E-02 
363	 7.26595741087936E-02 
364	 7.16335967194631E-02 
365	 7.22267892642586E-02 
366	 7.19489401498312E-02 
367	 7.28842754991081E-02 
368	 7.35051433118477E-02 
369	 7.25311816375177E-02 
370	 7.29357000776129E-02 
371	 7.28693822062048E-02 
372	 7.24700276476205E-02 
373	 7.29461742725109E-02 
374	 7.37492534809338E-02 
375	 7.35435214225697E-02 
376	 7.26694268637033E-02 
377	 7.37581646577536E-02 
378	 7.46634171244507E-02 
379	 7.46493678013194E-02 
380	 7.38551640416373E-02 
381	 7.38184227601166E-02 
382	 7.45666613021075E-02 
383	 7.50159762222793E-02 
384	 7.41589481371611E-02 
385	 0.075707176360185 
386	 7.60849499260555E-02 
387	 7.48764296149202E-02 
388	 7.56571554360786E-02 
389	 7.50042590047715E-02 
390	 0.075428776164128 
391	 7.79387697746989E-02 
392	 7.72636820290964E-02 
393	 7.64265922188993E-02 
394	 7.63548711209225E-02 
395	 7.68982958644669E-02 
396	 7.68679788848145E-02 
397	 7.72574942171866E-02 
398	 7.79326137656276E-02 
399	 7.77791129222099E-02 
400	 7.78531474211059E-02 
401	 7.79031309577755E-02 
402	 7.78076476550825E-02 
403	 7.82618857715469E-02 
404	 7.83377438948559E-02 
405	 0.078342646717024 
406	 0.078876739099793 
407	 7.94297618510847E-02 
408	 7.93528490946307E-02 
409	 7.89368236011785E-02 
410	 7.93121407153444E-02 
411	 7.96181943291664E-02 
412	 7.96833363864799E-02 
413	 7.97140814145964E-02 
414	 8.06203867456181E-02 
415	 8.07174933153654E-02 
416	 8.05545386139455E-02 
417	 8.12455309120337E-02 
418	 8.11704879588598E-02 
419	 8.11780083916406E-02 
420	 8.16445750590848E-02 
421	 8.22386816366491E-02 
422	 0.082237119271783 
423	 8.24951282212706E-02 
424	 8.34110875187211E-02 
425	 8.30743294773391E-02 
426	 8.33281216014893E-02 
427	 0.084086400241881 
428	 8.44259400193583E-02 
429	 8.48117227397961E-02 
430	 8.53802356859813E-02 
431	 8.59332758762334E-02 
432	 8.59361425205169E-02 
433	 8.60656271245286E-02 
434	 8.65174934648959E-02 
435	 8.71906981444538E-02 
436	 8.74840884214627E-02 
437	 8.78522702019351E-02 
438	 8.82989162430398E-02 
439	 8.85866959289192E-02 
440	 8.86935654153403E-02 
441	 8.92060144771352E-02 
442	 9.00457796791666E-02 
443	 9.00758838800072E-02 
444	 9.00678598501735E-02 
445	 9.04259595729422E-02 
446	 9.12081203139567E-02 
447	 9.16333895288192E-02 
448	 9.16763868758658E-02 
449	 0.091680598049734 
450	 9.21822584249597E-02 
451	 9.26291859779877E-02 
452	 9.30279772139435E-02 
453	 9.33542386250796E-02 
454	 9.33021497228188E-02 
455	 9.36206501217198E-02 
456	 9.40437855546138E-02 
457	 9.40936610828189E-02 
458	 9.43792744335799E-02 
459	 9.44506640497881E-02 
460	 9.43793527005205E-02 
461	 9.47742551892501E-02 
462	 9.50756427241804E-02 
463	 9.51679473519785E-02 
464	 9.51662741430547E-02 
465	 9.55602315286054E-02 
466	 9.59937336890993E-02 
467	 9.61631582585207E-02 
468	 9.59539472552349E-02 
469	 9.64020312837978E-02 
470	 9.67632362168471E-02 
471	 9.67323533577767E-02 
472	 9.68162722857934E-02 
473	 9.68492984935687E-02 
474	 9.71407890046066E-02 
475	 9.77919030345635E-02 
476	 0.09774556322898 
477	 9.80234945083852E-02 
478	 9.86730689260828E-02 
479	 9.90548116866778E-02 
480	 9.89763271102276E-02 
481	 9.90593311110821E-02 
482	 9.96074136049094E-02 
483	 0.100075833178958 
484	 0.100518856571363 
485	 0.10069053527733 
486	 0.100520390175223 
487	 0.101287231238042 
488	 0.101895665094038 
489	 0.102037518778073 
490	 0.102288634947348 
491	 0.102768891447065 
492	 0.103250020614835 
493	 0.103614011496123 
494	 0.104315401735598 
495	 0.104696749205667 
496	 0.104864637519765 
497	 0.105301609496032 
498	 0.106036903449029 
499	 0.106500069405641 
500	 0.10657411321059 
501	 0.106940638020581 
502	 0.107551766178142 
503	 0.10819964181138 
504	 0.108668329444433 
505	 0.108941558239788 
506	 0.109622005819173 
507	 0.110451728628514 
508	 0.11059221778684 
509	 0.111112107138241 
510	 0.111937431838166 
511	 0.112706225293831 
512	 0.1127223719585 
513	 0.113584306371184 
514	 0.114724498259518 
515	 0.114863077870219 
516	 0.115121814947338 
517	 0.115940563789408 
518	 0.117045717125036 
519	 0.117399618218254 
520	 0.117864536776178 
521	 0.118631415604605 
522	 0.119592023403825 
523	 0.120175903444114 
524	 0.120818924858806 
525	 0.121642176161558 
526	 0.122509536737197 
527	 0.123103006205697 
528	 0.123755252951864 
529	 0.124638581602837 
530	 0.125453288431346 
531	 0.125991048966146 
532	 0.126642654627658 
533	 0.127825791872771 
534	 0.128643650283667 
535	 0.129275957771198 
536	 0.129935548345823 
537	 0.130777800376837 
538	 0.131622487426821 
539	 0.132299261588032 
540	 0.132815463335402 
541	 0.133760756854391 
542	 0.134569749220046 
543	 0.135218055308004 
544	 0.136018328434801 
545	 0.136835987112837 
546	 0.137855244216875 
547	 0.138983176533693 
548	 0.139509861207729 
549	 0.140258932701382 
550	 0.14116423548382 
551	 0.141938971049513 
552	 0.142994073313332 
553	 0.143797472924957 
554	 0.144294417506151 
555	 0.145011740248968 
556	 0.145870544180231 
557	 0.146769138739949 
558	 0.147554967528587 
559	 0.147980945558571 
560	 0.148565948953135 
561	 0.149370459863665 
562	 0.150131048996595 
563	 0.150502703515067 
564	 0.150854441604288 
565	 0.151411421103459 
566	 0.151921522015864 
567	 0.152494899236145 
568	 0.15291680922396 
569	 0.153005039592457 
570	 0.153461563804332 
571	 0.153980369580981 
572	 0.15440189545062 
573	 0.154790256892761 
574	 0.155110906295717 
575	 0.155356854437342 
576	 0.155570787693931 
577	 0.155927629975168 
578	 0.156340733361927 
579	 0.156604810418073 
580	 0.156526902371674 
581	 0.156706923816568 
582	 0.156947616015161 
583	 0.156967038330192 
584	 0.15648531347642 
585	 0.15587240221004 
586	 0.155136972513907 
587	 0.154176572493988 
588	 0.153167915969183 
589	 0.152356588004419 
590	 0.15195894606754 
591	 0.151985002605871 
592	 0.152027755885348 
593	 0.151806601058557 
594	 0.15122088871635 
595	 0.150528213538212 
596	 0.149940539390272 
597	 0.149490884909169 
598	 0.149080704646267 
599	 0.14844216696164 
600	 0.147690905826584 
601	 0.147039172211837 
602	 0.146799030406517 
603	 0.146520369435475 
604	 0.146282287413555 
605	 0.146269202522998 
606	 0.14629093004374 
607	 0.146368310346592 
608	 0.146339566677069 
609	 0.145887153710578 
610	 0.145863941183167 
611	 0.146108435801463 
612	 0.146273577281756 
613	 0.146154586054065 
614	 0.146058226315354 
615	 0.14606249665089 
616	 0.146087919067728 
617	 0.145955397306736 
618	 0.145655906985674 
619	 0.145431849717731 
620	 0.145954183374532 
621	 0.145650229338614 
622	 0.145206482680197 
623	 0.145606072173961 
624	 0.145344829776982 
625	 0.144754418868937 
626	 0.144233328054023 
627	 0.144173782821369 
628	 0.144146433465021 
629	 0.144075899200486 
630	 0.144021503182254 
631	 0.144220675818568 
632	 0.144318636139026 
633	 0.144198993357397 
634	 0.143930221951651 
635	 0.143947754707784 
636	 0.144150952242076 
637	 0.144264241989438 
638	 0.143833377126976 
639	 0.143981274513727 
640	 0.144134248735263 
641	 0.14360148042229 
642	 0.143359407002967 
643	 0.143164133405928 
644	 0.142808110312114 
645	 0.142125642414729 
646	 0.14119960448914 
647	 0.140599368297454 
648	 0.140658506555114 
649	 0.140914929599861 
650	 0.140839965173513 
651	 0.140677525591107 
652	 0.140797939255893 
653	 0.140130054121395 
654	 0.139385136857435 
655	 0.138924318593545 
656	 0.138503816959255 
657	 0.137983586420484 
658	 0.137567877336922 
659	 0.137349109295357 
660	 0.136917267762462 
661	 0.136676294073867 
662	 0.136528239986463 
663	 0.136147312837972 
664	 0.136179601593743 
665	 0.136147784607302 
666	 0.135806425449531 
667	 0.135558898646042 
668	 0.135323289253358 
669	 0.135385791606305 
670	 0.135845555580799 
671	 0.13536153971317 
672	 0.13497344564508 
673	 0.134984960290126 
674	 0.134919011220734 
675	 0.13501309719721 
676	 0.135097836523647 
677	 0.135048803976248 
678	 0.135004581135219 
679	 0.135203401642558 
680	 0.135241460806432 
681	 0.134666351952866 
682	 0.135001469038779 
683	 0.135107786505709 
684	 0.134559767436063 
685	 0.134129887462458 
686	 0.133711789813435 
687	 0.13331859206926 
688	 0.133030183522731 
689	 0.133089760382862 
690	 0.132583248605355 
691	 0.131559110415846 
692	 0.130668969125097 
693	 0.129866527631527 
694	 0.129615828235321 
695	 0.129793157010679 
696	 0.129571838731167 
697	 0.128526509986102 
698	 0.127045441505097 
699	 0.125987221073993 
700	 0.12555214902031 
701	 0.125067955103077 
702	 0.124203190650857 
703	 0.122950524557312 
704	 0.121824836372293 
705	 0.120552324215582 
706	 0.119114045647881 
707	 0.118120283361509 
708	 0.116842586592483 
709	 0.115346954968838 
710	 0.113940605169648 
711	 0.112285747985774 
712	 0.110353167398128 
713	 0.108184140057958 
714	 0.105826880322352 
715	 0.102908182628731 
716	 9.92568804149217E-02 
717	 9.57389810679252E-02 
718	 9.33619870320602E-02 
719	 9.15213470016279E-02 
720	 9.02096358715775E-02 
721	 8.90318911996667E-02 
722	 8.68394645684111E-02 
723	 0.083817438101694 
724	 8.11123583648278E-02 
725	 7.94885198035738E-02 
726	 0.077519766322364 
727	 7.53419972605535E-02 
728	 7.32913103709859E-02 
729	 7.13421652911763E-02 
730	 6.88952049133564E-02 
731	 6.64528859168963E-02 
732	 6.44892187204944E-02 
733	 6.35187961984981E-02 
734	 6.25852162790315E-02 
735	 6.13995384033915E-02 
736	 6.05314415953656E-02 
737	 5.98858642822691E-02 
738	 5.93113841378571E-02 
739	 5.87771325502899E-02 
740	 5.85753247022222E-02 
741	 5.85509034418278E-02 
742	 5.87565514187195E-02 
743	 5.92137970306927E-02 
744	 5.89675206818405E-02 
745	 5.85177560958308E-02 
746	 5.83092571792648E-02 
747	 5.85130918548828E-02 
748	 5.85521504658403E-02 
749	 5.84790927846781E-02 
750	 5.84495524938472E-02 
751	 5.83862929942766E-02 
752	 5.81667624499393E-02 
753	 5.80086403106235E-02 
754	 5.82047337911859E-02 
755	 5.80537590288568E-02 
756	 5.77535708503911E-02 
757	 5.75788418433017E-02 
758	 5.79381522929974E-02 
759	 0.057552673031544 
760	 5.58788803907162E-02 
761	 5.52535099847384E-02 
762	 5.59032219655811E-02 
763	 5.57870582676566E-02 
764	 5.61211284195306E-02 
765	 5.77310670976534E-02 
766	 5.79092872594387E-02 
767	 5.76502319838372E-02 
768	 5.76317793797405E-02 
769	 5.83515883695408E-02 
770	 5.87772657664991E-02 
771	 5.88380007038688E-02 
772	 5.87471679052314E-02 
773	 5.89082895936229E-02 
774	 5.92345587882648E-02 
775	 5.95228850041901E-02 
776	 5.96087778776646E-02 
777	 5.99897599142291E-02 
778	 5.97985472494719E-02 
779	 5.95036461891485E-02 
780	 6.08024560924577E-02 
781	 6.07687974972604E-02 
782	 6.04756491201004E-02 
783	 6.09087123527913E-02 
784	 6.10815782742215E-02 
785	 6.14652151552537E-02 
786	 0.061944161068238 
787	 6.22032035558964E-02 
788	 6.21363171590003E-02 
789	 6.22228798080792E-02 
790	 0.062721954495359 
791	 6.35748470110156E-02 
792	 6.43912965234182E-02 
793	 6.43815982328608E-02 
794	 6.37345906247921E-02 
795	 6.43091157141408E-02 
796	 6.51914549055451E-02 
797	 6.57210593518016E-02 
798	 6.56650122978278E-02 
799	 0.06570456267807 
800	 6.58216837651803E-02 
801	 0.066150177332186 
802	 6.67819575159627E-02 
803	 0.067081773695306 
804	 6.75641040525719E-02 
805	 6.80413302505645E-02 
806	 6.75777436657264E-02 
807	 6.73218977675356E-02 
808	 6.71840799992808E-02 
809	 6.67981275169185E-02 
810	 6.56482647273829E-02 
811	 6.53448072785088E-02 
812	 6.53291050825685E-02 
813	 6.41795423998808E-02 
814	 6.39415901881954E-02 
815	 6.33946368698274E-02 
816	 6.26370559798708E-02 
817	 0.062853399126961 
818	 6.23177064403146E-02 
819	 6.21775332501595E-02 
820	 6.22564910120557E-02 
821	 6.06668243864533E-02 
822	 5.96422214118584E-02 
823	 5.86494459924868E-02 
824	 5.71382240948175E-02 
825	 5.60059028568506E-02 
826	 5.43799904390884E-02 
827	 0.053211646499558 
828	 5.35790247135984E-02 
829	 5.19893112881915E-02 
830	 5.05501593636987E-02 
831	 0.049704824315156 
832	 4.87239312447299E-02 
833	 4.87308103559305E-02 
834	 4.85124889986793E-02 
835	 4.79361612216131E-02 
836	 4.83425449373406E-02 
837	 4.73529095023407E-02 
838	 4.67619404730644E-02 
839	 4.76165368611002E-02 
840	 4.71535237470583E-02 
841	 4.64994502473195E-02 
842	 4.60612827366648E-02 
843	 4.59874399328002E-02 
844	 4.62896779146634E-02 
845	 4.64630980587444E-02 
846	 4.64330221425968E-02 
847	 0.046388959814805 
848	 4.59282072597988E-02 
849	 0.046032340158799 
850	 0.046602959089753 
851	 4.60654887545679E-02 
852	 4.54060043656197E-02 
853	 4.53065574592954E-02 
854	 4.57387028513039E-02 
855	 4.54036495045776E-02 
856	 4.49338550108214E-02 
857	 4.48778681411435E-02 
858	 4.53450377258191E-02 
859	 4.50420797986742E-02 
860	 4.50502908618334E-02 
861	 4.49538020205848E-02 
862	 4.39987142222822E-02 
863	 4.41905872889524E-02 
864	 4.49596301416747E-02 
865	 4.50856481585965E-02 
866	 4.34568914445629E-02 
867	 4.42056553768334E-02 
868	 4.47837426028489E-02 
869	 0.044022096783175 
870	 4.37250849261741E-02 
871	 4.34171953365712E-02 
872	 4.33609996991063E-02 
873	 4.36117948560248E-02 
874	 4.34986762912255E-02 
875	 4.34600476593448E-02 
876	 4.30697676683733E-02 
877	 4.21496388381897E-02 
878	 4.23549681222934E-02 
879	 4.24126117836359E-02 
880	 4.19108808028046E-02 
881	 0.041195453685892 
882	 4.19834807472131E-02 
883	 4.21046628365037E-02 
884	 4.16045547163497E-02 
885	 4.20962484572002E-02 
886	 4.16263161039598E-02 
887	 4.11994089332261E-02 
888	 4.13212311946444E-02 
889	 0.041502632522167 
890	 4.12108816854483E-02 
891	 0.040214852283864 
892	 0.038970948337663 
893	 3.93227260125971E-02 
894	 4.12961270815941E-02 
895	 4.08556539268793E-02 
896	 3.59723355705504E-02 
897	 0.03882769702719 
898	 4.03263245736359E-02 
899	 4.07303196311238E-02 
900	 4.22731559489379E-02 
901	 3.96824595435805E-02 
902	 3.59401281251602E-02 
903	 0.035640290239863 
904	 4.10585803545556E-02 
905	 4.19090655888956E-02 
906	 3.76065529395515E-02 
907	 3.37598250977947E-02 
908	 3.91467557072475E-02 
909	 3.76564273015287E-02 
910	 3.68991293719573E-02 
911	 3.78845496700291E-02 
912	 3.44396141092325E-02 
913	 0.038549611027493 
914	 3.72296839829009E-02 
915	 3.21040986636395E-02 
916	 4.10896062683849E-02 
917	 3.74473744824241E-02 
918	 3.50598163027846E-02 
919	 0.03866950097456 
920	 3.69876177868151E-02 
921	 3.86482267057311E-02 
922	 4.24130426638789E-02 
923	 4.32490864441037E-02 
924	 3.08266790770576E-02 
925	 0.031557341932675 
926	 3.77562069698618E-02 
927	 3.40916252604634E-02 
928	 3.58881011040729E-02 
929	 4.47924749583376E-02 
930	 4.71282508093892E-02 
931	 2.08595922277219E-02 
932	 1.99271360618672E-02 
933	 3.03780697575354E-02 
934	 5.39622511526785E-02 
935	 7.91230909456911E-02 
936	 2.92263100522024E-02 
937	 5.58181690446182E-02 
938	 8.29506042468505E-02 
939	 2.30892119983309E-02 
940	 3.49846145732576E-03 
941	 4.82958111376566E-02 
942	 7.89725598302025E-02 
943	-1.2880174627616E-03 
944	 2.22712393976075E-02 
945	 5.54989726383102E-02 
946	 5.72011605735262E-02 
947	 4.65111865253372E-02 
948	 3.92744463704452E-02 
949	 3.26062200671215E-02 
950	 3.30348236546344E-02 
951	 4.27595388338889E-02 
952	 2.72001574393246E-02 
953	 1.97607507638107E-02 
954	 2.82833287570856E-02 
955	 3.94691760301026E-02 
956	 4.51165241729457E-02 
957	 3.67208244549108E-02 
958	 3.43678765082219E-02 
959	 5.93772422278003E-02 
960	 4.05495963536527E-02 
961	 3.13877899917161E-02 
962	 4.14195651379426E-02 
963	 4.66191588265674E-02 
964	 3.46600993914021E-02 
965	 2.40910471333715E-02 
966	 2.61865940365483E-02 
967	 3.96798313701492E-02 
968	 3.59266376925728E-02 
969	 2.73846228782329E-02 
970	 2.76089516550034E-02 
971	 4.32945678543809E-02 
972	 4.02904382372787E-02 
973	 3.70301974158355E-02 
974	 3.70883027805581E-02 
975	 2.74271447496237E-02 
976	 3.82592630822911E-02 
977	 4.34512000292657E-02 
978	 3.58854152802812E-02 
979	 2.93625945699929E-02 
980	 3.70224949673369E-02 
981	 3.78526788470904E-02 
982	 3.36431511899185E-02 
983	 4.06934709312702E-02 
984	 4.32419217607779E-02 
985	 3.72943505313971E-02 
986	 3.07535744624777E-02 
987	 3.63254625355232E-02 
988	 4.45564847805058E-02 
989	 4.03522982143608E-02 
990	 0.032307935168437 
991	 4.09019202080918E-02 
992	 4.30347644725593E-02 
993	 3.68359436142796E-02 
994	 0.03432105829543 
995	 4.78812548523987E-02 
996	 4.36425305334476E-02 
997	 3.87915174031892E-02 
998	 4.14648965129318E-02 
999	 4.72032650190166E-02 
1000	 3.30041987028408E-02 
1001	 4.52542335318274E-02 
1002	 0.043706718919488 
1003	 4.35928483203866E-02 
1004	 4.22853605275559E-02 
1005	 0.042135273971488 
1006	 0.04416451650682 
1007	 4.24785596940029E-02 
1008	 4.11092817261124E-02 
1009	 4.00699738194833E-02 
1010	 3.82846182927639E-02 
1011	 3.65567164702097E-02 
1012	 3.26211107478594E-02 
1013	 3.02745866723829E-02 
1014	 3.01827807321458E-02 
1015	 3.11611225746513E-02 
1016	 3.19828109828163E-02 
1017	 3.58725085247888E-02 
1018	 3.73559430848614E-02 
1019	 0.038029910335608 
1020	 3.78026185342487E-02 
1021	 3.57779966225225E-02 
1022	 3.58020141267832E-02 
1023	 3.56738851904546E-02 
1024	 3.48653993238649E-02 
1025	 3.63776066466728E-02 
1026	 3.86809939456564E-02 
1027	 3.84957270597487E-02 
1028	 3.57332019011015E-02 
1029	 3.59028252116984E-02 
1030	 3.57636799121956E-02 
1031	 3.68200246627285E-02 
1032	 4.28032797305903E-02 
1033	 4.29508962400015E-02 
1034	 3.83658111105654E-02 
1035	 3.75649121187362E-02 
1036	 3.54317130589595E-02 
1037	 3.46643774944499E-02 
1038	 3.68283182383381E-02 
1039	 3.90130436198711E-02 
1040	 4.08594726318407E-02 
1041	 4.09513264397562E-02 
1042	 4.03975400691641E-02 
1043	 3.91645938009286E-02 
1044	 3.89885140244458E-02 
1045	 3.72871285763348E-02 
1046	 3.73647247564449E-02 
1047	 4.05125302120185E-02 
1048	 4.06083049293916E-02 
1049	 3.87749287923235E-02 
1050	 3.83109268251456E-02 
1051	 3.69315552107972E-02 
1052	 3.65705249220946E-02 
1053	 3.84259661187648E-02 
1054	 0.038719943497972 
1055	 3.83732134774769E-02 
1056	 3.78735066889159E-02 
1057	 3.69988479307181E-02 
1058	 3.48208987111617E-02 
1059	 3.46026352791829E-02 
1060	 3.50572468181432E-02 
1061	 3.54407307018675E-02 
1062	 3.63783814211861E-02 
1063	 3.77494999656303E-02 
1064	 4.04428710757814E-02 
1065	 4.09683147215342E-02 
1066	 4.06047664779603E-02 
1067	 4.10158051695126E-02 
1068	 3.98367132899036E-02 
1069	 3.96139189766616E-02 
1070	 4.18122845321505E-02 
1071	 4.22986556677495E-02 
1072	 4.19448920978049E-02 
1073	 4.09815697894379E-02 
1074	 3.97996346826834E-02 
1075	 3.72582789445711E-02 
1076	 3.66380515019006E-02 
1077	 3.63578927151777E-02 
1078	 3.66506102626527E-02 
1079	 0.038686941964163 
1080	 3.92951347333029E-02 
1081	 3.84342063390499E-02 
1082	 3.96600746446325E-02 
1083	 4.39739930507944E-02 
1084	 4.41351069650867E-02 
1085	 4.18408377510919E-02 
1086	 4.17135299066763E-02 
1087	 3.92211612284076E-02 
1088	 3.76872625621529E-02 
1089	 3.74432585906266E-02 
1090	 4.08936652774737E-02 
1091	 4.21365490386543E-02 
1092	 4.20436076394523E-02 
1093	 4.17817517716245E-02 
1094	 4.37883745297597E-02 
1095	 4.12996396031802E-02 
1096	 3.29727535266037E-02 
1097	 3.02952506733089E-02 
1098	 2.59416407436068E-02 
1099	 2.54050782241645E-02 
1100	 3.27450679081324E-02 
1101	 3.54880023543653E-02 
1102	 4.10205124659683E-02 
1103	 0.042521655903406 
1104	 3.68447861699221E-02 
1105	 3.49726561414175E-02 
1106	 3.67514800423481E-02 
1107	 3.06778097211929E-02 
1108	 3.56384664953506E-02 
1109	 4.62793128454516E-02 
1110	 4.73704763945301E-02 
1111	 4.46362593821402E-02 
1112	 4.17053091045151E-02 
1113	 2.24338494980115E-02 
1114	 1.61613512803898E-02 
1115	 2.11969109488234E-02 
1116	 1.61474917554448E-02 
1117	 1.49487112541289E-02 
1118	 2.15875732364887E-02 
1119	 2.76472883009878E-02 
1120	 3.38086923556848E-02 
1121	 7.94995624447665E-02 
1122	 9.54315235676121E-02 
1123	 0.102847774570543 
1124	 0.224530500447277 
1125	 0.251219323583239 
1126	 0.236351493869375 
1127	 0.274537149171819 
1128	 0.266226075005532 
1129	 0.214680355563104 
1130	 0.247708021600495 
1131	 0.160310611207346 
1132	-0.133424602766603 
1133	-0.18416510145419 
1134	-0.143498833283312 
1135	-0.133172945300535 
1136	-3.62593811719756E-02 
1137	-1.01482344590962E-04 
1138	 1.60078793835742E-02 
1139	-2.73673401665196E-02 
1140	-5.3129971327262E-03 
1141	 5.39597757486228E-02 
1142	-1.69600209398656E-02 
1143	-3.41353606116241E-02 
1144	-5.57320184629978E-02 
1145	-0.144673133072953 
1146	-0.107996967596527 
1147	-4.68355313607438E-02 
1148	-1.63472818381783E-02 
1149	-3.35671213108904E-02 
1150	-2.24497847754839E-02 
1151	 2.41785226379279E-03 
1152	 5.95939829332057E-03 
1153	-1.46703043910504E-03 
1154	 9.94858064575099E-03 
1155	 3.22757021300495E-02 
1156	 1.32936216695452E-02 
1157	 2.23183061168086E-03 
1158	 9.28656659516397E-03 
1159	 5.05757199517557E-03 
1160	 5.69247008782487E-03 
1161	 2.77408266791204E-02 
1162	 4.31748578513926E-02 
1163	 0.044470734522069 
1164	 3.96103903628489E-02 
1165	 2.65203423355415E-02 
1166	 2.29158437805568E-02 
1167	 2.96590151610142E-02 
1168	 3.37343444836243E-02 
1169	 4.00425189618329E-02 
1170	 0.039936527637391 
1171	 3.61831993883652E-02 
1172	 2.21278722709138E-02 
1173	 2.42396683203264E-02 
1174	 0.032668979826463 
1175	 3.39649980253204E-02 
1176	 0.040470509661734 
1177	 0.043558223317068 
1178	 3.26344849802263E-02 
1179	 2.86446021534426E-02 
1180	 3.18928501547181E-02 
1181	 3.49137135574745E-02 
1182	 4.21980881933148E-02 
1183	 4.48288200629422E-02 
1184	 3.89192779430211E-02 
1185	 3.44121652802685E-02 
1186	 3.17152416395253E-02 
1187	 2.89994896644685E-02 
1188	 3.40872715444343E-02 
1189	 4.04246404154949E-02 
1190	 3.61379495293098E-02 
1191	 3.15825606855433E-02 
1192	 0.029754031345271 
1193	 2.61152626990191E-02 
1194	 2.28802802679664E-02 
1195	 2.85852639159658E-02 
1196	 3.17665304447368E-02 
1197	 3.07063739173646E-02 
1198	 0.031922889309525 
1199	 3.10641142934824E-02 
1200	 3.00415424078208E-02 
1201	 3.12093796005836E-02 
1202	 3.29770597056799E-02 
1203	 3.23879206617295E-02 
1204	 3.23550185039579E-02 
1205	 3.63983472473872E-02 
1206	 0.035854398105021 
1207	 3.13813842155278E-02 
1208	 3.02689279769615E-02 
1209	 3.26354021619364E-02 
1210	 3.40431751298795E-02 
1211	 3.36328189945397E-02 
1212	 3.35229874396418E-02 
1213	 3.04914581240341E-02 
1214	 2.87515036731378E-02 
1215	 2.65636500264922E-02 
1216	 2.68143683451348E-02 
1217	 2.52269001965832E-02 
1218	 2.66532500081595E-02 
1219	 2.89069058999757E-02 
1220	 2.97709556717321E-02 
1221	 3.38552507891834E-02 
1222	 3.74018879727194E-02 
1223	 3.68642258944402E-02 
1224	 0.036500999837124 
1225	 3.68574039340061E-02 
1226	 3.51009275824437E-02 
1227	 3.45766776788933E-02 
1228	 0.037610070841551 
1229	 3.92396737094893E-02 
1230	 3.67123961721038E-02 
1231	 3.61199310150995E-02 
1232	 3.88222365701557E-02 
1233	 3.82015191394064E-02 
1234	 3.65842632178711E-02 
1235	 3.57014495256058E-02 
1236	 3.11328363588854E-02 
1237	 3.02863704286762E-02 
1238	 3.16433935770153E-02 
1239	 3.48290247227831E-02 
1240	 3.38390657430859E-02 
1241	 3.32832339753922E-02 
1242	 3.40277252656287E-02 
1243	 3.39758667728454E-02 
1244	 3.71040280555429E-02 
1245	 3.95830730649828E-02 
1246	 3.72144886333393E-02 
1247	 3.60103647202392E-02 
1248	 0.034101017141349 
1249	 3.15771310086407E-02 
1250	 3.14994140441504E-02 
1251	 3.03106924836999E-02 
1252	 3.01014217183227E-02 
1253	 3.28023757165278E-02 
1254	 3.42626386540639E-02 
1255	 3.38747147749251E-02 
1256	 3.41868705230779E-02 
1257	 0.035357493538854 
1258	 3.52193947219122E-02 
1259	 3.35936429040112E-02 
1260	 3.46985428645423E-02 
1261	 3.73375615201923E-02 
1262	 3.75521012634877E-02 
1263	 0.037551470583831 
1264	 3.87816200337132E-02 
1265	 3.72978504942656E-02 
1266	 0.037680767592439 
1267	 3.92901764018528E-02 
1268	 3.73611598509861E-02 
1269	 3.51378858761247E-02 
1270	 3.51909679549335E-02 
1271	 3.72707936345463E-02 
1272	 4.00956555127663E-02 
1273	 3.90666329615981E-02 
1274	 3.65101194715823E-02 
1275	 3.61496751339079E-02 
1276	 3.57138027929081E-02 
1277	 3.64143272983256E-02 
1278	 3.61970923406589E-02 
1279	 3.32091070104288E-02 
1280	 3.24463211879075E-02 
1281	 3.12574064942507E-02 
1282	 2.97004521970289E-02 
1283	 2.93359526207841E-02 
1284	 2.93782635385277E-02 
1285	 2.89884887276304E-02 
1286	 3.08860881167891E-02 
1287	 0.03093547968897 
1288	 0.027607697266264 
1289	 2.78367258581375E-02 
1290	 2.86557008265485E-02 
1291	 0.031812959209583 
1292	 3.29500467308304E-02 
1293	 3.28312950645241E-02 
1294	 3.23438975815243E-02 
1295	 2.81053296597816E-02 
1296	 0.027333234033548 
1297	 3.33160259184685E-02 
1298	 3.70408118444676E-02 
1299	 3.63351118559613E-02 
1300	 3.71444977213216E-02 
1301	 4.07947807727279E-02 
1302	 0.040991649436691 
1303	 3.67981477687549E-02 
1304	 3.61973902076871E-02 
1305	 3.70681580086725E-02 
1306	 3.52674020399114E-02 
1307	 3.50205271083852E-02 
1308	 3.37335441900966E-02 
1309	 2.58374438117939E-02 
1310	 2.34777206008097E-02 
1311	 2.66376950470346E-02 
1312	 2.98733110276653E-02 
1313	 3.59757594063416E-02 
1314	 3.94041966393972E-02 
1315	 4.24062719181669E-02 
1316	 4.53912417689894E-02 
1317	 4.78316714927225E-02 
1318	 5.10782993950131E-02 
1319	 5.64888189821356E-02 
1320	 5.77328859619172E-02 
1321	 5.56969747232694E-02 
1322	 5.36704276181594E-02 
1323	 4.78670886730381E-02 
1324	 4.15730969077429E-02 
1325	 4.56832085199718E-02 
1326	 3.88886122315543E-02 
1327	 2.84250300346283E-02 
1328	 2.47323589751223E-02 
1329	 1.23505024858604E-02 
1330	-1.78763949980454E-03 
1331	 7.91091456201553E-04 
1332	 1.65547421112729E-02 
1333	 3.15623655670459E-02 
1334	 4.81888181582469E-02 
1335	 0.042177761266724 
1336	-1.45970940549675E-02 
1337	-2.50138729995088E-03 
1338	 4.28006206918896E-02 
1339	 6.48510755960666E-02 
1340	 0.150842100831964 
1341	 0.16349182498763 
1342	 7.00180175464149E-02 
1343	 5.91194323986492E-02 
1344	 8.36610503001892E-02 
1345	 7.68480548516398E-02 
1346	 0.106815095071697 
1347	 0.124735398991803 
1348	 8.70218316703352E-02 
1349	 2.05738733466287E-02 
1350	-0.111396407787077 
1351	-0.182980515160985 
1352	-0.141086469685008 
1353	-0.173757684157344 
1354	-1.94199054364358E-02 
1355	-6.45709029982327E-02 
1356	-3.72205461300547 
1357	-1.53387943263958 
1358	 0.205869082694907 
1359	-3.28028861949329 
1360	 1.23941821032823 
1361	 0.68738682304732 
1362	 0.680578893231963 
1363	 0.604473332795849 
1364	 1.17923104387106 
1365	 0.841437877133916 
1366	 1.62567022274293 
1367	 12.7909139259483 
1368	-7.27347549070851 
1369	-0.707124426238885 
1370	-0.367568192603436 
1371	 0.271391456924881 
1372	-0.536483105973617 
1373	 4.90961244897207 
1374	 33.2360039463848 
1375	-2.29426012376719 
1376	-16.0994641955025 
1377	 1.87947099972856 
1378	 1.19616756783309 
1379	 0.355307228058569 
1380	 0.401123680762308 
1381	 2.02714720483418 
1382	 1.35567404284494 
1383	-1.99349325584301E-02 
1384	 0.164915599160092 
1385	 0.5807354060741 
1386	 0.514808219031272 
1387	 3.52819795267025 
1388	 6.71087456688386 
1389	-1.17816087497069 
1390	-2.91056702780144 
1391	-15.4638534329343 
1392	-6.85737064017999 
1393	-2.73539580261094 
1394	 6.15627310446456 
1395	 1.34345192884568 
1396	 1.53859889780516 
1397	 3.07496179745378 
1398	 1.89874825192537 
1399	 7.7965142699717 
1400	-1.09037101535988 
1401	-0.138353193234642 
1402	 0.604683976078105 
1403	-8.08611760500893E-02 
1404	-0.27552799428755 
1405	-0.487844447587547 
1406	 4.16948989329371 
1407	 4.98563646845239 
1408	-0.962529859990887 
1409	-0.262840665864288 
1410	-0.333187155735718 
1411	-0.309929585360016 
1412	 0.49485259677827 
1413	 0.280976316942878 
1414	 1.98726499325131 
1415	 4.46543763410055 
1416	-2.02521513143555 
1417	-1.72157727197096 
1418	-0.994929694408156 
1419	-0.699197820393543 
1420	-0.676049739441012 
1421	-1.01126367026343 
1422	-1.42864687715379 
1423	-0.900988844248704 
1424	 0.715752320176015 
1425	 0.632156758942128 
1426	 0.964655185411353 
1427	 0.895025801266366 
1428	-0.133571588208139 
1429	-0.142494608188256 
1430	 1.32308498551511 
1431	 0.970792336374004 
1432	-1.4070204310746 
1433	-2.00263218832417 
1434	-1.30624894345939 
1435	-1.60720214797113 
1436	-6.95438198120352 
1437	-5.06202932378299 
1438	-1.475651509627 
1439	-1.42545546562142 
1440	-6.43631043778625 
1441	 14.7406842258576 
1442	-1.71396244138006 
1443	-2.03187925525815 
1444	-1.86971391082359 
1445	-0.970336062190765 
1446	-1.00897390221722 
1447	-1.59419922442277 
1448	-0.904570694831453 
1449	-3.95780227066942 
1450	 7.36299225165175 
1451	 1.08072933492141 
1452	-4.11646409502705 
1453	-0.678870233579493 
1454	-0.683237916836158 
1455	-102.538184262761 
1456	-1.41937967644397 
1457	-0.625560265043597 
1458	-0.546030651444753 
1459	-0.156804756083302 
1460	-0.151077710145908 
1461	-0.221784982263118 
1462	-0.289691952515956 
1463	-0.802289448689333 
1464	-1.25462595514879 
1465	-2.94181065642779 
1466	-7.81115098928861 
1467	-1.72648043107137 
1468	-1.51029005921167 
1469	 1.74254530817082 
1470	 0.419222750158747 
1471	-8.50720057467775 
1472	-1.67097748503453 
1473	-43.3745632520812 
1474	-0.179858039044113 
1475	-1.0758875345056 
1476	-1.07571255734777 
1477	-1.09698665396603 
1478	-1.48103380138083 
1479	-5.5281405217509 
1480	 268.483637165241 
1481	-210.940664556279 
1482	 34.9080764512064 
1483	 11.191510450406 
1484	-8.92988942746197 
1485	 0.308095655896866 
1486	-0.416416027969826 
1487	-0.870693436603114 
1488	-0.83388200079898 
1489	-2.51300428587369 
1490	-2.45337213207969 
1491	-1.20963721018635 
1492	-0.645456987396891 
1493	-9.47049747816753E-02 
1494	-0.105825126023663 
1495	-0.179762745573271 
1496	-8.47471694423149E-02 
1497	-0.226694519336544 
1498	-0.233733740250616 
1499	 5.69446147771285E-03 
1500	 6.46788733493932E-02 
1501	-2.89803526652323E-03 
1502	-3.96741320669584E-02 
1503	-0.187266199111048 
1504	-0.164991164032366 
1505	 3.32244509421773E-02 
1506	 3.20405660632334E-02 
1507	 3.21660805267941E-02 
1508	 5.96956939842128E-02 
1509	-0.053354471143353 
1510	-8.28771429739224E-02 
1511	-6.79068646191141E-02 
1512	-0.093075425631264 
1513	-0.030800708974246 
1514	 4.79349051020363E-04 
1515	-5.72027759959976E-02 
1516	-9.51278252727942E-02 
1517	-0.120478669800107 
1518	-0.175430401154916 
1519	-0.217612308788256 
1520	-0.157705511050349 
1521	-0.105651937606006 
1522	-0.147871204319713 
1523	-0.158779772463373 
1524	-0.115337727279194 
1525	-9.59464155616339E-02 
1526	-9.45640464455546E-02 
1527	-8.21070371774478E-02 
1528	-7.27006249088937E-02 
1529	-5.50718444430956E-02 
1530	-4.70511825094052E-02 
1531	-5.14336779656364E-02 
1532	-4.77870536342001E-02 
1533	-7.14884435552007E-02 
1534	-0.090225693441412 
1535	-8.35353190224843E-02 
1536	-8.66432922064227E-02 
1537	-9.74506192904158E-02 
1538	-9.98784315753253E-02 
1539	-7.77419327272584E-02 
1540	-7.14725816508289E-02 
1541	-8.93334490664113E-02 
1542	-8.90720930315355E-02 
1543	-8.93718164826935E-02 
1544	-0.105106906876962 
1545	-9.33676494146411E-02 
1546	-7.36630207708558E-02 
1547	-4.33675106864761E-02 
1548	-1.22732883296326E-02 
1549	-4.07386614088843E-02 
1550	-5.91312320596529E-02 
1551	-3.91370942764919E-02 
1552	-4.22962272332908E-02 
1553	-5.81378337915814E-02 
1554	-4.64396319616612E-02 
1555	-0.02622681580391 
1556	-3.60978909281321E-02 
1557	-2.71791950158529E-02 
1558	 8.04149825592413E-03 
1559	 1.16210337046829E-03 
1560	-0.014650331761836 
1561	 1.49427261425336E-02 
1562	 3.77651947025189E-02 
1563	 3.28727429616394E-02 
1564	 2.99271579348483E-02 
1565	 3.98399766903451E-02 
1566	 4.54678044937343E-02 
1567	 0.026844901943018 
1568	 2.85802611446754E-02 
1569	 5.32526112486215E-02 
1570	 4.60496132130787E-02 
1571	 4.09092421789879E-02 
1572	 4.07237566535779E-02 
1573	 1.71390523528197E-02 
1574	 8.42784201684614E-03 
1575	 5.34928096770224E-03 
1576	 2.98754530520808E-03 
1577	 1.55110625681395E-02 
1578	 1.83761941906938E-02 
1579	 8.41033032383586E-03 
1580	 9.07738206038937E-06 
1581	 4.69489667956103E-03 
1582	 4.44235606179592E-03 
1583	-3.47079690400646E-03 
1584	 1.81919889368568E-02 
1585	 2.69741133285966E-02 
1586	 2.08057896271986E-03 
1587	 6.61840686792179E-03 
1588	 2.11392405826499E-02 
1589	 0.014598795390775 
1590	 1.45206777191189E-02 
1591	 4.13889871612405E-02 
1592	 5.99441680630139E-02 
1593	 4.19293821195339E-02 
1594	 3.21561244190622E-02 
1595	 3.57539920613194E-02 
1596	 3.45205671691919E-02 
1597	 4.07039556897775E-02 
1598	 6.17381714340489E-02 
1599	 6.41972073785103E-02 
1600	 2.47074593714909E-02 
1601	 3.15558698954267E-03 
1602	 1.37621628012049E-02 
1603	 1.26024996755201E-02 
1604	 2.28051015839085E-02 
1605	 3.68410587982686E-02 
1606	 1.99273970526906E-02 
1607	 8.66274095022546E-03 
1608	 2.43824358007763E-02 
1609	 1.93837649126128E-02 
1610	 8.99363788121459E-03 
1611	 2.25373299023002E-02 
1612	 1.77182827258098E-03 
1613	-0.029471578324577 
1614	-2.75787895041075E-02 
1615	-2.72364179213541E-02 
1616	-3.34423209006417E-02 
1617	-4.02472909179338E-02 
1618	-3.62697191152675E-02 
1619	-3.78719305472549E-03 
1620	 1.55223957202031E-02 
1621	 1.36436740550788E-02 
1622	 2.46598261179318E-02 
1623	 2.20501517818554E-02 
1624	-7.62571680577682E-03 
1625	-1.32399983378871E-02 
1626	-3.17662193281918E-03 
1627	-1.35862981890794E-02 
1628	-1.82975616458383E-02 
1629	-1.40576794043734E-02 
1630	-1.66345931072259E-02 
1631	-1.12070156518396E-02 
1632	-2.86411158929001E-03 
1633	-1.70945799244294E-04 
1634	 1.34155919576784E-02 
1635	 0.040011848269185 
1636	 5.14786693972498E-02 
1637	 6.01708435338896E-02 
1638	 7.36069353042135E-02 
1639	 7.07476032750788E-02 
1640	 4.88863445527488E-02 
1641	 2.58438787003731E-02 
1642	 3.62717326231845E-02 
1643	 4.46973699281202E-02 
1644	 0.032777062094815 
1645	 4.37336469702135E-02 
1646	 5.35677668290314E-02 
1647	 3.90959664598925E-02 
1648	 2.66970491700425E-02 
1649	 3.30785924865977E-02 
1650	 3.53997906921984E-02 
1651	 2.16049520900398E-02 
1652	 1.76698363599591E-02 
1653	 2.16113562098639E-02 
1654	 9.26994999841935E-03 
1655	-1.15823865297541E-02 
1656	-4.51580036562601E-03 
1657	 7.6693967572475E-03 
1658	 1.12926289347063E-02 
1659	 3.83761057487897E-02 
1660	 4.56706109573421E-02 
1661	 2.81788864643651E-02 
1662	 2.47368592085129E-02 
1663	 2.94204179048262E-02 
1664	 3.32073135414302E-02 
1665	 3.16823637418141E-02 
1666	 3.11922640251642E-02 
1667	 3.77435565278863E-02 
1668	 4.29528821004518E-02 
1669	 3.66098267594851E-02 
1670	 1.89170449490533E-02 
1671	 1.36788285591463E-02 
1672	 1.79246513351386E-02 
1673	 1.59173680433443E-02 
1674	 0.017943503555992 
1675	 4.07818881529234E-02 
1676	 5.65964717912732E-02 
1677	 0.054995950771839 
1678	 6.49293074143817E-02 
1679	 6.40475929194308E-02 
1680	 4.65688570905672E-02 
1681	 4.03278103104448E-02 
1682	 3.48427363300589E-02 
1683	 3.50465521794811E-02 
1684	 4.16967156645017E-02 
1685	 4.24595595328387E-02 
1686	 4.18348334413378E-02 
1687	 3.12405400054234E-02 
1688	 2.11006644329806E-02 
1689	 2.92996878568318E-02 
1690	 0.045424246475494 
1691	 4.28338977430775E-02 
1692	 2.59492218253916E-02 
1693	 2.02588341097954E-02 
1694	 1.17444466504842E-02 
1695	 3.78757084266143E-03 
1696	 0.018616310456271 
1697	 3.07257864676185E-02 
1698	 2.48896800556145E-02 
1699	 0.026662391176573 
1700	 2.78058202867283E-02 
1701	 2.73506141873491E-02 
1702	 3.48570412404929E-02 
1703	 2.74831055783763E-02 
1704	 2.47166630791624E-02 
1705	 3.19374438855778E-02 
1706	 3.04069321565779E-02 
1707	 0.045481534832802 
1708	 6.62548184871996E-02 
1709	 6.29152424754099E-02 
1710	 5.82870852921763E-02 
1711	 6.31455133679672E-02 
1712	 6.29054386197197E-02 
1713	 2.79519671579208E-02 
1714	 2.62069419254758E-02 
1715	 5.24192023299171E-02 
1716	 6.42960532923866E-02 
1717	 6.91677196019106E-02 
1718	 6.84601465191365E-02 
1719	 4.15099954203677E-02 
1720	 4.47117067423737E-02 
1721	 7.54089675618739E-02 
1722	 7.08552816949541E-02 
1723	 5.48584097419018E-02 
1724	 4.60182479749607E-02 
1725	 3.55947110905053E-02 
1726	 2.77775902393137E-02 
1727	 1.88678527680778E-02 
1728	 1.13776421330451E-02 
1729	 4.60617204999802E-03 
1730	 1.45436757563958E-02 
1731	 1.93868061809837E-02 
1732	-1.20994521985903E-02 
1733	-3.04270226933017E-02 
1734	-2.48332981839858E-02 
1735	-3.04521709215057E-02 
1736	-2.59903831087461E-02 
1737	-9.21607960711662E-03 
1738	-1.94139729383523E-02 
1739	-0.021256801191357 
1740	 2.68384560342699E-02 
1741	 0.026697544178927 
1742	-2.61816851632834E-02 
1743	-1.05779109646142E-02 
1744	 6.99198366786151E-03 
1745	-3.47391554721487E-02 
1746	-3.55241475451157E-02 
1747	-4.46260031465113E-02 
1748	-8.93635878531478E-02 
1749	-9.42129188329593E-02 
1750	-6.65897006223792E-02 
1751	-6.11817469195719E-02 
1752	-0.064619385937831 
1753	-5.74784632754884E-02 
1754	-3.23872256997505E-02 
1755	-2.83356333527381E-02 
1756	-3.88427578038649E-02 
1757	 2.03200142717625E-03 
1758	 8.94591562950369E-03 
1759	 8.50734158051005E-04 
1760	-1.63665677586101E-02 
1761	-6.70281713245837E-02 
1762	-0.108812676259439 
1763	-0.103962612362457 
1764	-8.78343361463501E-02 
1765	-0.06809195993404 
1766	-5.90248628894178E-02 
1767	-8.08252070704097E-02 
1768	-2.63653406689769E-02 
1769	 3.31737239175028E-02 
1770	 2.54950103988495E-02 
1771	 3.69128561646882E-02 
1772	 1.08756025816895E-02 
1773	-7.62840757796734E-02 
1774	-9.80520739896477E-02 
1775	-6.62324139272542E-02 
1776	-0.075921059631674 
1777	-0.150665381025213 
1778	-0.141472081314802 
1779	 2.98637873973399E-02 
1780	 4.72650744758113E-02 
1781	-1.35103828171218E-02 
1782	-8.0526827146443E-03 
1783	-0.196291334641408 
1784	-0.207616389355808 
1785	 0.118550506578983 
1786	 0.178339415489282 
1787	 0.165003058297766 
1788	 0.071949247078086 
1789	-0.264016374104289 
1790	-0.326400598769132 
1791	-0.291076663358842 
1792	-0.461881920187012 
1793	-0.408674845536872 
1794	 0.255341816059448 
1795	 0.548035583244957 
1796	 1.17766869432496 
1797	 1.10967137288446 
1798	-0.137374716236773 
1799	-5.31877938765484 
1800	-0.456601065089196 
1801	-0.236882877061533 
1802	-4.90215940254332E-02 
1803	 1.32235478279525E-02 
1804	 0.476216416982776 
1805	 1.86741901616995 
1806	 13.3847781230794 
1807	 148.570833111303 
1808	 5.89057649851722E-02 
1809	 0.221988029932915 
1810	-1.18682755596463 
1811	-0.668801032861908 
1812	-0.348580529112482 
1813	-0.528297423925657 
1814	-0.887055216502996 
1815	-0.344955197758372 
1816	 0.882808669624001 
1817	 1.3879691637358 
1818	 1.75359383408029 
1819	 1.10099485510397 
1820	 6.42121338333265 
1821	-0.388878602553859 
1822	-0.147237169692191 
1823	 0.948486548518045 
1824	 1.41964877865636 
1825	 2.57857475550314E-02 
1826	 0.279769519415675 
1827	 0.587919732087735 
1828	 1.05694132082966 
1829	-9.22187496665938E-02 
1830	-3.88699948334444E-04 
1831	-2.07917237843733 
1832	-6.02392594153641 
1833	 3.98649883923303 
1834	 5.15892739534754 
1835	 13.9711135736024 
1836	 145.791842396305 
1837	-3.4446369877119 
1838	-2.92170661189483 
1839	-3.25487708987744 
1840	 40.0791155970265 
1841	 2.13806126057888 
1842	 1.19847487560747 
1843	 0.984796240936595 
1844	 4.64623072414908 
1845	 7.49620531753814 
1846	 2.66727163902114 
1847	 2.72493414022249 
1848	 6.09696987385064 
1849	 11.5712720944258 
1850	 2.07305384257635 
1851	-12.6355439584543 
1852	 2.54463752161155 
1853	 0.927677135803356 
1854	 0.881555575997002 
1855	 0.84433395475042 
1856	 0.66599906055284 
1857	 0.673087583160774 
1858	 0.742191470725042 
1859	 0.782770965491446 
1860	 0.719831230246186 
1861	 0.890325631487514 
1862	 1.56426290639162 
1863	 0.8956649779271 
1864	 0.670636611831172 
1865	 0.622754459432791 
1866	 0.622428642798889 
1867	 0.402415950929791 
1868	-1.39009845395815 
1869	 3.15549312199435 
1870	 1.06696126971252 
1871	 0.800462554232313 
1872	-0.272059687758467 
1873	-1.40638613649247 
1874	 2.34407406196382 
1875	 2.03365938183178 
1876	 1.57415139922838 
1877	 0.853309503949374 
1878	 1.04913733549355 
1879	 1.70580430403039 
1880	 1.88407523836032 
1881	 2.71002408428566 
1882	 4.19660989834244 
1883	 5.50297621167155 
1884	-2.50713434138986 
1885	-1.77940705603195 
1886	-1.54554427073074 
1887	 1.71336012617002 
1888	 0.95137203478382 
1889	 0.794243679775642 
1890	 0.673554488626426 
1891	 0.697778063875173 
1892	 0.81643738107444 
1893	 1.41213920266631 
1894	 3.21406833809665 
1895	-2.60599999882524 
1896	-0.772464356091113 
1897	-0.52986687434181 
1898	-0.636196025289729 
1899	-0.659868592876483 
1900	-0.528511250653125 
1901	-0.49168822465085 
1902	-0.585586192445768 
1903	-0.398637296492799 
1904	-7.20231946330854E-02 
1905	-0.242275775071459 
1906	-5.38814251768601E-02 
1907	-0.432928817109436 
1908	-0.237517953059142 
1909	 0.237464364653298 
1910	 1.27274611374224 
1911	 3.99088929915772 
1912	-5.19516020052152 
1913	-2.24161430599043 
1914	-1.45604585486131 
1915	-1.28789080009756 
1916	-1.1554250429659 
1917	-1.42003238841327 
1918	-4.2531945257087 
1919	-18.5766805750063 
1920	 9.94767389050689 
1921	-6.46103268871297 
1922	-1.47043534329192 
1923	-1.72601417018129 
1924	-0.865433537098273 
1925	-0.179287100019227 
1926	-0.102769027102306 
1927	-0.33816406298124 
1928	-0.49129011647761 
1929	-1.69586728408027 
1930	-12.726181974398 
1931	-2.55589154133371 
1932	-1.36489553886316 
1933	-1.89074025751171 
1934	-1.88093339606263 
1935	 6.54596413731664 
1936	 1.74537359713623 
1937	 0.623263099704484 
1938	 2.90811835770284E-02 
1939	-0.229542879619744 
1940	-8.30741593185482E-02 
1941	-0.571240165002947 
1942	-0.460154844393064 
1943	-0.382598030378156 
1944	-0.321431061346054 
1945	 0.576138221911988 
1946	 0.867072453495235 
1947	 1.05168707319084 
1948	 1.42540475020068 
1949	 0.958744774514593 
1950	 1.42651505522315 
1951	-2.53377097658693 
1952	-0.988795530211004 
1953	-0.208171924851397 
1954	-9.20346447529609E-03 
1955	-7.54651429527618E-03 
1956	 0.723450908157667 
1957	 1.17720327854083 
1958	 1.68744067375754 
1959	-4.25022094072866 
1960	-1.5584273346484 
1961	 0.156557739367556 
1962	 0.647664671056946 
1963	 1.55584600818134 
1964	 4.1969542936689 
1965	 2.34948553294407 
1966	 2.18977574716317 
1967	-0.872509251561541 
1968	 0.885379802077279 
1969	-0.968741585501978 
1970	-6.44517962259941 
1971	 8.18083478991938 
1972	 4.04349114811343 
1973	 1.67379546797801 
1974	 1.04274769340555 
1975	 3.28634534008867 
1976	 0.792322746961442 
1977	 1.20388594107665 
1978	 1.33996453922879 
1979	 1.09845935839096 
1980	 1.03408705424205 
1981	 9.77976515152424 
1982	 2.09697236891189 
1983	 1.5520953842791 
1984	 1.52360252955842 
1985	 0.989240781780795 
1986	 1.26148026204624 
1987	 0.698872016794463 
1988	 0.744438604775522 
1989	 0.828990423476113 
1990	 1.93381345955321E-02 
1991	-0.172795707733772 
1992	 0.106439417324002 
1993	 4.21670267847039E-02 
1994	 8.14861703039654E-02 
1995	 0.687644648709743 
1996	 2.39498415238841 
1997	-45.0751725430535 
1998	-0.795727429799962 
1999	-0.735364420953978 
2000	-0.381570073488107 
2001	-0.126178982223614 
2002	-0.214466375071733 
2003	-1.1011530123825 
2004	-1.62530673241026 
2005	-14.4797783172254 
2006	 58.8869641913007 
2007	 4.55161977992652 
2008	 46.5851915503809 
2009	-18.4818264921947 
2010	-4.17269727509794 
2011	-3.58083036942185 
2012	-0.794506713918867 
2013	-1.27345425230265 
2014	-0.706804214323446 
2015	-0.447361596359048 
2016	 1.64999776839791E-02 
2017	 0.455143617560945 
2018	 1.18910195850202 
2019	 2.56363486873799 
2020	 11.4232642151713 
2021	-8.16927879306457 
2022	 16.6411089242311 
2023	 1.94762701038505 
2024	 1.37125218955787 
2025	 1.17828280441796 
2026	 1.26721390055749 
2027	 3.25515573714102 
2028	-0.974273827425018 
2029	-0.322718244526052 
2030	 0.243792045843612 
2031	 89.4879056647026 
2032	-0.565989401594863 
2033	-0.403758580611238 
2034	-0.498335672438273 
2035	 0.345384337138954 
2036	 3.42825050375898 
2037	 4.66473129483749 
2038	 5.13242440429624 
2039	 4.89973985531921 
2040	 3.61644206242578 
2041	 2.42082327058413 
2042	 1.11581625982108 
2043	 0.625201094264856 
2044	 0.276628256970667 
2045	 0.365519804946323 
2046	 0.839239284145385 
2047	 1.36016455844243 
2048	 2.15444965632969 
2049	-2.11865041568096 
2050	-3.05426639056619 
2051	 23.6063574792975 
2052	 6.06024605993451 
2053	 1.90727945367662 
2054	 1.11843995558957 
2055	 1.09462724828126 
2056	 1.09411982983959 
2057	 3.13605351129929 
2058	 2.6958808158317 
2059	 0.760656023994264 
2060	 0.798041136365489 
2061	 0.684858314966029 
2062	 1.27205703867994 
2063	 4.10066605139655 
2064	 3.40794724666974 
2065	 1.82922758535844 
2066	 0.674844178248045 
2067	 0.218884254582418 
2068	-9.91563012229143E-03 
2069	-0.316279282573601 
2070	-0.530614080101358 
2071	-0.605409462609177 
2072	-0.405071459271192 
2073	-0.234809410672348 
2074	 1.21150382499938 
2075	 1.87046750512793 
2076	 1.23672506450171 
2077	 0.817790057639364 
2078	-5.25505459649883E-03 
2079	-0.136850461726958 
2080	-0.480438977337684 
2081	-0.499684004584194 
2082	 1.74137279423026 
2083	 27.1099201113212 
2084	 1.09268472958371 
2085	 0.582808238141257 
2086	 0.294750355730228 
2087	 0.105020309805124 
2088	 9.61182079289859E-05 
2089	 1.13987131550234 
2090	 0.503231910355804 
2091	 0.645911556689239 
2092	 1.32384398119209 
2093	-4.50413885407252 
2094	-1.89881808148076 
2095	-1.38561847089858 
2096	-1.2891145507903 
2097	-1.03008617250653 
2098	-0.951415137185292 
2099	-0.711387151437094 
2100	-2.6688240234469 
2101	-1.86318978373488 
2102	-0.103566552922506 
2103	 0.476716991378444 
2104	 0.344487753061855 
2105	 0.328386501219696 
2106	 0.227232287349251 
2107	 6.89203155484952E-02 
2108	 3.72236372283456E-02 
2109	-0.158803007596395 
2110	-0.424170587269584 
2111	-4.51465268794397E-02 
2112	 0.444339544784609 
2113	 0.46030671179522 
2114	 0.244466063331726 
2115	 0.364559959095273 
2116	 0.330556197891643 
2117	 0.318601742230879 
2118	 0.491790333638994 
2119	 0.544132626280942 
2120	 0.507100020966887 
2121	 0.388945947479884 
2122	 0.238767879513631 
2123	 2.19664721376406E-02 
2124	-0.052014707872612 
2125	-0.14525849776505 
2126	-0.230052241697524 
2127	 7.52160773381306E-02 
2128	 0.116384122655231 
2129	 6.69099153854465E-02 
2130	 4.70687840431558E-02 
2131	-8.04465662787156E-02 
2132	-0.138703454615781 
2133	-0.047917135086455 
2134	 0.013571276581663 
2135	 0.235602644413755 
2136	 0.226407319238409 
2137	 1.72637784252166E-02 
2138	-7.22072409824285E-03 
2139	-4.58074967485387E-02 
2140	-7.28123959004625E-03 
2141	 0.294358879111365 
2142	 0.400162902500709 
2143	 0.382109506250327 
2144	 0.443021177839339 
2145	 0.476400204327178 
2146	 0.402119896347626 
2147	 0.448407651568682 
2148	 0.502890709879761 
2149	 0.386106106444943 
2150	 0.332951999432465 
2151	 0.229105741463091 
2152	 0.14762911208985 
2153	 0.185111766263529 
2154	 0.117154391568735 
2155	 0.215051323587772 
2156	 0.297102299728899 
2157	 0.319048931272489 
2158	 0.350339737916367 
2159	 0.407120487748865 
2160	 0.380131309020084 
2161	 0.406456932229484 
2162	 0.466968235113108 
2163	 0.473504892077585 
2164	 0.510638122386347 
2165	 0.491750751815671 
2166	 0.411388650180054 
2167	 0.395985686473476 
2168	 0.352082352141068 
2169	 0.306871391970515 
2170	 0.263829460065557 
2171	 0.308399315314074 
2172	 0.260604163266242 
2173	 0.182474327322152 
2174	 5.51849811564189E-02 
2175	-6.44093036135196E-02 
2176	-0.187272154983473 
2177	-0.159311590382573 
2178	 7.2413896416151E-03 
2179	 7.31849561557575E-02 
2180	 0.126239748144788 
2181	 0.234013282283148 
2182	 0.187946860962546 
2183	 0.257400301386453 
2184	 0.314062224332875 
2185	 0.322863967284216 
2186	 0.313433959266639 
2187	 0.176529809015012 
2188	 0.138447093350788 
2189	 0.174006964836003 
2190	 0.161398410121398 
2191	 0.155288685043111 
2192	 0.202017389370875 
2193	 0.270822291607349 
2194	 0.269012901246541 
2195	 0.269902332936564 
2196	 0.279176150368986 
2197	 0.165884224505529 
2198	 0.131543418473846 
2199	 0.175859142354147 
2200	 0.325574573588321 
2201	 0.426477233768882 
2202	 0.590047005381354 
2203	 0.746908184658995 
2204	 0.708888145963266 
2205	 0.27441444072383 
2206	-0.074301507808335 
2207	-0.120362469556393 
2208	-9.25918698087358E-02 
2209	-8.05320172083004E-03 
2210	 6.88689583451966E-02 
2211	 8.05034004668152E-02 
2212	 3.61865654553004E-02 
2213	-0.126890018918261 
2214	-0.165461124449804 
2215	-9.83040866296944E-02 
2216	-0.125476247002222 
2217	-0.121127276172545 
2218	-8.71243968876903E-02 
2219	-0.047281902112328 
2220	-4.84068858286302E-03 
2221	-8.82105592470933E-03 
2222	-3.45820775944993E-02 
2223	 5.4586390755708E-03 
2224	 5.95949268161945E-02 
2225	 0.104440817958673 
2226	 0.234930619385778 
2227	 0.307478494472208 
2228	 0.295875828346653 
2229	 0.324153564769869 
2230	 0.406823894287326 
2231	 0.405981168211882 
2232	 0.354880388784311 
2233	 0.276247243446851 
2234	 9.37090775909597E-02 
2235	 4.49216452728137E-04 
2236	-8.70782004089164E-02 
2237	-0.167597116644557 
2238	-0.298914157052682 
2239	-0.400342944155071 
2240	-0.298491497456982 
2241	-0.226432398617367 
2242	-0.156810979338268 
2243	-7.82409006629041E-02 
2244	-4.07992569010956E-02 
2245	-0.028509323547971 
2246	-1.71705496552384E-02 
2247	 4.87654019219664E-02 
2248	 0.193309531064365 
2249	 0.239733519261261 
2250	 0.232296334967928 
2251	 0.331038821384279 
2252	 0.220234937163518 
2253	 0.145565366794264 
2254	 0.301090054738252 
2255	 0.288067275419749 
2256	 0.242101530144359 
2257	 0.280495800382795 
2258	 0.246959543863636 
2259	 0.325416939368139 
2260	 0.31213588147632 
2261	 0.240501693670098 
2262	 0.175021799860388 
2263	 5.79520169666733E-02 
2264	 2.25403773705846E-02 
2265	 8.93188895251134E-02 
2266	 7.37114349970726E-02 
2267	 3.96463254112626E-02 
2268	-0.203209728345628 
2269	-0.687560992750598 
2270	-0.683947060314608 
2271	-0.506750280385822 
2272	-0.354909613593153 
2273	 8.40495777890229E-02 
2274	 0.232174564266637 
2275	 0.497055056802779 
2276	 0.517577277845343 
2277	-6.84530269087567E-02 
2278	-0.240137179630004 
2279	-0.261699373570878 
2280	-0.316073285938563 
2281	-0.280911722828016 
2282	-0.212528776714633 
2283	-0.303751485250437 
2284	-0.475998109928598 
2285	-1.08189398980539 
2286	-1.78646871910221 
2287	 9.87095957376067E-02 
2288	 212.000294624407 
2289	 1.10655872821375 
2290	 1.37644859099746 
2291	 1.11507885042623 
2292	 1.17274688295209 
2293	 1.52913362253606 
2294	 4.55424305601566 
2295	 1.78055216756848 
2296	-0.949635997389961 
2297	-0.437643941818988 
2298	-0.238345851629265 
2299	-0.349266590864842 
2300	-0.350385067559434 
2301	-0.745809677945546 
2302	-1.19192239205729 
2303	-1.35906475356553 
2304	-1.07994339657049 
2305	-4.77164826122309E-02 
2306	 0.188854396103742 
2307	 0.115439077367247 
2308	 0.247189863118315 
2309	 6.62868521382693E-02 
2310	 6.41735083602796E-02 
2311	 0.425712209848523 
2312	 0.255034138438031 
2313	 0.180496039490368 
2314	 0.265701075596849 
2315	 0.155996769492734 
2316	 4.68013684997311E-03 
2317	-3.87837668510164E-02 
2318	-0.509206310961048 
2319	-1.07225059669937 
2320	-1.38979767942738 
2321	-1.34498407793564 
2322	-0.219208051345545 
2323	 1.44107825728472 
2324	 1.11447982085016 
2325	 0.806419915140062 
2326	 0.281739169421636 
2327	-1.2849802116607 
2328	-2.26520646987962 
2329	-1.3326109020392 
2330	-0.981646563945519 
2331	-0.306451906795952 
2332	 0.363791015126234 
2333	 0.745712110053141 
2334	 1.08137434846977 
2335	 0.319819860692613 
2336	 0.320842175463821 
2337	 0.971002460658423 
2338	 1.45639169525896 
2339	 1.91749541501362 
2340	 1.50224636555515 
2341	 0.685026065829818 
2342	 0.733323146860601 
2343	 1.79109335856418 
2344	 3.53955003159319 
2345	 21.7282293905237 
2346	-4.02410393665538 
2347	-3.32521620299942 
2348	-6.37935675912445 
2349	-10.0132609493685 
2350	 8.62215149870689 
2351	 6.29336807687505 
2352	-4.70826471623388 
2353	-1.82147731222372 
2354	-1.10482789513736 
2355	-0.458384144764352 
2356	-0.42796076848168 
2357	 11.3762452195361 
2358	 1.27571403133432 
2359	 1.92580128766803 
2360	 0.96333569291592 
2361	-7.57387328226174 
2362	-0.803979678152853 
2363	-0.043945679016122 
2364	 0.18370528608193 
2365	 1.03190665156923 
2366	 1.90812814365896 
2367	-125.902865778565 
2368	-4.14269192424274 
2369	-2.69681721491753 
2370	-1.42766364146554 
2371	-1.13577889172011 
2372	-1.35907523120774 
2373	-2.13715868172867 
2374	-0.986955307699114 
2375	-0.282468832362654 
2376	-0.242187498914721 
2377	 0.160232791193701 
2378	-0.264543256350891 
2379	-7.54779976065147E-02 
2380	-0.411886525080787 
2381	-0.87160835692225 
2382	-1.35466243369082 
2383	-0.531468673565968 
2384	 0.221087517386174 
2385	 0.666198529648627 
2386	 3.69262921959955 
2387	 2.094101800248 
2388	 1.09735325971481 
2389	 1.42142664981238 
2390	 0.545231069128713 
2391	 0.323763587262776 
2392	 0.979154916505329 
2393	-0.190000177678753 
2394	 1.37952889954859 
2395	 0.663320961923703 
2396	-2.54061581581438 
2397	-1.18876362356783 
2398	-0.401323349857586 
2399	-0.712432840813871 
2400	-2.89705587791638 
2401	-0.480708922556732 
2402	-1.31769366772956 
2403	 1.73609527384208 
2404	 3.08211511787389 
2405	 1.81731006388792 
2406	-2.87423943915865E-02 
2407	 0.858676882072996 
2408	-2.76659852419973 
2409	 0.952222803504749 
2410	 0.97234914953755 
2411	 1.63497933386311 
2412	 0.461313016438068 
2413	 0.353268303224198 
2414	 0.362031826559245 
2415	 7.51920133975627E-02 
2416	 0.423992528779129 
2417	 0.846925543686669 
2418	 1.02873617275678 
2419	 3.73243518395462 
2420	 6.12905508740258 
2421	-1.45099299048686 
2422	-0.056193616418817 
2423	 0.509086268815499 
2424	 1.31956076705835 
2425	 1.42469560474772 
2426	 1.57006975581577 
2427	-0.666375162719665 
2428	-9.63917464246175E-02 
2429	 0.124614318305912 
2430	 0.184536651783705 
2431	 6.27445374425203E-03 
2432	-9.53253941696828E-02 
2433	-9.60302624569773E-02 
2434	 0.266671988745935 
2435	 0.602931956188986 
2436	-65.6305653220684 
2437	-1.28572226175587 
2438	-0.429853731375869 
2439	-0.456032209674303 
2440	-1.27574984324074 
2441	-3.19635106089999 
2442	 15.3169753546608 
2443	 1.81471908032086 
2444	-6.0879952046218 
2445	-1.61753671603286 
2446	-0.688085191671846 
2447	-0.956323793606399 
2448	-1.06350608725858 
2449	-2.61101866640651 
2450	-2.93415143984122 
2451	-1.24357569376521 
2452	 10.0950934784296 
2453	 2.67769090427093 
2454	 3.04481649489372 
2455	 4.00896278215516 
2456	 23.4769074477428 
2457	-2.18107831199351 
2458	-2.26179777116107 
2459	-2.63958755946701 
2460	-2.49277245948554 
2461	-4.94682650739658 
2462	-66.0272982489648 
2463	-17.4424517026962 
2464	-9.13558072721662 
2465	 174.037776257199 
2466	 10.2900376588928 
2467	 5.70088746758677 
2468	 0.913440502185684 
2469	 0.337619963228797 
2470	 0.353493024453576 
2471	 0.513094273372868 
2472	 3.28136816595073 
2473	-2.68857575122385 
2474	-1.69419718351918 
2475	-2.72242109607634 
2476	-1.79741603762323 
2477	-0.596108545688374 
2478	-0.442542153761898 
2479	-0.577340483740084 
2480	-0.580812380431086 
2481	-2.50125522099159 
2482	-2.12857170865364 
2483	-1.62888122390938 
2484	-1.32347789580811 
2485	-0.616111608151867 
2486	-0.49821863430057 
2487	-0.266533292603547 
2488	 0.136755151108066 
2489	 2.55909271776366 
2490	 0.544110968699856 
2491	 0.515623545301911 
2492	 1.56384907650571 
2493	 1.77822492219687 
2494	 2.77167246032342 
2495	 50.3793756272994 
2496	 4.93547313123348 
2497	 1.6937180955958 
2498	 4.13905066395959E-02 
2499	-0.911883672610213 
2500	-4.63788825806761 
