Wavelength	rt0712west_close00003.asd
350	 8.08138675921916E-02 
351	 8.17095724898392E-02 
352	 8.22791438008314E-02 
353	 0.081820090846115 
354	 8.06780747352326E-02 
355	 8.11174850956815E-02 
356	 8.23245626409307E-02 
357	 8.24338362285128E-02 
358	 8.05485603720373E-02 
359	 8.11946332073325E-02 
360	 8.14243112551174E-02 
361	 8.15403785345845E-02 
362	 8.36481457751967E-02 
363	 8.24635574765563E-02 
364	 0.081574654512434 
365	 8.25841504891842E-02 
366	 8.24390801826002E-02 
367	 8.25922606818355E-02 
368	 8.27600863630521E-02 
369	 0.082592609340476 
370	 8.31478234781942E-02 
371	 0.082538962476463 
372	 8.18314566548191E-02 
373	 8.33443037627821E-02 
374	 8.38610856180161E-02 
375	 0.083528830779487 
376	 8.30981823884838E-02 
377	 8.35733087831526E-02 
378	 8.48305582008235E-02 
379	 8.52677164883056E-02 
380	 8.40686196160946E-02 
381	 8.37638760090564E-02 
382	 8.40585657409125E-02 
383	 0.085006045420656 
384	 8.64271772280374E-02 
385	 8.59797140855331E-02 
386	 8.54614333278586E-02 
387	 8.57302358540254E-02 
388	 8.61526931488902E-02 
389	 8.58066155062111E-02 
390	 8.60960710414941E-02 
391	 8.75541387425071E-02 
392	 8.75257985977796E-02 
393	 8.77437129178425E-02 
394	 8.78230733730315E-02 
395	 8.71034861191286E-02 
396	 8.77787728926356E-02 
397	 8.81049549299562E-02 
398	 8.80296556670078E-02 
399	 8.90101038056552E-02 
400	 8.89812272121404E-02 
401	 8.88602911471363E-02 
402	 8.92748455697117E-02 
403	 8.91516736545732E-02 
404	 8.90409659654876E-02 
405	 0.089143469732165 
406	 8.95016918597203E-02 
407	 9.00942188525152E-02 
408	 9.01232000280133E-02 
409	 8.97996735188547E-02 
410	 9.02704234864163E-02 
411	 0.09024542630018 
412	 9.04489537696428E-02 
413	 9.13266143536481E-02 
414	 9.18928462082271E-02 
415	 9.17555073993808E-02 
416	 9.14706729998703E-02 
417	 9.18365996164237E-02 
418	 9.23433232349268E-02 
419	 9.25419979847644E-02 
420	 9.26059279449844E-02 
421	 9.33237483373603E-02 
422	 9.35760600119005E-02 
423	 9.37934346166535E-02 
424	 9.43730197618691E-02 
425	 9.46725468807412E-02 
426	 9.51771475120942E-02 
427	 9.57638995133341E-02 
428	 9.60592906201162E-02 
429	 9.61079945155338E-02 
430	 9.66164598175887E-02 
431	 9.74062571773733E-02 
432	 9.72359222849881E-02 
433	 9.77608484460708E-02 
434	 9.85505629560822E-02 
435	 9.89461757773609E-02 
436	 0.098994560136974 
437	 9.94309695229019E-02 
438	 0.100160766068371 
439	 0.100631945116449 
440	 0.100808482764775 
441	 0.101216605199525 
442	 0.101956539158586 
443	 0.102426753967847 
444	 0.102619763870572 
445	 0.102859291914194 
446	 0.103402324298053 
447	 0.103869959720495 
448	 0.104063892725481 
449	 0.104174878094001 
450	 0.104635762830674 
451	 0.105121199764542 
452	 0.105431118403149 
453	 0.105552903310197 
454	 0.105791874013086 
455	 0.106210219071872 
456	 0.106538873018104 
457	 0.106533501691016 
458	 0.106826933281009 
459	 0.10701692842107 
460	 0.107034520528167 
461	 0.10718893230474 
462	 0.107378531597201 
463	 0.107530146718122 
464	 0.107656059493671 
465	 0.108008888734211 
466	 0.108305538394599 
467	 0.108503893668406 
468	 0.108705106402012 
469	 0.109108372079374 
470	 0.109180339642766 
471	 0.108968574870653 
472	 0.109373464463841 
473	 0.109410028249532 
474	 0.109666687476675 
475	 0.110579723890706 
476	 0.11055052350254 
477	 0.110576467543241 
478	 0.110925820735476 
479	 0.111320041926344 
480	 0.111545117169199 
481	 0.111740720586178 
482	 0.112037098043108 
483	 0.112439443189864 
484	 0.112879424498143 
485	 0.113154469779512 
486	 0.113203966036966 
487	 0.113909115663341 
488	 0.114694718506536 
489	 0.115174225454163 
490	 0.115265649223138 
491	 0.115638866870662 
492	 0.116205494399242 
493	 0.116790317969106 
494	 0.117485562024633 
495	 0.117917483931021 
496	 0.118191021089646 
497	 0.118643675272169 
498	 0.119225496312092 
499	 0.119789144905997 
500	 0.120241673374175 
501	 0.120588304435154 
502	 0.121164593457651 
503	 0.121687161654809 
504	 0.1219272628366 
505	 0.122654434782732 
506	 0.123566367838366 
507	 0.124278416017733 
508	 0.12446682487631 
509	 0.125225486171467 
510	 0.126065097046225 
511	 0.126601633543015 
512	 0.12726759762876 
513	 0.128231045000777 
514	 0.129132894033436 
515	 0.129529393182593 
516	 0.13034922016276 
517	 0.131166522112285 
518	 0.13180560150475 
519	 0.132549780508623 
520	 0.133156764776369 
521	 0.133832692295626 
522	 0.13476055798104 
523	 0.135708841882993 
524	 0.136503162656708 
525	 0.137201491449043 
526	 0.138030879686624 
527	 0.139018367452325 
528	 0.139970345540031 
529	 0.140789336859807 
530	 0.141625809947541 
531	 0.142405605926135 
532	 0.143267255091845 
533	 0.144364004936575 
534	 0.145535330044471 
535	 0.146352801334487 
536	 0.146980791749135 
537	 0.148240850877026 
538	 0.149142999365069 
539	 0.149830513506207 
540	 0.15064918588059 
541	 0.151639051826681 
542	 0.152597201752723 
543	 0.153573734530376 
544	 0.154740743420359 
545	 0.155631578543812 
546	 0.156717315498828 
547	 0.158106372587173 
548	 0.158992699209197 
549	 0.159948708776285 
550	 0.161083856605296 
551	 0.162291775183842 
552	 0.163220189914304 
553	 0.163992956573766 
554	 0.164786357005936 
555	 0.165787455453991 
556	 0.166805799838281 
557	 0.167867719533242 
558	 0.168947658989296 
559	 0.169723834435402 
560	 0.170425692067669 
561	 0.171233955912642 
562	 0.172236250315978 
563	 0.172860625336036 
564	 0.173464839543622 
565	 0.174202761544705 
566	 0.174548849362273 
567	 0.175101945079755 
568	 0.175756373179167 
569	 0.176212857583024 
570	 0.176767772028168 
571	 0.17745466578955 
572	 0.178118335613278 
573	 0.178428461318819 
574	 0.178948312780318 
575	 0.179655562114505 
576	 0.180369718695408 
577	 0.180896556485964 
578	 0.181481732403268 
579	 0.182043357051581 
580	 0.182328576854475 
581	 0.182460323323445 
582	 0.182687546019517 
583	 0.182965673951852 
584	 0.182678473639762 
585	 0.182292262224093 
586	 0.181636361901564 
587	 0.180408402511028 
588	 0.179222778054839 
589	 0.178547640094751 
590	 0.178493558165929 
591	 0.178676943510516 
592	 0.179095891376591 
593	 0.179255051458618 
594	 0.17886075227011 
595	 0.178399080186016 
596	 0.17825619796852 
597	 0.178288453026679 
598	 0.178112491051364 
599	 0.178076459873022 
600	 0.177975678004788 
601	 0.177725668464985 
602	 0.177523686404632 
603	 0.177318147426492 
604	 0.177250963021328 
605	 0.177418557105403 
606	 0.177415484352015 
607	 0.177372250634387 
608	 0.177333851373792 
609	 0.177242785882907 
610	 0.177422287103484 
611	 0.177562578878824 
612	 0.177446893935365 
613	 0.177526405446365 
614	 0.177728558721865 
615	 0.17775971755591 
616	 0.177336889532648 
617	 0.1775247377977 
618	 0.177655621543539 
619	 0.177480003494681 
620	 0.177758802187583 
621	 0.177500074740684 
622	 0.177138515646754 
623	 0.177308152437391 
624	 0.177202006886524 
625	 0.176724154437616 
626	 0.176110194290041 
627	 0.17591447715907 
628	 0.176085685738006 
629	 0.176173212220058 
630	 0.176037502627083 
631	 0.17659259419625 
632	 0.176701268767841 
633	 0.176466093653238 
634	 0.176531170102815 
635	 0.176760303698148 
636	 0.176872970204194 
637	 0.176813922786929 
638	 0.176862880576606 
639	 0.176965269739868 
640	 0.176940524685672 
641	 0.176657700457363 
642	 0.17632481492329 
643	 0.176164630614618 
644	 0.175746873906439 
645	 0.174161313278756 
646	 0.173356870689755 
647	 0.17348717300027 
648	 0.174011818142452 
649	 0.174002773247897 
650	 0.174019001462366 
651	 0.174090848463484 
652	 0.174048669043673 
653	 0.173694905115564 
654	 0.173192629455453 
655	 0.172609136395752 
656	 0.17194373414324 
657	 0.171653138238413 
658	 0.171679458383955 
659	 0.171779218043924 
660	 0.171443645366738 
661	 0.171209444025774 
662	 0.171052176185518 
663	 0.170676543356106 
664	 0.170665248665195 
665	 0.170747439979374 
666	 0.170603925289639 
667	 0.169967970345263 
668	 0.16997898797505 
669	 0.170411159564637 
670	 0.17057271988111 
671	 0.170012865845494 
672	 0.169702844411568 
673	 0.169867207139344 
674	 0.169977200258078 
675	 0.170250769044692 
676	 0.170456792317622 
677	 0.170445379579406 
678	 0.170458255195943 
679	 0.170342588813584 
680	 0.170163131868062 
681	 0.170094461424058 
682	 0.170367275658025 
683	 0.170371770376737 
684	 0.169940122704293 
685	 0.169535194409069 
686	 0.168902913243818 
687	 0.168207375473088 
688	 0.167863413394872 
689	 0.168391507464378 
690	 0.167888172004798 
691	 0.166535605143959 
692	 0.165792053281544 
693	 0.165101169552133 
694	 0.165104314162069 
695	 0.165717542195149 
696	 0.165947699439423 
697	 0.164867317792526 
698	 0.163074362693498 
699	 0.161852463410291 
700	 0.161386203329515 
701	 0.161031375979192 
702	 0.160461651180573 
703	 0.15965787299288 
704	 0.158616090696585 
705	 0.157279411529921 
706	 0.155845317070802 
707	 0.154864677804433 
708	 0.153741803441755 
709	 0.152466035327251 
710	 0.151241290102501 
711	 0.150026660396049 
712	 0.148250686390781 
713	 0.14579689120961 
714	 0.142984145748026 
715	 0.139448470289754 
716	 0.134674576695745 
717	 0.129509075980496 
718	 0.126702848625214 
719	 0.125241165335099 
720	 0.124672775116995 
721	 0.124439798740102 
722	 0.122393435931888 
723	 0.118770888095183 
724	 0.11501267112777 
725	 0.112685676259896 
726	 0.110339411812389 
727	 0.107953370556504 
728	 0.105612628263836 
729	 0.102858247398586 
730	 9.95233505115625E-02 
731	 9.68491333620298E-02 
732	 9.54391169320602E-02 
733	 9.42070176753342E-02 
734	 0.092503146910227 
735	 9.04522130597201E-02 
736	 8.92195499240883E-02 
737	 8.84236246957439E-02 
738	 8.77888313012542E-02 
739	 8.72642849373883E-02 
740	 8.73596812613882E-02 
741	 8.72544492751872E-02 
742	 8.71115995091464E-02 
743	 8.74283330528953E-02 
744	 8.73509060372274E-02 
745	 8.70946720226548E-02 
746	 8.68965856489688E-02 
747	 8.68782668778332E-02 
748	 8.69576372869067E-02 
749	 8.68946941429962E-02 
750	 8.66339446100891E-02 
751	 8.68587650369634E-02 
752	 8.69292591964767E-02 
753	 8.67160020455544E-02 
754	 8.64243198427997E-02 
755	 8.63907055615604E-02 
756	 8.63437319127455E-02 
757	 8.61892403135065E-02 
758	 8.61940604655897E-02 
759	 8.50865226025335E-02 
760	 8.23962682509395E-02 
761	 8.15066616299324E-02 
762	 8.18662838094438E-02 
763	 8.26929860665195E-02 
764	 8.38249673115979E-02 
765	 8.51980049310234E-02 
766	 8.60798415329392E-02 
767	 8.64545535654468E-02 
768	 8.66798040546437E-02 
769	 8.73890041745959E-02 
770	 0.087929388815446 
771	 0.088112111392855 
772	 8.80416403128494E-02 
773	 8.83201011760639E-02 
774	 8.87632600297462E-02 
775	 8.92531544001649E-02 
776	 8.96651404527107E-02 
777	 8.97078425392886E-02 
778	 8.99581944780181E-02 
779	 9.05175408114851E-02 
780	 9.09462267791095E-02 
781	 9.11746577876148E-02 
782	 9.14957162549399E-02 
783	 9.19872028912313E-02 
784	 9.19978068119685E-02 
785	 9.26803875714195E-02 
786	 9.33371090521788E-02 
787	 9.29175854309214E-02 
788	 9.29131446763335E-02 
789	 9.35515277934637E-02 
790	 9.46618022140186E-02 
791	 9.57616985017031E-02 
792	 9.63696902678221E-02 
793	 9.67373482772973E-02 
794	 9.69164470840927E-02 
795	 9.63562266884429E-02 
796	 9.69603931320165E-02 
797	 9.80327696060592E-02 
798	 0.098504685693823 
799	 9.88524492232531E-02 
800	 0.098915933984678 
801	 9.90220626053874E-02 
802	 9.96991674238024E-02 
803	 0.100725516684468 
804	 0.101295530459433 
805	 0.101373432165294 
806	 0.101642404022585 
807	 0.10101148573955 
808	 0.100009373083125 
809	 9.92617041899595E-02 
810	 9.86059398546573E-02 
811	 9.82488945550565E-02 
812	 9.76155920941394E-02 
813	 9.58840332821641E-02 
814	 9.41559502500763E-02 
815	 9.35196844109134E-02 
816	 9.34295974031453E-02 
817	 9.22319672068186E-02 
818	 9.19977894312492E-02 
819	 9.19855473761545E-02 
820	 9.16843430432746E-02 
821	 9.10416232882844E-02 
822	 8.82233846143604E-02 
823	 8.57811657054399E-02 
824	 8.53486557361984E-02 
825	 8.40724400044844E-02 
826	 8.15626837980205E-02 
827	 7.91632985098161E-02 
828	 7.85294910159714E-02 
829	 7.59211506328236E-02 
830	 7.39755960372744E-02 
831	 0.072700751514928 
832	 0.070552688227671 
833	 7.03491047026238E-02 
834	 7.00307023218071E-02 
835	 6.90152215575942E-02 
836	 0.068994756418666 
837	 6.82107610806554E-02 
838	 6.77569521288717E-02 
839	 0.06817018476475 
840	 0.067206217757143 
841	 6.68141499983718E-02 
842	 6.69962408491749E-02 
843	 6.69799258428865E-02 
844	 6.57686666655341E-02 
845	 6.54696361579187E-02 
846	 6.60509147377129E-02 
847	 6.60053722599568E-02 
848	 6.48616010043801E-02 
849	 6.42755862079575E-02 
850	 6.44646319693345E-02 
851	 0.063559640090022 
852	 6.33794068775437E-02 
853	 6.36261389029908E-02 
854	 6.35444699992665E-02 
855	 6.23854945449146E-02 
856	 6.24223816025079E-02 
857	 6.27892242998512E-02 
858	 6.24046741988192E-02 
859	 6.27349577739676E-02 
860	 0.062464660019949 
861	 6.15340479365067E-02 
862	 6.05849334019936E-02 
863	 6.00141672007272E-02 
864	 6.05352371489386E-02 
865	 6.12523485800799E-02 
866	 6.02174227390403E-02 
867	 6.04006751536288E-02 
868	 6.04192052305433E-02 
869	 0.059517243135632 
870	 5.85265073486961E-02 
871	 5.78762190536692E-02 
872	 5.78783989551753E-02 
873	 0.058285911966515 
874	 5.77820833830557E-02 
875	 5.75146255329192E-02 
876	 5.73376339309043E-02 
877	 5.67952568539481E-02 
878	 5.57999316008785E-02 
879	 5.53784023852171E-02 
880	 5.52678265547566E-02 
881	 5.47755966837869E-02 
882	 0.05492598447747 
883	 5.44372160477526E-02 
884	 0.053757934864865 
885	 5.43744814783682E-02 
886	 5.38862234294174E-02 
887	 5.33455051304497E-02 
888	 5.32808244109045E-02 
889	 5.31336685723302E-02 
890	 0.052519996409356 
891	 0.051247885682998 
892	 0.049800374795179 
893	 5.00724088187209E-02 
894	 5.11915471397947E-02 
895	 5.01937332348018E-02 
896	 4.60423134787879E-02 
897	 4.83154106006969E-02 
898	 0.050721723623627 
899	 5.03477732169964E-02 
900	 4.78114053690073E-02 
901	 4.80650341111497E-02 
902	 4.71139380158006E-02 
903	 4.59020899061638E-02 
904	 4.64772625354576E-02 
905	 4.74718174955494E-02 
906	 4.62863822722757E-02 
907	 4.35805263281056E-02 
908	 4.29344480463967E-02 
909	 4.42468194921755E-02 
910	 4.45300501400424E-02 
911	 4.30487090775043E-02 
912	 4.18999415577782E-02 
913	 4.51313879139039E-02 
914	 4.50064784393175E-02 
915	 4.18596915742366E-02 
916	 4.51738559241175E-02 
917	 4.13839842918258E-02 
918	 0.040961372266581 
919	 4.50510737023355E-02 
920	 4.14539891106169E-02 
921	 4.34547978346317E-02 
922	 4.51417696180311E-02 
923	 4.15748493110378E-02 
924	 3.78694154905566E-02 
925	 3.59254202818082E-02 
926	 4.05663751568329E-02 
927	 5.11647791758305E-02 
928	 3.89084375892598E-02 
929	 4.11955541383736E-02 
930	 5.69517396853417E-02 
931	 5.25944969339602E-02 
932	 5.34466140638963E-02 
933	 4.73396412144227E-02 
934	 2.81009190290208E-02 
935	 1.72087221470798E-02 
936	 8.73907581986292E-02 
937	 9.64116087786068E-02 
938	 4.93077924301515E-02 
939	 4.83334347182452E-03 
940	 0.054668546715746 
941	 9.30362393912297E-02 
942	 7.62361208617515E-02 
943	 1.13662009028441E-02 
944	 1.14373282481933E-02 
945	 5.34958833913315E-02 
946	 6.50710864900037E-02 
947	 4.96995048569482E-03 
948	 3.07706914533719E-02 
949	 5.73933737851444E-02 
950	 3.35007167463016E-02 
951	-2.24346327503209E-02 
952	 3.86639382363684E-02 
953	 7.94835771077108E-02 
954	 5.73769319433456E-02 
955	 1.75084345155635E-02 
956	 2.46831764093111E-02 
957	 2.72712242667133E-02 
958	 2.62825469618062E-02 
959	 5.01187926858972E-02 
960	 4.98000607495042E-02 
961	 4.21953411001147E-02 
962	 3.84555816022148E-02 
963	 4.05453314901829E-02 
964	 4.26265455640646E-02 
965	 3.31714456551746E-02 
966	 2.64144594373391E-02 
967	 4.27097086659495E-02 
968	 4.67658413736354E-02 
969	 4.26494703102703E-02 
970	 3.98878872459771E-02 
971	 4.60297410257618E-02 
972	 3.41634792335606E-02 
973	 0.032478548575617 
974	 4.22728846313799E-02 
975	 3.63922821362211E-02 
976	 4.05916656439114E-02 
977	 4.72433768397436E-02 
978	 4.52130039412377E-02 
979	 3.03426240022496E-02 
980	 4.00027884441727E-02 
981	 0.043431976889281 
982	 3.79438741622928E-02 
983	 4.19971161324786E-02 
984	 4.20179964509308E-02 
985	 3.86675033418536E-02 
986	 3.63248498831816E-02 
987	 4.01044293564163E-02 
988	 4.88009438927176E-02 
989	 4.27982464814344E-02 
990	 3.38441202942723E-02 
991	 4.81970182971159E-02 
992	 4.26053668800086E-02 
993	 4.12443401711919E-02 
994	 4.50830934132412E-02 
995	 3.98564375720179E-02 
996	 4.10999855500099E-02 
997	 4.15839185349275E-02 
998	 4.11729610488277E-02 
999	 4.30684596539787E-02 
1000	 0.037574532764354 
1001	 4.56639493693442E-02 
1002	 4.96501298392815E-02 
1003	 5.07286085776317E-02 
1004	 4.96422543173832E-02 
1005	 4.87442880381051E-02 
1006	 0.047173029790217 
1007	 4.53135056218375E-02 
1008	 4.53024328006597E-02 
1009	 4.35135476562395E-02 
1010	 4.44182980545484E-02 
1011	 4.61053010809339E-02 
1012	 4.52995558971799E-02 
1013	 4.55697786662385E-02 
1014	 4.58696962211027E-02 
1015	 4.53622749786442E-02 
1016	 4.64692428094277E-02 
1017	 5.05366103673551E-02 
1018	 5.09270718640839E-02 
1019	 5.13882727601088E-02 
1020	 5.00637837360359E-02 
1021	 0.045564932553487 
1022	 4.03552187600025E-02 
1023	 0.038573232718843 
1024	 3.80261452563207E-02 
1025	 0.037548724253058 
1026	 0.037225822529629 
1027	 3.88308984268805E-02 
1028	 4.11761752570554E-02 
1029	 4.25938838444735E-02 
1030	 4.70505477131595E-02 
1031	 4.79393064347424E-02 
1032	 4.52015078611097E-02 
1033	 0.044737924643196 
1034	 4.37027357566946E-02 
1035	 4.34855785303524E-02 
1036	 4.45806229938688E-02 
1037	 0.045317956266083 
1038	 4.55669298077078E-02 
1039	 4.77062697651885E-02 
1040	 4.88708671488217E-02 
1041	 4.74843786557404E-02 
1042	 4.52297907958696E-02 
1043	 3.98681549661816E-02 
1044	 3.84074094481285E-02 
1045	 3.74685735192167E-02 
1046	 3.66709537711312E-02 
1047	 3.78638141466756E-02 
1048	 3.87459723354698E-02 
1049	 3.94543943959779E-02 
1050	 3.96483715143267E-02 
1051	 4.05264390926263E-02 
1052	 4.09821954403689E-02 
1053	 4.02949495611418E-02 
1054	 3.98085186690956E-02 
1055	 4.06960076315075E-02 
1056	 4.00664683445493E-02 
1057	 3.85879662430436E-02 
1058	 3.47733543754316E-02 
1059	 0.03490138923466 
1060	 3.57280535144557E-02 
1061	 3.69204662278036E-02 
1062	 4.18216177159785E-02 
1063	 4.29659957311054E-02 
1064	 4.21317949535329E-02 
1065	 4.15412368017777E-02 
1066	 3.88901784512568E-02 
1067	 3.82967744183688E-02 
1068	 3.88619388251562E-02 
1069	 3.87778742141146E-02 
1070	 3.88757021858195E-02 
1071	 0.039557061247648 
1072	 3.96967647627766E-02 
1073	 4.09853048451849E-02 
1074	 0.041571406663654 
1075	 4.35413433280821E-02 
1076	 4.33127488554683E-02 
1077	 4.09302084359575E-02 
1078	 0.040394464035233 
1079	 3.94890044322694E-02 
1080	 0.039591623312094 
1081	 4.25888253206572E-02 
1082	 4.21853276364555E-02 
1083	 3.94546362724173E-02 
1084	 0.038475371044845 
1085	 3.61015231237422E-02 
1086	 3.43795707338391E-02 
1087	 3.45584029969974E-02 
1088	 3.43805255868803E-02 
1089	 3.24245686596114E-02 
1090	 3.28728938825197E-02 
1091	 3.38397935802504E-02 
1092	 3.62721634856594E-02 
1093	 3.80440198923805E-02 
1094	 4.23467680743556E-02 
1095	 4.17278301463567E-02 
1096	 3.62074037131597E-02 
1097	 3.57097110602088E-02 
1098	 3.46456326762297E-02 
1099	 3.42386894300453E-02 
1100	 4.12473417945181E-02 
1101	 4.19952391388991E-02 
1102	 3.38448718910557E-02 
1103	 3.16466262386707E-02 
1104	 3.20604340487945E-02 
1105	 2.86166444932216E-02 
1106	 3.38759786859615E-02 
1107	 4.00431784095666E-02 
1108	 3.41775591278706E-02 
1109	 3.42143680383997E-02 
1110	 3.45918941024775E-02 
1111	 2.87442933603395E-02 
1112	 3.17796900936079E-02 
1113	 5.23702822572937E-02 
1114	 6.26188183278588E-02 
1115	 7.30757334062731E-02 
1116	 7.68005124456715E-02 
1117	 6.65270501154466E-02 
1118	 6.28691544507005E-02 
1119	 0.056635373228376 
1120	 4.40490086820509E-02 
1121	 3.99590248307462E-02 
1122	-9.62899892441013E-02 
1123	-4.32081181787857E-02 
1124	 7.12271127502764E-02 
1125	 0.101918817889821 
1126	 0.258798852942256 
1127	 0.170529212575475 
1128	 0.025484421171868 
1129	 6.97328516143835E-02 
1130	 0.26448920315592 
1131	 0.251883969640396 
1132	 0.248543320644581 
1133	 0.173089391161367 
1134	-3.14576489700527E-02 
1135	-3.88707409531263E-02 
1136	 0.060302131821726 
1137	 8.16787500983187E-02 
1138	 0.171203603855342 
1139	 0.129034969590809 
1140	 5.67199454406911E-02 
1141	 1.01751598615562E-02 
1142	-4.89408508288695E-02 
1143	-7.99466716528236E-03 
1144	 5.30129453046691E-02 
1145	 8.56314723812638E-02 
1146	 0.120396964839144 
1147	 9.53032027896642E-02 
1148	-6.97837789676943E-03 
1149	-4.09757821786323E-02 
1150	-4.83133709314682E-02 
1151	-5.66861002696485E-02 
1152	-3.69663119416662E-02 
1153	 2.46707662792905E-02 
1154	 3.17030383415514E-02 
1155	 1.62441293682774E-02 
1156	 2.38489960611965E-02 
1157	 4.48166620909126E-02 
1158	 5.12937903704691E-02 
1159	 5.01145499398269E-02 
1160	 4.93404258579249E-02 
1161	 3.64164879025232E-02 
1162	 3.18727010966053E-02 
1163	 3.47860659056822E-02 
1164	 3.43007640985607E-02 
1165	 4.22629693313317E-02 
1166	 0.042030483268303 
1167	 3.13331104508555E-02 
1168	 3.29073587013565E-02 
1169	 3.81250111510654E-02 
1170	 3.78047406137703E-02 
1171	 3.87842990580996E-02 
1172	 4.64385922440476E-02 
1173	 4.67912715369105E-02 
1174	 4.13141465482154E-02 
1175	 3.85981950951205E-02 
1176	 3.86368241858553E-02 
1177	 3.89175644559345E-02 
1178	 3.91024012123507E-02 
1179	 3.79857918733725E-02 
1180	 3.94437809175643E-02 
1181	 4.17162805224136E-02 
1182	 0.04210261850927 
1183	 4.16668035388987E-02 
1184	 3.88230630492298E-02 
1185	 3.74748258182566E-02 
1186	 0.036588910385995 
1187	 3.50240745284291E-02 
1188	 3.82539425494559E-02 
1189	 4.04855411197749E-02 
1190	 3.76973048251037E-02 
1191	 3.76111742252803E-02 
1192	 3.90587415735486E-02 
1193	 0.040236088969433 
1194	 3.89912574642397E-02 
1195	 4.24512066469065E-02 
1196	 4.58433595500193E-02 
1197	 4.36364531488043E-02 
1198	 4.12303527023866E-02 
1199	 3.91278293234053E-02 
1200	 3.64318368693324E-02 
1201	 3.71893799887992E-02 
1202	 3.90956791090116E-02 
1203	 3.85559797856332E-02 
1204	 0.038469333425271 
1205	 3.95457330137577E-02 
1206	 3.95997996300239E-02 
1207	 3.94107314508727E-02 
1208	 3.86923244145112E-02 
1209	 3.75651926309133E-02 
1210	 3.79716751723393E-02 
1211	 0.037392508008446 
1212	 3.59326704171409E-02 
1213	 3.61897755713389E-02 
1214	 3.59729338796757E-02 
1215	 3.36293585056092E-02 
1216	 3.32316337027672E-02 
1217	 3.66445920926301E-02 
1218	 3.56024650528437E-02 
1219	 3.49225799011735E-02 
1220	 3.82878474338462E-02 
1221	 3.85410872852482E-02 
1222	 3.88020810649405E-02 
1223	 3.93000752264222E-02 
1224	 3.81696086449658E-02 
1225	 3.80317954993814E-02 
1226	 3.65827335718648E-02 
1227	 3.53336977566843E-02 
1228	 3.54789240691865E-02 
1229	 3.66986672488373E-02 
1230	 3.99320940220097E-02 
1231	 0.04141567336524 
1232	 4.15229353907819E-02 
1233	 4.37728510867159E-02 
1234	 4.50886245129929E-02 
1235	 4.45903856165176E-02 
1236	 4.49008936819289E-02 
1237	 4.44682516307123E-02 
1238	 4.11538352193603E-02 
1239	 3.83020306537146E-02 
1240	 3.81591944468858E-02 
1241	 4.15377961475834E-02 
1242	 4.28011887727717E-02 
1243	 4.12633366295784E-02 
1244	 4.07880196997148E-02 
1245	 0.03888415191805 
1246	 3.78274113416797E-02 
1247	 4.04310726402745E-02 
1248	 4.27445847159486E-02 
1249	 4.19373219010788E-02 
1250	 4.20835344893369E-02 
1251	 4.31529771093146E-02 
1252	 4.23108512705177E-02 
1253	 0.042577720806424 
1254	 4.31095729667483E-02 
1255	 0.040870492293933 
1256	 3.91052103137309E-02 
1257	 3.77438560637659E-02 
1258	 3.80173300600065E-02 
1259	 3.87546027614718E-02 
1260	 3.79844850181614E-02 
1261	 3.79592903161526E-02 
1262	 3.82093953092029E-02 
1263	 3.68887570111476E-02 
1264	 3.62936112633655E-02 
1265	 3.60833809571276E-02 
1266	 0.036529932970877 
1267	 4.15304856488666E-02 
1268	 4.22779217787267E-02 
1269	 4.10387366567893E-02 
1270	 4.34441465894971E-02 
1271	 3.80949787433173E-02 
1272	 3.30804674312174E-02 
1273	 3.69689002767882E-02 
1274	 0.037614208423328 
1275	 3.39990033332773E-02 
1276	 3.27795935865455E-02 
1277	 3.29331513420657E-02 
1278	 3.42431743960855E-02 
1279	 3.71866047582241E-02 
1280	 0.03814233494777 
1281	 0.039682927680054 
1282	 4.00014217056435E-02 
1283	 3.96520252646015E-02 
1284	 3.90379105135072E-02 
1285	 0.039736508650372 
1286	 3.94150859658912E-02 
1287	 3.88303762169551E-02 
1288	 4.00562167062012E-02 
1289	 4.02734571743443E-02 
1290	 3.85146100055287E-02 
1291	 0.038204410522943 
1292	 0.038858956438845 
1293	 4.07225845066863E-02 
1294	 4.16963830906461E-02 
1295	 4.06643079838106E-02 
1296	 3.97194437061872E-02 
1297	 3.63550974086055E-02 
1298	 3.46643077307601E-02 
1299	 3.53306389059084E-02 
1300	 0.035056824083607 
1301	 3.66076581020417E-02 
1302	 3.64115451871545E-02 
1303	 3.28765667442032E-02 
1304	 0.03023672870468 
1305	 3.06264417010717E-02 
1306	 2.92625886932255E-02 
1307	 0.031006483499957 
1308	 3.17189848367316E-02 
1309	 2.76928801584752E-02 
1310	 0.02519780734171 
1311	 2.77499634010763E-02 
1312	 2.76060479142124E-02 
1313	 2.19017284436405E-02 
1314	 2.41331028172204E-02 
1315	 3.41188481882726E-02 
1316	 3.61281361484265E-02 
1317	 4.14531325263638E-02 
1318	 4.20347842404122E-02 
1319	 2.79249692635243E-02 
1320	 2.22610559998407E-02 
1321	 1.82902103046235E-02 
1322	 1.53315145856366E-02 
1323	 1.44475449496091E-02 
1324	 0.035692301144018 
1325	 4.79253671776125E-02 
1326	 3.53077016022679E-02 
1327	 3.98275632396466E-02 
1328	 4.05140089487625E-02 
1329	 2.66827073978315E-02 
1330	 0.038423408923858 
1331	 5.75089718110424E-02 
1332	 5.42667903550146E-02 
1333	 5.14090246787231E-02 
1334	 7.00728153029616E-02 
1335	 8.20009081815704E-02 
1336	 7.24117691751896E-02 
1337	 6.19685245710695E-02 
1338	 6.51966939638365E-02 
1339	 6.07828159235594E-02 
1340	 1.59629859632333E-02 
1341	 9.28235539088804E-04 
1342	 1.34669223154832E-02 
1343	 3.69814146323602E-02 
1344	 0.10662441676597 
1345	 0.135337679067902 
1346	 0.159542659249749 
1347	 0.215500221656273 
1348	 0.256578198181187 
1349	 0.265996437496395 
1350	 0.285509398416565 
1351	 0.338973189760064 
1352	 9.09861541175313E-02 
1353	 6.20655037397196E-02 
1354	 0.218116527586761 
1355	 1.65993105423608 
1356	 17.7662038625344 
1357	 5.70578585827281 
1358	 9.95326906401246 
1359	-4.7790971071137 
1360	 0.816717416832032 
1361	 0.120079799095653 
1362	 0.71405577428322 
1363	 3.40671826491751 
1364	 4.76269004449759 
1365	 2.05010203919496 
1366	 2.14468058257668 
1367	 19.7722931496421 
1368	-8.69795646886956 
1369	-0.5717879613597 
1370	-0.42521322702111 
1371	-1.35863213604199 
1372	-3.19558996392633 
1373	 1.06852869304471 
1374	 7.47023187825496 
1375	-0.77272581565948 
1376	-3.57869981816517 
1377	 0.730501397046334 
1378	 1.37388630896784 
1379	 0.858920778508061 
1380	 0.589234803330511 
1381	 1.95739710590872 
1382	 3.14271975319811 
1383	 0.341878549540895 
1384	 0.272726799868021 
1385	 0.723921638224083 
1386	 1.23575806475576 
1387	 13.4885433824581 
1388	 29.8749358609163 
1389	 0.795814260731659 
1390	 0.458217722509109 
1391	-3.41660985068309 
1392	-2.14161746619104 
1393	 1.59255375804082 
1394	-6.16333655429739 
1395	-1.056796588694 
1396	-2.05448120149445 
1397	-3.86569777210823 
1398	-2.06401249889201 
1399	-5.85279865064419 
1400	-0.984463469621613 
1401	-1.72710022727435 
1402	-0.767508433643965 
1403	-0.232373371541513 
1404	 0.459040217113936 
1405	 1.33976066235892 
1406	-2.8038793492844 
1407	-3.00927343357444 
1408	 1.46608677798389 
1409	 1.41278753995464 
1410	 2.33257014088629 
1411	 2.21901868694466 
1412	 2.00960354769879 
1413	 4.94523158326617 
1414	-1.42777229148184 
1415	-2.79307005454687 
1416	 3.30456206909393 
1417	 1.76124490566582 
1418	 0.507595306123399 
1419	 0.506208684099392 
1420	 0.891493601258802 
1421	 1.10256274277943 
1422	 1.86369286015963 
1423	 2.56215128095035 
1424	 0.337033101581883 
1425	 0.704282773708008 
1426	 0.33920777858996 
1427	 0.255574776274646 
1428	 0.13828304441696 
1429	 9.85094532510017E-02 
1430	-1.61251738903766E-02 
1431	-0.248643130120566 
1432	-1.22457099682197 
1433	-1.36576826620806 
1434	-0.389435352384925 
1435	-0.41935920696349 
1436	-3.6326880719834 
1437	-3.46576007269371 
1438	-0.236519723380935 
1439	-0.447490964180716 
1440	-18.0206933913761 
1441	 26.2378610037247 
1442	 0.140701757593611 
1443	-0.247663407605238 
1444	-0.802127944645047 
1445	-0.183236624558171 
1446	 0.3255453842635 
1447	 0.529429724463485 
1448	-0.684252654001346 
1449	 0.606117121453144 
1450	-2.98828187944118 
1451	-1.50393743798558 
1452	 23.2894285770411 
1453	 3.22752575109844 
1454	 2.90829868695303 
1455	 133.989886528927 
1456	 0.495111086703118 
1457	-0.121804328375495 
1458	-0.322704888341827 
1459	-0.393265256038549 
1460	-0.269984601473374 
1461	-8.10348144215141E-02 
1462	-1.04421522748565E-02 
1463	 0.520054572788524 
1464	 0.469346291988305 
1465	 0.217920810493584 
1466	 1.80655781566566 
1467	 0.791861197775252 
1468	 0.875139050266603 
1469	-5.01265112789501 
1470	-2.41474503112236 
1471	 9.08940538841529 
1472	 0.47367608603873 
1473	 96.9682368354457 
1474	-3.53546581049803 
1475	-0.670956074904726 
1476	-0.51192757177497 
1477	-0.120724316801365 
1478	 1.65301809090669E-02 
1479	 3.37697481204282E-02 
1480	-12.1203320549202 
1481	 0.862793588133187 
1482	-2.37470067997891E-02 
1483	-1.73021960234426 
1484	 0.107644442494933 
1485	-1.03865287973486 
1486	-0.451616547707934 
1487	-3.89074384866489E-02 
1488	-9.61845356311095E-02 
1489	-0.473084349121665 
1490	-0.259440817640328 
1491	-0.115392512425259 
1492	-7.71399487524869E-02 
1493	 0.133650450330875 
1494	 0.163474781153584 
1495	 3.05950720195865E-02 
1496	 7.61431165524171E-02 
1497	 0.150168308998036 
1498	 0.207096731702829 
1499	 0.450645507672563 
1500	 0.39803029613664 
1501	 0.114900415742799 
1502	 7.52964997405237E-02 
1503	 5.65300860043899E-02 
1504	-2.84767730856895E-02 
1505	-2.24818473873694E-02 
1506	 1.45335843791653E-03 
1507	-1.91016946494076E-02 
1508	-9.5723392031421E-03 
1509	-0.010521412942941 
1510	 5.06724908161597E-02 
1511	 6.62233568600915E-02 
1512	-4.1324140808397E-03 
1513	 3.61924186677521E-02 
1514	 0.116023589659596 
1515	 0.112377571999802 
1516	 9.23194505579853E-02 
1517	 7.31855875062378E-02 
1518	 4.98898578543015E-02 
1519	-2.23506222331681E-03 
1520	-2.96348247900777E-02 
1521	-9.5740120205387E-03 
1522	-3.51271311939647E-02 
1523	-7.55494997407399E-03 
1524	 4.60577381304662E-02 
1525	 2.40021431544431E-02 
1526	 3.31000782827834E-02 
1527	 6.93482030745329E-02 
1528	 8.21002835908395E-02 
1529	 8.24925973429474E-02 
1530	 0.065253447047063 
1531	 5.83046895005887E-02 
1532	 5.08952667035252E-02 
1533	 5.40986641152872E-02 
1534	 7.57206401411076E-02 
1535	 8.32602320159849E-02 
1536	 7.44901129181534E-02 
1537	 4.54027302147161E-02 
1538	 3.82165289191595E-02 
1539	 2.89991036024577E-02 
1540	-1.88373501713609E-02 
1541	-3.10079446054509E-02 
1542	 8.71140994680084E-03 
1543	 5.50169838180196E-02 
1544	 7.80849164015635E-02 
1545	 6.06093924698666E-02 
1546	 4.13915067513009E-02 
1547	 4.44018560447913E-02 
1548	 5.36922982148958E-02 
1549	 0.069052594532029 
1550	 8.56488926442941E-02 
1551	 0.057442045705658 
1552	 5.63407829241906E-02 
1553	 0.099006375715259 
1554	 8.73819887442082E-02 
1555	 7.28989546864582E-02 
1556	 7.37432644172337E-02 
1557	 5.35170191337812E-02 
1558	 5.51617622471131E-02 
1559	 5.65781490881412E-02 
1560	 3.91846989797227E-02 
1561	 0.037555022517387 
1562	 3.32644158621512E-02 
1563	 3.98741865244256E-03 
1564	 2.06272272662636E-03 
1565	 3.45819718982627E-02 
1566	 4.86069656960851E-02 
1567	 6.52759404365113E-02 
1568	 8.20693159305498E-02 
1569	 5.00610634831404E-02 
1570	 2.03573329035149E-02 
1571	 3.01990407786922E-02 
1572	 3.15616324654527E-02 
1573	 2.51848600354438E-02 
1574	 3.62865857399162E-02 
1575	 3.36726039675657E-02 
1576	 1.16820106686729E-02 
1577	-9.31905509906332E-04 
1578	 2.92482458284685E-04 
1579	 1.21836382411472E-02 
1580	 2.13083640401283E-02 
1581	 3.07474175272768E-02 
1582	 3.96274352407952E-02 
1583	 3.35820129451592E-02 
1584	 2.99947886282697E-02 
1585	 3.27962800253759E-02 
1586	 4.35099491201407E-02 
1587	 6.81111253914296E-02 
1588	 6.33394776505754E-02 
1589	 3.81631609113905E-02 
1590	 1.94970970968205E-02 
1591	 1.72026109934815E-03 
1592	 1.17620943495152E-02 
1593	 1.94229795188869E-02 
1594	 8.72030201529271E-03 
1595	 1.47333868072163E-02 
1596	 2.13392740762825E-02 
1597	 1.52306791343189E-02 
1598	 8.32103989755194E-03 
1599	 1.22836995375922E-02 
1600	 9.94627620782516E-03 
1601	 5.62118244439739E-04 
1602	 1.98014223423246E-02 
1603	 3.60232331555692E-02 
1604	 2.09737403369812E-02 
1605	 2.66098566826581E-02 
1606	 4.51645121904804E-02 
1607	 4.49393282620294E-02 
1608	 4.66829362925739E-02 
1609	 4.70392672749081E-02 
1610	 4.19709205220299E-02 
1611	 3.53720202238816E-02 
1612	 2.64044094355726E-02 
1613	 3.06939568560208E-02 
1614	 3.82910552835232E-02 
1615	 2.71798093620004E-02 
1616	 1.35079272228078E-02 
1617	 1.37738078033712E-02 
1618	 1.58557567331109E-02 
1619	 1.70446515278616E-02 
1620	 0.020225120084564 
1621	 0.024243549783473 
1622	 3.07289528716058E-02 
1623	 0.036008179013267 
1624	 3.84026670860991E-02 
1625	 3.48808434900763E-02 
1626	 2.04045247332115E-02 
1627	 1.57200166329019E-02 
1628	 2.42097780803194E-02 
1629	 1.72845073771649E-02 
1630	 1.89094428334908E-02 
1631	 3.92946654731006E-02 
1632	 4.85854185759615E-02 
1633	 4.75809118670722E-02 
1634	 4.32978402539725E-02 
1635	 0.035511580829661 
1636	 0.032476157762953 
1637	 3.69459827661727E-02 
1638	 4.46064320333218E-02 
1639	 4.89427627763436E-02 
1640	 4.10535878882031E-02 
1641	 4.12713370635967E-02 
1642	 5.47317163565135E-02 
1643	 5.52539681912662E-02 
1644	 5.26265423260723E-02 
1645	 5.47816009868125E-02 
1646	 0.043998761185945 
1647	 3.37003336612185E-02 
1648	 3.91895862385061E-02 
1649	 3.80173709900702E-02 
1650	 2.90414613730511E-02 
1651	 3.02066668460996E-02 
1652	 0.034831812367114 
1653	 4.63640958787978E-02 
1654	 0.047225060634007 
1655	 4.72689480473482E-02 
1656	 4.61581236697189E-02 
1657	 3.22110624836455E-02 
1658	 3.51225565140673E-02 
1659	 5.39324772132309E-02 
1660	 5.23062041907617E-02 
1661	 4.19885640291411E-02 
1662	 4.30700377142471E-02 
1663	 4.20112131920498E-02 
1664	 4.24672086587142E-02 
1665	 5.54290301056681E-02 
1666	 5.11030033652853E-02 
1667	 0.025671917581402 
1668	 3.45167417660674E-02 
1669	 3.96473869272909E-02 
1670	 2.64179222046918E-02 
1671	 3.02784408733558E-02 
1672	 3.20725202447568E-02 
1673	 2.69542881814536E-02 
1674	 0.04557735239721 
1675	 4.28646094849618E-02 
1676	 2.22207354295635E-02 
1677	 2.13850582374785E-02 
1678	 1.39583921576052E-02 
1679	 1.30010676899916E-02 
1680	 3.76193981757138E-02 
1681	 4.78995694467968E-02 
1682	 3.88778048566189E-02 
1683	 4.13710696888349E-02 
1684	 0.0338321833484 
1685	 0.014105130642836 
1686	 1.73109523165972E-02 
1687	 2.24370369291785E-02 
1688	 9.32681066654232E-03 
1689	 1.39095006124689E-02 
1690	 0.02539515478947 
1691	 1.62763976698207E-02 
1692	 2.27193885828672E-02 
1693	 3.89241021128646E-02 
1694	 2.23744194964783E-02 
1695	 2.29977601321996E-02 
1696	 0.052282954335101 
1697	 4.68025823278555E-02 
1698	 3.14508624072351E-02 
1699	 3.07761288292204E-02 
1700	 1.49540620177081E-02 
1701	 7.34189925319895E-03 
1702	 4.33120937009776E-02 
1703	 6.85813623176184E-02 
1704	 5.72057949877684E-02 
1705	 0.050038183961141 
1706	 4.03648467001393E-02 
1707	 2.70688602102206E-02 
1708	 2.59269029156269E-02 
1709	 3.21037798591976E-02 
1710	 2.89382166991139E-02 
1711	 0.020553677539684 
1712	 3.55269919213604E-02 
1713	 2.54320164064004E-02 
1714	 2.12138881543482E-02 
1715	 2.48892480544694E-02 
1716	 9.86509217862748E-03 
1717	 1.34132973783695E-03 
1718	 1.38450056237384E-02 
1719	 4.07200228396905E-02 
1720	 3.37340998912573E-02 
1721	 0.020730915143852 
1722	 2.04986813623747E-02 
1723	-1.35527050963297E-03 
1724	 1.56999524764503E-02 
1725	 4.60310353669305E-02 
1726	 2.75087181990377E-02 
1727	 2.34994402367018E-02 
1728	 4.22237607855991E-02 
1729	 5.22145476643936E-02 
1730	 5.97873583538202E-02 
1731	 5.38121375452685E-02 
1732	 0.027646066651311 
1733	 2.12888729722604E-02 
1734	 6.56308181269455E-02 
1735	 9.17952404821545E-02 
1736	 6.93267812000835E-02 
1737	 6.75350050986944E-02 
1738	 6.78980086062034E-02 
1739	 2.61270249919811E-02 
1740	 2.38619572586319E-02 
1741	 5.42936340096212E-02 
1742	 3.43757287873789E-02 
1743	 3.40062358749492E-02 
1744	 0.060979401131207 
1745	 0.030459180585513 
1746	 7.26167870732538E-03 
1747	 6.94134336892935E-03 
1748	 2.74225076696061E-02 
1749	 3.39721113016338E-02 
1750	 2.37652638799394E-02 
1751	 3.09997027629874E-02 
1752	 6.21111212000384E-02 
1753	 6.36362238583344E-02 
1754	 0.061771466108789 
1755	 7.42869859185876E-02 
1756	 6.41823076163174E-02 
1757	 1.67305352687536E-02 
1758	 2.45992815401578E-02 
1759	 1.25076363728361E-02 
1760	-2.24685771749962E-02 
1761	 3.68066207317394E-02 
1762	 8.50752202459757E-02 
1763	 0.074788172449608 
1764	 0.100762531292285 
1765	 5.92424593891719E-02 
1766	 1.04429536691996E-02 
1767	-6.98047004870047E-03 
1768	-8.35190175698739E-02 
1769	-6.50589679522491E-02 
1770	-2.77832432916749E-02 
1771	-5.15782377565089E-02 
1772	 0.049318467272867 
1773	 7.22735756295841E-02 
1774	-5.83738696161311E-02 
1775	-2.53839080509152E-02 
1776	-4.39134889785166E-02 
1777	-2.62625652753009E-02 
1778	-3.09772237203479E-02 
1779	-0.19915746656208 
1780	-0.188145838070677 
1781	 2.82655524502897E-02 
1782	 7.65813036166999E-02 
1783	 0.136760038440334 
1784	 0.150314080681983 
1785	-2.13267692726172E-02 
1786	-4.77925577202544E-02 
1787	 0.117656562752871 
1788	 6.99569935545064E-02 
1789	-2.44694990892603E-02 
1790	-1.07669538543327E-02 
1791	-0.139828463515072 
1792	-8.92907721924807E-02 
1793	 0.11734122606049 
1794	 0.108830950346629 
1795	 0.251785875682975 
1796	 0.342389363669271 
1797	-0.568648262418955 
1798	-1.58441997308166 
1799	-5.93721979150121 
1800	 1.83465963822655E-02 
1801	 0.183003643028878 
1802	-3.24198292849752E-02 
1803	 4.98813339057701E-02 
1804	 1.08474350241069 
1805	 1.72576018238343 
1806	-2.12346705842858 
1807	-30.7364030802503 
1808	-0.891547830944531 
1809	-0.716139848480683 
1810	-2.11088153589513 
1811	-1.91626562043121 
1812	-1.40524157618581 
1813	-1.2635242345856 
1814	-1.54762268443077 
1815	-1.03256813673201 
1816	-0.528346922094626 
1817	 0.111577947199636 
1818	 1.25278932186708 
1819	 0.894104666770747 
1820	 3.71362710104662 
1821	-0.554575883630273 
1822	-0.358709618801847 
1823	 0.913175138255197 
1824	 1.28837713554485 
1825	 0.404439254780616 
1826	 0.45018004954732 
1827	 0.321437148911359 
1828	 0.57840082659953 
1829	 0.274250892800543 
1830	 0.272895395776427 
1831	-1.74496189595996 
1832	-5.13842940866705 
1833	 1.92501527221813 
1834	 2.20944383511871 
1835	 6.08297183569041 
1836	 65.2735085373475 
1837	-1.16024744297034 
1838	-1.04682087550765 
1839	-1.63039089282576 
1840	 38.6767320898543 
1841	 3.97973435380287 
1842	 3.4011277062764 
1843	 3.04942675087972 
1844	 9.86437789556419 
1845	 12.4106015646409 
1846	 2.15695678010181 
1847	 1.64129982265712 
1848	 2.07249547930243 
1849	 0.328374888320947 
1850	-0.457543041680384 
1851	 5.46996234162007 
1852	-1.37160253096559 
1853	 0.248344436602556 
1854	 0.43032530760527 
1855	 0.94089576096685 
1856	 0.841261369235418 
1857	 0.505320906952326 
1858	 0.359729638534931 
1859	 3.22735050639721E-02 
1860	 2.87230827811828E-02 
1861	-0.53845225117849 
1862	-1.33117792875782 
1863	-0.308290073005014 
1864	-0.123521950518102 
1865	 6.91305047400965E-02 
1866	 0.892223719322774 
1867	 1.35934739374158 
1868	 2.81352744231979 
1869	-4.59794213582986 
1870	-1.77190260852891 
1871	-1.66892745464078 
1872	-1.8485957506509 
1873	-3.2180709759474 
1874	 4.61517126717372 
1875	 3.16034924584293 
1876	 2.30620661251141 
1877	 2.14935603753461 
1878	 1.47015656006474 
1879	 8.59841649464759E-02 
1880	-0.578055867284694 
1881	-1.2362802084253 
1882	-2.25046684811184 
1883	-3.57641246505026 
1884	 1.68065742934772 
1885	 1.19762155190713 
1886	 1.45091694111949 
1887	-1.11820077369413 
1888	-0.511385640933721 
1889	-0.461009676423502 
1890	-0.384673584593505 
1891	-0.375390987112107 
1892	-0.486739696489107 
1893	-1.35882586901958 
1894	-1.31124629715343 
1895	-0.328550113565874 
1896	-0.347067236524714 
1897	-0.507228616407317 
1898	-0.53118215202296 
1899	-0.401182865252583 
1900	-0.373927228843399 
1901	-0.487754327349952 
1902	-0.817201677100803 
1903	-1.33249768765932 
1904	-1.70547215823518 
1905	-1.42001663332095 
1906	 1.98120465536113 
1907	-0.138415210690064 
1908	-0.49528643087753 
1909	-0.375864175493161 
1910	-0.516519887501886 
1911	-0.471784694965351 
1912	-1.27787977315315 
1913	-0.677549252244447 
1914	-0.525984252672125 
1915	-0.619063976986118 
1916	-0.602215766264743 
1917	 0.144162742807871 
1918	-0.254593872634956 
1919	-7.86402799306951 
1920	 1.32015323261495 
1921	-0.401288012595791 
1922	 0.766713686269474 
1923	 0.707195306397213 
1924	 0.486301402612084 
1925	 0.439290393449712 
1926	 0.485143631438051 
1927	 0.205757802884842 
1928	 0.933535870862067 
1929	 3.18349122512353 
1930	 15.849242771035 
1931	 3.46004644713537 
1932	 1.54035924463659 
1933	 1.27460682832395 
1934	 1.13841974820069 
1935	-4.38406202412857 
1936	 0.123306810316731 
1937	 0.835809342923461 
1938	 0.21433523807259 
1939	 0.196922723083987 
1940	 0.225459182106827 
1941	-0.446746916213772 
1942	-1.23429218878322 
1943	-0.956300279097875 
1944	-0.74524632179593 
1945	-0.8957371979187 
1946	-1.05560904937622 
1947	-0.785282341090425 
1948	-0.946391739794861 
1949	-1.23558861490426 
1950	-1.86636164453318 
1951	 3.10672857487875E-03 
1952	-0.759554623700116 
1953	-1.16927553008093 
1954	-0.929643002193769 
1955	-1.09024220585376 
1956	-1.3339975824566 
1957	-1.02113892184598 
1958	-1.75503458955402 
1959	 7.08536837031022 
1960	 2.60206637402493 
1961	 1.23684940083169 
1962	 1.22229899440004 
1963	 1.47291529415993 
1964	 4.44761540539357 
1965	 5.68255266995855 
1966	 7.36027700602243 
1967	 25.2529881946494 
1968	-4.04135110722094 
1969	-3.45763031507638 
1970	-6.55222729222152 
1971	 4.7709494592875 
1972	 2.60282093469029 
1973	 1.08322206159892 
1974	 0.349829832172108 
1975	-0.852584312508812 
1976	 7.09809603081585E-02 
1977	 4.20411941967252 
1978	 3.23654516008747 
1979	 2.56328997211186 
1980	 2.51724645709167 
1981	 26.6201776759202 
1982	 2.41495003557353 
1983	 0.447257215645473 
1984	 1.04306120284782 
1985	 0.76621442839191 
1986	 0.673784757321828 
1987	 1.06180471740912 
1988	 1.02904440779971 
1989	 0.397204196593208 
1990	 0.101078012805264 
1991	-3.29857150644302E-02 
1992	-0.062314251567862 
1993	 0.118618320101317 
1994	 0.134129078993603 
1995	 0.144215420485912 
1996	-0.180323050596089 
1997	-4.27456745423754 
1998	 0.430645073176861 
1999	 0.520096823193322 
2000	-0.18576702591512 
2001	-4.36858280462441E-02 
2002	 0.471949876830862 
2003	 0.475532559517965 
2004	 1.26493511454246 
2005	 27.2374075606682 
2006	-60.9723706232644 
2007	-3.72050107046824 
2008	-46.2423463350365 
2009	 17.9721391243918 
2010	 2.56150130794562 
2011	 2.37156107703128 
2012	 1.60566525447635 
2013	-0.400513775034855 
2014	 2.71290109532185E-03 
2015	-0.47967350055991 
2016	-0.347652836211786 
2017	-0.421987083486998 
2018	-0.506547628500537 
2019	-9.36581893136919E-02 
2020	 0.772380644228687 
2021	-1.21509736018622 
2022	 1.33589098835772 
2023	 0.220228910833855 
2024	 0.060007024060694 
2025	-0.307033529338725 
2026	-0.394366912002496 
2027	-0.791276096931807 
2028	 0.336096633803796 
2029	-0.188387859865793 
2030	-0.983456130644196 
2031	-130.982570167014 
2032	 1.28426025530981 
2033	 0.532411187771277 
2034	 0.962548706271587 
2035	 1.41923009863675 
2036	 0.138439724519191 
2037	 0.259138590711345 
2038	-0.680574067376519 
2039	-0.595174614238032 
2040	 0.672884331306699 
2041	 0.993668743606963 
2042	 1.54839981549816 
2043	 0.998371621321814 
2044	 0.243920436808927 
2045	 0.213781885827464 
2046	 0.203283467372572 
2047	 4.88797972722988E-02 
2048	 0.831946924466198 
2049	-1.17623492117124 
2050	 0.329542472295334 
2051	-11.3912196403936 
2052	-3.37507539621599 
2053	-0.798763212758432 
2054	-0.288346094209861 
2055	 8.32539729542901E-02 
2056	 0.423986033936889 
2057	 1.67312342707995 
2058	 1.85688903358131 
2059	 0.817459591961065 
2060	 0.997480498495326 
2061	 1.00624866151143 
2062	 1.34857173148221 
2063	 2.6139145059895 
2064	 2.27884638580544 
2065	 2.15239426282587 
2066	 1.5749596060329 
2067	 1.28889939709217 
2068	 1.31969411433207 
2069	 0.753257116354861 
2070	 0.126290007102408 
2071	 0.232510146487828 
2072	 0.109256441335427 
2073	-0.114394221047007 
2074	-1.69960742088007 
2075	-2.02561606975711 
2076	-1.22141661048657 
2077	-0.72593641310787 
2078	 0.103526801594974 
2079	 0.316112079208698 
2080	 0.799697959258005 
2081	 1.29576414436382 
2082	 2.88901011882825 
2083	 30.4989110093311 
2084	 3.47349167388045E-02 
2085	-0.272942167756791 
2086	-0.383737467409384 
2087	-0.323592858063991 
2088	-7.92176493786364E-02 
2089	-1.99339916300603 
2090	 0.606164163463043 
2091	 2.51315938922088 
2092	 4.46938301548919 
2093	-17.6063622917599 
2094	-4.82242409709377 
2095	-1.24176988522435 
2096	-0.890956077431603 
2097	-0.244158446737938 
2098	-0.041410674433901 
2099	-0.667417446499651 
2100	-1.56144987816601 
2101	-0.23064190180452 
2102	-0.516470611756208 
2103	-0.30327689529778 
2104	 0.121882034145152 
2105	 0.326093002466237 
2106	 0.431590359679713 
2107	 0.553384079818746 
2108	 0.65612362797398 
2109	 0.863217194045338 
2110	 1.11440009101207 
2111	 1.21600848845095 
2112	 2.21061935007848 
2113	 1.88346901781298 
2114	 0.791874040727206 
2115	 0.482155546175988 
2116	 9.65684264888901E-02 
2117	 7.27252392578082E-02 
2118	 0.240639312006674 
2119	 0.278675701713085 
2120	 0.516789373796806 
2121	 0.413317630756709 
2122	 0.219016238851543 
2123	 0.171599778079995 
2124	 9.89198819728532E-02 
2125	 0.211060798845175 
2126	 0.279531211917477 
2127	 4.51979123474325E-02 
2128	-3.74839297025959E-02 
2129	-1.24843382813482E-02 
2130	 0.111843465026953 
2131	 0.234694527157054 
2132	 0.267974197303108 
2133	 0.412644904106358 
2134	 0.437874502703182 
2135	 0.29594478252786 
2136	 0.328721751678256 
2137	 0.376356348628145 
2138	 0.427060450848068 
2139	 0.690982866269437 
2140	 0.780193190183587 
2141	 0.692858623503341 
2142	 0.743190885872051 
2143	 0.896386601273237 
2144	 0.717814985009409 
2145	 0.710613672145625 
2146	 0.847977168795101 
2147	 0.549718196831806 
2148	 0.32477959159485 
2149	 0.264624437372642 
2150	 5.03723799287309E-02 
2151	-0.119026322705923 
2152	-0.029694285779328 
2153	-1.13328869394458E-02 
2154	-0.153094163131829 
2155	-0.155688205794454 
2156	-0.118495465037614 
2157	-1.75137685041872E-02 
2158	 0.175606104580723 
2159	 0.373435272871997 
2160	 0.599712480586633 
2161	 0.615600344462966 
2162	 0.530560166891362 
2163	 0.531387476655879 
2164	 0.532191904564783 
2165	 0.44613601964209 
2166	 0.33563836906966 
2167	 0.316971002895479 
2168	 0.242343810700408 
2169	 0.201565609313479 
2170	 0.321896672212686 
2171	 0.279893416262525 
2172	 0.199393119825125 
2173	 0.148593773764329 
2174	-3.62406766407218E-02 
2175	 0.112764368111771 
2176	 0.305620168010676 
2177	 0.286417102559327 
2178	 0.302220348204259 
2179	 0.348837311418868 
2180	 0.322145142008101 
2181	 0.336860406991616 
2182	 0.286564758422919 
2183	 4.63753111539762E-02 
2184	 4.39453417241809E-03 
2185	-0.011882181663157 
2186	-5.89151533892677E-02 
2187	-4.84014742351264E-02 
2188	-0.039225415969399 
2189	-0.141502587009162 
2190	-0.106183856246122 
2191	 7.37362649348317E-02 
2192	 0.145468324546698 
2193	 0.290522252281722 
2194	 0.287728354779545 
2195	 0.12968355717455 
2196	 7.85028189057875E-02 
2197	-7.57458660777965E-02 
2198	-0.14439270531279 
2199	-0.053731396058031 
2200	-0.108114245331602 
2201	-0.233954650404037 
2202	-0.190197258153426 
2203	-0.197964899603387 
2204	-8.30424479501441E-02 
2205	 0.217086153061782 
2206	 0.488700743946817 
2207	 0.3454573636187 
2208	 0.266167397589864 
2209	 0.267290863886902 
2210	 0.192884974419031 
2211	 0.259586173887332 
2212	 0.235218709230331 
2213	 0.08655298268637 
2214	-7.40831480192652E-02 
2215	-0.218536946030048 
2216	-0.21926796695066 
2217	-0.223596922320867 
2218	-0.179033548979589 
2219	-0.14820066805948 
2220	-0.108510368610263 
2221	-0.082837941497672 
2222	-5.14862730071733E-02 
2223	-1.77925714376866E-02 
2224	 3.65843986292501E-02 
2225	 4.82499973972073E-02 
2226	 4.22119814144112E-02 
2227	 1.44625143805206E-02 
2228	-0.115986849183925 
2229	-0.167396805457513 
2230	-0.196976462361701 
2231	-0.191260485473173 
2232	-4.06357634556448E-02 
2233	 5.10144866032272E-02 
2234	 0.111257598794523 
2235	 0.223473923777843 
2236	 0.361275878443678 
2237	 0.317521250060009 
2238	 0.386628837916329 
2239	 0.539351289420248 
2240	 0.361613618023425 
2241	 0.168898347301709 
2242	 3.86305150232665E-02 
2243	-0.125066786621701 
2244	-0.199007535497524 
2245	-5.45930662590341E-02 
2246	 0.156632530420228 
2247	 0.216424849851052 
2248	 0.245473405261708 
2249	 0.370405619827783 
2250	 0.221034646359045 
2251	 0.113671244595955 
2252	 0.116718930713606 
2253	-5.17813135918064E-02 
2254	-0.248036429429117 
2255	-0.308596885560148 
2256	-0.253430625349071 
2257	-0.481988874391056 
2258	-0.420074723020792 
2259	 6.05812281001451E-03 
2260	 0.1803997816518 
2261	 0.310443185244489 
2262	 0.351748291235168 
2263	 0.315055533542673 
2264	 0.286470414281792 
2265	 8.48166623096451E-02 
2266	 4.27647709575679E-02 
2267	 0.40287415211442 
2268	 0.512465857937164 
2269	 0.448329735560648 
2270	 0.370078746517642 
2271	 0.201086075068443 
2272	 0.139410022982433 
2273	 7.05710162005038E-02 
2274	 5.73562988821276E-02 
2275	 5.56484447387159E-02 
2276	 0.130238186045623 
2277	 0.235190160564406 
2278	 0.38019010636268 
2279	 0.831228186549149 
2280	 0.758296682931984 
2281	 0.433019266952497 
2282	 0.40875553954874 
2283	 0.174062939066828 
2284	 2.16704052766251E-02 
2285	 0.300770117071848 
2286	 1.15799689946484 
2287	-2.1593962266006 
2288	 428.144007425291 
2289	 0.688593197065606 
2290	 0.057101621438283 
2291	-0.466374836375307 
2292	-1.59552451974364 
2293	-6.88737823452228 
2294	-21.5443257447668 
2295	-22.5023197870429 
2296	-2.28611788518292 
2297	-1.05807360715915 
2298	-5.89040302973331E-02 
2299	 0.181939625955684 
2300	 8.69671736922575E-02 
2301	 0.140216812365292 
2302	-0.187158214999038 
2303	-0.837475291393 
2304	-0.568029724794123 
2305	-0.391040834045567 
2306	-0.308783410149709 
2307	-0.156929851109219 
2308	-9.25568738287523E-02 
2309	 0.10377290474102 
2310	 8.21670227566333E-02 
2311	 4.56302132147383E-02 
2312	-2.83581453824909E-02 
2313	-0.118655794566276 
2314	 5.88481896586859E-02 
2315	 0.181329320348991 
2316	 0.404169096468599 
2317	 0.293609481994071 
2318	 0.382109639522559 
2319	 0.898431278267576 
2320	-5.29816052216745E-02 
2321	-0.574383128419625 
2322	-1.36570548577385 
2323	-3.22207738825724 
2324	-2.01306768715402 
2325	-0.629089184487206 
2326	 0.243455813759663 
2327	 0.532563725350559 
2328	 1.81562877910104 
2329	 1.57118499550011 
2330	 1.00787809424564 
2331	 1.00450363113057 
2332	 1.23370729109292 
2333	 2.38399148068092 
2334	 3.84980565600972 
2335	 2.29639713254083 
2336	 2.06596912563493 
2337	 1.53616573511167 
2338	 2.09332757282454 
2339	 4.72449286097638 
2340	 4.54119901542955 
2341	 2.61884814560938 
2342	 1.90871638686142 
2343	 2.40651712751924 
2344	 4.95130535174817 
2345	 26.7026622126763 
2346	-4.17823449199406 
2347	-3.74114611638569 
2348	-3.76589844228983 
2349	-0.209449001573989 
2350	-4.00813662374301 
2351	-3.8950298002817 
2352	 2.3824103460961 
2353	 0.656978186521298 
2354	 0.247313899979406 
2355	 1.04600008101425 
2356	 1.72256312523327 
2357	-18.4172453909332 
2358	-0.459712430323258 
2359	 1.57727469132807 
2360	 1.43623394075595 
2361	-6.44941052093582 
2362	-0.761258803335018 
2363	 0.326087964360221 
2364	 0.853479338366063 
2365	 0.93680905476791 
2366	 0.843685431045093 
2367	 11.4168152838547 
2368	 1.32482192969879 
2369	-0.353727844114698 
2370	-0.540619401362795 
2371	-0.535222896517039 
2372	-0.811892137739799 
2373	-0.928879648175954 
2374	 6.72737548461462E-02 
2375	 1.15846826574877 
2376	 2.84706421248138 
2377	 1.44755515921927 
2378	-0.743546826965841 
2379	-0.268225922922184 
2380	-3.98435563432746E-02 
2381	 5.54376757939009E-02 
2382	 3.16452598791909 
2383	-10.9378069601967 
2384	-4.07099116403426 
2385	-4.28560694868613 
2386	-11.2200185078106 
2387	-1.52525050392207 
2388	 1.54979083368781 
2389	-1.8045789343651 
2390	-2.64515075696513 
2391	-1.24255449645657 
2392	-0.500615451050148 
2393	 1.92184651845252 
2394	 1.12095343024212 
2395	 0.855891121975589 
2396	-0.317528644709543 
2397	 0.166361012318181 
2398	-0.956630181363663 
2399	-3.85843860073169 
2400	-7.59243466445771 
2401	 2.11791449434501 
2402	 2.27215752034388 
2403	-2.8208250501866 
2404	-4.21954078319743 
2405	-4.9179931572302 
2406	-2.22343084490336 
2407	-5.52331542250902 
2408	 6.88062681541771 
2409	-1.86417524861435 
2410	-1.05033686439704 
2411	-0.875129121393039 
2412	-0.662896859688569 
2413	-0.353739747706085 
2414	-0.104420439929903 
2415	-0.238957903439827 
2416	-0.173106905198947 
2417	-6.83662987649983E-02 
2418	-0.274007911124804 
2419	 1.2827642076137 
2420	 1.82826360010343 
2421	 0.77217408049178 
2422	 0.518769007241998 
2423	 0.818343123411992 
2424	 1.60855688272825 
2425	 0.867337886247157 
2426	 1.13593190762549 
2427	-3.42582787611968 
2428	-1.06047335093207 
2429	-0.538667388658328 
2430	-0.320786460416498 
2431	 5.28159352945488E-02 
2432	-4.02941293713884E-02 
2433	-0.166114716870812 
2434	 0.215673954398505 
2435	-2.15538006410422E-03 
2436	-64.0554148925861 
2437	-0.206642382249285 
2438	 0.729393275533584 
2439	 0.735113170201499 
2440	 1.56551856529868 
2441	 2.66402304698352 
2442	-9.19486689110962 
2443	-1.90020475224251 
2444	 2.61863581837146 
2445	-0.378270724042311 
2446	-0.12961424034222 
2447	-0.591829602883675 
2448	-0.416470462968894 
2449	 0.587919739939525 
2450	 2.65229860686222 
2451	-4.33240838176054 
2452	 5.273721627859 
2453	 1.23505272224121 
2454	 1.83924850139918 
2455	 0.964386798879188 
2456	 12.1828778871102 
2457	-0.818185625180744 
2458	 3.02476920867785E-02 
2459	-0.483460494813014 
2460	-1.71108794904383 
2461	-9.10757824540235 
2462	-131.591224148358 
2463	-30.6475432257743 
2464	-9.61322630163027 
2465	 82.8034210810531 
2466	 4.46798341617475 
2467	 4.5785575349482 
2468	 0.281195199873701 
2469	-0.242363481535208 
2470	-0.172301185861967 
2471	-0.235319665787366 
2472	-1.38004537564869 
2473	 1.67673433581634 
2474	 0.752446352557267 
2475	 1.88991792387404 
2476	 2.38560197246497 
2477	 0.499978665741048 
2478	 0.336354092516625 
2479	 5.43437495652655E-02 
2480	-1.87780322330952 
2481	-4.03358955339856 
2482	-1.36310750093373 
2483	-0.817814154450151 
2484	-0.535408394700827 
2485	-0.349979883861424 
2486	-0.566199392220205 
2487	-0.704188868849458 
2488	-0.713411032591732 
2489	 2.45057103054347 
2490	-5.68971899794648E-03 
2491	-5.06770658523237E-02 
2492	 0.100321570456416 
2493	 0.25974385503772 
2494	-0.13707137417304 
2495	-12.9572917886078 
2496	-1.0477377101607 
2497	 0.557873533145957 
2498	 2.72195031873624 
2499	 2.91677617791911 
2500	 4.68284802275044 
