Wavelength	rt0712EAST_CLOSE00005.asd
350	 5.10522858173145E-02 
351	 5.14080283542396E-02 
352	 5.10530813196091E-02 
353	 5.12357312622091E-02 
354	 5.21539687661864E-02 
355	 5.13323283481836E-02 
356	 5.11687450846352E-02 
357	 0.051331726985066 
358	 5.09679645552841E-02 
359	 5.08522080296417E-02 
360	 5.12778729159671E-02 
361	 5.17022712226284E-02 
362	 0.051236496821462 
363	 5.14174204371659E-02 
364	 5.18693098100071E-02 
365	 5.20862419450997E-02 
366	 5.17448417003873E-02 
367	 5.16535453420112E-02 
368	 5.16707544268648E-02 
369	 5.16232724026211E-02 
370	 5.22752059458575E-02 
371	 5.25506017434369E-02 
372	 0.052060918879355 
373	 0.051125298651382 
374	 0.051875890249455 
375	 5.27073715796027E-02 
376	 5.25930112667466E-02 
377	 5.19105837565078E-02 
378	 5.18266874189758E-02 
379	 5.17855626430878E-02 
380	 5.14787232390201E-02 
381	 5.29612130951924E-02 
382	 5.32374945635445E-02 
383	 5.26254778949517E-02 
384	 5.28326161767185E-02 
385	 5.24085612209014E-02 
386	 5.26652978192054E-02 
387	 0.053814844004912 
388	 5.46360235865903E-02 
389	 5.50992104842251E-02 
390	 5.48987330795054E-02 
391	 5.42049264950096E-02 
392	 5.42941489550724E-02 
393	 5.45987398702468E-02 
394	 5.48043178826374E-02 
395	 5.47950697557397E-02 
396	 5.49574383112197E-02 
397	 5.49831433261783E-02 
398	 5.50412113512431E-02 
399	 5.56665143857274E-02 
400	 5.56846680317439E-02 
401	 5.54976260117951E-02 
402	 0.055497208180042 
403	 5.54700037002975E-02 
404	 5.55181068319673E-02 
405	 5.56254151659379E-02 
406	 5.57148164168859E-02 
407	 5.56022715199048E-02 
408	 5.57340857723719E-02 
409	 5.60356257916987E-02 
410	 5.59357068459716E-02 
411	 5.62707513209939E-02 
412	 5.63956265892724E-02 
413	 5.60326548169809E-02 
414	 5.64684686396537E-02 
415	 5.65403828705236E-02 
416	 5.64735667730233E-02 
417	 5.68568776345194E-02 
418	 5.67891060007391E-02 
419	 5.66562657987255E-02 
420	 5.67170257046006E-02 
421	 5.69790310811474E-02 
422	 5.70707591296027E-02 
423	 5.71398515503254E-02 
424	 5.73451809906659E-02 
425	 5.75755307396447E-02 
426	 5.75770623113336E-02 
427	 5.75537394526899E-02 
428	 0.057866419794573 
429	 5.82126690096816E-02 
430	 5.84447321607989E-02 
431	 5.85311046978954E-02 
432	 0.058560313872188 
433	 5.86950018049367E-02 
434	 5.90118880389165E-02 
435	 5.94385806533729E-02 
436	 5.95690309311711E-02 
437	 5.95834879868368E-02 
438	 5.97179258936703E-02 
439	 6.01469060259778E-02 
440	 6.02221553182571E-02 
441	 6.04515592502774E-02 
442	 6.09292938113676E-02 
443	 6.09490632871202E-02 
444	 6.11667380213889E-02 
445	 0.061514803250145 
446	 6.17832760111788E-02 
447	 6.20265876632444E-02 
448	 6.22995420480726E-02 
449	 6.25472052957568E-02 
450	 6.26548665963762E-02 
451	 6.28158456174831E-02 
452	 6.31107730894347E-02 
453	 0.063401500684045 
454	 6.30826444116971E-02 
455	 0.063338818995492 
456	 0.063823879686336 
457	 0.063798173573091 
458	 6.37109718652955E-02 
459	 6.38423887434627E-02 
460	 6.40590152348282E-02 
461	 6.38639131678467E-02 
462	 0.064193761578474 
463	 6.46073438691772E-02 
464	 6.46447945076089E-02 
465	 6.45343162555106E-02 
466	 6.47494484948232E-02 
467	 6.51078775101596E-02 
468	 6.51747805452973E-02 
469	 6.54814961339703E-02 
470	 6.57240095530872E-02 
471	 6.57835493803822E-02 
472	 6.58865357809338E-02 
473	 6.60142401069207E-02 
474	 6.63146721265943E-02 
475	 6.68127633870284E-02 
476	 6.69731121957174E-02 
477	 0.067266902229874 
478	 6.76326719941212E-02 
479	 6.76958126594054E-02 
480	 6.79812002510078E-02 
481	 6.83777475950927E-02 
482	 6.87058658946208E-02 
483	 0.068798512603805 
484	 6.90906325261995E-02 
485	 6.96481443085313E-02 
486	 0.070263057448752 
487	 7.01802618362738E-02 
488	 7.02612227997943E-02 
489	 7.08333117476898E-02 
490	 0.071587633608774 
491	 7.16707311414972E-02 
492	 0.071778354701744 
493	 7.24389008385447E-02 
494	 7.28490493717439E-02 
495	 0.073289901713106 
496	 7.37708957419501E-02 
497	 7.41826839131709E-02 
498	 7.45418391769509E-02 
499	 7.49605865735946E-02 
500	 7.54909438681285E-02 
501	 7.60881804959111E-02 
502	 7.62687428943422E-02 
503	 0.07659516911047 
504	 7.75549875515406E-02 
505	 0.078019223317881 
506	 7.84902872643752E-02 
507	 7.90876185697066E-02 
508	 7.96117305022001E-02 
509	 8.03135372635224E-02 
510	 8.08069387260745E-02 
511	 8.10156224589259E-02 
512	 8.18492740187101E-02 
513	 8.23940557936296E-02 
514	 8.27609558340896E-02 
515	 0.083421489029241 
516	 0.083989106835255 
517	 8.48105750719887E-02 
518	 8.57084699049918E-02 
519	 8.58241960330402E-02 
520	 8.64749071661236E-02 
521	 8.73685655681474E-02 
522	 8.80259872613313E-02 
523	 8.86951876192981E-02 
524	 8.93299364532693E-02 
525	 8.99681218203959E-02 
526	 9.06946686315184E-02 
527	 9.13636221340283E-02 
528	 9.20375763991848E-02 
529	 9.27640390256455E-02 
530	 0.09352596179204 
531	 9.41034633971346E-02 
532	 9.47273475789534E-02 
533	 0.095702582988524 
534	 9.66863846597218E-02 
535	 9.75383585937165E-02 
536	 9.82569848951884E-02 
537	 9.89724673614465E-02 
538	 9.97605473068426E-02 
539	 0.100562100426374 
540	 0.101357770174021 
541	 0.102429076295241 
542	 0.103310475301354 
543	 0.103987398398752 
544	 0.104743148985552 
545	 0.105659227462732 
546	 0.106604456531275 
547	 0.107481215771825 
548	 0.108305115165782 
549	 0.109247273890465 
550	 0.110185566035492 
551	 0.110950314066838 
552	 0.111755113137812 
553	 0.112595008525614 
554	 0.113426828610697 
555	 0.114177740571007 
556	 0.115057229468371 
557	 0.115973253994184 
558	 0.116776195173525 
559	 0.117401975322904 
560	 0.118160465127733 
561	 0.118951134461278 
562	 0.119459495114194 
563	 0.120021829797653 
564	 0.120642873760285 
565	 0.121204564817308 
566	 0.12140529988648 
567	 0.121821919161742 
568	 0.122327071350261 
569	 0.122619256509674 
570	 0.123130290270552 
571	 0.123502986748016 
572	 0.123707257416532 
573	 0.124098544250413 
574	 0.124371399620974 
575	 0.124491544967994 
576	 0.124533728231726 
577	 0.124703132925606 
578	 0.124914649968497 
579	 0.125062827379197 
580	 0.125060817637293 
581	 0.125138715898759 
582	 0.125167898941472 
583	 0.125031277564219 
584	 0.124697792811016 
585	 0.124358595928138 
586	 0.12395842711603 
587	 0.123361813063425 
588	 0.122610101127996 
589	 0.12221607694901 
590	 0.122159160699756 
591	 0.121788949742793 
592	 0.121649903660798 
593	 0.12144641930269 
594	 0.120914176307449 
595	 0.12033919621982 
596	 0.119774545537631 
597	 0.119221259953366 
598	 0.118629921049132 
599	 0.117769777561919 
600	 0.117061051449159 
601	 0.116688842374239 
602	 0.11633345314949 
603	 0.116112645415289 
604	 0.115970880449314 
605	 0.115836210142485 
606	 0.115812598093383 
607	 0.115766512430658 
608	 0.115648197037598 
609	 0.115510523789006 
610	 0.115458845978724 
611	 0.11544640313964 
612	 0.115394127478102 
613	 0.115239140549899 
614	 0.115032677669972 
615	 0.114847006758324 
616	 0.114759870981872 
617	 0.114775154471713 
618	 0.114610451512252 
619	 0.114320020208522 
620	 0.114574858216249 
621	 0.114352656735868 
622	 0.11402364485802 
623	 0.114170109518748 
624	 0.114018668564231 
625	 0.113813620547034 
626	 0.113643346991403 
627	 0.113420066105885 
628	 0.113284616142154 
629	 0.1132424725357 
630	 0.113226179345759 
631	 0.113070735441963 
632	 0.112892221952044 
633	 0.112856793709788 
634	 0.113077501584638 
635	 0.113123299460776 
636	 0.11301801926324 
637	 0.112911936758702 
638	 0.113069250070605 
639	 0.112974587989611 
640	 0.112836442312078 
641	 0.112906574332022 
642	 0.112652631055741 
643	 0.112664796294706 
644	 0.112745112760974 
645	 0.112065408759832 
646	 0.111552151196373 
647	 0.111533012727147 
648	 0.111814265222409 
649	 0.111320237703157 
650	 0.11116534286057 
651	 0.111127744224477 
652	 0.110598023390655 
653	 0.109836672013811 
654	 0.109184744194036 
655	 0.10858524159935 
656	 0.10751781134423 
657	 0.106815140700225 
658	 0.105974736730003 
659	 0.104690000694606 
660	 0.10410906860129 
661	 0.103553398161174 
662	 0.102696825393048 
663	 0.101532973370143 
664	 0.10083809492765 
665	 0.100252427823114 
666	 9.95468661548207E-02 
667	 9.90081904240592E-02 
668	 9.86564651083161E-02 
669	 9.84869170425585E-02 
670	 9.84317986322153E-02 
671	 9.81997722806685E-02 
672	 9.81610053787703E-02 
673	 9.84091698490857E-02 
674	 9.87455026974172E-02 
675	 9.90297023731678E-02 
676	 9.92651817316412E-02 
677	 9.95528343464435E-02 
678	 0.100159828532213 
679	 0.100732950700156 
680	 0.10125692901752 
681	 0.101900027497913 
682	 0.102917598738357 
683	 0.103929872249205 
684	 0.104687382456287 
685	 0.105246402745778 
686	 0.105891155024493 
687	 0.106634442023732 
688	 0.107300846389298 
689	 0.107740153338653 
690	 0.107912071317681 
691	 0.107977268748959 
692	 0.108178673975157 
693	 0.108024057304966 
694	 0.107961420004039 
695	 0.108057921230138 
696	 0.107612065836612 
697	 0.106907112657468 
698	 0.106031492276103 
699	 0.105171316387328 
700	 0.1045726862273 
701	 0.103985506549712 
702	 0.103266144606248 
703	 0.102353138512678 
704	 0.10128908178948 
705	 0.100141155368986 
706	 9.90515989079447E-02 
707	 9.82377048181933E-02 
708	 9.67788783017197E-02 
709	 9.50463490303015E-02 
710	 9.37155066053103E-02 
711	 9.20289585058188E-02 
712	 0.090422632495024 
713	 8.88952999136253E-02 
714	 8.68731888038123E-02 
715	 8.48096991814258E-02 
716	 8.26325212452518E-02 
717	 8.05294725028041E-02 
718	 7.85258877246396E-02 
719	 7.61854380878847E-02 
720	 7.44419812372657E-02 
721	 7.34269005819921E-02 
722	 7.16632680046991E-02 
723	 6.94668814309504E-02 
724	 6.75591048738667E-02 
725	 6.59558840841256E-02 
726	 6.39501659348893E-02 
727	 6.19301702089481E-02 
728	 6.02073386615191E-02 
729	 5.81660867477266E-02 
730	 5.60987715588621E-02 
731	 5.41967046626124E-02 
732	 5.23954644672528E-02 
733	 5.12351493661757E-02 
734	 5.01305036662993E-02 
735	 4.90405380727238E-02 
736	 0.048625197030265 
737	 4.80700233915129E-02 
738	 4.72763460242375E-02 
739	 4.65203485466859E-02 
740	 4.65932451338411E-02 
741	 4.67590042152058E-02 
742	 4.67498475173271E-02 
743	 4.65979440153131E-02 
744	 4.66005102987351E-02 
745	 4.66197665030344E-02 
746	 4.65620860454226E-02 
747	 4.64520796653998E-02 
748	 4.62928913242938E-02 
749	 4.61597586654324E-02 
750	 4.61046992827503E-02 
751	 4.60244924431109E-02 
752	 4.61739389234493E-02 
753	 4.63059436585918E-02 
754	 4.60270172149199E-02 
755	 0.046193018202781 
756	 4.61255775240765E-02 
757	 4.57061403004157E-02 
758	 4.59101461568398E-02 
759	 0.045876977505864 
760	 4.53398678417282E-02 
761	 4.51329987498174E-02 
762	 4.56921737752897E-02 
763	 4.58362724676371E-02 
764	 4.56429856310995E-02 
765	 4.56176498018874E-02 
766	 4.60648369772694E-02 
767	 0.046431694332935 
768	 4.65469672771385E-02 
769	 4.65103837704973E-02 
770	 4.66402389942674E-02 
771	 4.67761828308779E-02 
772	 4.67930240938988E-02 
773	 4.69317748361886E-02 
774	 4.71544896742682E-02 
775	 4.73245308536683E-02 
776	 4.73429209821132E-02 
777	 4.76178099260713E-02 
778	 4.78794619305787E-02 
779	 4.80612776933913E-02 
780	 4.83438413203622E-02 
781	 4.86393052794928E-02 
782	 4.87908065526842E-02 
783	 4.87997680663169E-02 
784	 4.90472916110981E-02 
785	 4.94100376262302E-02 
786	 4.98082060382112E-02 
787	 5.01466476963512E-02 
788	 5.02785369153381E-02 
789	 5.03586505902236E-02 
790	 5.06194984078553E-02 
791	 5.12420190240121E-02 
792	 5.15897679204919E-02 
793	 5.17323276637951E-02 
794	 5.18792432244204E-02 
795	 5.22914929524312E-02 
796	 5.28090116818567E-02 
797	 5.30437008669719E-02 
798	 5.28866078345512E-02 
799	 5.32074240587612E-02 
800	 5.38331161675235E-02 
801	 5.43813702084838E-02 
802	 5.44387110106844E-02 
803	 5.42727103196351E-02 
804	 5.44761170346322E-02 
805	 5.49511196760534E-02 
806	 5.49240016524285E-02 
807	 5.50033262945111E-02 
808	 5.49821204693929E-02 
809	 5.46641575358012E-02 
810	 5.43558681398656E-02 
811	 5.37079614247856E-02 
812	 5.30626046914193E-02 
813	 5.29844765156094E-02 
814	 5.26704323108453E-02 
815	 5.24184523000255E-02 
816	 5.24874628026229E-02 
817	 5.27710970633991E-02 
818	 5.16071822284507E-02 
819	 5.09476848285216E-02 
820	 5.09492717225883E-02 
821	 4.95310832047565E-02 
822	 4.88838854972454E-02 
823	 4.83849502858851E-02 
824	 0.047329629231315 
825	 0.046534919298032 
826	 0.045214948239365 
827	 4.37561296084506E-02 
828	 4.30169515946335E-02 
829	 4.27389102541082E-02 
830	 4.16411225562297E-02 
831	 4.00705690561342E-02 
832	 3.94945135520681E-02 
833	 3.97127504891474E-02 
834	 3.98935254975389E-02 
835	 3.94991306781972E-02 
836	 3.84499609491571E-02 
837	 0.037789642677419 
838	 3.77502294414583E-02 
839	 3.80549486026896E-02 
840	 3.77059695098955E-02 
841	 3.76034951594832E-02 
842	 0.037542922855386 
843	 3.72380188782032E-02 
844	 3.79637649594642E-02 
845	 3.78657235110074E-02 
846	 3.70267555871445E-02 
847	 3.68214288056723E-02 
848	 3.70330428336112E-02 
849	 0.03692692194792 
850	 3.65209922490516E-02 
851	 3.68200378735576E-02 
852	 3.69822261962147E-02 
853	 3.68925877057861E-02 
854	 3.67298985091477E-02 
855	 3.69469940438669E-02 
856	 3.68124515634864E-02 
857	 3.63348259266771E-02 
858	 3.58398493143994E-02 
859	 3.59781304601901E-02 
860	 3.59722491475514E-02 
861	 3.58947153101658E-02 
862	 3.61501153495811E-02 
863	 3.63241398952746E-02 
864	 3.60501676136479E-02 
865	 3.55145703894494E-02 
866	 3.53699987303015E-02 
867	 3.55262969804348E-02 
868	 3.54692286498763E-02 
869	 3.51269261304316E-02 
870	 3.50515587955836E-02 
871	 3.48611934608285E-02 
872	 3.46793649293656E-02 
873	 3.46426899126904E-02 
874	 3.46867457380962E-02 
875	 3.46879674863252E-02 
876	 3.45571324960317E-02 
877	 0.034401193803536 
878	 3.50002676261699E-02 
879	 3.49347717678176E-02 
880	 3.44037837569717E-02 
881	 3.42531971414125E-02 
882	 3.38588560445101E-02 
883	 3.38387907605033E-02 
884	 3.39447896902345E-02 
885	 3.34336833629371E-02 
886	 3.36520632788056E-02 
887	 3.36777798446034E-02 
888	 3.32897971637964E-02 
889	 3.33276772963794E-02 
890	 3.36434615961074E-02 
891	 0.033470722344876 
892	 3.28403649421945E-02 
893	 3.37246984063962E-02 
894	 3.31071833978104E-02 
895	 3.23047215234916E-02 
896	 3.30481620847509E-02 
897	 3.25129851267694E-02 
898	 3.30137849146247E-02 
899	 3.44392722445882E-02 
900	 3.50895191982253E-02 
901	 3.18637051249058E-02 
902	 3.06323330210603E-02 
903	 3.13999566145189E-02 
904	 3.20876104891784E-02 
905	 0.032290650283971 
906	 3.19531347256207E-02 
907	 3.13381141797669E-02 
908	 3.10950934413803E-02 
909	 3.20319456303657E-02 
910	 3.25246073846733E-02 
911	 3.19239195534362E-02 
912	 3.10073328815287E-02 
913	 3.21197674111401E-02 
914	 3.23360923517256E-02 
915	 3.10463335709086E-02 
916	 3.09926234100338E-02 
917	 3.18242737709518E-02 
918	 3.19177271732363E-02 
919	 3.15650297144187E-02 
920	 3.32849486556918E-02 
921	 3.17393423401361E-02 
922	 3.03463954784864E-02 
923	 0.031122029541827 
924	 2.92617123768305E-02 
925	 0.029930013510988 
926	 3.11595845670383E-02 
927	 2.93686741449661E-02 
928	 2.57254040149694E-02 
929	 2.51879785560485E-02 
930	 0.023259440339745 
931	 1.15706114347516E-02 
932	 2.23709752941826E-02 
933	 3.56212909698791E-02 
934	 2.38410504057443E-02 
935	-9.80955027965114E-03 
936	 2.00312465761253E-02 
937	 1.99769480961886E-02 
938	 1.01919889739888E-02 
939	 2.82435322799649E-02 
940	 0.041230529309192 
941	 5.10559638996119E-02 
942	 4.39694818749276E-02 
943	 9.13471622182832E-03 
944	 2.52013210971801E-02 
945	 2.00347292550404E-02 
946	 5.30251472084152E-03 
947	 3.18820614417491E-02 
948	 3.59745704232781E-02 
949	 2.21748357146068E-02 
950	 1.66791355852196E-02 
951	 3.98228881382557E-02 
952	 0.027120384699354 
953	 1.78404641694465E-02 
954	 2.62740658235193E-02 
955	 4.05309468581881E-02 
956	 3.52032968125289E-02 
957	 3.34693584385895E-02 
958	 3.39967573240428E-02 
959	 0.022740737851856 
960	 2.41780955197769E-02 
961	 3.01329418843535E-02 
962	 3.29959579203306E-02 
963	 3.04636892330173E-02 
964	 3.34348649781165E-02 
965	 3.27849214758629E-02 
966	 3.01349778407227E-02 
967	 3.24040516102152E-02 
968	 2.75506689261344E-02 
969	 2.68494123748775E-02 
970	 2.98097350905042E-02 
971	 0.026457383062473 
972	 2.38203128067854E-02 
973	 2.37046058158929E-02 
974	 2.75143541323953E-02 
975	 3.45100783700066E-02 
976	 2.96045542899022E-02 
977	 2.59172298543812E-02 
978	 2.84001788659395E-02 
979	 3.12659712585648E-02 
980	 3.16007026480412E-02 
981	 2.94898760905154E-02 
982	 2.79120102887056E-02 
983	 3.03178630812728E-02 
984	 3.15765040646618E-02 
985	 3.16895392420896E-02 
986	 3.07793754607052E-02 
987	 2.92222304472204E-02 
988	 3.10352458442958E-02 
989	 2.93934787755013E-02 
990	 2.57700710079893E-02 
991	 2.73254006732225E-02 
992	 3.10543994530478E-02 
993	 3.40185892949992E-02 
994	 3.36206903654444E-02 
995	 2.96366964110852E-02 
996	 3.22176989501265E-02 
997	 2.84364577774407E-02 
998	 2.33630298302345E-02 
999	 2.93415345908295E-02 
1000	 0.02883996680611 
1001	 3.16878559731376E-02 
1002	 3.24351975021848E-02 
1003	 0.032419670733288 
1004	 3.17611716660371E-02 
1005	 3.16063426596122E-02 
1006	 3.13373411188859E-02 
1007	 3.06196169091406E-02 
1008	 3.16082931097654E-02 
1009	 3.17664454545368E-02 
1010	 3.06217145027619E-02 
1011	 3.06144937744238E-02 
1012	 3.02156622025451E-02 
1013	 0.029667872896183 
1014	 0.029662390509732 
1015	 3.07114714066871E-02 
1016	 0.030716213321243 
1017	 3.03885820526806E-02 
1018	 0.03003214324136 
1019	 2.90905168513338E-02 
1020	 2.87877373942143E-02 
1021	 2.83527297745124E-02 
1022	 2.85442033671149E-02 
1023	 2.98831469951279E-02 
1024	 3.05239493481553E-02 
1025	 0.032401941999464 
1026	 3.35236122021101E-02 
1027	 0.034375104186038 
1028	 3.56823507896203E-02 
1029	 3.52444603548337E-02 
1030	 3.35550346712671E-02 
1031	 3.25057130609457E-02 
1032	 2.94258274162014E-02 
1033	 2.88923885733845E-02 
1034	 3.05170202083352E-02 
1035	 3.06707102821966E-02 
1036	 3.12060337178205E-02 
1037	 3.17981958520801E-02 
1038	 3.22035241131975E-02 
1039	 3.18122257609381E-02 
1040	 3.15806125127761E-02 
1041	 3.13843248944844E-02 
1042	 3.10632343481007E-02 
1043	 2.97305643054673E-02 
1044	 0.029462142650957 
1045	 0.029879357497538 
1046	 3.02792457500346E-02 
1047	 3.08278968813368E-02 
1048	 3.13595766021516E-02 
1049	 3.26760756040979E-02 
1050	 3.29452042554045E-02 
1051	 3.28912542790126E-02 
1052	 3.24079134667095E-02 
1053	 3.01950718097855E-02 
1054	 2.96009729572951E-02 
1055	 2.99571897763743E-02 
1056	 2.98114735949632E-02 
1057	 2.98505304323696E-02 
1058	 0.030824044600203 
1059	 3.10215723353264E-02 
1060	 3.05685743437661E-02 
1061	 3.02995870098874E-02 
1062	 2.98157704581886E-02 
1063	 3.01232988005575E-02 
1064	 3.06407733890969E-02 
1065	 3.10438431365152E-02 
1066	 3.28083395455948E-02 
1067	 3.30494731041952E-02 
1068	 3.19559553037899E-02 
1069	 3.13504825499955E-02 
1070	 2.92252576950421E-02 
1071	 2.89869304421919E-02 
1072	 2.97274581020732E-02 
1073	 3.13564124549968E-02 
1074	 3.24498032866847E-02 
1075	 3.52648683169233E-02 
1076	 0.035252039517482 
1077	 3.32129423407704E-02 
1078	 3.25942124906442E-02 
1079	 3.08483300656577E-02 
1080	 3.06516148969327E-02 
1081	 3.22079636938269E-02 
1082	 3.26096562815033E-02 
1083	 3.36777919507528E-02 
1084	 3.34850273017971E-02 
1085	 3.14736332856269E-02 
1086	 3.07648579138236E-02 
1087	 2.97623081270367E-02 
1088	 2.90860826168179E-02 
1089	 2.89319315022844E-02 
1090	 2.99216649021843E-02 
1091	 3.03676718345046E-02 
1092	 3.05312940298829E-02 
1093	 3.13455304112157E-02 
1094	 3.33505452965111E-02 
1095	 3.36955469017117E-02 
1096	 0.033498153177713 
1097	 3.32340172552941E-02 
1098	 3.07614755052474E-02 
1099	 3.04158339226343E-02 
1100	 3.28448492289652E-02 
1101	 3.29464161225978E-02 
1102	 3.19034980111709E-02 
1103	 3.16703977992317E-02 
1104	 3.08398118435912E-02 
1105	 2.83746932770877E-02 
1106	 2.76937700774879E-02 
1107	 3.16838694654162E-02 
1108	 0.03351077740202 
1109	 2.99985258993785E-02 
1110	 2.79906500068798E-02 
1111	 2.28599551135872E-02 
1112	 2.16997606585484E-02 
1113	 2.35180339884237E-02 
1114	 2.45333159810069E-02 
1115	 3.20264596498256E-02 
1116	 3.04806544233524E-02 
1117	 1.04974200069405E-02 
1118	 7.0613348450381E-03 
1119	 2.09855266294081E-02 
1120	 1.90593777737568E-02 
1121	 0.028857078318847 
1122	 3.27299927252199E-02 
1123	-1.56950025149649E-02 
1124	-6.51317402024386E-02 
1125	-3.50629010751986E-02 
1126	 3.67851334821649E-02 
1127	 7.41086348309698E-02 
1128	 6.50553415331686E-02 
1129	 4.82521487106535E-02 
1130	-1.62764193798946E-02 
1131	-2.32109123808805E-02 
1132	-0.017870501015661 
1133	-4.6724692055975E-03 
1134	 2.60593026835347E-02 
1135	 3.41602232420033E-02 
1136	 4.54790347000352E-02 
1137	 4.86468852768093E-02 
1138	 4.41673979692953E-02 
1139	 3.27632729391497E-02 
1140	 3.84451969175596E-02 
1141	 0.029783316382653 
1142	 1.61196968385519E-02 
1143	 2.58796700220996E-02 
1144	 2.16039021523007E-02 
1145	 7.02682741607252E-03 
1146	 1.46610912356195E-02 
1147	 2.83856108678442E-02 
1148	 3.20180282860797E-02 
1149	 2.72913897479156E-02 
1150	 0.027007750652484 
1151	 2.30242260637333E-02 
1152	 0.020261058803177 
1153	 1.99557153296007E-02 
1154	 2.16638307265196E-02 
1155	 0.026144546410004 
1156	 1.86528159071868E-02 
1157	 1.62507156065333E-02 
1158	 2.28073592578625E-02 
1159	 2.47620824579605E-02 
1160	 2.60461864112958E-02 
1161	 3.08640799864293E-02 
1162	 3.12069519640545E-02 
1163	 2.86715256646666E-02 
1164	 2.98526750753027E-02 
1165	 3.07725172187459E-02 
1166	 2.95258624745337E-02 
1167	 3.06697578716601E-02 
1168	 3.20965288195374E-02 
1169	 3.16824592032744E-02 
1170	 3.16147084356602E-02 
1171	 3.16427498850143E-02 
1172	 3.18628023244963E-02 
1173	 0.031198859287841 
1174	 0.030105723146137 
1175	 2.90193046778155E-02 
1176	 2.92221630679347E-02 
1177	 2.99189406999384E-02 
1178	 3.01182836614477E-02 
1179	 3.04855168532375E-02 
1180	 3.10942689856658E-02 
1181	 0.029867286015293 
1182	 2.91432832572742E-02 
1183	 2.97174309058573E-02 
1184	 2.91133369918694E-02 
1185	 2.88969430904906E-02 
1186	 2.92256657850969E-02 
1187	 0.028901318734848 
1188	 2.81249708003817E-02 
1189	 2.82758724314197E-02 
1190	 2.90986599792864E-02 
1191	 2.86349533484297E-02 
1192	 2.86271096273776E-02 
1193	 2.89289446987207E-02 
1194	 2.95724562153832E-02 
1195	 2.93529157653383E-02 
1196	 3.01844540017285E-02 
1197	 3.13533905413714E-02 
1198	 3.01089366851195E-02 
1199	 2.89406030339568E-02 
1200	 2.92466835600363E-02 
1201	 2.97501906530982E-02 
1202	 2.94586777830866E-02 
1203	 2.88601761169417E-02 
1204	 3.00938313917657E-02 
1205	 3.05733250267969E-02 
1206	 3.04825461147103E-02 
1207	 3.24565809524356E-02 
1208	 0.033188985043479 
1209	 3.25065159969725E-02 
1210	 3.20807118175243E-02 
1211	 3.13598589283273E-02 
1212	 3.03435485459652E-02 
1213	 2.94072518108189E-02 
1214	 2.89163871820619E-02 
1215	 2.93159239971837E-02 
1216	 2.95786485478445E-02 
1217	 0.029601887794812 
1218	 2.98392347993163E-02 
1219	 2.98355088736665E-02 
1220	 3.01608418837426E-02 
1221	 3.04597244867498E-02 
1222	 2.92370943981119E-02 
1223	 2.82756339578904E-02 
1224	 2.88382792450219E-02 
1225	 2.88772864299591E-02 
1226	 2.85393886011113E-02 
1227	 2.92328229296666E-02 
1228	 2.94049009703103E-02 
1229	 2.86774075205853E-02 
1230	 2.89088649568391E-02 
1231	 2.92883740795123E-02 
1232	 2.91127408385366E-02 
1233	 2.91753210069798E-02 
1234	 2.91610542925945E-02 
1235	 2.92603019613168E-02 
1236	 2.99137281027971E-02 
1237	 2.96494601548935E-02 
1238	 0.028540593501535 
1239	 0.02850306720343 
1240	 2.91338216305304E-02 
1241	 2.97421300135955E-02 
1242	 3.03417699655544E-02 
1243	 3.04864588725844E-02 
1244	 3.00585468253023E-02 
1245	 2.95310780638063E-02 
1246	 3.00614205847399E-02 
1247	 3.05269779526202E-02 
1248	 3.00069559182906E-02 
1249	 2.95225239125555E-02 
1250	 2.92836512188205E-02 
1251	 2.86055586991602E-02 
1252	 2.78933918253086E-02 
1253	 2.81810372683122E-02 
1254	 2.88246164157492E-02 
1255	 2.91686647226943E-02 
1256	 2.92278900714671E-02 
1257	 2.95393041070073E-02 
1258	 2.96828302879498E-02 
1259	 2.89999914771121E-02 
1260	 0.028795242514484 
1261	 2.91814200216206E-02 
1262	 2.92979295515809E-02 
1263	 2.88697345771578E-02 
1264	 0.029281127787855 
1265	 2.96307834543526E-02 
1266	 2.96317062862897E-02 
1267	 2.98179874088608E-02 
1268	 2.98104725594611E-02 
1269	 2.92593540542492E-02 
1270	 2.85371861986321E-02 
1271	 2.82056840273488E-02 
1272	 0.028005890567865 
1273	 2.81516573759492E-02 
1274	 2.85447250547486E-02 
1275	 2.86581976721995E-02 
1276	 2.83042274616984E-02 
1277	 2.72549298863631E-02 
1278	 2.70947140049238E-02 
1279	 2.79457663034761E-02 
1280	 2.85100388632694E-02 
1281	 2.84239210367666E-02 
1282	 2.84369500927237E-02 
1283	 2.84944537287526E-02 
1284	 2.72648984934009E-02 
1285	 2.72157348490729E-02 
1286	 2.90041093860946E-02 
1287	 2.96821358333834E-02 
1288	 2.94046981895933E-02 
1289	 2.99633857013278E-02 
1290	 3.12723808867054E-02 
1291	 3.13877976856853E-02 
1292	 3.00758232713262E-02 
1293	 2.98545234873904E-02 
1294	 3.00189101276553E-02 
1295	 2.95998486216496E-02 
1296	 0.030010462857398 
1297	 3.04887253182566E-02 
1298	 2.98593015569603E-02 
1299	 2.98790036196106E-02 
1300	 3.15810878422848E-02 
1301	 3.22938972669539E-02 
1302	 3.13984680348689E-02 
1303	 3.07119303781176E-02 
1304	 3.05196184377553E-02 
1305	 3.01463577407709E-02 
1306	 2.97882015251761E-02 
1307	 3.03878219669706E-02 
1308	 2.95632244241901E-02 
1309	 2.59407775798844E-02 
1310	 2.66428251928205E-02 
1311	 3.10665909405865E-02 
1312	 3.13196003230227E-02 
1313	 3.17146232710103E-02 
1314	 3.26249699486399E-02 
1315	 3.04022190527423E-02 
1316	 2.82191924456513E-02 
1317	 2.61925567691226E-02 
1318	 2.76558081476255E-02 
1319	 3.13482107934494E-02 
1320	 3.18568423149066E-02 
1321	 3.39462847615467E-02 
1322	 3.72452175032449E-02 
1323	 3.48946315657555E-02 
1324	 0.030371595567121 
1325	 3.29186845069736E-02 
1326	 3.27091844191354E-02 
1327	 2.97664969283307E-02 
1328	 2.95928493957581E-02 
1329	 2.55542852996642E-02 
1330	 2.28253282298941E-02 
1331	 2.38990776049995E-02 
1332	 2.48982806176278E-02 
1333	 2.64964228893072E-02 
1334	 2.56496444569981E-02 
1335	 2.49795971641417E-02 
1336	 0.017370761639999 
1337	 1.79624461106709E-02 
1338	 2.70629136306776E-02 
1339	 2.99930062170691E-02 
1340	 2.76986230254778E-02 
1341	 3.22426061677529E-02 
1342	 4.83336593885825E-02 
1343	 5.02171349083839E-02 
1344	 0.042901030691488 
1345	 5.16102305575328E-02 
1346	 5.42150746469706E-02 
1347	 5.51657741122853E-02 
1348	 0.103467372446172 
1349	 0.129572087441389 
1350	 4.97675027500635E-02 
1351	 2.30270532332324E-02 
1352	 9.07482710474426E-02 
1353	 0.114700861421993 
1354	 0.115993169075644 
1355	 0.308626414527122 
1356	 0.461738101026934 
1357	 0.236827227400627 
1358	 6.97372815180057E-02 
1359	 0.102638780876455 
1360	 0.031806495021667 
1361	 0.117419906750589 
1362	 0.353720654570314 
1363	 0.74515726194795 
1364	 0.522183790928719 
1365	 0.159690816144077 
1366	-0.171092682990464 
1367	-0.296020161272609 
1368	-0.244008476972643 
1369	-9.03513062112539E-04 
1370	-6.44363098391399E-02 
1371	-8.67480660699049E-02 
1372	 0.159650870366745 
1373	-3.40996741180093 
1374	 21.6326766193778 
1375	-7.53615600193882E-02 
1376	 0.544148142239186 
1377	 0.713419623114791 
1378	 0.575140212823512 
1379	-0.495372172586265 
1380	-0.171892248614192 
1381	 0.477885349669468 
1382	 9.74085357178279E-02 
1383	 0.278002440171489 
1384	 0.415465467204931 
1385	 0.246062139391884 
1386	 5.08594302336677E-02 
1387	-0.511617963378138 
1388	-0.709688770567126 
1389	-1.55499854625554 
1390	-2.11312031623817 
1391	-0.205684894437427 
1392	 0.37570582368455 
1393	 0.181783542004358 
1394	 0.192974817077193 
1395	 0.17814184649711 
1396	-0.117835914462317 
1397	-0.143409053193804 
1398	-50.7273907054239 
1399	 0.830598484555269 
1400	 1.17934406861026 
1401	 3.36358832039406 
1402	-117.275755713745 
1403	-2.09780996020844 
1404	-9.89182756633199 
1405	-119.171112211529 
1406	 1.36633482933737 
1407	 1.314993369041 
1408	 2.97478088428623 
1409	 10.0129665685696 
1410	-0.815693684040981 
1411	-2.12665527854344 
1412	 1.10246200761924 
1413	 0.533207873871781 
1414	-1.78549295510056 
1415	-1.47778417591905 
1416	-2.525977120022 
1417	-8.28791718406679 
1418	 2.42436125749555 
1419	 1.42624614311766 
1420	 9.31760950270305E-03 
1421	-0.139487354750953 
1422	 0.116197868033532 
1423	 0.162483945399718 
1424	 0.640162253709918 
1425	 0.573475311596124 
1426	-0.55300093949295 
1427	-0.256263459130781 
1428	 0.166932247068574 
1429	 0.230604830768145 
1430	 0.47313136551781 
1431	 0.609493461080995 
1432	 0.790188807209734 
1433	 0.787500090499557 
1434	 0.72796673553371 
1435	 0.66039291404357 
1436	 0.353802899186536 
1437	 0.31435865204791 
1438	 3.59313115671702E-02 
1439	 0.115630946604508 
1440	 0.549358932524776 
1441	 0.473247807103208 
1442	 0.2440993294823 
1443	 0.253916633240563 
1444	 0.28363612889174 
1445	 0.132503564998711 
1446	-9.07574935362442E-02 
1447	-0.074176742654628 
1448	-8.11450308785003E-02 
1449	-0.14066142369859 
1450	-1.28983658751192E-02 
1451	 0.110581667881698 
1452	 7.52088451221637E-02 
1453	-0.015949772880253 
1454	-1.68235525097916E-02 
1455	 2.22776765546576E-02 
1456	 9.3170110226427E-03 
1457	-1.42143094333628E-02 
1458	-2.19786841633718E-03 
1459	-4.32364001392197E-03 
1460	 1.16209672313338E-02 
1461	 0.102844856623816 
1462	 9.68753358796876E-02 
1463	 5.49254911544382E-03 
1464	-3.93770323723609E-03 
1465	-7.02887613632623E-03 
1466	-0.027581056477545 
1467	-1.46379533243269E-03 
1468	 2.31378297452982E-02 
1469	 1.28083624969842E-02 
1470	 6.47383669854014E-03 
1471	 3.99348691808286E-02 
1472	 5.66766677393357E-02 
1473	 4.32133081362417E-02 
1474	 2.15753997871957E-02 
1475	 5.43119636406615E-04 
1476	 4.82845825248465E-03 
1477	-1.38531244366549E-02 
1478	-7.03003923479001E-03 
1479	 5.73166602492989E-02 
1480	 6.94414685888555E-02 
1481	 6.52179857272811E-02 
1482	 4.61677058403587E-02 
1483	-8.91087312350522E-03 
1484	-1.33084827826155E-02 
1485	-1.13536228496271E-02 
1486	-4.17878819520994E-03 
1487	 2.82669631464031E-02 
1488	 3.67334907096586E-02 
1489	 0.032266517170752 
1490	 3.56625894459233E-02 
1491	 4.63523143075908E-02 
1492	 4.50296491156871E-02 
1493	 3.28757407253662E-02 
1494	 3.17339234403429E-02 
1495	 3.30000833901082E-02 
1496	 3.08863820623401E-02 
1497	 3.61921657055456E-02 
1498	 3.54404701682307E-02 
1499	 2.22332380028267E-02 
1500	 1.98489277963108E-02 
1501	 0.026285727525154 
1502	 2.62072273676973E-02 
1503	 2.41917732072985E-02 
1504	 0.025197230944358 
1505	 2.42486969342758E-02 
1506	 2.43926222082459E-02 
1507	 0.025240423493408 
1508	 2.68859704182016E-02 
1509	 2.57751283008436E-02 
1510	 2.41495807460984E-02 
1511	 2.56419715169767E-02 
1512	 2.77874068149372E-02 
1513	 2.75627218880662E-02 
1514	 2.62102363090207E-02 
1515	 2.55480413811982E-02 
1516	 2.45475436112645E-02 
1517	 2.33594857601336E-02 
1518	 2.40416624832116E-02 
1519	 0.026096963247476 
1520	 0.027484300217733 
1521	 2.86809976527745E-02 
1522	 2.83410250844322E-02 
1523	 2.32564759841519E-02 
1524	 1.94402854682199E-02 
1525	 2.10529832656508E-02 
1526	 2.01951860130436E-02 
1527	 1.79149620516301E-02 
1528	 2.17452045875389E-02 
1529	 2.66486068365912E-02 
1530	 2.71372797099357E-02 
1531	 2.93271243688822E-02 
1532	 3.16662220072105E-02 
1533	 2.84289619129642E-02 
1534	 2.59097959609853E-02 
1535	 2.61104064591578E-02 
1536	 2.58586864485152E-02 
1537	 2.55566168262425E-02 
1538	 2.47658528406798E-02 
1539	 0.024052944894746 
1540	 2.47172050762348E-02 
1541	 2.35063556410868E-02 
1542	 2.23902417906913E-02 
1543	 0.023719306559505 
1544	 2.37145719222481E-02 
1545	 2.30148383567469E-02 
1546	 2.40956769295566E-02 
1547	 0.025200844086764 
1548	 2.49414881415202E-02 
1549	 2.61284655363024E-02 
1550	 2.78693382651302E-02 
1551	 2.66954767355013E-02 
1552	 2.38632052399021E-02 
1553	 2.52472012348148E-02 
1554	 2.61582791985204E-02 
1555	 2.19176863596988E-02 
1556	 0.02319370688792 
1557	 2.68197297750823E-02 
1558	 2.46034025414612E-02 
1559	 2.54791215173246E-02 
1560	 2.88583861916176E-02 
1561	 0.025830539459949 
1562	 2.30560755461009E-02 
1563	 0.026056734178623 
1564	 2.57311678281511E-02 
1565	 2.25182621858483E-02 
1566	 2.44050132626904E-02 
1567	 2.64551075122401E-02 
1568	 2.62656442995473E-02 
1569	 2.62770084578156E-02 
1570	 0.02676933058095 
1571	 2.64689134971362E-02 
1572	 2.34443763812555E-02 
1573	 2.38749016403715E-02 
1574	 2.63553042857969E-02 
1575	 2.56201912920531E-02 
1576	 2.68207497935623E-02 
1577	 2.80859067735811E-02 
1578	 2.62749792645469E-02 
1579	 2.51970221335672E-02 
1580	 2.43804639521678E-02 
1581	 2.34940243991948E-02 
1582	 2.45861484099052E-02 
1583	 2.61313653700037E-02 
1584	 0.026763618706686 
1585	 2.63662759362365E-02 
1586	 2.47497583259779E-02 
1587	 2.40684346223365E-02 
1588	 2.48046117749695E-02 
1589	 2.55573112069578E-02 
1590	 2.56911416153057E-02 
1591	 2.41588144525489E-02 
1592	 2.27390169721246E-02 
1593	 2.35934595553034E-02 
1594	 2.46474728425105E-02 
1595	 2.49792346920292E-02 
1596	 2.58491356700992E-02 
1597	 0.026428373548056 
1598	 2.64884383615492E-02 
1599	 2.77084975691378E-02 
1600	 2.79879370803496E-02 
1601	 2.73432395512818E-02 
1602	 2.70489987648587E-02 
1603	 2.60512778954282E-02 
1604	 0.026140463285319 
1605	 2.55878534037051E-02 
1606	 2.47811630969415E-02 
1607	 2.54948620537275E-02 
1608	 2.64550207073602E-02 
1609	 0.027506612182107 
1610	 2.65135987173712E-02 
1611	 2.46040426355249E-02 
1612	 0.025049683540194 
1613	 2.58292678280494E-02 
1614	 2.53765651320358E-02 
1615	 0.025805305254797 
1616	 2.56838105168301E-02 
1617	 2.46582402011899E-02 
1618	 2.42581305059078E-02 
1619	 2.41502224242194E-02 
1620	 2.39127436519118E-02 
1621	 2.23273969549216E-02 
1622	 2.33095194029883E-02 
1623	 2.58541116495096E-02 
1624	 2.56207822234964E-02 
1625	 2.58700922533625E-02 
1626	 2.72468166315818E-02 
1627	 2.78268989718376E-02 
1628	 2.71485096586348E-02 
1629	 2.67993820533687E-02 
1630	 2.69483485858854E-02 
1631	 2.73039427124954E-02 
1632	 2.87602810044176E-02 
1633	 2.95241603761234E-02 
1634	 2.85286737215024E-02 
1635	 2.66375633655737E-02 
1636	 2.56850267962517E-02 
1637	 2.53218320024502E-02 
1638	 2.47506339188034E-02 
1639	 2.46042613880632E-02 
1640	 2.29893797917178E-02 
1641	 0.020984523825948 
1642	 2.26140894730736E-02 
1643	 2.55456863111839E-02 
1644	 2.58531188929254E-02 
1645	 2.61783653477291E-02 
1646	 2.60165505698759E-02 
1647	 2.43833225413836E-02 
1648	 2.55331349400472E-02 
1649	 2.59703300141618E-02 
1650	 2.42510642101414E-02 
1651	 2.49995153997929E-02 
1652	 2.49926205459853E-02 
1653	 2.30792532339416E-02 
1654	 0.023125333309666 
1655	 2.11066714641995E-02 
1656	 2.04961077146643E-02 
1657	 2.34252302296099E-02 
1658	 2.46671561981413E-02 
1659	 2.39188848268094E-02 
1660	 2.48254137404312E-02 
1661	 0.027558983378187 
1662	 2.74486702834242E-02 
1663	 2.67723205228563E-02 
1664	 2.67687306717995E-02 
1665	 2.48171846999242E-02 
1666	 2.44540201381794E-02 
1667	 2.56159199374702E-02 
1668	 2.42434274847042E-02 
1669	 2.47040632655967E-02 
1670	 2.73851803935394E-02 
1671	 2.75631521266272E-02 
1672	 2.25887892222152E-02 
1673	 2.11624762328563E-02 
1674	 2.25390242052271E-02 
1675	 2.17075823219473E-02 
1676	 0.023395394034661 
1677	 2.54903435159211E-02 
1678	 2.40843988369782E-02 
1679	 0.023116011712751 
1680	 2.42347108272147E-02 
1681	 2.39948043002223E-02 
1682	 2.37297697042337E-02 
1683	 2.52959929211187E-02 
1684	 0.026734432816853 
1685	 2.79139904425638E-02 
1686	 2.80768066494573E-02 
1687	 2.75443398519152E-02 
1688	 2.87650655692766E-02 
1689	 0.030427776184011 
1690	 3.02122521203867E-02 
1691	 2.83413008571037E-02 
1692	 2.72509192135402E-02 
1693	 2.91613247623605E-02 
1694	 3.12840948883093E-02 
1695	 3.12515916352207E-02 
1696	 3.10285804012635E-02 
1697	 2.99296410623014E-02 
1698	 2.78689710001107E-02 
1699	 2.89802512680823E-02 
1700	 3.14305548952276E-02 
1701	 0.030811474002723 
1702	 2.90023112011221E-02 
1703	 2.88409564111516E-02 
1704	 2.88351048072368E-02 
1705	 2.72654828275658E-02 
1706	 2.81401901442056E-02 
1707	 3.09691046111614E-02 
1708	 0.029269364157894 
1709	 2.49388593695665E-02 
1710	 2.44575173009746E-02 
1711	 2.52380840208439E-02 
1712	 2.46691229315667E-02 
1713	 2.70554920287837E-02 
1714	 0.027188966628822 
1715	 2.24100026659344E-02 
1716	 2.40749529945168E-02 
1717	 2.40463819645915E-02 
1718	 2.36298253835983E-02 
1719	 2.64082834354151E-02 
1720	 2.83079387098142E-02 
1721	 3.11001635576495E-02 
1722	 2.94608501630879E-02 
1723	 2.39340142217333E-02 
1724	 2.30396521227652E-02 
1725	 2.39537017517483E-02 
1726	 2.57014708283007E-02 
1727	 2.81808484110024E-02 
1728	 2.74302728442074E-02 
1729	 0.025080732190299 
1730	 2.43075168412992E-02 
1731	 2.51679708428806E-02 
1732	 2.57247842498092E-02 
1733	 2.47560069406456E-02 
1734	 2.40865716391823E-02 
1735	 2.59412424128726E-02 
1736	 3.09179275600975E-02 
1737	 3.32210227358902E-02 
1738	 0.030621269121326 
1739	 3.10579931644754E-02 
1740	 3.06268378461108E-02 
1741	 2.69952176524758E-02 
1742	 3.12357517680924E-02 
1743	 0.034807099202788 
1744	 2.88922093070616E-02 
1745	 0.027298943319447 
1746	 1.97121935384047E-02 
1747	 1.54815480282211E-02 
1748	 1.69619662125742E-02 
1749	 0.019241526263599 
1750	 2.66265195458374E-02 
1751	 2.82817336465954E-02 
1752	 2.44819272971377E-02 
1753	 2.54686761072192E-02 
1754	 0.02515308378306 
1755	 2.51455772793899E-02 
1756	 3.24649043352317E-02 
1757	 3.33134005703849E-02 
1758	 3.34456641792372E-02 
1759	 3.40310496854908E-02 
1760	 2.69559481281826E-02 
1761	 2.58488200470432E-02 
1762	 3.16137784901455E-02 
1763	 4.03063818504526E-02 
1764	 4.91544480827504E-02 
1765	 4.38197872095677E-02 
1766	 2.98301176852139E-02 
1767	 2.68493627131614E-02 
1768	 3.09093721261993E-02 
1769	 3.61062873263083E-02 
1770	 4.18905102537384E-02 
1771	 3.72150117034839E-02 
1772	 2.71559650182351E-02 
1773	 2.09076462531561E-02 
1774	 1.85514808387336E-02 
1775	 0.03352012899916 
1776	 3.25815546122151E-02 
1777	 2.70283531937088E-02 
1778	 2.49575674671567E-02 
1779	-3.46675619119517E-03 
1780	-8.44220295259531E-03 
1781	 2.36829467345459E-02 
1782	 3.20344890583181E-02 
1783	 3.92464626234771E-02 
1784	 3.83020802419899E-02 
1785	 1.47473203921575E-02 
1786	 6.09419437583981E-03 
1787	-6.37092232099223E-03 
1788	-2.89486773202406E-03 
1789	 2.06622374293767E-02 
1790	-8.91759011754452E-03 
1791	 2.54255275855784E-02 
1792	 5.84130884740792E-02 
1793	 5.85488595993283E-02 
1794	 7.19102592079523E-02 
1795	 2.56155087943454E-02 
1796	-5.01951266431758E-03 
1797	 5.27495414943898E-02 
1798	 0.151101701360642 
1799	 0.292118178565611 
1800	 3.18621502937162E-02 
1801	-2.37023304476707E-02 
1802	 0.122383187224063 
1803	 0.154957802772114 
1804	 0.30834192324109 
1805	 0.420405941747919 
1806	 0.318720895686508 
1807	 0.242844569480037 
1808	 0.256095469853116 
1809	 0.181691623940938 
1810	-0.50446491566061 
1811	-0.668779105417728 
1812	 0.112538026984307 
1813	 0.24315100452569 
1814	 0.480579205866774 
1815	 0.375107125151937 
1816	-3.82179817831261E-02 
1817	 5.80937905545395E-02 
1818	-0.339740805707618 
1819	-0.335317222047378 
1820	-0.572822510015814 
1821	 0.088929489151392 
1822	 1.19015514317513 
1823	 2.1561608681856 
1824	 3.26896617184803 
1825	 0.902876251981183 
1826	 0.316845273031988 
1827	-1.55799092332032E-02 
1828	-0.624067406341224 
1829	-2.44196498614264 
1830	-2.62134198529618 
1831	-1.13631580669856 
1832	-2.13209752849706 
1833	-1.26384578332749 
1834	-2.19391295111338 
1835	 6.9566936620938 
1836	 1.68178718107315 
1837	-0.768806879464035 
1838	-1.02191185595887 
1839	-2.26940235102641 
1840	-19.8031012982677 
1841	 0.447397188128641 
1842	 0.161352129895975 
1843	 0.214259866822275 
1844	 1.32255501849729 
1845	 2.26160019748741 
1846	-2.56100813206208 
1847	-2.0460258914952 
1848	 0.649420083574069 
1849	 1.0223956479962 
1850	 0.360156702600526 
1851	 1.13004659714952 
1852	 1.69719930580766 
1853	 0.683184332885921 
1854	 0.470116812688391 
1855	 0.332622420617705 
1856	 0.268027151634835 
1857	-5.87205257484963E-02 
1858	 6.79254609419731E-02 
1859	 0.665030313036709 
1860	 0.954070654756126 
1861	 1.29931589688796 
1862	 2.13992085691649 
1863	 2.50743705084461 
1864	 1.72697566862226 
1865	 2.13342683539546 
1866	-19.917620342146 
1867	-5.38665721475553 
1868	-2.06707935101751 
1869	-2.37787574267559 
1870	-5.01161563779318 
1871	-0.771292704695839 
1872	-0.198082001629592 
1873	-0.253786543356977 
1874	-0.219823924842326 
1875	-9.89308424736268E-02 
1876	-0.188295045515614 
1877	-0.7723282049555 
1878	-0.837502799477929 
1879	-1.05128680991897 
1880	-0.833586059535258 
1881	-0.142074796799278 
1882	 0.430331819568304 
1883	 0.742399119951296 
1884	 2.55446472877435 
1885	 9.01022640709389 
1886	 87.5601925332425 
1887	-7.35946578683155 
1888	 15.7897959146929 
1889	 5.15783507933929 
1890	 1.44748596348676 
1891	 1.28542843028359 
1892	 1.50966086577064 
1893	 3.86947044179763 
1894	 12.6475548539284 
1895	 12.9205463645552 
1896	 4.73303073317112 
1897	 0.819752769718908 
1898	 0.323140968902662 
1899	 1.55926799540129 
1900	 4.27876180788456 
1901	-0.417900996928742 
1902	-0.280258461137716 
1903	 0.275794590114448 
1904	 0.079497492663184 
1905	 0.990579764494114 
1906	 0.388818918145462 
1907	 0.392203489818279 
1908	 0.386849474523258 
1909	 6.60377365420403E-03 
1910	 1.3240778612473 
1911	-8.17418789858865 
1912	 10.7918988011604 
1913	 68.9920318966789 
1914	-4.39870166182344 
1915	-4.60119894421099 
1916	-6.99616360152114 
1917	-7.82647863344289 
1918	-9.51988674733406 
1919	 7.10315779168794 
1920	 2.86320913659895 
1921	 1.78589700987625 
1922	 0.798601408784949 
1923	 9.04155355291468E-02 
1924	-0.567933155495963 
1925	-0.062333041584016 
1926	 3.04231954496418E-02 
1927	 0.314444742431493 
1928	 0.126449876955649 
1929	 1.53900211868156 
1930	-1.20903106632018E-02 
1931	 0.502675346407732 
1932	 0.478193727753827 
1933	 0.448773135268584 
1934	 0.3926394396222 
1935	 0.100750084321163 
1936	-1.80127859780677 
1937	-0.449535136805475 
1938	-0.205538381282396 
1939	-0.153407921885222 
1940	-0.155610357030013 
1941	-0.172052063483295 
1942	-0.161193828944611 
1943	 0.043868552832645 
1944	 0.384047989012724 
1945	 0.419225041538737 
1946	 0.966062559104403 
1947	-53.3361984380046 
1948	 0.69799632366983 
1949	 0.435061144965188 
1950	 0.612937994482784 
1951	 0.63961526912699 
1952	 0.894756918148426 
1953	 4.34175001851243 
1954	-2.56721967034361 
1955	-2.34548937575015 
1956	-1.25481886999805 
1957	-0.834573295130386 
1958	-0.815993811963687 
1959	-0.333255000660304 
1960	-9.80052810461129E-02 
1961	 1.05399810980474E-02 
1962	-9.27242327361611E-03 
1963	 8.13327229575206E-02 
1964	 0.704613166184901 
1965	 0.906052305908723 
1966	 1.01617029976646 
1967	 1.20726406828115 
1968	 1.08776456243498 
1969	 0.261663264852617 
1970	 0.234963227607993 
1971	 0.355243592239632 
1972	 0.347911519277463 
1973	 0.366597075505105 
1974	 0.298108745927874 
1975	 0.267403763366251 
1976	 0.357744107247264 
1977	 0.360428141598594 
1978	 0.244048540202772 
1979	 0.159334181784872 
1980	 2.54275287219579E-02 
1981	-0.205712980310417 
1982	-0.415645194644371 
1983	-0.346458975772758 
1984	-0.281547743365471 
1985	-0.295187461940907 
1986	-0.200854937864825 
1987	-2.30224184086507E-02 
1988	 4.52351056191959E-02 
1989	 0.177114458939805 
1990	 0.314371157264989 
1991	 0.232741145386739 
1992	 0.227519754070572 
1993	 0.23406954155634 
1994	 0.175417273665389 
1995	-7.14878328545686E-03 
1996	-0.141721783948731 
1997	-0.321985969058669 
1998	-0.411536297669573 
1999	-0.347804024014023 
2000	-0.282555756620687 
2001	-4.98158958818739E-02 
2002	 0.267330223526233 
2003	 0.81971338994205 
2004	 0.801706130310745 
2005	 0.421153589852567 
2006	 0.554586193076573 
2007	 0.588019907209144 
2008	 0.673271457119062 
2009	 0.818042621548929 
2010	 1.93641945166582 
2011	 1.91580425867553 
2012	 1.40622803482976 
2013	 0.433877738393812 
2014	 0.201622966430306 
2015	 0.126144433514966 
2016	 8.99514274436802E-02 
2017	 9.90852961456451E-02 
2018	 0.103870921737735 
2019	-5.46928032995189E-02 
2020	-0.143390646979094 
2021	-0.157165832237776 
2022	-0.216795947362664 
2023	-0.198219898924812 
2024	-0.12898570114027 
2025	 1.30990859874519E-02 
2026	 7.34720405121241E-03 
2027	-2.48343734341759E-02 
2028	-2.40888185968504E-02 
2029	-5.13944530681676E-02 
2030	-7.15427364083107E-02 
2031	-1.13686600091349E-02 
2032	 6.72262901725636E-02 
2033	 9.72336596520132E-02 
2034	 8.72914454675099E-02 
2035	 0.069174367089501 
2036	 0.031827918752645 
2037	 2.22035217669197E-02 
2038	 4.04279060140303E-02 
2039	 4.53149409156653E-02 
2040	 8.27483301222527E-02 
2041	 7.72524353255736E-02 
2042	 2.05586210935551E-02 
2043	 5.69577383010284E-03 
2044	-4.21775338474683E-03 
2045	-1.27326608699099E-02 
2046	 2.84675457956674E-04 
2047	 1.58652451617556E-02 
2048	 2.40824866105996E-02 
2049	 5.19177244060655E-02 
2050	 8.14250748495204E-02 
2051	 0.118074894886306 
2052	 0.116335878902538 
2053	 5.11525101389111E-02 
2054	 1.96996233295528E-04 
2055	-2.39012745982743E-02 
2056	-2.93603677397226E-02 
2057	 1.04075473905122E-02 
2058	 3.29909201329257E-02 
2059	 7.88225202996075E-02 
2060	 8.20253643131388E-02 
2061	 6.07913612730777E-02 
2062	 2.94817988918426E-02 
2063	 2.33915930100251E-02 
2064	 5.68495414437606E-02 
2065	 0.13873212197746 
2066	 0.225966527507994 
2067	 0.24233375572121 
2068	 0.220739366726798 
2069	 0.190072412096812 
2070	 0.153238157146569 
2071	 0.158048978588627 
2072	 0.183998141108527 
2073	 0.17802800940882 
2074	 0.175448779472734 
2075	 0.146942005084725 
2076	 7.63893657334905E-02 
2077	 0.041850494092735 
2078	-2.69765696675607E-03 
2079	-4.6419901989936E-03 
2080	 2.38343868999689E-02 
2081	 5.06992819121051E-02 
2082	 0.102761568915732 
2083	 0.124665568569918 
2084	 0.105460830980294 
2085	 9.80895852760208E-02 
2086	 7.06158815470183E-02 
2087	 3.63155047247178E-02 
2088	 1.85470835195573E-02 
2089	 9.27442630568435E-03 
2090	 6.48246586609158E-03 
2091	 8.6217415174297E-03 
2092	 9.62343561876791E-03 
2093	 1.71968232239126E-02 
2094	 2.25484537313469E-02 
2095	 2.09733451130654E-02 
2096	 2.53367671163641E-02 
2097	 4.18296543406996E-02 
2098	 4.81771383283036E-02 
2099	 4.46756475784948E-02 
2100	 5.95951702295996E-02 
2101	 6.65769143844215E-02 
2102	 5.18914499443856E-02 
2103	 5.22315211943392E-02 
2104	 5.04115711268616E-02 
2105	 3.88627487096514E-02 
2106	 3.50078998273326E-02 
2107	 2.22310714703954E-02 
2108	 9.47730893807845E-03 
2109	 1.99741540266157E-02 
2110	 3.38427944022883E-02 
2111	 3.96569297443524E-02 
2112	 3.81328409117897E-02 
2113	 4.61224306285479E-02 
2114	 0.051813678553962 
2115	 5.09547674239223E-02 
2116	 5.89778061054182E-02 
2117	 6.21570822725958E-02 
2118	 4.41361629644965E-02 
2119	 4.25209657327717E-02 
2120	 4.99986021340955E-02 
2121	 6.49078194110665E-02 
2122	 7.23432730783154E-02 
2123	 8.07179623866131E-02 
2124	 8.76366863182438E-02 
2125	 8.31834250108369E-02 
2126	 8.15331393732338E-02 
2127	 0.080888784182759 
2128	 8.44910916020693E-02 
2129	 9.68222444566717E-02 
2130	 9.97994887334926E-02 
2131	 8.96801673582712E-02 
2132	 0.083669552143888 
2133	 6.06031227426247E-02 
2134	 4.86413169952393E-02 
2135	 4.78096931399953E-02 
2136	 4.01263589336403E-02 
2137	 2.94163064070207E-02 
2138	 0.020795486209109 
2139	 7.35913251241643E-03 
2140	-3.9249520344809E-03 
2141	-2.47680452920464E-02 
2142	-2.23239453639561E-02 
2143	-3.33105848191291E-03 
2144	 1.10857251192212E-02 
2145	 2.72409443303108E-02 
2146	 5.40384060258498E-02 
2147	 0.063819439252683 
2148	 6.59172967295481E-02 
2149	 6.96024936492772E-02 
2150	 6.93967586717751E-02 
2151	 6.59010597203306E-02 
2152	 5.95186088266561E-02 
2153	 5.91793039362939E-02 
2154	 6.76636403294223E-02 
2155	 8.35816711271436E-02 
2156	 9.14550079470907E-02 
2157	 8.88948691222255E-02 
2158	 8.41856137579673E-02 
2159	 7.36464062096148E-02 
2160	 4.41539499453484E-02 
2161	 3.02289553397053E-02 
2162	 0.022579545375763 
2163	 1.39845237444544E-02 
2164	 3.59109423578909E-03 
2165	 6.73194532747269E-04 
2166	 4.53936294517305E-03 
2167	 1.77301885449832E-03 
2168	-7.85168433663788E-04 
2169	 5.97447888488877E-03 
2170	 9.50504347177969E-03 
2171	 2.66488419745824E-02 
2172	 4.64375288131768E-02 
2173	 5.67018122080722E-02 
2174	 6.20178516578202E-02 
2175	 6.07898518331461E-02 
2176	 7.16470262613851E-02 
2177	 7.02959381026081E-02 
2178	 4.51401937077008E-02 
2179	 2.76115996637858E-02 
2180	 0.024506789753303 
2181	 2.45352431768478E-02 
2182	 3.51896474818261E-02 
2183	 5.14033720906075E-02 
2184	 4.22939834394001E-02 
2185	 2.85295678791258E-02 
2186	 3.64366141147593E-02 
2187	 6.66587794779438E-02 
2188	 7.61031694026565E-02 
2189	 9.40735365299231E-02 
2190	 0.100342309080421 
2191	 0.089802542588235 
2192	 7.27866474138492E-02 
2193	 0.046887965472675 
2194	 3.46937355961215E-02 
2195	 7.83173927106439E-03 
2196	-3.44693580540412E-03 
2197	 1.40193510805569E-02 
2198	 0.013609206824311 
2199	-6.19921301377584E-03 
2200	 4.47883038642775E-03 
2201	 3.04657066004164E-02 
2202	 4.48737807734819E-02 
2203	 5.82694425230067E-02 
2204	 5.47162295575983E-02 
2205	 0.038863526912261 
2206	 0.02244191083186 
2207	 1.50384719354901E-02 
2208	 2.23053985883544E-02 
2209	 3.97213529357951E-02 
2210	 3.99565454072546E-02 
2211	 4.31451957522662E-02 
2212	 5.41328716943872E-02 
2213	 4.94383262288565E-02 
2214	 5.66541372999741E-02 
2215	 7.77595445772751E-02 
2216	 7.96007674785673E-02 
2217	 7.87484280238132E-02 
2218	 7.64834726601807E-02 
2219	 7.43987026562052E-02 
2220	 5.64691149857149E-02 
2221	 5.44384004191867E-02 
2222	 6.56244879617674E-02 
2223	 5.85893584350744E-02 
2224	 5.30512257411478E-02 
2225	 4.42736332468889E-02 
2226	 1.63295152253468E-02 
2227	 1.32122802093686E-03 
2228	-1.23331210475568E-02 
2229	-1.38320760485093E-02 
2230	 5.68804139875847E-03 
2231	 1.43193550371898E-02 
2232	 2.13008631135402E-02 
2233	 2.87247714528909E-02 
2234	 4.01843743502675E-02 
2235	 2.46812175163317E-02 
2236	 1.67325497554312E-02 
2237	 2.13333110990835E-02 
2238	 2.0941753828149E-04 
2239	-2.08867787805194E-02 
2240	-2.75458747844725E-02 
2241	-3.01058177508537E-02 
2242	-1.54227017939541E-02 
2243	 1.78066839961446E-02 
2244	 3.66901747818322E-02 
2245	 4.55270789842834E-02 
2246	 5.35590400520785E-02 
2247	 6.78827597474258E-02 
2248	 9.22439136625105E-02 
2249	 9.45596644493953E-02 
2250	 7.95247998587371E-02 
2251	 6.07449347832612E-02 
2252	 3.90073411496954E-02 
2253	 3.59083471376828E-02 
2254	 4.28732220485716E-02 
2255	 1.74877365736552E-02 
2256	-1.33465243468896E-02 
2257	-1.47316059096136E-02 
2258	-1.38998044830891E-02 
2259	 1.11036151008506E-03 
2260	 1.51374578264025E-02 
2261	 3.79922621271959E-02 
2262	 5.59973677153842E-02 
2263	 0.082197753884124 
2264	 8.21889261480385E-02 
2265	 6.45100039498655E-02 
2266	 6.03412658565193E-02 
2267	 5.41255128997429E-02 
2268	 3.73481344492602E-02 
2269	 1.39716714938817E-02 
2270	 1.24110366307703E-02 
2271	 1.43725628285995E-03 
2272	-3.70335640294703E-03 
2273	 2.85821408452983E-02 
2274	 4.37254654588313E-02 
2275	 3.78781977254748E-02 
2276	 3.31945707935509E-02 
2277	 2.90509757159747E-02 
2278	 3.17810073355739E-02 
2279	 3.65139325812082E-02 
2280	 0.032442992642454 
2281	 2.53022946406412E-02 
2282	 3.51471032094931E-02 
2283	 3.09996113159998E-03 
2284	-2.05086896693035E-03 
2285	 2.57616191005428E-02 
2286	-6.17967902269754E-03 
2287	-0.026460070888419 
2288	-5.86986171278444E-02 
2289	-8.24334077832456E-02 
2290	-4.93424549774322E-02 
2291	-2.04307324513774E-03 
2292	 8.27769872603984E-02 
2293	 0.145660244384705 
2294	 0.148830617577813 
2295	 0.132458366780213 
2296	 0.112840741138721 
2297	 6.55478637590294E-02 
2298	 2.37831678661257E-02 
2299	 4.48003532799183E-02 
2300	 4.17541700183428E-02 
2301	 6.96657200303059E-02 
2302	 0.175184953262053 
2303	 0.211964038627727 
2304	 0.20464292594621 
2305	 0.117082617578509 
2306	-2.16473766670418E-02 
2307	-7.01917796686112E-02 
2308	-5.04446652495177E-02 
2309	-1.70659729273381E-02 
2310	 0.065769296436216 
2311	 0.141899157073403 
2312	 0.148258084004566 
2313	 0.163175303011258 
2314	 0.151154856490169 
2315	 5.06330854478164E-02 
2316	 1.10184792497408E-02 
2317	 2.16652050803098E-02 
2318	-2.07746080578082E-02 
2319	 1.32016776889329E-03 
2320	 2.50625276152716E-03 
2321	 1.19431130754637E-02 
2322	 0.12485935816969 
2323	 0.240986253419733 
2324	 0.255887031457052 
2325	 0.162033639691955 
2326	 5.87938393214369E-02 
2327	-0.100819416201467 
2328	-0.266279143264094 
2329	-0.28019950749528 
2330	-0.197161335534554 
2331	-8.11602992911606E-02 
2332	 0.10771438085981 
2333	 0.298805657240072 
2334	 0.33774174993044 
2335	 0.252532045803847 
2336	 0.156185233328595 
2337	-8.50347045336771E-02 
2338	-0.179637700211544 
2339	-5.37868937105824E-02 
2340	 2.75816741717222E-02 
2341	 7.93963672367668E-02 
2342	 0.191067285912682 
2343	 0.129033494199888 
2344	-2.93058926955554E-02 
2345	-6.01424939903272E-02 
2346	 4.35383314277579E-02 
2347	 0.25884078620051 
2348	 0.419637415150214 
2349	 0.481945037907739 
2350	 0.420829117797198 
2351	 0.306267427183826 
2352	 0.244587374774324 
2353	 0.12380655810625 
2354	-4.85192529192602E-02 
2355	-0.170758613427239 
2356	-0.164146456163561 
2357	-7.73635758121785E-02 
2358	-3.56832598303751E-02 
2359	 6.76991303510857E-02 
2360	-7.03557724833554E-02 
2361	-0.290600402136005 
2362	-0.344304371164171 
2363	-0.430056286415824 
2364	-0.289515591596819 
2365	 2.73267747602557E-02 
2366	 0.138076539901277 
2367	 0.343247104633864 
2368	 0.367695121726693 
2369	 0.39784332812061 
2370	 0.568278244671473 
2371	 0.383169083568835 
2372	 9.48714336504653E-02 
2373	-0.167888706189271 
2374	-0.497959420508814 
2375	-0.97294003016089 
2376	-1.22842065827514 
2377	-1.24070624378024 
2378	-0.854926078141325 
2379	-0.509828289269305 
2380	-0.256065795305585 
2381	 0.203727597091171 
2382	 0.187196422593599 
2383	-0.161351716352067 
2384	-1.07878483223882 
2385	-4.05969265594334 
2386	 1.22305088326728 
2387	 8.78576442503079E-02 
2388	-0.460700256035639 
2389	 2.25386934096244 
2390	 1.78260560766065 
2391	 0.874142061650037 
2392	 1.23122690739607 
2393	 11.7610706221498 
2394	 1.45570644556346 
2395	 76.7776454917978 
2396	-3.10380527511012 
2397	 1.19941669316156 
2398	 8.73125193384191 
2399	 1.34715433433102 
2400	 7.14775939830171 
2401	 0.821883315816322 
2402	 1.06619532826216 
2403	 0.698712684067389 
2404	 1.44014818680446 
2405	 1.31547749022489 
2406	 2.61606764026196 
2407	-5.62006487808566E-02 
2408	 1.10581348996214 
2409	-0.452495453520767 
2410	-0.928964433488002 
2411	-1.6673516205692 
2412	-2.65601668714315 
2413	-4.12784575308489 
2414	-1.68956694833052 
2415	-1.74835453581561 
2416	 5.6393938412579 
2417	 1.2620937755986 
2418	 1.08807031808286 
2419	 2.40168809823964 
2420	 2.17660349753783 
2421	 1.24271865391513 
2422	 1.01959631579121 
2423	-0.797212255553077 
2424	 1.74403960891524 
2425	 1.3380640464997 
2426	-5.09380488352135 
2427	-0.81076609833379 
2428	-1.27456013914869 
2429	 0.480685752015654 
2430	-0.696913335115875 
2431	-0.282081232995827 
2432	-7.54545437751976E-02 
2433	-0.594445445363519 
2434	-0.375933653204675 
2435	-0.322899543189055 
2436	-0.180166228898127 
2437	 0.318709870281266 
2438	 1.16276435349518 
2439	-0.540808686323399 
2440	-0.331138983196061 
2441	 4.84909819726669E-02 
2442	 0.165324624916955 
2443	-0.332937676376218 
2444	-0.430997097045648 
2445	-0.656454388657074 
2446	 1.36918564197373 
2447	 7.76081094280056 
2448	-8.3607092487077 
2449	-2.10792033692833 
2450	-1.48491129118885 
2451	-0.37998025794468 
2452	 3.0490152088488 
2453	-1.16050882280421 
2454	-0.774472167236765 
2455	-0.60436251417046 
2456	-0.302086155848515 
2457	-0.343465424584613 
2458	-0.420269567376519 
2459	 7.99653631279198E-02 
2460	 0.544920254729368 
2461	 0.371825239467034 
2462	 0.48668052455395 
2463	 0.427566453337075 
2464	-1.60077401058814 
2465	-0.580952767763532 
2466	-0.323518395775977 
2467	-0.460702703097686 
2468	-0.462568728609368 
2469	 27.547430783118 
2470	 0.942664028382477 
2471	 1.71189052768706E-02 
2472	-0.285004230169686 
2473	-0.168553379442489 
2474	-5.60921728653608E-02 
2475	 0.439370501243186 
2476	 0.57317174642127 
2477	-0.784415309585716 
2478	-0.722722411023415 
2479	-0.558890551977396 
2480	-0.295273565200261 
2481	 0.7468726964867 
2482	 1.77399751860754 
2483	 1.5052680675503 
2484	 1.2331670543362 
2485	 5.21317636179251 
2486	 1.13386984168019 
2487	 24.8178510029307 
2488	 6.58175593858323 
2489	 15.7204531212018 
2490	 13.6932287206099 
2491	 7.58393911650232 
2492	-1.89106948175696 
2493	-1.19907290307409 
2494	 0.241761823515112 
2495	-4.41544383565713 
2496	-2.37517843839547 
2497	-1.28579372468095 
2498	-0.844698289603175 
2499	-0.224536003853515 
2500	 0.117351149172368 
