Wavelength	rt0712west_far00003.asd
350	 0.103989183262165 
351	 0.10410662414566 
352	 0.104458296642704 
353	 0.104281737233283 
354	 0.103712087738506 
355	 0.105218186015325 
356	 0.106527191759644 
357	 0.106109946325134 
358	 0.103814169010375 
359	 0.103674376171298 
360	 0.104376853513145 
361	 0.104967701076627 
362	 0.104994329247342 
363	 0.104842373292212 
364	 0.105379282022159 
365	 0.106175847872555 
366	 0.104765531715833 
367	 0.104416721885139 
368	 0.10492342952184 
369	 0.105390956276209 
370	 0.106196151058423 
371	 0.105964013993058 
372	 0.105482824931941 
373	 0.10648678645952 
374	 0.106772041550704 
375	 0.106604987811758 
376	 0.106565295898925 
377	 0.107246928548882 
378	 0.107319668178503 
379	 0.10680927184285 
380	 0.10635702590163 
381	 0.107364629240982 
382	 0.108199061048333 
383	 0.108215399031105 
384	 0.107645141077035 
385	 0.108818645052678 
386	 0.108801955553438 
387	 0.107498313686297 
388	 0.108279972024315 
389	 0.108973869811399 
390	 0.109680408655197 
391	 0.110454182980664 
392	 0.110136141726933 
393	 0.109765603122173 
394	 0.109767754798093 
395	 0.110226932749943 
396	 0.111116179925368 
397	 0.11108447646561 
398	 0.110510206912495 
399	 0.111135254097544 
400	 0.111002887317458 
401	 0.111037757175364 
402	 0.111804089087378 
403	 0.112159683613181 
404	 0.11187292797869 
405	 0.111553850702612 
406	 0.111964298312852 
407	 0.112681812358376 
408	 0.112598959172419 
409	 0.112102268011858 
410	 0.112928868802721 
411	 0.113038432006406 
412	 0.113233175712373 
413	 0.114047133582012 
414	 0.114127892330648 
415	 0.114082465395628 
416	 0.114318571081628 
417	 0.114963734030842 
418	 0.114891507063331 
419	 0.115053361771386 
420	 0.115702313414558 
421	 0.116188786403235 
422	 0.116401375509033 
423	 0.116646525390807 
424	 0.117093793896557 
425	 0.117209070451612 
426	 0.117669621112235 
427	 0.118349351724042 
428	 0.118785350735946 
429	 0.119209146668476 
430	 0.119680167621961 
431	 0.120043307414249 
432	 0.11992483202613 
433	 0.120344524921347 
434	 0.121175473661171 
435	 0.121966289869348 
436	 0.122116170816203 
437	 0.12249434344892 
438	 0.123140874315466 
439	 0.123630502232019 
440	 0.12391728528189 
441	 0.124406058034215 
442	 0.125112206945439 
443	 0.125408364470482 
444	 0.125767842523622 
445	 0.126211191125641 
446	 0.126679175511613 
447	 0.127368246914411 
448	 0.127561303720998 
449	 0.127548586208709 
450	 0.128257244921853 
451	 0.128556745597857 
452	 0.128734854909509 
453	 0.129093404572487 
454	 0.129538181179371 
455	 0.130027118148538 
456	 0.130322537563651 
457	 0.130309670658499 
458	 0.13088355215299 
459	 0.13109649577553 
460	 0.130933197733979 
461	 0.131371092859427 
462	 0.131963312951437 
463	 0.132289512677883 
464	 0.132218173097529 
465	 0.13236419564825 
466	 0.132673908430144 
467	 0.133054698376256 
468	 0.133386924545272 
469	 0.13369955985115 
470	 0.133910422284071 
471	 0.134060224556935 
472	 0.134359465381177 
473	 0.134362956543368 
474	 0.134632723067786 
475	 0.135498008819043 
476	 0.135466832200288 
477	 0.135836247504968 
478	 0.136570881611648 
479	 0.136772505223669 
480	 0.13698781429917 
481	 0.137134067852064 
482	 0.137287612440551 
483	 0.138032740796477 
484	 0.138702405251754 
485	 0.139055992606824 
486	 0.139158067315731 
487	 0.13966048088308 
488	 0.140418501241003 
489	 0.140989078551275 
490	 0.140785139349137 
491	 0.14157829111388 
492	 0.142408861345322 
493	 0.142514274859165 
494	 0.143230115402808 
495	 0.143600735803288 
496	 0.143799094431435 
497	 0.144475254211726 
498	 0.145112262487654 
499	 0.145718793289657 
500	 0.146238419214378 
501	 0.146414828625085 
502	 0.147025894929921 
503	 0.147676621845613 
504	 0.147932113956964 
505	 0.14873221943838 
506	 0.149553863951593 
507	 0.15016399650007 
508	 0.150614616239858 
509	 0.151062022667997 
510	 0.151784547943405 
511	 0.152747813185758 
512	 0.153136279632924 
513	 0.154011273578159 
514	 0.15497743148389 
515	 0.15523945237883 
516	 0.156063532205991 
517	 0.156980002370709 
518	 0.157693674564194 
519	 0.158325624702434 
520	 0.158963111580005 
521	 0.159697120659689 
522	 0.16057519427776 
523	 0.161518909978415 
524	 0.16251121150487 
525	 0.163412906032316 
526	 0.164050895551624 
527	 0.164838490880168 
528	 0.165579693320863 
529	 0.166261314334032 
530	 0.167470671766055 
531	 0.168302043925743 
532	 0.169023350146436 
533	 0.170178064858433 
534	 0.171136989867062 
535	 0.171941719308188 
536	 0.172723135103447 
537	 0.173650710177369 
538	 0.174440211597391 
539	 0.175254774795701 
540	 0.176262912058065 
541	 0.177303705621338 
542	 0.178158826796393 
543	 0.178928466147515 
544	 0.179892938731213 
545	 0.180838092832837 
546	 0.181978545723466 
547	 0.18327814790372 
548	 0.184128591031545 
549	 0.185009155643673 
550	 0.185976728557061 
551	 0.18694370727488 
552	 0.18787166260567 
553	 0.188792101739157 
554	 0.189722036252388 
555	 0.190649036677434 
556	 0.191538845868432 
557	 0.192446812864109 
558	 0.193344106626016 
559	 0.193855521497803 
560	 0.194549930699516 
561	 0.19542881953661 
562	 0.196156873237171 
563	 0.196944157324641 
564	 0.19759845353341 
565	 0.19805964988024 
566	 0.198617870862787 
567	 0.199179198500172 
568	 0.199646405074879 
569	 0.19998884798433 
570	 0.200609492027337 
571	 0.201253897154633 
572	 0.201721214029694 
573	 0.201920212770687 
574	 0.202281983475643 
575	 0.20270710512969 
576	 0.203052679666478 
577	 0.203509583178793 
578	 0.20374542521423 
579	 0.203833112563955 
580	 0.204049837748856 
581	 0.204045914144347 
582	 0.203979654153627 
583	 0.203901492367181 
584	 0.203553284378929 
585	 0.203029628034584 
586	 0.202246748236106 
587	 0.201117304575492 
588	 0.200066511654313 
589	 0.199288134874275 
590	 0.198770876220029 
591	 0.198222444778347 
592	 0.198350603372885 
593	 0.198229414732214 
594	 0.197159685253059 
595	 0.19593772688623 
596	 0.195270684712066 
597	 0.194820319075364 
598	 0.19379014206179 
599	 0.192773967330473 
600	 0.192090745970151 
601	 0.191669540464547 
602	 0.190855603926811 
603	 0.190341369574476 
604	 0.190197532211752 
605	 0.190232943918193 
606	 0.190006967960053 
607	 0.189819139541552 
608	 0.189745800576386 
609	 0.189604069417995 
610	 0.189596522207516 
611	 0.189542897561347 
612	 0.189370083638632 
613	 0.189601017791877 
614	 0.189530506675819 
615	 0.189112584661858 
616	 0.188744934813201 
617	 0.189010346807005 
618	 0.188997256040307 
619	 0.188568655503935 
620	 0.189148268671201 
621	 0.188900501379045 
622	 0.18826984076844 
623	 0.188213014596418 
624	 0.188237858208231 
625	 0.188050313729831 
626	 0.187638893370077 
627	 0.187290738789635 
628	 0.187073349785013 
629	 0.187002088356907 
630	 0.187092897281733 
631	 0.187558562064891 
632	 0.187327364688201 
633	 0.186793174530803 
634	 0.186897933159501 
635	 0.186835645002422 
636	 0.186889925001123 
637	 0.187085663321148 
638	 0.186957321516971 
639	 0.18659512155414 
640	 0.186353290800066 
641	 0.186453085676918 
642	 0.186223184811674 
643	 0.186059201282821 
644	 0.185736511429613 
645	 0.18454278720157 
646	 0.18389301851316 
647	 0.18366409798485 
648	 0.183494348383924 
649	 0.183311793882772 
650	 0.18346277973477 
651	 0.183473556289156 
652	 0.182762335489254 
653	 0.182142359444868 
654	 0.181394743954979 
655	 0.1805319989859 
656	 0.180054715700854 
657	 0.179328412738112 
658	 0.178529136184819 
659	 0.177896907350053 
660	 0.177510803755133 
661	 0.176825765962171 
662	 0.176137402966413 
663	 0.176139857975938 
664	 0.17571625291781 
665	 0.175348968062135 
666	 0.175239728771172 
667	 0.174718838216013 
668	 0.174523959667002 
669	 0.174447681739416 
670	 0.17410015903266 
671	 0.173798738055741 
672	 0.173735883464639 
673	 0.173871547169019 
674	 0.173957580357282 
675	 0.173962425951003 
676	 0.173975151161914 
677	 0.174016679496871 
678	 0.1738142048901 
679	 0.173981868628765 
680	 0.174171150641061 
681	 0.173800411055764 
682	 0.174120015807163 
683	 0.174195533180106 
684	 0.173713985951658 
685	 0.173390999354303 
686	 0.173348441047438 
687	 0.173256091000555 
688	 0.17281871386914 
689	 0.172595289857192 
690	 0.172523216265547 
691	 0.172084914306703 
692	 0.170558187333652 
693	 0.169783202823879 
694	 0.169607912149517 
695	 0.169495333714008 
696	 0.169122355179267 
697	 0.167945252085545 
698	 0.166249012813797 
699	 0.164820873987423 
700	 0.163904353016479 
701	 0.1631788944232 
702	 0.162140091213159 
703	 0.16029398736705 
704	 0.159166213700077 
705	 0.157931547936507 
706	 0.156070937359351 
707	 0.15424827333943 
708	 0.152621130878463 
709	 0.150888654673175 
710	 0.148765643878789 
711	 0.14675212380316 
712	 0.144597753763782 
713	 0.142162181947879 
714	 0.139393699741373 
715	 0.135836145734273 
716	 0.131673460178915 
717	 0.128273284161191 
718	 0.125399768722283 
719	 0.122040887617874 
720	 0.119856704945604 
721	 0.119128138301769 
722	 0.11709497551802 
723	 0.113484040784472 
724	 0.109606978997171 
725	 0.107499007032019 
726	 0.105555124198602 
727	 0.103079086268007 
728	 9.99624503712757E-02 
729	 9.70452249001476E-02 
730	 9.42535766359028E-02 
731	 0.091882365803665 
732	 8.98503288962923E-02 
733	 8.83572286754401E-02 
734	 8.71454417053385E-02 
735	 0.085921954724933 
736	 8.43232964339127E-02 
737	 0.08352823010852 
738	 8.32103407990938E-02 
739	 8.29262497037937E-02 
740	 8.29165333455955E-02 
741	 8.24906484175626E-02 
742	 8.21876421225389E-02 
743	 8.28258321585058E-02 
744	 0.082604290044702 
745	 8.20596572300395E-02 
746	 8.18116521361916E-02 
747	 8.22732071687267E-02 
748	 8.24606755157302E-02 
749	 8.22429509249234E-02 
750	 0.081832465217909 
751	 8.17125175857707E-02 
752	 8.17350449396101E-02 
753	 0.081713302006449 
754	 8.14997705187511E-02 
755	 8.14613973675484E-02 
756	 8.14178547666936E-02 
757	 8.13062724327477E-02 
758	 8.13277554432846E-02 
759	 8.11120156245437E-02 
760	 7.98376532554824E-02 
761	 7.83928756506549E-02 
762	 0.07876373082229 
763	 7.91794983206212E-02 
764	 7.98642981911901E-02 
765	 8.10588197717736E-02 
766	 8.09168149679275E-02 
767	 8.09861123545016E-02 
768	 8.15022455514755E-02 
769	 8.17504115830814E-02 
770	 8.21311003518113E-02 
771	 8.22985871846895E-02 
772	 8.21053838976852E-02 
773	 8.22450109006571E-02 
774	 8.27499213574959E-02 
775	 8.31445550859223E-02 
776	 8.29537693948983E-02 
777	 8.32021727537659E-02 
778	 8.34986859040146E-02 
779	 8.37028832651615E-02 
780	 8.40130903630884E-02 
781	 8.41288633365009E-02 
782	 8.43802196819499E-02 
783	 0.084845753319964 
784	 8.46806838418522E-02 
785	 8.53307726514621E-02 
786	 8.60590152175056E-02 
787	 8.56770758323329E-02 
788	 8.58397486320061E-02 
789	 0.086371991211213 
790	 8.70575282693263E-02 
791	 8.77251511517882E-02 
792	 8.81941895128626E-02 
793	 8.84133004723071E-02 
794	 8.84997206895709E-02 
795	 8.87757913998894E-02 
796	 8.94489968059069E-02 
797	 8.99484558491246E-02 
798	 8.99031642035678E-02 
799	 9.02780663027702E-02 
800	 9.03712470745172E-02 
801	 9.04467817583545E-02 
802	 0.091198949547952 
803	 9.19816628523494E-02 
804	 9.21112737292575E-02 
805	 9.18647745486983E-02 
806	 9.23599464425832E-02 
807	 9.26046048492999E-02 
808	 9.19586483123272E-02 
809	 9.06292795944566E-02 
810	 9.12860273802988E-02 
811	 9.09953737784974E-02 
812	 8.96077560460382E-02 
813	 8.84502272016167E-02 
814	 8.82272675345495E-02 
815	 8.73415596469175E-02 
816	 8.64016868744531E-02 
817	 8.73756455884478E-02 
818	 8.57683035206163E-02 
819	 8.52660698215872E-02 
820	 8.63112587412195E-02 
821	 8.54303832035124E-02 
822	 8.34085976920911E-02 
823	 8.15024435141646E-02 
824	 8.04791118074828E-02 
825	 0.079485619814018 
826	 7.79427969806634E-02 
827	 7.64301432201478E-02 
828	 7.58349973213676E-02 
829	 7.45031675612528E-02 
830	 7.27865756254688E-02 
831	 7.13334731848684E-02 
832	 7.08221033511072E-02 
833	 7.03949000833232E-02 
834	 7.07827045312571E-02 
835	 7.13843074170594E-02 
836	 7.00028787376776E-02 
837	 6.98685968320484E-02 
838	 6.99618550360108E-02 
839	 6.92960709510484E-02 
840	 6.90873647600141E-02 
841	 6.94525135853664E-02 
842	 6.95013530777643E-02 
843	 6.85736174478433E-02 
844	 6.87606596409713E-02 
845	 6.85061362684227E-02 
846	 6.82855773088399E-02 
847	 6.94933034227692E-02 
848	 6.83022422328514E-02 
849	 6.76232506737087E-02 
850	 6.82869793130862E-02 
851	 6.75634023251586E-02 
852	 6.74362383447046E-02 
853	 0.067949062270737 
854	 6.84050071298512E-02 
855	 6.75063672904032E-02 
856	 6.71288870665504E-02 
857	 6.73222728493077E-02 
858	 6.75942704859675E-02 
859	 0.067596883106393 
860	 6.71715718773285E-02 
861	 6.65260093614108E-02 
862	 6.60997567527939E-02 
863	 6.64633267247473E-02 
864	 6.66649882609062E-02 
865	 6.66373458320593E-02 
866	 6.70574636426007E-02 
867	 6.63968675296233E-02 
868	 6.63661768595438E-02 
869	 6.69180984219273E-02 
870	 6.53494991832144E-02 
871	 6.54652845027577E-02 
872	 6.58377945057607E-02 
873	 6.51252203178424E-02 
874	 6.47540469752906E-02 
875	 6.54195797703831E-02 
876	 6.54344897299003E-02 
877	 6.37082810492033E-02 
878	 6.42643832882479E-02 
879	 6.41169390994587E-02 
880	 6.34494241931641E-02 
881	 0.063769346861867 
882	 6.43963125014782E-02 
883	 6.44346490301597E-02 
884	 6.41822932762783E-02 
885	 0.064653768319152 
886	 6.45212872675898E-02 
887	 6.40791343708569E-02 
888	 6.36392674247916E-02 
889	 6.33063240018787E-02 
890	 6.32920361082086E-02 
891	 6.22527575911205E-02 
892	 6.05486613054108E-02 
893	 6.30155063077453E-02 
894	 6.30091684796185E-02 
895	 6.03834933139822E-02 
896	 5.83182265500179E-02 
897	 6.19250539915069E-02 
898	 6.23514965612758E-02 
899	 6.11795028693872E-02 
900	 6.23814311740914E-02 
901	 6.14436704197883E-02 
902	 5.86055252435365E-02 
903	 5.78688477772968E-02 
904	 6.21889554446341E-02 
905	 6.38017993606434E-02 
906	 6.06735412826591E-02 
907	 5.63768958821002E-02 
908	 5.83826229108873E-02 
909	 5.86347188914965E-02 
910	 6.04555586432367E-02 
911	 0.062801603452414 
912	 6.05781642061725E-02 
913	 0.059447857760851 
914	 5.96033377207444E-02 
915	 6.03464360684945E-02 
916	 6.06538600812147E-02 
917	 5.63434182542969E-02 
918	 5.68582429283433E-02 
919	 6.18561707131462E-02 
920	 5.88845639809054E-02 
921	 6.20590819388518E-02 
922	 6.37796830794116E-02 
923	 5.88313265151074E-02 
924	 5.63715936450384E-02 
925	 5.65120007097288E-02 
926	 0.061421741409343 
927	 6.92687035885118E-02 
928	 5.85729050387465E-02 
929	 7.55667554201167E-02 
930	 9.98977976265022E-02 
931	 5.98997726786051E-02 
932	 4.44498540635395E-02 
933	 6.56225030446732E-02 
934	 9.39425419499549E-02 
935	 0.084926595113346 
936	 8.02272528990445E-02 
937	 0.126726423948798 
938	 0.135237803609402 
939	 4.96479701150032E-02 
940	 0.077847272646592 
941	 9.76242248882499E-02 
942	 0.0728678340103 
943	 0.028526344426669 
944	 4.94220044808465E-02 
945	 0.039325339973833 
946	 0.027657040976584 
947	 9.05876737642063E-02 
948	 0.119271837131758 
949	 6.08713182950817E-02 
950	 1.02599712968177E-02 
951	 0.07455352706409 
952	 7.42766120648352E-02 
953	 0.082987624258283 
954	 8.82638977253994E-02 
955	 0.040961599976264 
956	 0.071911715621409 
957	 6.92238651692551E-02 
958	 4.50950677342994E-02 
959	 7.73004912494052E-02 
960	 8.40374150446642E-02 
961	 6.80715289900103E-02 
962	 5.98372081170868E-02 
963	 0.082674902677284 
964	 5.56242279246201E-02 
965	 5.41933014434482E-02 
966	 7.41810471822727E-02 
967	 6.51948782725122E-02 
968	 5.57443382561327E-02 
969	 5.58600516031308E-02 
970	 6.28930080211175E-02 
971	 6.48108409920917E-02 
972	 4.82071300541865E-02 
973	 4.94650174292048E-02 
974	 6.52003351273119E-02 
975	 5.48253633527737E-02 
976	 6.32813741112256E-02 
977	 0.070976169695846 
978	 6.50219221075666E-02 
979	 4.87649889529108E-02 
980	 5.21619294491123E-02 
981	 5.99717503177301E-02 
982	 6.29749119330068E-02 
983	 6.15773637321715E-02 
984	 6.60117964338385E-02 
985	 6.32485630523344E-02 
986	 5.51089417548088E-02 
987	 5.48833709788453E-02 
988	 6.60283146740935E-02 
989	 6.30999470281112E-02 
990	 5.37175831173098E-02 
991	 6.42101261395449E-02 
992	 6.49584781061403E-02 
993	 5.87531578902535E-02 
994	 5.63894033311087E-02 
995	 6.63210799208228E-02 
996	 6.23430966933508E-02 
997	 5.84803424392037E-02 
998	 0.06168115802078 
999	 6.89369763127807E-02 
1000	 6.39174397049583E-02 
1001	 0.056566874999007 
1002	 0.059651216864157 
1003	 5.94618778561239E-02 
1004	 5.97750783764205E-02 
1005	 6.00534578337122E-02 
1006	 5.88166196439196E-02 
1007	 5.62003935292611E-02 
1008	 5.81347180936763E-02 
1009	 6.01730105769694E-02 
1010	 5.83564980887265E-02 
1011	 5.95021254188484E-02 
1012	 5.99909026132127E-02 
1013	 5.88655717091215E-02 
1014	 5.92639621543085E-02 
1015	 6.08487343636668E-02 
1016	 6.24738825151933E-02 
1017	 6.61760701901813E-02 
1018	 6.62720520759886E-02 
1019	 6.57028665983201E-02 
1020	 6.46610530435736E-02 
1021	 6.11004964714776E-02 
1022	 5.65184579866938E-02 
1023	 5.46478319092661E-02 
1024	 5.56088995643288E-02 
1025	 5.70354918115342E-02 
1026	 5.87350620205167E-02 
1027	 6.01158650080318E-02 
1028	 6.30616839695745E-02 
1029	 6.25784411759116E-02 
1030	 0.058844427859223 
1031	 5.90199176539629E-02 
1032	 0.058980578167068 
1033	 5.95184640343863E-02 
1034	 6.45473407019361E-02 
1035	 6.55572137307743E-02 
1036	 0.063105992241585 
1037	 6.23141608154491E-02 
1038	 6.12675402752517E-02 
1039	 5.98660675231884E-02 
1040	 5.78244835647388E-02 
1041	 5.99179867937884E-02 
1042	 6.02395789141044E-02 
1043	 6.01518062538768E-02 
1044	 6.05863256488419E-02 
1045	 6.21324559830497E-02 
1046	 6.21601887347493E-02 
1047	 6.21556782919853E-02 
1048	 6.13205779452121E-02 
1049	 5.80730397849137E-02 
1050	 5.74612442139392E-02 
1051	 5.78029423860556E-02 
1052	 5.79791130999017E-02 
1053	 0.05963134220018 
1054	 6.07864862566868E-02 
1055	 6.19312251614262E-02 
1056	 0.06232762982393 
1057	 6.24448447646613E-02 
1058	 6.30152570325337E-02 
1059	 6.22296122527504E-02 
1060	 5.90017441861667E-02 
1061	 5.90605696643992E-02 
1062	 6.07402203088453E-02 
1063	 6.08546450446758E-02 
1064	 6.18993271870675E-02 
1065	 6.24271601480314E-02 
1066	 6.12855470769952E-02 
1067	 6.10216585382392E-02 
1068	 6.20775420318229E-02 
1069	 6.22747738755831E-02 
1070	 6.16663149239608E-02 
1071	 6.13331129294929E-02 
1072	 6.07383203618088E-02 
1073	 0.060247886000917 
1074	 0.0610764545504 
1075	 6.33253989548084E-02 
1076	 6.31982272191596E-02 
1077	 6.30209461443308E-02 
1078	 6.26873347520059E-02 
1079	 6.00611979301552E-02 
1080	 0.059424688887151 
1081	 6.10148237111826E-02 
1082	 6.07977602104072E-02 
1083	 5.83148998967444E-02 
1084	 5.87655297220105E-02 
1085	 6.19728730498027E-02 
1086	 6.23416898380758E-02 
1087	 0.064118088577522 
1088	 6.40679898905383E-02 
1089	 0.060049294764108 
1090	 5.51866002653129E-02 
1091	 5.41788632985944E-02 
1092	 5.48827112467143E-02 
1093	 5.57055245757499E-02 
1094	 6.07331625773413E-02 
1095	 6.15527990498062E-02 
1096	 5.89090422028045E-02 
1097	 5.93859244468222E-02 
1098	 5.90794035484566E-02 
1099	 6.00501462688776E-02 
1100	 6.84984876624258E-02 
1101	 6.99088692273081E-02 
1102	 0.062940593864576 
1103	 6.13967952674582E-02 
1104	 6.08127801686208E-02 
1105	 5.36484272201046E-02 
1106	 5.75291804179111E-02 
1107	 6.93013506547785E-02 
1108	 0.066449125246337 
1109	 6.56022938182574E-02 
1110	 0.067997176810866 
1111	 6.67201225980901E-02 
1112	 6.64932524086346E-02 
1113	 7.82399014364793E-02 
1114	 8.20300749366891E-02 
1115	 7.58754217801873E-02 
1116	 6.47222275366646E-02 
1117	 2.08510817984281E-02 
1118	 2.13038680196111E-02 
1119	 9.69340700958158E-02 
1120	 0.107464909131264 
1121	 0.152420566863898 
1122	 0.183325037660624 
1123	-9.52909746364302E-02 
1124	-0.323107282015312 
1125	-0.288175012117308 
1126	-0.143139948539644 
1127	-0.107842578361979 
1128	-1.08659691579093E-02 
1129	 0.074326213692981 
1130	 6.43181408063143E-02 
1131	 4.31677804890466E-02 
1132	 8.14781066964332E-02 
1133	 6.09487659434359E-02 
1134	-4.26925379182307E-02 
1135	-1.16153411968088E-02 
1136	 9.80518334178758E-02 
1137	 0.126679301230414 
1138	 0.191752618651344 
1139	 0.178673772641853 
1140	 8.99282832361895E-02 
1141	 4.10429918942148E-02 
1142	-1.47228025686757E-02 
1143	-2.66280714577902E-02 
1144	 4.84740500946098E-02 
1145	 0.114026317633671 
1146	 0.130259502220731 
1147	 0.102910571993087 
1148	 0.103635058381874 
1149	 0.111665743626213 
1150	 8.67694128620447E-02 
1151	 5.32168005389796E-02 
1152	 7.03984435202292E-02 
1153	 8.97343138199206E-02 
1154	 7.75426086682401E-02 
1155	 7.23150782358477E-02 
1156	 7.87251678219676E-02 
1157	 7.02065067138491E-02 
1158	 6.06558506085558E-02 
1159	 6.10156184776189E-02 
1160	 5.55912653617718E-02 
1161	 4.33320962309059E-02 
1162	 4.67547190107533E-02 
1163	 5.53811687109525E-02 
1164	 5.73080173543831E-02 
1165	 6.30504027955765E-02 
1166	 6.17372645993399E-02 
1167	 5.28409833578985E-02 
1168	 5.53345606455213E-02 
1169	 5.98921208385438E-02 
1170	 5.68879956540578E-02 
1171	 5.74758000878347E-02 
1172	 6.38438197441154E-02 
1173	 6.43387143973655E-02 
1174	 6.08968381708646E-02 
1175	 6.01964603870072E-02 
1176	 6.28742246163195E-02 
1177	 6.11932994573417E-02 
1178	 0.059149458669048 
1179	 6.01836402923439E-02 
1180	 0.059198520308543 
1181	 5.61718775132459E-02 
1182	 5.71420223243506E-02 
1183	 6.00347261487608E-02 
1184	 6.08850725923648E-02 
1185	 6.30938794496121E-02 
1186	 6.34647035747147E-02 
1187	 6.08624008736506E-02 
1188	 5.70863846252384E-02 
1189	 0.051666892209409 
1190	 5.10538885985285E-02 
1191	 5.61340927796308E-02 
1192	 5.75334741908779E-02 
1193	 0.060228726432298 
1194	 0.058989802843933 
1195	 5.64910451771883E-02 
1196	 5.45260737181565E-02 
1197	 5.07970453049083E-02 
1198	 5.25345726969813E-02 
1199	 6.14656413779708E-02 
1200	 6.35694116313943E-02 
1201	 6.17588198077591E-02 
1202	 6.46841772218548E-02 
1203	 6.34415686971385E-02 
1204	 0.059437704847971 
1205	 6.05812920580923E-02 
1206	 5.98039215532773E-02 
1207	 5.61010503439651E-02 
1208	 5.35347723475234E-02 
1209	 5.32730539188021E-02 
1210	 5.67163575270539E-02 
1211	 5.89610508797281E-02 
1212	 5.98397804083559E-02 
1213	 5.94208196875035E-02 
1214	 5.94641988943091E-02 
1215	 5.80858869026308E-02 
1216	 5.87496582587321E-02 
1217	 5.71886288730801E-02 
1218	 5.72889781257289E-02 
1219	 5.88162378789919E-02 
1220	 5.55848737973193E-02 
1221	 5.47699279102472E-02 
1222	 5.57872289215922E-02 
1223	 5.33031831834486E-02 
1224	 5.25211991501356E-02 
1225	 5.50428473085194E-02 
1226	 5.75568852588783E-02 
1227	 5.68655260058284E-02 
1228	 5.48610345774697E-02 
1229	 5.52628086760761E-02 
1230	 5.50750982473067E-02 
1231	 5.34454333914481E-02 
1232	 5.47482089435509E-02 
1233	 0.056484793036434 
1234	 5.44758221111545E-02 
1235	 5.41834697450697E-02 
1236	 5.77034828038397E-02 
1237	 5.82331160128575E-02 
1238	 5.68344071702475E-02 
1239	 5.46028346549651E-02 
1240	 5.50219225508359E-02 
1241	 5.57152307903938E-02 
1242	 0.055138011723344 
1243	 5.65756608967033E-02 
1244	 5.85479663907562E-02 
1245	 5.93576263349936E-02 
1246	 6.04956492243232E-02 
1247	 5.89594011143394E-02 
1248	 5.72202903683427E-02 
1249	 5.66004939828786E-02 
1250	 5.49808961214848E-02 
1251	 5.66270295850497E-02 
1252	 5.77964845479656E-02 
1253	 5.63212785083641E-02 
1254	 5.67452406154275E-02 
1255	 5.88305999548858E-02 
1256	 5.95681109461991E-02 
1257	 6.05129157800745E-02 
1258	 6.03866755240215E-02 
1259	 5.93321202107597E-02 
1260	 5.79358781583849E-02 
1261	 5.46164607984816E-02 
1262	 0.054452228847345 
1263	 5.54040025506788E-02 
1264	 5.63229168251906E-02 
1265	 5.66341365784099E-02 
1266	 5.85453387222382E-02 
1267	 5.82899886531307E-02 
1268	 5.57856271414282E-02 
1269	 5.77254102812958E-02 
1270	 5.96829584448223E-02 
1271	 5.63366825599376E-02 
1272	 5.47548542388785E-02 
1273	 5.49196873273762E-02 
1274	 5.23267877810595E-02 
1275	 5.34102154968605E-02 
1276	 5.75105877330236E-02 
1277	 5.71732027124779E-02 
1278	 5.59013698758331E-02 
1279	 5.86897027411846E-02 
1280	 6.03069656406932E-02 
1281	 5.96993991381747E-02 
1282	 5.78868649286302E-02 
1283	 5.78755942869411E-02 
1284	 0.055427963101179 
1285	 5.50829977679164E-02 
1286	 5.90540223982276E-02 
1287	 5.93884681676038E-02 
1288	 5.75105456802568E-02 
1289	 5.69106530430394E-02 
1290	 0.055634115027572 
1291	 0.053752224155247 
1292	 5.31087981741767E-02 
1293	 5.25412163669968E-02 
1294	 5.36651186283056E-02 
1295	 5.57417534803919E-02 
1296	 5.68932558359897E-02 
1297	 0.059298849686231 
1298	 5.83852827900391E-02 
1299	 0.054329723935484 
1300	 5.15005583053519E-02 
1301	 5.27582096730533E-02 
1302	 0.062254395313725 
1303	 0.066075248723844 
1304	 6.33541509700227E-02 
1305	 6.93138014319445E-02 
1306	 7.25368127617755E-02 
1307	 6.93916706449303E-02 
1308	 6.59237866949982E-02 
1309	 6.46356157905785E-02 
1310	 6.55903878191184E-02 
1311	 6.33424283211197E-02 
1312	 0.060914856836701 
1313	 6.56000954970884E-02 
1314	 6.37369932339144E-02 
1315	 4.82915413877577E-02 
1316	 4.55234554232416E-02 
1317	 5.59052246565367E-02 
1318	 5.88851230138969E-02 
1319	 6.05679600784873E-02 
1320	 0.059193768783006 
1321	 5.20848501091799E-02 
1322	 5.11383539893459E-02 
1323	 4.47494501024002E-02 
1324	 2.98223506227941E-02 
1325	 2.77580443589528E-02 
1326	 3.18213493558603E-02 
1327	 2.48631724150778E-02 
1328	 2.97442508552652E-02 
1329	 5.91382919984735E-02 
1330	 7.70240344016827E-02 
1331	 6.44070526677488E-02 
1332	 5.43233107138499E-02 
1333	 4.08354588348338E-02 
1334	 1.30344205090326E-02 
1335	 3.49465638274764E-03 
1336	 5.89730915973651E-02 
1337	 8.18372153356992E-02 
1338	 0.068128302146316 
1339	 6.37995472699165E-02 
1340	 8.62516832245495E-02 
1341	 8.84342286881355E-02 
1342	 4.17922227013673E-02 
1343	 0.04474838295903 
1344	 0.104217131885252 
1345	 0.116547129450191 
1346	 0.134383139748195 
1347	 0.147801662861498 
1348	 1.18345521242329E-02 
1349	-6.21956806738299E-03 
1350	 0.234388980680495 
1351	 0.355706941920556 
1352	 0.414074359650673 
1353	 0.530538987807574 
1354	 0.604910797746063 
1355	 0.710896159840479 
1356	 5.88733423913513 
1357	 2.19415423471086 
1358	 5.20884083396004 
1359	-2.64259636442044 
1360	-4.97092366148414E-02 
1361	-6.37177428411565E-02 
1362	-0.110095263473286 
1363	-0.458770823787644 
1364	 0.195004589718908 
1365	 0.409695907819283 
1366	 1.47634422628723 
1367	 9.47069634589154 
1368	-0.12069799363559 
1369	 0.883304489333147 
1370	 0.568842048064863 
1371	 0.221897666652271 
1372	 1.16228778163135 
1373	 0.144728174381048 
1374	 6.85693032114999 
1375	 1.29487357351108 
1376	 11.6648989101042 
1377	-1.23614820765278 
1378	-0.798139719640743 
1379	-0.452385322226074 
1380	-0.238031017317886 
1381	 1.73409806565004 
1382	 3.73694427037633 
1383	 0.718156149794612 
1384	 0.427715374015275 
1385	-2.45964460656316E-02 
1386	-1.95424812045837E-02 
1387	 0.598508363873125 
1388	-1.6439918041736 
1389	-0.252878809935753 
1390	 8.13813796072641E-02 
1391	 2.35203960837872 
1392	-0.452363841586944 
1393	 1.07083484553989 
1394	-6.1613279402755 
1395	-0.956359939014081 
1396	-1.03630945571031 
1397	-0.903779211740351 
1398	-0.259381414780893 
1399	-0.488098955192121 
1400	 9.49751901149626E-02 
1401	 0.966895738804795 
1402	 1.26993174654011 
1403	 1.06128545244176 
1404	 1.86454633175124 
1405	 2.04819822702209 
1406	-0.905104283777809 
1407	 6.53744371909414E-02 
1408	-1.14577108133075 
1409	-0.524701754762735 
1410	 2.70421793477634 
1411	 3.42492889916104 
1412	 2.96503960036661 
1413	 7.93227048820497 
1414	-3.39895784960746 
1415	-5.60387010262788 
1416	 1.97596392870802 
1417	 0.370215685058675 
1418	-0.246026389113507 
1419	-0.297014806775208 
1420	-8.31431763054923E-04 
1421	 0.130408980586255 
1422	 0.243450919740323 
1423	 0.236956684794665 
1424	 0.337972599782583 
1425	 0.166292858552693 
1426	 0.832430459650315 
1427	 0.558977322490431 
1428	 0.746148846050036 
1429	 0.719937139208086 
1430	 0.78369026269589 
1431	 0.328229978818348 
1432	-1.20262575735654 
1433	-1.65520357692831 
1434	-0.98308292403773 
1435	-0.80138643299591 
1436	 2.71459374136977 
1437	 7.11265407557781 
1438	 0.858205135080208 
1439	 0.679821903301296 
1440	 4.18814178109601 
1441	-11.4766536748864 
1442	 0.825159093607264 
1443	 1.02205364359336 
1444	 1.08826458707521 
1445	 0.278714214363126 
1446	-0.157652678856952 
1447	 0.286163043819494 
1448	 2.33703817127901 
1449	 2.21783607796344 
1450	-0.540998344959132 
1451	-0.40069707559563 
1452	 3.94756196620996 
1453	 0.145974588206609 
1454	-0.170933627100077 
1455	 45.4448679308405 
1456	 1.3695593362438 
1457	 8.87303658101562E-02 
1458	 0.150830372540045 
1459	 0.876542976561287 
1460	 0.947737386569915 
1461	 0.818319606954254 
1462	 1.09985982590636 
1463	 4.0693092075919 
1464	 2.52752928814694 
1465	 1.26155996184425 
1466	 3.02704607895137 
1467	 1.3276052992466 
1468	 1.25836771287589 
1469	-3.33878250888546 
1470	-1.68434507954497 
1471	 14.1418470373423 
1472	 3.70865215968529 
1473	-101.662922727428 
1474	 2.80543184216575 
1475	 0.397837940707974 
1476	 0.257720887502375 
1477	 0.442566222521679 
1478	 0.483617890327072 
1479	 1.11223601626979 
1480	-63.9463742082086 
1481	 15.9216635208349 
1482	-4.54141866927882 
1483	-13.2698032515538 
1484	 28.9417754711673 
1485	 2.23115924469524 
1486	 1.23240339820326 
1487	 0.191777495258268 
1488	 8.90798036979586E-02 
1489	 1.11697715030427 
1490	 1.14207566844026 
1491	 0.580133717878311 
1492	 0.749005896150049 
1493	 1.07364503295014 
1494	 0.829058813905084 
1495	 0.469953296873347 
1496	 0.376092413695886 
1497	 9.54742102997043E-02 
1498	 5.26568885321022E-02 
1499	 0.358246506474724 
1500	 0.438590279701227 
1501	 0.414366564696062 
1502	 0.373961418720335 
1503	 0.260343023982472 
1504	 0.192701173680191 
1505	 9.56068796502582E-02 
1506	 2.43570832834219E-02 
1507	 0.111098100939527 
1508	 0.121154649006509 
1509	 0.147144351744713 
1510	 0.208406475256594 
1511	 0.163030268305236 
1512	 0.105666021409019 
1513	 0.07850341104379 
1514	 5.60669353257032E-02 
1515	 7.99300681624215E-02 
1516	 0.133120677827685 
1517	 0.184100135750966 
1518	 0.170700708814834 
1519	 0.090947570145715 
1520	 6.32463975032132E-02 
1521	 8.24902624228932E-02 
1522	 7.22217108328394E-02 
1523	 8.29558805576901E-02 
1524	 0.122948653352849 
1525	 0.110196006184563 
1526	 8.01559662006698E-02 
1527	 0.100914012128849 
1528	 0.108382964089416 
1529	 7.44832387154429E-02 
1530	 8.65762524091992E-02 
1531	 0.13765067464463 
1532	 0.144479513368662 
1533	 0.107620470276505 
1534	 7.01204564516334E-02 
1535	 2.31306039887492E-02 
1536	-2.1990315429243E-03 
1537	 2.75466874041098E-02 
1538	 7.19443658767129E-02 
1539	 0.111611051692939 
1540	 0.113376169816721 
1541	 9.19263787460826E-02 
1542	 8.46486661037614E-02 
1543	 6.48422129612647E-02 
1544	 4.54430477929773E-02 
1545	 6.03832675319216E-02 
1546	 7.09138350012673E-02 
1547	 8.29471144011986E-02 
1548	 9.81976386346163E-02 
1549	 8.60827110302962E-02 
1550	 0.101486292105286 
1551	 0.114406586730925 
1552	 0.084993899498554 
1553	 8.10485180781703E-02 
1554	 7.09141148300262E-02 
1555	 2.96182301984978E-02 
1556	 1.93373762800319E-02 
1557	 4.58867056256658E-02 
1558	 6.38747093359008E-02 
1559	 6.92737546276903E-02 
1560	 9.25589466264825E-02 
1561	 0.10193255966783 
1562	 8.15480662261543E-02 
1563	 8.14274047747426E-02 
1564	 8.85375792742567E-02 
1565	 9.00787599717216E-02 
1566	 0.095632309544243 
1567	 8.97663568178082E-02 
1568	 0.084868390588677 
1569	 7.66872203137764E-02 
1570	 7.06123522428726E-02 
1571	 8.91719360361156E-02 
1572	 0.101114208716469 
1573	 9.51182547126059E-02 
1574	 0.10264773407349 
1575	 0.10628689757669 
1576	 8.58663980563423E-02 
1577	 8.03584399559331E-02 
1578	 8.54966924310153E-02 
1579	 7.42328117965982E-02 
1580	 7.21629677551686E-02 
1581	 6.58374553815847E-02 
1582	 5.45370936042207E-02 
1583	 6.27570902555342E-02 
1584	 7.00570936565357E-02 
1585	 6.68997720009986E-02 
1586	 5.31137239129995E-02 
1587	 3.65470870473642E-02 
1588	 3.64043350019938E-02 
1589	 4.21923615485872E-02 
1590	 4.47688138363917E-02 
1591	 0.048814169980515 
1592	 4.67697324622314E-02 
1593	 4.38977839439178E-02 
1594	 5.96501965068064E-02 
1595	 7.80870308473604E-02 
1596	 7.93318647968548E-02 
1597	 0.069895710571902 
1598	 6.50521439466711E-02 
1599	 0.067793872236884 
1600	 6.87346322437434E-02 
1601	 6.47255089002387E-02 
1602	 5.35858736642036E-02 
1603	 5.28501570214176E-02 
1604	 5.87141765263087E-02 
1605	 4.94187160037922E-02 
1606	 0.047202887047232 
1607	 5.50659613823509E-02 
1608	 4.95414695382171E-02 
1609	 4.80710688414581E-02 
1610	 6.38934490766409E-02 
1611	 6.19435955182272E-02 
1612	 5.06982165084849E-02 
1613	 6.14496456098381E-02 
1614	 6.49989476269248E-02 
1615	 5.02646347359243E-02 
1616	 3.91651093528201E-02 
1617	 0.04544541555375 
1618	 6.24298960924564E-02 
1619	 5.71329417443605E-02 
1620	 5.48480379182071E-02 
1621	 6.96068184361646E-02 
1622	 7.06200664433778E-02 
1623	 7.15355784618533E-02 
1624	 6.65351663283141E-02 
1625	 5.62966253070029E-02 
1626	 0.065299550022734 
1627	 7.51430687408357E-02 
1628	 7.73002545309849E-02 
1629	 7.34345571116741E-02 
1630	 0.059969532643795 
1631	 5.85300348375906E-02 
1632	 8.07495497169214E-02 
1633	 9.40038820108646E-02 
1634	 0.074228362863353 
1635	 5.16659081880601E-02 
1636	 5.77796731084239E-02 
1637	 6.86581868591169E-02 
1638	 5.87838058848991E-02 
1639	 5.63916404424014E-02 
1640	 6.23161638573313E-02 
1641	 5.75671985118578E-02 
1642	 6.59341486950921E-02 
1643	 7.64925872416009E-02 
1644	 7.07071618635403E-02 
1645	 6.86541445272176E-02 
1646	 7.04323426611076E-02 
1647	 6.90293345958083E-02 
1648	 5.57040351759965E-02 
1649	 4.29653560700613E-02 
1650	 4.99147872583757E-02 
1651	 5.96946936493923E-02 
1652	 6.80009837211448E-02 
1653	 7.60284401696531E-02 
1654	 7.37181975205547E-02 
1655	 6.60797018554169E-02 
1656	 7.20005999635995E-02 
1657	 7.65728142368312E-02 
1658	 6.83208338703376E-02 
1659	 6.46054604241539E-02 
1660	 6.17532955580415E-02 
1661	 4.86133965856854E-02 
1662	 4.79666818392702E-02 
1663	 0.058991027248515 
1664	 5.54634224745123E-02 
1665	 4.81942518646901E-02 
1666	 5.01528185876854E-02 
1667	 4.26840804961559E-02 
1668	 5.67849091587181E-02 
1669	 6.84212705480694E-02 
1670	 5.50688118941703E-02 
1671	 7.32081160639879E-02 
1672	 9.49367590675444E-02 
1673	 7.68317855726503E-02 
1674	 7.86090592558369E-02 
1675	 8.63181452932768E-02 
1676	 6.30135075866365E-02 
1677	 4.85652300046553E-02 
1678	 5.50286440467838E-02 
1679	 5.46859331742444E-02 
1680	 5.14179827249202E-02 
1681	 6.18540243563244E-02 
1682	 5.75504823052439E-02 
1683	 4.08023345694235E-02 
1684	 4.36321333463022E-02 
1685	 5.13639392854738E-02 
1686	 5.87161622418892E-02 
1687	 7.11084551222364E-02 
1688	 6.99212356224084E-02 
1689	 0.061897577203949 
1690	 6.09880930168319E-02 
1691	 6.03584320811905E-02 
1692	 6.02126060420814E-02 
1693	 6.13629437395852E-02 
1694	 6.77381965552973E-02 
1695	 7.10366445616741E-02 
1696	 5.57481497523897E-02 
1697	 4.27511106137868E-02 
1698	 4.20090607026136E-02 
1699	 4.04810944483391E-02 
1700	 0.04263694422037 
1701	 5.73404319111745E-02 
1702	 6.49606751308851E-02 
1703	 5.38539050359793E-02 
1704	 5.73935485100848E-02 
1705	 7.48844968937089E-02 
1706	 8.25556509834117E-02 
1707	 9.34002082364351E-02 
1708	 9.58621062962432E-02 
1709	 7.55659921003578E-02 
1710	 5.29970699489352E-02 
1711	 4.76732327073263E-02 
1712	 4.65655128736676E-02 
1713	 6.89054283597656E-02 
1714	 8.55148425435052E-02 
1715	 9.57294111565239E-02 
1716	 8.53066614248844E-02 
1717	 7.04061258388966E-02 
1718	 6.22756319549444E-02 
1719	 2.77504324589445E-02 
1720	 3.24034013878646E-02 
1721	 6.77825594960961E-02 
1722	 4.35644102864932E-02 
1723	 4.05341732381397E-02 
1724	 5.66509516931578E-02 
1725	 3.75152578143176E-02 
1726	 0.04886221476096 
1727	 5.65357560110964E-02 
1728	 4.25625410340704E-02 
1729	 6.79600395744817E-02 
1730	 7.50122385461904E-02 
1731	 7.48164713748042E-02 
1732	 7.51019941455557E-02 
1733	 2.39701891834809E-02 
1734	 1.61013538147339E-02 
1735	 4.61649221941283E-02 
1736	 5.34146631173599E-02 
1737	 7.80850641662054E-02 
1738	 8.49868492761524E-02 
1739	 5.81519807834198E-02 
1740	 6.60637209352383E-02 
1741	 0.104074029447386 
1742	 9.65075392610143E-02 
1743	 8.26907125122328E-02 
1744	 0.100352388525914 
1745	 7.72336607955496E-02 
1746	 9.13100209941902E-02 
1747	 0.102029890826664 
1748	 0.114943140733764 
1749	 0.113089849712248 
1750	 7.71184737523872E-02 
1751	 7.32013845272741E-02 
1752	 7.66854866553024E-02 
1753	 0.072854480724251 
1754	 0.105234239709089 
1755	 0.13265205230741 
1756	 0.137901420061049 
1757	 0.110064727424013 
1758	 0.108204477251319 
1759	 5.81326331348912E-02 
1760	 0.021672386246221 
1761	 4.66919798294683E-02 
1762	 2.81022630391817E-02 
1763	 2.05496546138041E-02 
1764	 6.99382406608559E-02 
1765	 9.24357027806154E-02 
1766	 9.09786953360818E-02 
1767	 5.89860185193687E-02 
1768	 2.21486486016292E-02 
1769	 1.80270601990848E-02 
1770	 5.12638810349887E-02 
1771	 0.101759637049744 
1772	 0.132262658607217 
1773	 0.154754066383954 
1774	 0.188495585874517 
1775	 0.265672719566421 
1776	 0.266811949439296 
1777	 0.139594427173179 
1778	 0.124527531575582 
1779	 0.13020963834389 
1780	 0.107892079813758 
1781	 0.221643794580607 
1782	 0.264200535033863 
1783	 0.159567699665285 
1784	 0.184775793949981 
1785	 0.365315758260622 
1786	 0.436410126931296 
1787	 0.539463401881295 
1788	 0.531303863675198 
1789	 0.392725593918656 
1790	 0.280717226932329 
1791	 4.40817985066528E-02 
1792	-1.28929397433898E-02 
1793	-7.22686572060019E-02 
1794	 0.210032820990108 
1795	 1.13168948760012 
1796	 2.34879316428728 
1797	 2.30661447699446 
1798	 1.99512420332276 
1799	 10.6320780567487 
1800	 0.351271695993128 
1801	 0.149678510761935 
1802	 0.755154149403343 
1803	 0.755866721312233 
1804	 1.0053706351955 
1805	 1.73240075925323 
1806	 3.26799868928248 
1807	-3.33228455746109 
1808	 0.194166418937162 
1809	-0.267394455518342 
1810	 1.86904133275683 
1811	 1.47383752137229 
1812	 0.758024328237443 
1813	 0.240923216572956 
1814	 2.18258185349162 
1815	 1.44298445983703 
1816	 0.942991435650119 
1817	 0.149049963312404 
1818	-0.932625409918968 
1819	-0.534705674497027 
1820	-1.60996047690121 
1821	 3.68442800901272 
1822	 3.45564439436603 
1823	 0.615671599681277 
1824	 1.45829427551584E-02 
1825	 1.24134242834534 
1826	 1.33734945500771 
1827	 1.35537132481233 
1828	 1.81544493243205 
1829	-0.237635908779569 
1830	 7.95850845803593E-02 
1831	-1.8141206169849 
1832	-2.32055565344269 
1833	-1.35993438892861 
1834	-1.2125955257096 
1835	 3.24192621658783 
1836	 34.695303451142 
1837	-0.346193665722726 
1838	-0.393437500457095 
1839	-0.463886543524191 
1840	 6.01476363335455 
1841	 0.69253507213548 
1842	 0.736118230264156 
1843	 0.622742682382647 
1844	-2.85760237029121E-02 
1845	-2.59553032143082 
1846	-1.16820042642347 
1847	-1.28251087746741 
1848	-4.76660153310664 
1849	-15.6419754584992 
1850	 3.03178790965744E-03 
1851	-10.1719553823212 
1852	 4.2509937989198 
1853	 1.40789573691284 
1854	 1.01023205426553 
1855	 5.93823515580416E-02 
1856	-0.132291643164003 
1857	-0.130196557304688 
1858	-6.05739332895211E-02 
1859	 0.281354431739462 
1860	 0.521747306124848 
1861	 0.635863084523714 
1862	 0.507954194305811 
1863	-0.064471810446507 
1864	-0.29264864116816 
1865	-0.599369968422295 
1866	-0.856725166942082 
1867	-1.19917522548303 
1868	-6.15490323719459 
1869	 9.14192500991771 
1870	 1.57653855673586 
1871	 0.94104431310646 
1872	 0.230330410271963 
1873	 4.83313365874013E-02 
1874	 0.646415426171566 
1875	 0.366745391902509 
1876	 0.101477737697799 
1877	-0.272060864300384 
1878	-0.476739557557115 
1879	-1.17615912022285 
1880	-1.01906015724322 
1881	 0.126353113569569 
1882	 0.719757373698865 
1883	 1.991706292197 
1884	-1.27957178933084 
1885	-0.368998076291744 
1886	 0.470188715412075 
1887	-0.194586119725997 
1888	-0.205774987520044 
1889	-0.139929901516572 
1890	 1.95679864058251E-02 
1891	 0.125085313570818 
1892	 0.428911331876888 
1893	 1.30682323472778 
1894	 2.28817288648999 
1895	-0.328426948001714 
1896	 0.214711333957264 
1897	 0.213462292260583 
1898	 0.454392632494749 
1899	 0.454906257884346 
1900	 0.332452195337063 
1901	 0.132643959052854 
1902	 0.144779212548754 
1903	-0.142939271419714 
1904	-1.24622641748161E-02 
1905	-2.60619893269931E-02 
1906	 0.595343305948316 
1907	 0.487680979900873 
1908	 0.759639761727204 
1909	 0.653211965564752 
1910	 1.14765358363269 
1911	 2.56365610438544 
1912	-1.87077843866991 
1913	-0.633274879797026 
1914	-0.638649260044975 
1915	-0.187965907813729 
1916	 0.725778032989266 
1917	 0.838312537964132 
1918	 6.35550005249824 
1919	 32.9433511601891 
1920	-6.85098216675415 
1921	 2.66636632930755 
1922	 0.310970798612935 
1923	 0.011792355299617 
1924	 0.464631609164144 
1925	 0.485232216799479 
1926	 0.342672896671387 
1927	-7.75128967754813E-02 
1928	-7.24528069805312E-04 
1929	-0.858123057085532 
1930	 9.78720819300255E-02 
1931	 3.16203365531864 
1932	 2.33454437464516 
1933	 2.43419661757742 
1934	 2.58371545193666 
1935	-4.25486397587435 
1936	 0.592197465967823 
1937	 1.0445377054103 
1938	 1.08769637306756 
1939	 1.23515384489797 
1940	 1.19921863998527 
1941	 0.397455276731527 
1942	-0.260430779798203 
1943	 0.173576411829845 
1944	 0.490079167386157 
1945	 0.323805648250169 
1946	 1.4607312378658 
1947	 1.23400360832661 
1948	 0.16707901008047 
1949	-0.105693101889384 
1950	-0.837817737005732 
1951	 1.58216256621734 
1952	 0.325338552382115 
1953	-1.19061784489314 
1954	-1.09822331533011 
1955	-0.972996831606222 
1956	-1.10808997908022 
1957	 0.187894063360232 
1958	 0.933936040198274 
1959	-1.97145190961377 
1960	-0.129573113168984 
1961	 0.816973463790109 
1962	 0.998148601265925 
1963	 1.96859118951973 
1964	 3.94121164823153 
1965	 2.72054831920437 
1966	 2.61229103568712 
1967	 4.37643619859732 
1968	 0.973842233505948 
1969	 1.05497972624065 
1970	 4.74366873872102 
1971	-5.96534954365544 
1972	-0.75472369652781 
1973	-0.189514443208301 
1974	-0.207371996184775 
1975	 2.56141338777252 
1976	 0.909642051876117 
1977	 1.72402084343529 
1978	 1.4128885070692 
1979	 0.927133279516545 
1980	 0.604140382703246 
1981	-2.21086427074115 
1982	-2.24605400158387 
1983	-2.07106101337218 
1984	-2.94024727445792 
1985	-2.26666886184829 
1986	-1.06495960114072 
1987	-3.97739076312897E-02 
1988	 0.556695835991484 
1989	 0.815734368725095 
1990	 0.487129865430236 
1991	 0.406005746866928 
1992	 0.539008753994409 
1993	 0.452016948266738 
1994	 0.342251879643093 
1995	-1.56494354485135E-02 
1996	-0.183735498773829 
1997	 58.8639254946667 
1998	 1.31260054600083 
1999	 0.27293546744113 
2000	 0.268751630449224 
2001	-0.578460101522951 
2002	-0.652358810267922 
2003	 0.247753825318044 
2004	 1.00782361413417 
2005	 40.0438614148912 
2006	-144.937399480826 
2007	-7.61629604963016 
2008	-40.3386102471138 
2009	 11.0674669675285 
2010	 0.768420642131873 
2011	 0.146376981410884 
2012	 0.77126224060315 
2013	-0.732983674486002 
2014	 0.174351759926934 
2015	-2.85343716956572E-02 
2016	 0.168278665405761 
2017	 0.374934315449548 
2018	 0.591328046380432 
2019	 1.50714180498459 
2020	 7.93004940844655 
2021	-4.81755620281866 
2022	 9.24041821525145 
2023	 1.96402894646829 
2024	 1.47848859441286 
2025	 0.924624187629942 
2026	 0.771667522143498 
2027	 3.67404680194066E-02 
2028	 1.11366882279607 
2029	 0.401709687098483 
2030	 0.295487445711142 
2031	-26.6401903532795 
2032	 0.72634076730902 
2033	 0.132984074846672 
2034	 6.94989176321905E-02 
2035	 0.885428476825881 
2036	 2.81777365729677 
2037	 1.96495447857089 
2038	 2.02336522960716 
2039	 1.59121461360241 
2040	-4.11717733387577E-02 
2041	-0.149086760404677 
2042	 0.524410454706173 
2043	 0.253599633149166 
2044	-0.121340109827551 
2045	-1.76899144341853E-02 
2046	-0.050941517111306 
2047	-0.518893894028626 
2048	-0.486103260530035 
2049	 0.230642769376204 
2050	 1.58042533063823 
2051	-9.96605471435707 
2052	-1.88296719888791 
2053	-0.876712594183744 
2054	-0.516279186006212 
2055	-0.138779930514037 
2056	-0.037691096280975 
2057	-0.386718443387227 
2058	-0.111557159602716 
2059	 0.060604805511949 
2060	-9.56821207091235E-02 
2061	-0.336341501908105 
2062	-0.134140739697571 
2063	-0.607510475904346 
2064	-0.584751437101513 
2065	 5.52680110539549E-02 
2066	 0.144725602173488 
2067	-8.12808014493246E-02 
2068	-0.656271921344476 
2069	-0.95784745413433 
2070	-1.05825326012981 
2071	-0.920719399471663 
2072	-0.50363804343775 
2073	-0.278206693745937 
2074	 0.532072300246506 
2075	 1.28866621997169 
2076	 1.23708803129754 
2077	 1.11615699699704 
2078	 0.370416680241114 
2079	 0.240152048485852 
2080	 7.23836530324428E-02 
2081	-0.383355651597331 
2082	-2.20737639971405 
2083	-45.2120471769059 
2084	-1.72843430531058 
2085	-0.58389592066883 
2086	-0.272113992705741 
2087	-2.70452446731423E-02 
2088	 0.409696122755389 
2089	 0.165144733787698 
2090	 0.801124603804348 
2091	 2.51411066836243 
2092	 5.036936053106 
2093	-19.9609051683372 
2094	-4.90198629038694 
2095	-0.981645379849793 
2096	-0.633993297355041 
2097	-0.149814986977196 
2098	 8.31893757055399E-04 
2099	-1.01744416722845 
2100	-3.11144710395139 
2101	-0.517670366196953 
2102	 0.143675238411165 
2103	 0.288374816139905 
2104	 0.134593219557188 
2105	-6.10018685583824E-02 
2106	-0.127318160491901 
2107	-0.057495956466395 
2108	-0.127287687475101 
2109	-0.50990869180671 
2110	-0.815314391216517 
2111	-0.923824635502454 
2112	-1.21469797396171 
2113	-0.885284506326805 
2114	-3.40142914306077E-02 
2115	 4.07116982035132E-02 
2116	-0.164932814757254 
2117	-0.173205125233113 
2118	-0.149900573283152 
2119	-0.157063775328212 
2120	-0.135625581923572 
2121	-0.158308627011035 
2122	-0.199025736102792 
2123	-0.037630100707879 
2124	 0.020945520324405 
2125	 5.45237647091615E-02 
2126	 0.232521775649164 
2127	 0.219623678114699 
2128	 0.12785602822374 
2129	 0.110247723843454 
2130	 0.16629978562053 
2131	 0.105678861205427 
2132	 0.125822255185568 
2133	 0.289776267685954 
2134	 0.379055714857486 
2135	 0.371833664547661 
2136	 0.427347023435068 
2137	 0.623151130578423 
2138	 0.647146278628485 
2139	 0.6185509713877 
2140	 0.589532506532291 
2141	 0.380160164025747 
2142	 0.196534832006204 
2143	-1.57357318444552E-02 
2144	-0.212392259133467 
2145	-0.265919120619263 
2146	-0.178487771819776 
2147	-6.58349476357996E-03 
2148	 0.142754520020044 
2149	 0.230946303760394 
2150	 0.30262604306477 
2151	 0.379885835262346 
2152	 0.507828701037205 
2153	 0.511298770749661 
2154	 0.426821443266386 
2155	 0.427034107911005 
2156	 0.375373178877308 
2157	 0.342855147302853 
2158	 0.401718578036367 
2159	 0.30393757740557 
2160	 0.181631694058123 
2161	 5.85853337417457E-02 
2162	-0.178013802390287 
2163	-0.242607419948775 
2164	-0.295816346746664 
2165	-0.279066434085566 
2166	-9.35756765589389E-02 
2167	-7.98317308958797E-02 
2168	-0.16840451219228 
2169	-0.176224165335237 
2170	-0.215001078404946 
2171	-0.234942890404587 
2172	-0.159034950176939 
2173	 3.78984731081215E-02 
2174	 0.103638889954355 
2175	 4.31471454975902E-02 
2176	 2.93007591890946E-02 
2177	-3.31376881104352E-02 
2178	-0.101852976393133 
2179	-0.185013616740267 
2180	-0.318085676966422 
2181	-0.455092944386188 
2182	-0.303659140745527 
2183	-9.71998954262012E-02 
2184	-2.33288189052954E-02 
2185	 0.035311725658696 
2186	 3.83841175451023E-02 
2187	-0.107355019823837 
2188	-0.128947620045896 
2189	-0.102870960400824 
2190	-6.84061838090578E-02 
2191	-9.02988774689062E-03 
2192	 2.75012448889656E-02 
2193	 7.16406322172086E-02 
2194	 8.72605088847797E-02 
2195	 8.52035392940677E-02 
2196	 0.1130531297483 
2197	 0.234176561044715 
2198	 0.229521164373283 
2199	 0.160099154871786 
2200	-4.54896229587457E-02 
2201	-9.65040389118781E-02 
2202	-0.302189578228047 
2203	-0.521438990225133 
2204	-0.496968442676474 
2205	-0.536677030994296 
2206	-0.525852074301542 
2207	-0.367639789262205 
2208	-0.289876750782717 
2209	-0.168537881396482 
2210	-0.101880881535767 
2211	-0.170210903555046 
2212	-2.42177433143988E-02 
2213	 4.75527750700648E-02 
2214	-2.22832452493199E-02 
2215	 4.41552446639859E-02 
2216	 0.103328961925998 
2217	 7.78622705373317E-02 
2218	-9.07525462609464E-02 
2219	-7.31738276198858E-02 
2220	-1.21438395498162E-02 
2221	 7.45532207009765E-03 
2222	 0.135646218502354 
2223	 0.140340796223947 
2224	 3.05217527658454E-02 
2225	 1.42709195306012E-02 
2226	-3.70433967168055E-02 
2227	-7.00835116138964E-02 
2228	-6.86069954517576E-02 
2229	-3.70626744270933E-02 
2230	 9.14854657129182E-02 
2231	 0.10789942053639 
2232	 3.19545693122266E-02 
2233	 8.92764857728395E-02 
2234	 0.165018296726853 
2235	 0.184108742249719 
2236	 0.169436659810738 
2237	 0.155190525331132 
2238	 4.8837718989344E-04 
2239	-0.181681858131734 
2240	-0.19637725844378 
2241	-0.202520283772569 
2242	-0.165754371403442 
2243	-0.275116878859371 
2244	-0.469162351220496 
2245	-0.429591338835681 
2246	-0.475158038839112 
2247	-0.507942187650338 
2248	-0.396603829562043 
2249	-0.384762619184261 
2250	-0.3137441235455 
2251	-0.172601136829193 
2252	-0.163399309231658 
2253	-0.232943952348035 
2254	-0.158556840941122 
2255	-0.157574648635631 
2256	-6.83721260364736E-02 
2257	 0.144926590135091 
2258	 0.184628976996 
2259	 0.125908651076361 
2260	-2.33028061635122E-02 
2261	-0.239006250127264 
2262	-0.297734615241238 
2263	-0.456753227496881 
2264	-0.535699097513675 
2265	-0.562370269014069 
2266	-0.576414056888313 
2267	-0.375228237178848 
2268	-0.413716891049045 
2269	-0.553287592029972 
2270	-0.382043154410744 
2271	-0.298087096041618 
2272	-0.272555153197978 
2273	-0.016905792866779 
2274	 3.81824285636165E-03 
2275	-0.256764236398261 
2276	-0.373273781179604 
2277	-0.379242907071449 
2278	-0.461132917832732 
2279	-0.58257091671192 
2280	-0.634279137131497 
2281	-0.647822971730489 
2282	-0.812125579904803 
2283	-0.681037545739657 
2284	-0.834589409056857 
2285	-1.24089444740267 
2286	-1.95161536420545 
2287	 2.58152464571519 
2288	-358.587306384642 
2289	-0.635928917254165 
2290	-7.26918930146886E-02 
2291	 0.322610533451842 
2292	 1.10424963847996 
2293	 1.93042654781525 
2294	-4.77701078724248 
2295	-5.87401411375806 
2296	-1.31665144428053 
2297	-0.831799033890884 
2298	-0.582751741137266 
2299	-0.305486648478572 
2300	-0.134508736659273 
2301	 0.121046011217206 
2302	 0.331127230678229 
2303	 0.31627681782369 
2304	 0.304709945563589 
2305	 1.04755987377015E-02 
2306	 0.115174749263545 
2307	 0.145033928073633 
2308	-0.217213357154347 
2309	-0.542168019947762 
2310	-0.736138565263796 
2311	-0.664003306864808 
2312	-0.435784992031489 
2313	-4.90586536670274E-02 
2314	-0.044683761925898 
2315	-0.179459482629327 
2316	-0.177363448516196 
2317	-0.264111154276596 
2318	-0.386496276714429 
2319	-0.816271604819855 
2320	-0.99341336961553 
2321	-0.693203312730227 
2322	 0.154277607471653 
2323	 1.71785722337216 
2324	 0.772510845322175 
2325	 0.443831383817577 
2326	 0.258184717020042 
2327	-0.385241029193709 
2328	-0.663049443540062 
2329	-0.537366518605999 
2330	-0.655575886810541 
2331	-0.939630812198168 
2332	-0.91482650753738 
2333	-1.3680831061373 
2334	-2.33214529981753 
2335	-0.739232664820353 
2336	-0.19844840119755 
2337	 0.919097803759976 
2338	 2.23108451620978 
2339	 2.95547317526266 
2340	 1.48390082682919 
2341	 0.117942367680953 
2342	-0.161933078114287 
2343	-0.610411180167759 
2344	-0.564608959666908 
2345	 1.26234098847037 
2346	 0.875176080752257 
2347	 1.32158075128595 
2348	 2.02633747785905 
2349	 2.49946381061442 
2350	-0.882827493729486 
2351	 1.89735733673205 
2352	-1.72296461854975 
2353	-0.314685190189207 
2354	 9.86668828658448E-02 
2355	 0.246513302642797 
2356	 0.527888088244997 
2357	-7.04529272579695 
2358	-0.222410279943479 
2359	-1.09407926842224 
2360	-0.853211586600214 
2361	 3.08374835766964 
2362	 0.414043561422007 
2363	 0.208916129103025 
2364	 0.550489863311163 
2365	 1.71305694885446 
2366	 2.09648394497768 
2367	-103.012790965675 
2368	-1.5213056628789 
2369	-0.602933626043316 
2370	-0.341566682066764 
2371	-0.243122110253798 
2372	-0.867768765814799 
2373	-1.77274513274662 
2374	-1.46096881131926 
2375	-4.9214750207296 
2376	-10.4034273448253 
2377	-5.66701598338935 
2378	 1.75288541330131 
2379	 0.524457648936082 
2380	 0.273931811340574 
2381	 0.377858838797129 
2382	 4.03393526303098 
2383	-8.70311683000336 
2384	-3.24981221220531 
2385	-2.64807147985641 
2386	-2.15774229040625 
2387	-0.502737444161929 
2388	 0.275268854196646 
2389	-1.38840466738733 
2390	-1.46607078190726 
2391	-0.736356563695441 
2392	-9.25036546744918E-02 
2393	-1.32365300431593 
2394	-2.252164637905 
2395	-5.72910089192384 
2396	 1.99911592605911 
2397	 1.00481509389007 
2398	 2.20767951776307 
2399	 6.23285970357657 
2400	 13.1630325237208 
2401	-3.00788394068328 
2402	-3.78478368397563 
2403	 5.18336888923549 
2404	 3.4610554136423 
2405	 2.65267547519901 
2406	 0.852228553208215 
2407	 9.81805635999038E-02 
2408	-0.87201941738802 
2409	 0.334548080303628 
2410	-0.120153758006388 
2411	 0.293951390386623 
2412	 0.581499465894161 
2413	 0.41050419208813 
2414	 0.246098180936758 
2415	-1.20742603000512E-02 
2416	-0.116048377397618 
2417	-0.127412217284565 
2418	 0.894682371768322 
2419	 4.33423625601326 
2420	 4.31348119559899 
2421	 2.18231616189857E-02 
2422	 0.557587112764901 
2423	 0.960067447965082 
2424	 1.21143078437635 
2425	 0.711433957571091 
2426	 0.920503659047565 
2427	-1.42837583617464 
2428	-0.422380323348461 
2429	-0.108744781812149 
2430	 0.11827581217056 
2431	 0.380656568663518 
2432	 1.14485202503389 
2433	 2.68340873644352 
2434	 2.63693779398043 
2435	 3.13482788577232 
2436	-437.564430804401 
2437	-4.52274945922975 
2438	-1.63252400571588 
2439	-0.935238695616671 
2440	-1.77196636534983 
2441	-4.19751817444625 
2442	 14.9973619207387 
2443	 1.80062320783254 
2444	-2.96858899057053 
2445	 0.480542529624285 
2446	-0.361089370552087 
2447	-0.369602949954401 
2448	-0.726866351402275 
2449	-3.89236492170094 
2450	-7.01245607652117 
2451	 3.12896397099306 
2452	-3.36716760504837 
2453	 0.408829441040607 
2454	 1.02573344064774 
2455	 0.653509274474425 
2456	-3.83031220662863 
2457	 1.04118071033947 
2458	 1.53298665791599 
2459	 1.98055852553842 
2460	 1.17900838478675 
2461	 0.798909615200527 
2462	-16.5080016885748 
2463	-11.0538895726692 
2464	-0.312708927732237 
2465	-22.2062280480338 
2466	-3.81586122846002 
2467	-5.81902025226078 
2468	-1.87669960121828 
2469	-1.58796074593419 
2470	-2.02377422089798 
2471	-2.37322366143399 
2472	-5.458837764003 
2473	 2.65823916987753 
2474	 1.04242139019108 
2475	 2.19031569773373 
2476	 2.60378759651797 
2477	 2.05239451878323 
2478	 2.11281872697089 
2479	 1.56698826648889 
2480	 1.47167708822169 
2481	 3.38424151887347 
2482	 0.355776423551137 
2483	 0.271309339699539 
2484	 0.229142892876546 
2485	-0.138684881980633 
2486	-0.222788722295531 
2487	-0.418414154129194 
2488	-0.377722417972971 
2489	 1.20869552826948 
2490	 0.558533405804075 
2491	-4.34271593048578E-03 
2492	-0.442679873742665 
2493	-1.021673909946 
2494	-1.25803074907758 
2495	 9.54733777458144 
2496	 3.18657533910775 
2497	 4.46336584113963 
2498	 3.31736240173819 
2499	-0.24742427455071 
2500	-3.57029926097269 
