Wavelength	rt0712EAST100000.asd
350	 7.06205991716778E-02 
351	 7.01026726943785E-02 
352	 6.96980177969046E-02 
353	 7.00826235763239E-02 
354	 7.11105480763469E-02 
355	 7.10503652244508E-02 
356	 7.08944466841036E-02 
357	 7.07912320005107E-02 
358	 0.070642024003877 
359	 7.04051651487763E-02 
360	 7.01926392076048E-02 
361	 7.01006690988279E-02 
362	 7.01411281344216E-02 
363	 6.95560658889907E-02 
364	 0.069564742555135 
365	 7.03347432341855E-02 
366	 7.01067954408187E-02 
367	 7.01582447084022E-02 
368	 7.03926641190095E-02 
369	 7.04483881253574E-02 
370	 7.03276273041203E-02 
371	 7.03583740457613E-02 
372	 7.03321859928711E-02 
373	 6.99082084038257E-02 
374	 7.06219573740575E-02 
375	 7.08003210701265E-02 
376	 7.00835474933264E-02 
377	 7.03308802865233E-02 
378	 7.08724350653726E-02 
379	 0.070685766198956 
380	 6.96513691557278E-02 
381	 7.07724429123188E-02 
382	 7.10359693327635E-02 
383	 7.05864584307993E-02 
384	 7.08484419177032E-02 
385	 7.01610416995952E-02 
386	 7.00315007670327E-02 
387	 7.09071697626745E-02 
388	 7.17669715077961E-02 
389	 0.072206630097243 
390	 7.18744206326793E-02 
391	 7.10801263838046E-02 
392	 7.15360754948296E-02 
393	 7.20620089851692E-02 
394	 7.20949120333759E-02 
395	 7.15934567843998E-02 
396	 0.071684682591497 
397	 7.18204317901855E-02 
398	 7.18522506942374E-02 
399	 0.072043172754787 
400	 7.18953771913553E-02 
401	 7.15734071552723E-02 
402	 7.12883186197817E-02 
403	 7.10685529263358E-02 
404	 7.13135314973617E-02 
405	 7.16986061785379E-02 
406	 7.17133527128661E-02 
407	 7.15128055493252E-02 
408	 7.15690067253067E-02 
409	 7.18302858584055E-02 
410	 7.17452010527698E-02 
411	 7.15829490130015E-02 
412	 7.15717340616382E-02 
413	 0.071781826526756 
414	 7.19745769441709E-02 
415	 7.19042560270811E-02 
416	 7.18433952448616E-02 
417	 7.21170227526392E-02 
418	 7.18891667124207E-02 
419	 7.17747288349598E-02 
420	 0.071915196025047 
421	 7.18459433614827E-02 
422	 7.18212355438255E-02 
423	 7.19131009752271E-02 
424	 7.20545227897993E-02 
425	 7.18794700533254E-02 
426	 0.071765441082649 
427	 7.19039432702516E-02 
428	 7.22929149133763E-02 
429	 7.23856703822868E-02 
430	 7.22302655910768E-02 
431	 7.20830529983833E-02 
432	 7.23477145971876E-02 
433	 7.23210249917113E-02 
434	 7.23053367437622E-02 
435	 7.25553570537975E-02 
436	 7.24859147690763E-02 
437	 7.24219961113596E-02 
438	 7.25262043939234E-02 
439	 7.28231498621407E-02 
440	 7.30215338609553E-02 
441	 7.31649055840163E-02 
442	 7.32767987053363E-02 
443	 0.073283794068794 
444	 7.34409196037901E-02 
445	 0.073605376719588 
446	 7.36471501532093E-02 
447	 7.39624847282372E-02 
448	 7.41954685545018E-02 
449	 7.41968245644651E-02 
450	 7.40249045776899E-02 
451	 7.40934784242465E-02 
452	 7.43867669596611E-02 
453	 7.46791540126415E-02 
454	 7.44281453709609E-02 
455	 7.45163010882799E-02 
456	 7.47710940530185E-02 
457	 7.47310045699294E-02 
458	 7.46410277086782E-02 
459	 0.07471317572527 
460	 7.48009601784143E-02 
461	 0.074450296405237 
462	 7.47465684080472E-02 
463	 7.50623589634951E-02 
464	 7.48874050913402E-02 
465	 7.50039580519019E-02 
466	 7.52097069385252E-02 
467	 7.53546617696259E-02 
468	 0.075347206568493 
469	 7.54520285709697E-02 
470	 7.56056753503324E-02 
471	 7.57504229980318E-02 
472	 7.58815805684829E-02 
473	 7.58363212064119E-02 
474	 7.59723532535347E-02 
475	 7.64854470334431E-02 
476	 7.64992496569459E-02 
477	 7.65966601866107E-02 
478	 7.68751225970939E-02 
479	 0.077096108545225 
480	 7.73599550187415E-02 
481	 0.0775959854907 
482	 7.77446584287085E-02 
483	 7.77865560582515E-02 
484	 7.80038737591915E-02 
485	 7.83528421234934E-02 
486	 0.078645822442713 
487	 7.87117458420798E-02 
488	 7.88799021187392E-02 
489	 7.91654098899068E-02 
490	 7.92707706210679E-02 
491	 7.94462719636703E-02 
492	 7.97065392999766E-02 
493	 8.00359418132454E-02 
494	 8.05084363396286E-02 
495	 8.07365481829276E-02 
496	 8.08977109056829E-02 
497	 8.13940064249358E-02 
498	 8.18164893967839E-02 
499	 8.20922278072777E-02 
500	 8.22539824080992E-02 
501	 8.24368856086572E-02 
502	 8.26550817900258E-02 
503	 8.30187048989139E-02 
504	 8.35516895549884E-02 
505	 8.38514883766053E-02 
506	 8.43000874780439E-02 
507	 8.48838079480884E-02 
508	 8.52795033396053E-02 
509	 8.56378063171334E-02 
510	 8.59769316975299E-02 
511	 8.63337803104089E-02 
512	 8.68672552262784E-02 
513	 8.72154540242178E-02 
514	 0.087520885756516 
515	 8.80652211705899E-02 
516	 8.83759521750296E-02 
517	 8.88504642044746E-02 
518	 8.94659951759334E-02 
519	 8.96106062713456E-02 
520	 9.00411855741056E-02 
521	 9.06252659601718E-02 
522	 9.11120540883172E-02 
523	 9.16069070258395E-02 
524	 9.19794175896117E-02 
525	 9.23230463134074E-02 
526	 9.28602452913521E-02 
527	 9.32705305250627E-02 
528	 9.37619253388202E-02 
529	 9.44120772425754E-02 
530	 9.49183130098997E-02 
531	 9.52419709301718E-02 
532	 9.55611929189632E-02 
533	 9.60888673655083E-02 
534	 9.66406366458109E-02 
535	 0.097133419363358 
536	 9.76090955135119E-02 
537	 9.82355338453439E-02 
538	 9.87662140421553E-02 
539	 0.099192824798849 
540	 9.96058701023491E-02 
541	 0.100218771914797 
542	 0.1007375759887 
543	 0.101207970910721 
544	 0.101851664665389 
545	 0.10226057136615 
546	 0.102703674572752 
547	 0.103283928250347 
548	 0.10360201984188 
549	 0.10411319389415 
550	 0.104712261162039 
551	 0.105168867352675 
552	 0.10577378915412 
553	 0.106254881689273 
554	 0.10658172785656 
555	 0.107023777073311 
556	 0.107532515137066 
557	 0.108029739824703 
558	 0.108433766396788 
559	 0.108703368697216 
560	 0.109038760923794 
561	 0.1093868702887 
562	 0.109560445518889 
563	 0.109778124152874 
564	 0.109959597426875 
565	 0.11003898229875 
566	 0.110040866470624 
567	 0.110158996224674 
568	 0.110239424461122 
569	 0.110096930857391 
570	 0.110218613518761 
571	 0.110297913719462 
572	 0.11024319321612 
573	 0.110244460392867 
574	 0.110337959000571 
575	 0.110264140479434 
576	 0.109902958697203 
577	 0.109804092975303 
578	 0.109639568261182 
579	 0.109371517451339 
580	 0.109130524800268 
581	 0.108840070372424 
582	 0.108555584599115 
583	 0.108266458645611 
584	 0.107828463576822 
585	 0.107060515197722 
586	 0.106223176302114 
587	 0.105636571191762 
588	 0.104702862757343 
589	 0.1040394258973 
590	 0.103715686675351 
591	 0.103055780611458 
592	 0.102496235679353 
593	 0.10198636501596 
594	 0.101424065391121 
595	 0.100786905115213 
596	 0.100084445867512 
597	 9.93281667235787E-02 
598	 9.85485793751806E-02 
599	 9.78882296321512E-02 
600	 9.70870897217173E-02 
601	 9.61983058740169E-02 
602	 9.58798304734304E-02 
603	 9.55678406257819E-02 
604	 0.095247857328446 
605	 9.50414711150321E-02 
606	 9.48301186450841E-02 
607	 9.46718628144476E-02 
608	 9.45140291550082E-02 
609	 9.41968923879595E-02 
610	 9.40107368491244E-02 
611	 9.38232340396322E-02 
612	 9.35041201060237E-02 
613	 9.31932410077758E-02 
614	 9.29432657502559E-02 
615	 9.27802440369294E-02 
616	 9.26755533574048E-02 
617	 9.23194827114833E-02 
618	 9.19805496144428E-02 
619	 9.18290040083872E-02 
620	 9.17957394295253E-02 
621	 9.16397561621066E-02 
622	 9.14093228668571E-02 
623	 9.12423593694073E-02 
624	 9.11755730212629E-02 
625	 9.09604003442391E-02 
626	 9.05801452639945E-02 
627	 9.02651558771891E-02 
628	 9.00816072266812E-02 
629	 8.99364169616414E-02 
630	 8.97106873266572E-02 
631	 8.92890340340113E-02 
632	 8.91729068316797E-02 
633	 8.93279156925035E-02 
634	 8.94267157972544E-02 
635	 8.91910362654489E-02 
636	 0.088886253903142 
637	 8.87414849225092E-02 
638	 8.88595452904147E-02 
639	 8.87352005741635E-02 
640	 8.84866283380894E-02 
641	 8.83434046740914E-02 
642	 8.81336738451257E-02 
643	 8.79383756642902E-02 
644	 8.77056235392743E-02 
645	 8.72735134130407E-02 
646	 0.086698451820407 
647	 8.64316544661768E-02 
648	 8.66021598327483E-02 
649	 8.64385254644701E-02 
650	 8.60734734120443E-02 
651	 8.57174633071349E-02 
652	 8.55355312527741E-02 
653	 8.48780831801249E-02 
654	 8.41447827686303E-02 
655	 8.35067789460199E-02 
656	 8.28010751862613E-02 
657	 8.22379620310147E-02 
658	 8.16930149883927E-02 
659	 8.10648850594258E-02 
660	 0.080568912081458 
661	 8.00191405847501E-02 
662	 7.93790246165257E-02 
663	 7.87503345156267E-02 
664	 7.84710115147954E-02 
665	 7.82772005631711E-02 
666	 7.79728738972938E-02 
667	 0.077605673885895 
668	 7.76496137342762E-02 
669	 7.78478820928608E-02 
670	 7.78191412012015E-02 
671	 7.79284024856359E-02 
672	 7.80760895351207E-02 
673	 0.078252021872587 
674	 7.85409006697465E-02 
675	 7.88502859646495E-02 
676	 7.91924482547303E-02 
677	 7.95817731357836E-02 
678	 8.00018958282378E-02 
679	 8.02738829587846E-02 
680	 8.04296046840884E-02 
681	 8.06381790230637E-02 
682	 8.11931142070185E-02 
683	 0.081890327516888 
684	 8.24141501818691E-02 
685	 8.23648499639138E-02 
686	 8.29000660645357E-02 
687	 8.35682839229897E-02 
688	 8.35874035570923E-02 
689	 8.34813183065936E-02 
690	 8.31520467687359E-02 
691	 8.28096767875947E-02 
692	 8.28276334216434E-02 
693	 0.082718932951368 
694	 8.27233966852381E-02 
695	 0.082812528536026 
696	 8.24291669830181E-02 
697	 8.19117046576583E-02 
698	 8.14697397519801E-02 
699	 8.12410873868606E-02 
700	 8.06657279598149E-02 
701	 8.00982791614148E-02 
702	 7.96629934953545E-02 
703	 7.92106485718096E-02 
704	 7.85600724559312E-02 
705	 7.79383464127087E-02 
706	 7.74608629752318E-02 
707	 7.68270970999257E-02 
708	 7.56523588002496E-02 
709	 7.45195156091159E-02 
710	 7.40893940712854E-02 
711	 7.31916565255071E-02 
712	 7.20686924652025E-02 
713	 0.070902184501353 
714	 6.97012259087328E-02 
715	 6.85082969102992E-02 
716	 6.70051806942792E-02 
717	 0.065270201460951 
718	 6.47859368618552E-02 
719	 6.39993652392228E-02 
720	 6.30907856774064E-02 
721	 6.24916191854266E-02 
722	 6.14927159821982E-02 
723	 6.06238498300358E-02 
724	 0.06018193469492 
725	 5.93470262739085E-02 
726	 0.058419051060358 
727	 5.76846308777574E-02 
728	 5.72322722272335E-02 
729	 0.056561979333966 
730	 5.62916588812854E-02 
731	 5.62071747626644E-02 
732	 5.58318122854028E-02 
733	 5.53572121885378E-02 
734	 0.055038530342872 
735	 5.49680627830426E-02 
736	 5.50031815428329E-02 
737	 5.47606365202272E-02 
738	 5.44214048799491E-02 
739	 5.42573560708587E-02 
740	 5.43974679317334E-02 
741	 0.054600322921668 
742	 5.46567303725119E-02 
743	 5.44705759870417E-02 
744	 5.45858095900703E-02 
745	 5.46801773433603E-02 
746	 5.45814288916817E-02 
747	 5.44295500463375E-02 
748	 5.45068889621613E-02 
749	 5.44414157262131E-02 
750	 5.40203610012494E-02 
751	 5.41241314796103E-02 
752	 5.41868254798467E-02 
753	 5.41231778366408E-02 
754	 5.41178947477426E-02 
755	 0.054240940631591 
756	 5.39761492731833E-02 
757	 5.34116636610936E-02 
758	 5.37162256024616E-02 
759	 5.31675395986664E-02 
760	 5.20248914974347E-02 
761	 0.052529617982684 
762	 5.26284677638304E-02 
763	 5.26393384019274E-02 
764	 5.27799813360587E-02 
765	 5.31062376710447E-02 
766	 5.33535874840202E-02 
767	 5.34684453108082E-02 
768	 5.35323676528828E-02 
769	 5.37239436950802E-02 
770	 5.37397227024784E-02 
771	 5.37384738608241E-02 
772	 5.38437478432809E-02 
773	 5.38256371049711E-02 
774	 5.38609285365283E-02 
775	 5.38975771836713E-02 
776	 5.38253890294315E-02 
777	 5.38108736738123E-02 
778	 5.38401266745818E-02 
779	 5.38546402470878E-02 
780	 5.37872595298982E-02 
781	 5.40671320386961E-02 
782	 5.42913989293303E-02 
783	 5.41488055806249E-02 
784	 0.053861749439239 
785	 5.37459443035807E-02 
786	 5.37373050078682E-02 
787	 5.36414728554037E-02 
788	 5.35364628294451E-02 
789	 5.34682221168528E-02 
790	 5.35412328709514E-02 
791	 5.38516525440987E-02 
792	 5.40958933636107E-02 
793	 5.41340758312782E-02 
794	 5.39686271295836E-02 
795	 0.053763881544146 
796	 5.41101755985266E-02 
797	 5.42956759107471E-02 
798	 5.37703160772099E-02 
799	 5.38094722294105E-02 
800	 5.40330747881384E-02 
801	 5.42026875389271E-02 
802	 5.42083667557979E-02 
803	 5.42699994592278E-02 
804	 5.43049357540102E-02 
805	 5.43927977012588E-02 
806	 5.47747301616777E-02 
807	 5.46211210626297E-02 
808	 5.41566893253627E-02 
809	 5.37965927168287E-02 
810	 5.38793186226402E-02 
811	 5.34876033578997E-02 
812	 0.052675792411644 
813	 5.20568330956767E-02 
814	 5.20730495417621E-02 
815	 5.23078396166799E-02 
816	 5.22756060472635E-02 
817	 5.17858397548978E-02 
818	 5.18231163885246E-02 
819	 5.19053533826252E-02 
820	 5.17883577106486E-02 
821	 5.16223491108511E-02 
822	 5.17488258977103E-02 
823	 0.051816306438575 
824	 5.15988322806416E-02 
825	 0.051564553843727 
826	 5.11967550117928E-02 
827	 5.06735203374637E-02 
828	 5.04796652912677E-02 
829	 0.050745309969177 
830	 0.050538610388995 
831	 0.050004117622925 
832	 5.00135474293905E-02 
833	 5.02457852355568E-02 
834	 0.050601462603198 
835	 0.050748422123231 
836	 5.00824490696527E-02 
837	 5.00618729133394E-02 
838	 5.04125089660605E-02 
839	 5.05657386425871E-02 
840	 0.050162805586898 
841	 5.00341897235671E-02 
842	 5.02337219809687E-02 
843	 0.050531480044322 
844	 5.09472179107832E-02 
845	 5.09518997181865E-02 
846	 5.06075870313913E-02 
847	 5.04174014583345E-02 
848	 5.08832183044427E-02 
849	 5.11461571080264E-02 
850	 5.08204123689815E-02 
851	 5.03789546848836E-02 
852	 5.06408531476205E-02 
853	 5.09783588019127E-02 
854	 5.08993430241494E-02 
855	 5.09261941487949E-02 
856	 5.07877418733186E-02 
857	 5.04967430429001E-02 
858	 5.02261919790315E-02 
859	 5.04567167638744E-02 
860	 0.050530936469423 
861	 5.05689704344615E-02 
862	 5.09789825148139E-02 
863	 5.13751845323335E-02 
864	 5.09699655434083E-02 
865	 5.02367897978708E-02 
866	 5.06117240855316E-02 
867	 5.07482038328858E-02 
868	 5.04216816646236E-02 
869	 0.049917530203096 
870	 4.99301963538343E-02 
871	 5.03976699461956E-02 
872	 5.04472432135841E-02 
873	 4.98569768529805E-02 
874	 5.02894558968236E-02 
875	 4.97691365591247E-02 
876	 4.93668481913319E-02 
877	 5.03366057104843E-02 
878	 5.11277234078637E-02 
879	 0.050727571646185 
880	 4.96527994593543E-02 
881	 4.91758043099971E-02 
882	 4.97933813271526E-02 
883	 4.97974064068495E-02 
884	 4.93016742996798E-02 
885	 4.97004281182753E-02 
886	 4.97687017498175E-02 
887	 4.96688286019954E-02 
888	 4.94355923858055E-02 
889	 4.88355677349453E-02 
890	 4.85368792255877E-02 
891	 4.85645565902529E-02 
892	 4.86562918984359E-02 
893	 4.82125675782051E-02 
894	 4.88060457741895E-02 
895	 4.82835180706398E-02 
896	 4.50132507216581E-02 
897	 4.41210781552828E-02 
898	 4.50066460060913E-02 
899	 0.047035343586109 
900	 4.86737122004008E-02 
901	 4.66191241917278E-02 
902	 4.56536738740679E-02 
903	 4.58797813104776E-02 
904	 4.58785327402078E-02 
905	 4.63869806909991E-02 
906	 4.57900215353918E-02 
907	 4.47394294397392E-02 
908	 4.55337690267138E-02 
909	 4.66744377692673E-02 
910	 4.66378092523177E-02 
911	 4.53988824466461E-02 
912	 0.044510532918309 
913	 4.64498342483258E-02 
914	 4.66622157230014E-02 
915	 4.47099129858018E-02 
916	 4.54783655785942E-02 
917	 4.65514820485805E-02 
918	 4.63979676140754E-02 
919	 4.54131607936168E-02 
920	 4.59438985488725E-02 
921	 4.69478494654287E-02 
922	 4.68434230916983E-02 
923	 4.50434876606091E-02 
924	 4.34380574936134E-02 
925	 4.37975751621073E-02 
926	 4.43403825415593E-02 
927	 4.29933061410952E-02 
928	 4.33355380436661E-02 
929	 4.06676076201053E-02 
930	 3.62645517147271E-02 
931	 3.52163039029954E-02 
932	 2.60073089171888E-02 
933	 4.49351521240267E-02 
934	 4.86723626226756E-02 
935	-7.72682743489835E-03 
936	 1.10221338411417E-02 
937	 5.07940992172665E-02 
938	 6.23018439961268E-02 
939	 2.89143923298627E-02 
940	 3.67088999669123E-02 
941	 3.82980390684343E-02 
942	 2.64700660516382E-02 
943	 1.67087396377959E-02 
944	 0.032677165077779 
945	 2.79794884297939E-02 
946	 1.12879025215998E-02 
947	 2.04759546549034E-02 
948	 3.83849259432389E-02 
949	 2.59315253011081E-02 
950	 1.48859434401228E-02 
951	 5.45038430747341E-02 
952	 4.61066226850603E-02 
953	 3.38431159351992E-02 
954	 3.64302497026817E-02 
955	 4.47909455645234E-02 
956	 3.56697813764862E-02 
957	 3.56680448465272E-02 
958	 4.23472005345021E-02 
959	 3.81395716319416E-02 
960	 4.39037316196366E-02 
961	 4.63319299920096E-02 
962	 4.59963969859486E-02 
963	 5.08681693203128E-02 
964	 5.10933775617286E-02 
965	 4.69936578738536E-02 
966	 4.25812343242114E-02 
967	 4.21564487014973E-02 
968	 0.041006405645448 
969	 4.19829791200505E-02 
970	 4.31394913956822E-02 
971	 3.94540568356689E-02 
972	 3.73659528672427E-02 
973	 3.79590200943276E-02 
974	 4.23829189207248E-02 
975	 4.98921010947235E-02 
976	 4.16099271060574E-02 
977	 3.92493845602307E-02 
978	 4.50103698517828E-02 
979	 4.31194684262764E-02 
980	 4.47829578229053E-02 
981	 4.37650766846926E-02 
982	 4.21530824874258E-02 
983	 4.72615518799167E-02 
984	 5.11934543245487E-02 
985	 4.91643923395072E-02 
986	 4.43176060500365E-02 
987	 4.44336690130599E-02 
988	 4.93770570338092E-02 
989	 4.46207864322871E-02 
990	 0.03803714541091 
991	 4.83812044331481E-02 
992	 4.73512256367697E-02 
993	 4.76489394404693E-02 
994	 4.88726798966721E-02 
995	 4.36166110275022E-02 
996	 5.26779627577689E-02 
997	 0.053148283998377 
998	 4.68689524114789E-02 
999	 4.89624278118345E-02 
1000	 4.57118113553157E-02 
1001	 5.39787043249713E-02 
1002	 5.31685514235307E-02 
1003	 5.26091932673057E-02 
1004	 5.19881023235984E-02 
1005	 5.14827546969893E-02 
1006	 5.11354713591409E-02 
1007	 5.03409265033996E-02 
1008	 4.92002243759234E-02 
1009	 4.86001708863514E-02 
1010	 4.93221300150764E-02 
1011	 4.94941674114417E-02 
1012	 4.95319783267712E-02 
1013	 4.99118796013925E-02 
1014	 5.00583190355915E-02 
1015	 4.96681230639737E-02 
1016	 4.96652401990505E-02 
1017	 4.99800752674774E-02 
1018	 5.00662646706136E-02 
1019	 4.96356334446748E-02 
1020	 4.97192102659861E-02 
1021	 5.04060724873244E-02 
1022	 5.07494436380932E-02 
1023	 5.03101635470878E-02 
1024	 4.99509536291716E-02 
1025	 4.89278478475259E-02 
1026	 4.89222594030045E-02 
1027	 4.94011129120178E-02 
1028	 5.14164253129465E-02 
1029	 5.12664711582694E-02 
1030	 5.09062998668092E-02 
1031	 5.00467078101799E-02 
1032	 4.68081953909279E-02 
1033	 4.61923441129241E-02 
1034	 0.046213974299766 
1035	 0.046871735530503 
1036	 5.03226358544631E-02 
1037	 5.15028996320962E-02 
1038	 5.15934777493505E-02 
1039	 5.22795414305516E-02 
1040	 5.25580597576859E-02 
1041	 0.051825321220703 
1042	 5.14658701557045E-02 
1043	 0.051406173178405 
1044	 0.051513403943715 
1045	 5.13360203860506E-02 
1046	 5.12779658646383E-02 
1047	 5.22534464191825E-02 
1048	 5.18875084903847E-02 
1049	 4.98072969280274E-02 
1050	 4.93377053303711E-02 
1051	 4.89274178127392E-02 
1052	 4.92205494382251E-02 
1053	 5.15683553977719E-02 
1054	 5.22898756316744E-02 
1055	 0.052634558979028 
1056	 5.25836978900967E-02 
1057	 5.19971831074603E-02 
1058	 5.00151517828169E-02 
1059	 4.95760021307848E-02 
1060	 4.95815784509585E-02 
1061	 4.92879285128529E-02 
1062	 4.96021716726218E-02 
1063	 4.92884706982972E-02 
1064	 4.78018156182311E-02 
1065	 0.047805520107543 
1066	 4.86918108807606E-02 
1067	 4.91352288472463E-02 
1068	 5.05827533787657E-02 
1069	 5.10730074422088E-02 
1070	 5.09219155036356E-02 
1071	 5.04935762395835E-02 
1072	 4.83501757690879E-02 
1073	 4.82551419901845E-02 
1074	 4.82834281109859E-02 
1075	 4.85150785560563E-02 
1076	 4.87474495184512E-02 
1077	 5.02862790926195E-02 
1078	 5.05626197639235E-02 
1079	 4.98005416520998E-02 
1080	 4.97730641443586E-02 
1081	 4.97394214931519E-02 
1082	 4.97809574325916E-02 
1083	 5.02453384559126E-02 
1084	 5.03523507266773E-02 
1085	 5.04420429197258E-02 
1086	 5.04454586892234E-02 
1087	 4.96209750165449E-02 
1088	 4.94897377754687E-02 
1089	 4.97360596218046E-02 
1090	 5.02254532195253E-02 
1091	 5.06176900311461E-02 
1092	 5.20977377399523E-02 
1093	 5.20156806810011E-02 
1094	 5.06180839944103E-02 
1095	 5.00144704828103E-02 
1096	 4.87774497867094E-02 
1097	 4.78506309830524E-02 
1098	 4.74976278418991E-02 
1099	 4.73158189764136E-02 
1100	 0.046635684683233 
1101	 4.69690460959513E-02 
1102	 4.96391407093184E-02 
1103	 5.01543640197297E-02 
1104	 0.050625723797608 
1105	 4.88572593113718E-02 
1106	 4.59123316104833E-02 
1107	 4.68056908403586E-02 
1108	 4.78183342333542E-02 
1109	 4.81444154765783E-02 
1110	 4.81512787464754E-02 
1111	 4.60843969542635E-02 
1112	 4.66834066386352E-02 
1113	 5.17398277626336E-02 
1114	 5.25838597261072E-02 
1115	 4.91121904188214E-02 
1116	 5.01698873767474E-02 
1117	 5.49609736901208E-02 
1118	 5.01442271483896E-02 
1119	 3.67158171512126E-02 
1120	 3.85191517623439E-02 
1121	 4.08186271413176E-02 
1122	 2.80488113384479E-02 
1123	 6.70285652695983E-02 
1124	 9.00195153422816E-02 
1125	 8.24687846473432E-02 
1126	 5.73315661463175E-02 
1127	 4.87516670971031E-02 
1128	 0.105815327534839 
1129	 0.113175837315417 
1130	 0.110040319111809 
1131	 9.23890813281596E-02 
1132	 4.60586912038973E-02 
1133	 3.94103779354526E-02 
1134	 5.32488131699866E-02 
1135	 0.047859981366617 
1136	 3.98907462935052E-02 
1137	 3.87773092453461E-02 
1138	 2.84053102915173E-02 
1139	 3.25123497273998E-02 
1140	 0.029449994004821 
1141	 2.88957445929923E-02 
1142	 1.94443405933446E-02 
1143	-1.79362733186464E-03 
1144	 2.47179121549792E-02 
1145	 5.04943173564087E-02 
1146	 5.10078448939447E-02 
1147	 5.53605610283532E-02 
1148	 5.24828819677568E-02 
1149	 4.36277881489387E-02 
1150	 3.93817890665225E-02 
1151	 4.80363883077311E-02 
1152	 5.13425878962432E-02 
1153	 0.046862991062513 
1154	 0.045277025657429 
1155	 4.93358854342494E-02 
1156	 4.62891264096867E-02 
1157	 4.26461629686934E-02 
1158	 4.50305794564957E-02 
1159	 4.46792460260164E-02 
1160	 4.32671467120239E-02 
1161	 4.21270358017968E-02 
1162	 4.20211622184414E-02 
1163	 4.57400670059622E-02 
1164	 4.75772592429735E-02 
1165	 4.77409120731018E-02 
1166	 4.82388422663298E-02 
1167	 0.046489400785725 
1168	 4.61423291158715E-02 
1169	 4.71139126459495E-02 
1170	 4.68175376488043E-02 
1171	 4.67565456303692E-02 
1172	 4.65303135060801E-02 
1173	 4.67839485375903E-02 
1174	 4.71727996235613E-02 
1175	 4.75961109065777E-02 
1176	 4.82235999936746E-02 
1177	 4.93157020321714E-02 
1178	 4.92484223487685E-02 
1179	 4.89703717507715E-02 
1180	 4.87425185523595E-02 
1181	 4.74390762206992E-02 
1182	 4.59480784014619E-02 
1183	 4.57203227858289E-02 
1184	 4.52101437913055E-02 
1185	 4.38748651368835E-02 
1186	 4.42582302593229E-02 
1187	 4.46529766283677E-02 
1188	 4.38712401031859E-02 
1189	 4.48390677971475E-02 
1190	 4.63144809984688E-02 
1191	 4.55632639890668E-02 
1192	 4.50683123128111E-02 
1193	 4.44428646260366E-02 
1194	 4.49131456966926E-02 
1195	 4.49405739906489E-02 
1196	 4.52931024397194E-02 
1197	 4.71867765049351E-02 
1198	 4.84382520442607E-02 
1199	 4.84329271732633E-02 
1200	 4.84558278007607E-02 
1201	 0.048223124140315 
1202	 4.83599368371214E-02 
1203	 4.88186110930114E-02 
1204	 4.80555913389021E-02 
1205	 4.69652736851725E-02 
1206	 4.75777785569973E-02 
1207	 4.71693259578967E-02 
1208	 4.68334668470205E-02 
1209	 4.84805455808172E-02 
1210	 4.71479891171664E-02 
1211	 4.49158714692154E-02 
1212	 4.54329867413304E-02 
1213	 4.65957071742367E-02 
1214	 4.65262535767609E-02 
1215	 4.64593039819869E-02 
1216	 4.59733513832634E-02 
1217	 4.59641153552059E-02 
1218	 4.50108734949936E-02 
1219	 4.45939974130782E-02 
1220	 4.68482197123152E-02 
1221	 4.75532442150184E-02 
1222	 4.64398468356245E-02 
1223	 4.63476898232597E-02 
1224	 4.63991289552231E-02 
1225	 4.59569439052631E-02 
1226	 4.67983297390892E-02 
1227	 4.82750243442144E-02 
1228	 4.82306905886148E-02 
1229	 0.047996607183336 
1230	 4.84027969245259E-02 
1231	 4.82293276223826E-02 
1232	 4.70118280966508E-02 
1233	 4.58442312739343E-02 
1234	 4.59964301841311E-02 
1235	 4.60565184437194E-02 
1236	 0.046597272120385 
1237	 4.68463608834233E-02 
1238	 4.77029154118836E-02 
1239	 4.70053480218915E-02 
1240	 4.61012716073679E-02 
1241	 4.70543978839542E-02 
1242	 4.81030579472503E-02 
1243	 4.82827107084047E-02 
1244	 4.79243290683684E-02 
1245	 4.79890290378181E-02 
1246	 4.81273845886193E-02 
1247	 4.78428331451453E-02 
1248	 4.91044598551031E-02 
1249	 4.99786012060559E-02 
1250	 4.96429492719895E-02 
1251	 5.03374316176068E-02 
1252	 5.00201351156605E-02 
1253	 4.83815591884311E-02 
1254	 4.80511390042426E-02 
1255	 4.84047888470349E-02 
1256	 4.78108515129339E-02 
1257	 4.69194721215708E-02 
1258	 0.046721750690245 
1259	 0.045899755500804 
1260	 4.55645560148164E-02 
1261	 4.65726756924124E-02 
1262	 4.70656003126222E-02 
1263	 4.75639096312388E-02 
1264	 4.71316099259213E-02 
1265	 0.046705893815605 
1266	 4.67877661738426E-02 
1267	 4.70153935385576E-02 
1268	 4.69274307954055E-02 
1269	 4.67530135783255E-02 
1270	 4.69965353446131E-02 
1271	 4.69458021539304E-02 
1272	 4.69837591892341E-02 
1273	 4.74633071438617E-02 
1274	 4.71002808669726E-02 
1275	 4.68113129559153E-02 
1276	 4.73760667068411E-02 
1277	 4.69921976949134E-02 
1278	 4.68824772248628E-02 
1279	 4.77115148774532E-02 
1280	 4.75038889151914E-02 
1281	 4.72560656573457E-02 
1282	 4.71116526814599E-02 
1283	 4.75271485149418E-02 
1284	 4.79987858032798E-02 
1285	 4.79738842890094E-02 
1286	 4.83141380761107E-02 
1287	 0.048460938741401 
1288	 4.73481903833789E-02 
1289	 4.73864210251297E-02 
1290	 4.85011216349797E-02 
1291	 4.95939890423561E-02 
1292	 4.90230215227475E-02 
1293	 4.78895841658706E-02 
1294	 0.047044530949982 
1295	 4.65845941999661E-02 
1296	 4.66172125376567E-02 
1297	 4.66434568911798E-02 
1298	 0.046337200089189 
1299	 4.62924276697814E-02 
1300	 4.73715689505076E-02 
1301	 4.80093326798555E-02 
1302	 4.66548170660142E-02 
1303	 4.57806273521368E-02 
1304	 4.51831198682444E-02 
1305	 4.51386167129266E-02 
1306	 4.52731524563904E-02 
1307	 0.045737820148546 
1308	 4.70000527695668E-02 
1309	 5.02020658003112E-02 
1310	 5.07734341903261E-02 
1311	 5.11630188756301E-02 
1312	 5.14410949066185E-02 
1313	 4.77255550186685E-02 
1314	 4.73286747164513E-02 
1315	 5.15555727765196E-02 
1316	 5.16791652356377E-02 
1317	 4.96718790378854E-02 
1318	 4.88303824140621E-02 
1319	 4.47224959017973E-02 
1320	 4.35849876663659E-02 
1321	 4.59453977232476E-02 
1322	 4.82567003535199E-02 
1323	 4.64384979568592E-02 
1324	 4.75747123400663E-02 
1325	 5.01121661791592E-02 
1326	 4.96203777529239E-02 
1327	 5.08798477464511E-02 
1328	 5.28964814128503E-02 
1329	 5.28311081158952E-02 
1330	 0.052922466055208 
1331	 4.91385457400981E-02 
1332	 4.60473590653404E-02 
1333	 4.98920978133642E-02 
1334	 5.21408610090555E-02 
1335	 5.00078311885166E-02 
1336	 5.10074614997814E-02 
1337	 5.19523420438952E-02 
1338	 4.19793050542931E-02 
1339	 3.94562139591618E-02 
1340	 4.99375289966523E-02 
1341	 5.73861407100243E-02 
1342	 6.20708016257818E-02 
1343	 0.064108041180969 
1344	 7.06937375576655E-02 
1345	 7.50847565520066E-02 
1346	 0.061659924196756 
1347	 6.64775756153571E-02 
1348	 0.109712771539769 
1349	 0.135903276174123 
1350	 0.186891789538085 
1351	 0.216062425715342 
1352	 3.98295811450368E-04 
1353	-4.11856410766408E-02 
1354	 9.21007968317785E-02 
1355	 0.261363319952525 
1356	 0.339789776506779 
1357	 0.854149334319658 
1358	 0.820399705555373 
1359	 0.3058227523197 
1360	 0.34884119670854 
1361	 0.47092884090975 
1362	 0.543999524217897 
1363	 1.30841110587276 
1364	 0.577832624286356 
1365	 0.165110749778621 
1366	 8.55180335836549E-02 
1367	 0.125932375920044 
1368	 0.226633291634956 
1369	 0.663678204357117 
1370	 0.809771864974337 
1371	 1.50538231693278 
1372	 0.863919895532112 
1373	-5.7252694119171 
1374	 40.8766573399964 
1375	-3.47355746261601 
1376	-1.80786159041321 
1377	-0.331350267697977 
1378	-0.130315715365318 
1379	-0.226874777802387 
1380	-0.144607770821353 
1381	-1.6909562066533 
1382	-1.85311905136607 
1383	-0.415784064654321 
1384	-7.11654308224645E-02 
1385	 0.429700361174067 
1386	 0.50391565989359 
1387	-3.83172903773051E-02 
1388	-0.217587790781509 
1389	-6.75578845052955E-02 
1390	-0.534294202095058 
1391	-0.702849041410242 
1392	-0.283075392155198 
1393	-8.46312842045179E-02 
1394	 0.280170289710236 
1395	 1.01247565529222 
1396	 1.44172917771701 
1397	 2.12700647545791 
1398	-42.6720897661911 
1399	-0.127891910785597 
1400	 0.116116388335096 
1401	-0.761391880036795 
1402	 48.7002269449534 
1403	 0.644372214480776 
1404	 7.95836551633653 
1405	 131.549013154619 
1406	-0.802145538396169 
1407	-0.510339612994369 
1408	-2.23759435581941 
1409	-9.79515804581855 
1410	-1.18211405499973 
1411	-3.9009047828932 
1412	 0.177898120240856 
1413	 0.282249236159005 
1414	 0.943898562191602 
1415	 0.57262762592022 
1416	-1.67763411599265 
1417	-0.789655829899845 
1418	 9.42706172814706 
1419	 3.62826013018859 
1420	 4.47404987926168 
1421	 2.5238458996228 
1422	-0.410525143804794 
1423	-0.612538593047555 
1424	-1.01401023804072 
1425	-0.740736559531954 
1426	 1.87822473520624 
1427	 2.02092500315975 
1428	 0.433841170770566 
1429	 0.195029146267791 
1430	-1.68743255026442E-02 
1431	-2.87109483138263E-02 
1432	 0.237745385878238 
1433	 0.226123329983829 
1434	-0.119207514215437 
1435	-1.47523597411018E-02 
1436	 0.349506873135882 
1437	 0.264856709286138 
1438	-0.114782114654798 
1439	-6.88359004984352E-02 
1440	 0.139031814849924 
1441	 7.65617505184024E-02 
1442	 0.303480250467763 
1443	 0.509679274464766 
1444	 0.416484280320938 
1445	 0.220666566680336 
1446	 0.269585973441717 
1447	 0.324009910551207 
1448	 0.114556903502772 
1449	 2.28001179566859E-02 
1450	 8.87446105722246E-02 
1451	 3.92459096105166E-02 
1452	 1.45441355187151E-04 
1453	 6.39320527691503E-02 
1454	 5.86631918862009E-02 
1455	 5.50844907286916E-04 
1456	 2.1139527558165E-03 
1457	 3.16928390441036E-02 
1458	 4.95084936228578E-02 
1459	 0.078606572371053 
1460	 9.68531062879416E-02 
1461	 0.131061527097548 
1462	 0.127322241414877 
1463	 7.10164119409209E-02 
1464	 7.17309689629125E-02 
1465	 9.27849967740432E-02 
1466	 9.05540490248029E-02 
1467	 0.104124780637198 
1468	 0.128802146423758 
1469	 0.16984888156235 
1470	 0.143360219178103 
1471	 9.91153117547953E-02 
1472	 6.86501384201371E-02 
1473	-2.51139470068486E-02 
1474	-3.36232953267353E-02 
1475	 1.62812882261366E-02 
1476	 2.28660272326335E-02 
1477	 2.56263715612935E-02 
1478	 4.87357068416509E-02 
1479	 9.35967739268486E-02 
1480	 8.88168591436364E-02 
1481	 7.23205706396097E-02 
1482	 6.48820765250781E-02 
1483	 1.95761601984063E-02 
1484	 1.93224103297865E-02 
1485	 5.99825807108874E-02 
1486	 6.19761828987193E-02 
1487	 4.71490735352837E-02 
1488	 4.77151067257255E-02 
1489	 4.95437045251319E-02 
1490	 0.047308800730897 
1491	 0.049478530836662 
1492	 5.13944601777907E-02 
1493	 4.58953735432559E-02 
1494	 4.63221374312731E-02 
1495	 5.74203187861611E-02 
1496	 5.60622956495294E-02 
1497	 4.53330458880741E-02 
1498	 4.45725674211542E-02 
1499	 4.63044797358259E-02 
1500	 4.36082679191717E-02 
1501	 4.27757574848521E-02 
1502	 4.46863813726908E-02 
1503	 4.31063021657762E-02 
1504	 4.17111883572719E-02 
1505	 4.28820001230388E-02 
1506	 4.67313443027197E-02 
1507	 4.41490011771771E-02 
1508	 4.36196425939981E-02 
1509	 4.72564229233172E-02 
1510	 4.82117441401726E-02 
1511	 4.53066712169945E-02 
1512	 4.58568692523439E-02 
1513	 0.050345249091124 
1514	 5.02598316151332E-02 
1515	 4.87865712875196E-02 
1516	 5.26762299455794E-02 
1517	 5.44603797026064E-02 
1518	 0.05035494764552 
1519	 4.91075901600093E-02 
1520	 5.03364473455296E-02 
1521	 5.16672361120877E-02 
1522	 5.14033437864687E-02 
1523	 4.73375628227856E-02 
1524	 0.045421568339388 
1525	 4.47930633768629E-02 
1526	 4.33007180002302E-02 
1527	 4.49358752620229E-02 
1528	 4.72199780335402E-02 
1529	 4.83965957409006E-02 
1530	 4.95188792617761E-02 
1531	 5.16850571076994E-02 
1532	 5.36191340461166E-02 
1533	 4.87337632045046E-02 
1534	 4.55399647620456E-02 
1535	 4.73872299472388E-02 
1536	 4.55947390957663E-02 
1537	 4.56388491867021E-02 
1538	 4.69656789888401E-02 
1539	 4.69225863055551E-02 
1540	 4.72788829299384E-02 
1541	 4.59440283348116E-02 
1542	 4.56661301190869E-02 
1543	 4.62475001466184E-02 
1544	 4.54998470026499E-02 
1545	 4.52414371697254E-02 
1546	 0.044696015429866 
1547	 4.49094930492314E-02 
1548	 4.64134687318918E-02 
1549	 4.65175862102316E-02 
1550	 4.57876391329713E-02 
1551	 4.43574481431976E-02 
1552	 4.45179958356894E-02 
1553	 4.62517715233029E-02 
1554	 0.047081770651462 
1555	 4.71460637400938E-02 
1556	 4.64981386395277E-02 
1557	 4.71410237943072E-02 
1558	 4.84143975644791E-02 
1559	 4.94697296895866E-02 
1560	 0.049855467820663 
1561	 4.78921061266726E-02 
1562	 4.64362026161077E-02 
1563	 4.64870889075934E-02 
1564	 4.56300605226796E-02 
1565	 4.54075744025117E-02 
1566	 4.66378061891809E-02 
1567	 4.74031927965841E-02 
1568	 4.62076285588824E-02 
1569	 4.43289175061026E-02 
1570	 4.47742359550053E-02 
1571	 4.59878175986544E-02 
1572	 4.58550533404343E-02 
1573	 4.57988934262601E-02 
1574	 4.63155020388919E-02 
1575	 4.61150606091482E-02 
1576	 4.58586238038966E-02 
1577	 4.70273876168923E-02 
1578	 4.75940395690969E-02 
1579	 0.046125756848304 
1580	 4.43813114670281E-02 
1581	 4.43487884479909E-02 
1582	 4.66276560843235E-02 
1583	 4.85587467434417E-02 
1584	 4.85851471860769E-02 
1585	 4.91287719014804E-02 
1586	 4.87300125419642E-02 
1587	 4.53804411026008E-02 
1588	 4.52286520936708E-02 
1589	 0.048706141789115 
1590	 4.84012391487666E-02 
1591	 4.66431365016186E-02 
1592	 4.74637023206304E-02 
1593	 4.62214466482295E-02 
1594	 4.30042087300415E-02 
1595	 4.25779894270226E-02 
1596	 4.38286108425732E-02 
1597	 4.40563986931093E-02 
1598	 4.45629111744998E-02 
1599	 0.045882913572802 
1600	 4.61216233772508E-02 
1601	 4.48939944520063E-02 
1602	 4.33727005551431E-02 
1603	 4.44234366245056E-02 
1604	 4.63518298328711E-02 
1605	 4.62581739626399E-02 
1606	 4.57671386306212E-02 
1607	 4.49174676077543E-02 
1608	 4.41034481057442E-02 
1609	 4.43136447620278E-02 
1610	 0.045880379287799 
1611	 4.78111655825506E-02 
1612	 4.89351882513102E-02 
1613	 4.94552347398405E-02 
1614	 4.84633362831864E-02 
1615	 4.64094691989008E-02 
1616	 0.044816821339339 
1617	 4.38494934741631E-02 
1618	 4.47034539236525E-02 
1619	 4.81486369679523E-02 
1620	 4.92438578679377E-02 
1621	 4.77297937976226E-02 
1622	 4.86555513452729E-02 
1623	 4.81747109252018E-02 
1624	 4.55813646336651E-02 
1625	 4.49387174060694E-02 
1626	 4.47239574447026E-02 
1627	 4.37342075470465E-02 
1628	 4.37207725132927E-02 
1629	 4.49490672332221E-02 
1630	 4.51504007699249E-02 
1631	 4.47325094458708E-02 
1632	 4.51512201781757E-02 
1633	 4.49124937038314E-02 
1634	 4.45787834044019E-02 
1635	 4.50800886813887E-02 
1636	 4.46637228479236E-02 
1637	 4.37035702095188E-02 
1638	 4.33164061844334E-02 
1639	 4.45634726491363E-02 
1640	 4.55317143981489E-02 
1641	 4.69914720233472E-02 
1642	 4.98032665624051E-02 
1643	 4.79850725175945E-02 
1644	 4.47228828744788E-02 
1645	 4.46698844708806E-02 
1646	 4.46462681869376E-02 
1647	 4.43270808031107E-02 
1648	 4.61211867906161E-02 
1649	 4.62611066272532E-02 
1650	 4.41906940527435E-02 
1651	 4.64833885809541E-02 
1652	 4.76958471120182E-02 
1653	 4.56103745645985E-02 
1654	 4.58973565979863E-02 
1655	 4.59632272078451E-02 
1656	 4.53759800913436E-02 
1657	 4.53433835904756E-02 
1658	 4.54362916859995E-02 
1659	 4.55743970438679E-02 
1660	 4.38551268444792E-02 
1661	 4.07225117362151E-02 
1662	 0.040582457799673 
1663	 4.02910097295761E-02 
1664	 3.96878516522613E-02 
1665	 4.23880538854544E-02 
1666	 4.22721134143303E-02 
1667	 3.83548388058769E-02 
1668	 3.81948374847458E-02 
1669	 3.97101089514885E-02 
1670	 4.29640724351254E-02 
1671	 4.47662496594246E-02 
1672	 4.47297624622376E-02 
1673	 4.38680523183568E-02 
1674	 4.41151196541353E-02 
1675	 4.58105106079061E-02 
1676	 4.52991677050541E-02 
1677	 4.55445951148595E-02 
1678	 4.65329664645402E-02 
1679	 4.54088192899012E-02 
1680	 4.56092862826001E-02 
1681	 4.57638550248505E-02 
1682	 4.44597903394957E-02 
1683	 4.50428005804309E-02 
1684	 4.67785112157877E-02 
1685	 4.70559804470047E-02 
1686	 4.76421543668655E-02 
1687	 4.72534937184086E-02 
1688	 4.46426058773409E-02 
1689	 4.43003064853315E-02 
1690	 4.58058068182065E-02 
1691	 4.57925526555011E-02 
1692	 4.62519186630302E-02 
1693	 4.65604785058042E-02 
1694	 4.45648896592517E-02 
1695	 4.39441145715333E-02 
1696	 0.044172304907099 
1697	 4.58865762544574E-02 
1698	 4.87976807280624E-02 
1699	 4.77897060458442E-02 
1700	 4.66665563775479E-02 
1701	 4.57314225922384E-02 
1702	 4.20476192030186E-02 
1703	 4.17866040933949E-02 
1704	 0.04421379895084 
1705	 4.57972911998902E-02 
1706	 4.84897900186356E-02 
1707	 5.05662380730116E-02 
1708	 5.15365950404726E-02 
1709	 0.049926979532613 
1710	 0.046071978428786 
1711	 4.54471099600043E-02 
1712	 4.53278488766138E-02 
1713	 4.80626332377433E-02 
1714	 4.84139935713757E-02 
1715	 4.66672752601142E-02 
1716	 4.66768267227245E-02 
1717	 4.23546508607708E-02 
1718	 3.99367408016372E-02 
1719	 4.23102284803711E-02 
1720	 3.93663413292031E-02 
1721	 3.96107788536068E-02 
1722	 4.38978698808445E-02 
1723	 4.31128775837213E-02 
1724	 4.22619029614251E-02 
1725	 0.043580081263349 
1726	 4.22866027329555E-02 
1727	 4.08417940030436E-02 
1728	 0.045474848779472 
1729	 4.70811748026818E-02 
1730	 4.27713257671403E-02 
1731	 4.34929137838949E-02 
1732	 4.32588918535506E-02 
1733	 3.79814079728214E-02 
1734	 4.00113924542859E-02 
1735	 4.50254780995158E-02 
1736	 4.44131986206343E-02 
1737	 4.65433936620472E-02 
1738	 4.58364475641295E-02 
1739	 3.96003936480584E-02 
1740	 3.96202043268036E-02 
1741	 4.31180362731998E-02 
1742	 4.56175714742847E-02 
1743	 4.86774720360376E-02 
1744	 4.71977002138712E-02 
1745	 4.10002380539738E-02 
1746	 4.56039323022116E-02 
1747	 4.73385877563449E-02 
1748	 5.00452420798895E-02 
1749	 0.049271506352225 
1750	 4.08801664306805E-02 
1751	 3.94058354402882E-02 
1752	 4.38525351768418E-02 
1753	 4.27591921578527E-02 
1754	 4.15609213390744E-02 
1755	 0.042644234704246 
1756	 3.87904859112376E-02 
1757	 4.05341435794605E-02 
1758	 4.33288824745318E-02 
1759	 4.28048538050009E-02 
1760	 4.23550952721133E-02 
1761	 4.66427215102198E-02 
1762	 5.39789527471344E-02 
1763	 5.72173916141058E-02 
1764	 5.87640915581199E-02 
1765	 5.40197932340458E-02 
1766	 4.74210510975127E-02 
1767	 4.77866763946829E-02 
1768	 4.91431473666024E-02 
1769	 5.86991458063207E-02 
1770	 6.66785933721732E-02 
1771	 6.26613401542714E-02 
1772	 5.74914165931778E-02 
1773	 4.78944758797833E-02 
1774	 3.86565474757623E-02 
1775	 4.56905567425341E-02 
1776	 4.42431537528874E-02 
1777	 4.02728855319547E-02 
1778	 3.68789121714437E-02 
1779	 2.48816265214562E-02 
1780	 0.020524382614931 
1781	 2.39880568563626E-02 
1782	 2.64437278086543E-02 
1783	 2.87184194451397E-02 
1784	 3.12405601305886E-02 
1785	 4.75652885847354E-02 
1786	 4.88673909006041E-02 
1787	 3.39270085177366E-02 
1788	 3.19760114607089E-02 
1789	 2.09222029112725E-02 
1790	 1.34886091981333E-02 
1791	 4.71473874217695E-02 
1792	 6.88456985734534E-02 
1793	 5.60288509033366E-02 
1794	 7.43792269558561E-02 
1795	 5.87147751667486E-02 
1796	 4.14463490272046E-02 
1797	 6.53485276486227E-02 
1798	-1.22438096889688E-02 
1799	 6.80159174374594E-02 
1800	 0.182471866420373 
1801	 0.223415065056413 
1802	 0.302736511195847 
1803	 0.323398012975521 
1804	 0.169381998653151 
1805	 0.132335371393211 
1806	 9.92429851065412E-02 
1807	 4.68132813929888E-02 
1808	 0.104480745165276 
1809	 0.207784324621485 
1810	 0.48805244425545 
1811	 1.01976478022943 
1812	 2.19672204630914 
1813	 1.53903009392885 
1814	 0.490921881142095 
1815	 0.256899502601597 
1816	-0.14845555388758 
1817	-0.347230608527712 
1818	 0.127357877087538 
1819	 0.59672833488845 
1820	 0.769328323860242 
1821	 0.773711986509843 
1822	 0.735121632244896 
1823	-1.78674187951891 
1824	-2.26736110406439 
1825	 0.911327480085566 
1826	 1.49158120342795 
1827	 3.36068991354026 
1828	 4.31356114186585 
1829	 3.59172674539503 
1830	 2.53783396755361 
1831	 6.01302781790417 
1832	 12.3046074734919 
1833	 5.53608323894168 
1834	 9.55146763291606 
1835	-10.3746316361126 
1836	-2.0350916968653 
1837	-0.956674779689599 
1838	-0.659708868869918 
1839	-1.42897437169305 
1840	-10.4399716549659 
1841	-0.422045863246981 
1842	-0.440144622651222 
1843	-0.410893651475412 
1844	 0.669971046749093 
1845	 1.01488846739531 
1846	-0.78551236173464 
1847	-0.414685290702406 
1848	-1.35154213600758 
1849	-1.90808951149765 
1850	-4.79732251678123 
1851	-3.73188916449125 
1852	-0.567407625792781 
1853	-0.316518142528581 
1854	-0.290364908636744 
1855	-0.455083488900237 
1856	-0.333149632359022 
1857	-0.112569818717346 
1858	 0.039847064758917 
1859	 0.392150226432848 
1860	 0.658763844058312 
1861	 1.18711017733038 
1862	 1.38969246202952 
1863	 1.0692010613364 
1864	 2.0415107864399 
1865	 4.98071882977194 
1866	-21.0557226590472 
1867	-7.58488359877841 
1868	-11.4699854329174 
1869	-35.490535753197 
1870	 10.9427885202643 
1871	 1.17962707561662 
1872	 0.680137163974798 
1873	 0.626753865128803 
1874	 1.00283333846164 
1875	 0.884884588107196 
1876	 1.07744889431683 
1877	 2.49809751036011 
1878	 2.40487773237384 
1879	 1.54027319053093 
1880	 1.25468959063815 
1881	 0.603173944745642 
1882	 0.304129464378982 
1883	 1.07102716584799E-02 
1884	 0.201512623086428 
1885	 0.718778909235594 
1886	 17.5162755650267 
1887	-3.69895619254946 
1888	 9.61281228793405 
1889	 3.55068939757152 
1890	 1.25182012422626 
1891	 1.34398149078971 
1892	 1.49949387890518 
1893	 3.70557641208157 
1894	 13.7799695935352 
1895	 18.8045315437762 
1896	 7.96539709061246 
1897	 2.85903587616799 
1898	 2.22387348863471 
1899	 3.72377740785081 
1900	 11.0465713683354 
1901	-0.783679881155168 
1902	-0.325743837517696 
1903	-0.885381997781271 
1904	-6.50942277741615 
1905	 3.3574077558398 
1906	 1.63425529249532 
1907	 1.46063563472291 
1908	 0.743788483790171 
1909	 0.508613350386516 
1910	 2.49449514171296 
1911	-8.62794171805927 
1912	 9.5780503809987 
1913	 61.2892167133602 
1914	-5.53208449918726 
1915	-4.60017356197158 
1916	-3.33610608617844 
1917	-3.87650054226441 
1918	-4.33222698715546 
1919	 1.03168901243409 
1920	 0.738594750181229 
1921	 0.929795398409156 
1922	 0.60399510168761 
1923	 0.724519975430448 
1924	 0.839808966329941 
1925	 0.995137189689311 
1926	 1.02593388823944 
1927	 0.966694872749203 
1928	 1.16426270202167 
1929	 11.4911120982082 
1930	-1.65119285448538 
1931	-0.903399856252998 
1932	-0.992640443253534 
1933	-0.503692411968684 
1934	 0.132772083757933 
1935	 3.07714425997327 
1936	 13.2338877295503 
1937	 1.7610187686027 
1938	 0.698891765935744 
1939	 0.613986734176649 
1940	 0.545900687720472 
1941	 0.307253767652043 
1942	 0.540384744487451 
1943	 0.699766601153795 
1944	 0.331313236630781 
1945	 4.18658036364471E-02 
1946	-0.419425800258056 
1947	 51.1391762391497 
1948	-0.724814298615789 
1949	-0.137628296789565 
1950	-0.260291219371278 
1951	-0.543396145902213 
1952	-1.02537806705664 
1953	-6.77406170596241 
1954	 4.2237891236594 
1955	 2.51197468977089 
1956	 1.02004520247303 
1957	-0.338637967635324 
1958	-1.96984348754137 
1959	-0.520521470734139 
1960	-0.268486428860137 
1961	-3.33468455861505E-02 
1962	 0.398981120516905 
1963	 0.853559029569183 
1964	 1.91757289609313 
1965	 1.97797741246888 
1966	 2.35853443390888 
1967	 3.69316228712266 
1968	 2.88951777241286 
1969	 0.774851484746794 
1970	 0.558805260798276 
1971	 0.229210604429698 
1972	 8.50692677555547E-02 
1973	 0.35205091243003 
1974	 0.43454683594132 
1975	 0.478227628453331 
1976	 0.466604045083788 
1977	 0.356406080293976 
1978	 0.328773900379556 
1979	 0.349572728340532 
1980	 0.419539580642404 
1981	 0.529420430794832 
1982	 0.55519619730208 
1983	 0.525608895415762 
1984	 0.430546097303156 
1985	 0.21179211006016 
1986	 0.147122665524707 
1987	 0.237851555791919 
1988	 0.253663966281357 
1989	 0.263204325677324 
1990	 0.293511017978089 
1991	 0.244256269092913 
1992	 0.210314945448141 
1993	 0.236494440095327 
1994	 0.252689287111916 
1995	 0.295402161015374 
1996	 0.209236645136086 
1997	 0.201354769917404 
1998	 0.314492991725789 
1999	 0.379261965690156 
2000	 0.363035223788445 
2001	 0.227391883924651 
2002	 0.176136803339791 
2003	 1.38877483604605E-02 
2004	-6.19161515737291E-02 
2005	 0.190025624825075 
2006	 0.205186224468095 
2007	 0.201242543127721 
2008	 0.667762087804427 
2009	 0.9842902654364 
2010	 1.69160279251553 
2011	 1.99136310669017 
2012	 3.00364847698976 
2013	 0.942568004137924 
2014	 0.476301147569988 
2015	 0.522725823990572 
2016	 0.295746255113962 
2017	 0.277441022987622 
2018	 0.352306354216706 
2019	 0.150754718909133 
2020	 0.208417999242263 
2021	 0.264869881724079 
2022	 0.128599733617907 
2023	 8.58612964882322E-02 
2024	 5.66496990068829E-02 
2025	-4.45990689257132E-02 
2026	-6.52155728328026E-02 
2027	-2.16777511668352E-02 
2028	 2.02333093989914E-02 
2029	 0.010121704639459 
2030	 3.37435801154008E-02 
2031	 6.98292252197584E-02 
2032	 5.39804054561134E-02 
2033	 4.34951569491067E-02 
2034	 5.36303053041124E-02 
2035	 3.97682839605589E-02 
2036	 3.66042689990212E-02 
2037	 4.20130211211161E-02 
2038	 3.41561307603069E-02 
2039	 2.58492744448028E-02 
2040	 7.7895570776958E-03 
2041	 4.93245791827958E-03 
2042	-1.11486967787686E-03 
2043	 4.87799834134872E-03 
2044	 1.57292067795995E-02 
2045	 0.069507181026169 
2046	 0.079414421912884 
2047	 6.36701586955845E-02 
2048	 0.095996634115085 
2049	 8.50927875594248E-02 
2050	 4.27125704601642E-02 
2051	 7.10316391991206E-02 
2052	 0.083658176044021 
2053	 0.030490131996821 
2054	 4.42673802180885E-02 
2055	 0.107994574901253 
2056	 0.107390829756819 
2057	 4.14627682373885E-02 
2058	 4.55551983471705E-02 
2059	 5.81689614851419E-02 
2060	 4.37535769195061E-02 
2061	 2.07990380530058E-02 
2062	 8.87463110222129E-02 
2063	 0.12374772894535 
2064	 0.111831015146309 
2065	 0.123978420863465 
2066	 9.26049348537927E-02 
2067	 5.10736549057513E-02 
2068	 2.27124287642774E-02 
2069	 2.77004330449235E-02 
2070	 5.45251956584135E-02 
2071	 4.73095818888924E-02 
2072	 4.80633983581477E-02 
2073	 3.80154861125292E-02 
2074	 1.08004541756408E-02 
2075	 1.87431662505607E-02 
2076	 3.04469756305369E-02 
2077	 3.82959061636987E-02 
2078	 6.76723286071933E-02 
2079	 0.076113383319261 
2080	 6.63342802964373E-02 
2081	 7.82914593936104E-02 
2082	 7.53245364266185E-02 
2083	 7.26904287415644E-02 
2084	 5.06264362972583E-02 
2085	 3.18516265091755E-02 
2086	 2.81884195084801E-02 
2087	 0.034005452184711 
2088	 6.08102876105829E-02 
2089	 6.17919644819216E-02 
2090	 6.40176694481253E-02 
2091	 6.86024843177667E-02 
2092	 7.17986784983597E-02 
2093	 0.071914548214328 
2094	 8.00428456782035E-02 
2095	 9.87521034074419E-02 
2096	 0.101074060968019 
2097	 9.39477601500161E-02 
2098	 8.88539788831638E-02 
2099	 7.96846592580177E-02 
2100	 6.78204273748645E-02 
2101	 5.15835454829382E-02 
2102	 4.84154165577167E-02 
2103	 4.95879951378312E-02 
2104	 4.11628425945038E-02 
2105	 3.01751484270118E-02 
2106	 1.72066548162144E-02 
2107	 8.33536735733518E-03 
2108	-1.41927791223015E-03 
2109	 1.57327047743162E-02 
2110	 4.18182434697252E-02 
2111	 4.13590929797428E-02 
2112	 5.98284510342805E-02 
2113	 7.16815266436412E-02 
2114	 7.50390338774615E-02 
2115	 7.65986400666732E-02 
2116	 8.07799699077593E-02 
2117	 8.01888459202433E-02 
2118	 7.37223007477063E-02 
2119	 6.89996151154511E-02 
2120	 6.53682793873836E-02 
2121	 5.73227257555461E-02 
2122	 6.68360758174032E-02 
2123	 7.16245304012896E-02 
2124	 6.20516138241906E-02 
2125	 6.78018282707506E-02 
2126	 5.60811441441302E-02 
2127	 0.031408724959861 
2128	 3.98987561280564E-02 
2129	 4.80322026431053E-02 
2130	 4.30433272963361E-02 
2131	 4.56575250269022E-02 
2132	 4.12940996689183E-02 
2133	 3.41013639594813E-02 
2134	 3.45997505948711E-02 
2135	 4.11278421864282E-02 
2136	 4.83547606601087E-02 
2137	 6.27699234300051E-02 
2138	 0.068279949352537 
2139	 7.76504609389331E-02 
2140	 7.54418606021567E-02 
2141	 5.22363320315553E-02 
2142	 0.047903078932782 
2143	 5.05075243767106E-02 
2144	 4.87155593904229E-02 
2145	 4.71009805432642E-02 
2146	 4.57208213665394E-02 
2147	 0.046543798662688 
2148	 4.56016948502738E-02 
2149	 0.053549439100311 
2150	 6.86790926731586E-02 
2151	 4.74858092428246E-02 
2152	 3.53368415462246E-02 
2153	 4.65198175725786E-02 
2154	 5.68325216585358E-02 
2155	 0.069735951117323 
2156	 7.72368812376997E-02 
2157	 8.65429641750782E-02 
2158	 8.21913706740693E-02 
2159	 0.079334658093339 
2160	 0.088211320749011 
2161	 8.34111555840479E-02 
2162	 6.50834834077619E-02 
2163	 5.33350730493719E-02 
2164	 0.035232493761835 
2165	 2.99921733032705E-02 
2166	 3.07176811794702E-02 
2167	 2.54942917353231E-02 
2168	 2.88244942184652E-02 
2169	 2.77583016196334E-02 
2170	 1.96503428989731E-02 
2171	 1.05860297364668E-02 
2172	 1.10106664549567E-02 
2173	 0.03248064748543 
2174	 6.70206298064657E-02 
2175	 8.53519708337409E-02 
2176	 0.087394211690987 
2177	 0.090739388938389 
2178	 7.89796537402436E-02 
2179	 7.21869071183735E-02 
2180	 8.15189088281175E-02 
2181	 8.15492942020866E-02 
2182	 8.07729530161981E-02 
2183	 7.98997122194522E-02 
2184	 7.34618648285545E-02 
2185	 0.062105175433306 
2186	 4.47615982316953E-02 
2187	 1.20269121822519E-02 
2188	-1.39648804345646E-03 
2189	-2.21875142852957E-02 
2190	-1.50083492298808E-02 
2191	 3.30516853495509E-02 
2192	 4.90575872583454E-02 
2193	 5.90803471884385E-02 
2194	 7.33900936669127E-02 
2195	 8.00814509064865E-02 
2196	 7.99759041775996E-02 
2197	 8.41072065629018E-02 
2198	 0.088969910529407 
2199	 7.81012654154667E-02 
2200	 7.61174738463627E-02 
2201	 0.102501035612689 
2202	 0.103689982729431 
2203	 9.51608044396059E-02 
2204	 9.28948065873587E-02 
2205	 7.04471951560161E-02 
2206	 6.12036473867639E-02 
2207	 5.95135810872499E-02 
2208	 5.15513692641443E-02 
2209	 4.74123273601181E-02 
2210	 5.03291374960302E-02 
2211	 5.91441977894826E-02 
2212	 5.96408718955557E-02 
2213	 4.17400999898097E-02 
2214	 2.45660269181843E-02 
2215	 2.26415344679047E-02 
2216	 2.38930847735098E-02 
2217	 3.05322257044156E-02 
2218	 6.51610400971924E-02 
2219	 7.30886125196066E-02 
2220	 5.83647858160226E-02 
2221	 6.34650091634236E-02 
2222	 7.77328811641194E-02 
2223	 8.60378998675619E-02 
2224	 0.104591755043191 
2225	 0.112341551339699 
2226	 0.108668892572948 
2227	 0.10495544310966 
2228	 9.59142379917042E-02 
2229	 8.75671216091729E-02 
2230	 7.66756335781022E-02 
2231	 5.82903793077895E-02 
2232	 3.94268390786684E-02 
2233	 2.40232886893628E-02 
2234	-3.7477680506373E-03 
2235	-1.44213720349608E-02 
2236	-2.84279524795307E-03 
2237	 2.64473441845982E-03 
2238	 2.39803762004091E-02 
2239	 4.97843020917747E-02 
2240	 7.21449953509172E-02 
2241	 7.34795006870886E-02 
2242	 7.43721587256264E-02 
2243	 8.57999689906282E-02 
2244	 8.85494933543884E-02 
2245	 9.52558194773041E-02 
2246	 0.073779358785798 
2247	 5.53828939043611E-02 
2248	 5.75928196203888E-02 
2249	 4.40496099463695E-02 
2250	 4.88741550015035E-02 
2251	 7.16365516697278E-02 
2252	 7.79068377065972E-02 
2253	 8.83847745336433E-02 
2254	 0.107279748382996 
2255	 0.100320271791856 
2256	 8.82388070332534E-02 
2257	 8.89728395327405E-02 
2258	 9.19931891248397E-02 
2259	 9.18557575923894E-02 
2260	 8.71486897614357E-02 
2261	 8.41720279094948E-02 
2262	 8.12632522427922E-02 
2263	 8.22929156374948E-02 
2264	 5.48686982704964E-02 
2265	-6.18882850107899E-03 
2266	-2.09596054171191E-02 
2267	-3.64016924523132E-02 
2268	-3.69810495267459E-02 
2269	 2.14854242244601E-02 
2270	 3.69250191968423E-02 
2271	 1.70336636089108E-02 
2272	 8.63824952310377E-03 
2273	 1.90062073120321E-03 
2274	-2.85337258336307E-03 
2275	 2.8626059813188E-03 
2276	-9.55016588090091E-03 
2277	-4.98933258493904E-02 
2278	-6.28878501322245E-02 
2279	-0.075013410972082 
2280	-8.03772119746247E-02 
2281	-7.02339148047984E-02 
2282	-4.55757706295986E-02 
2283	-2.10155489160431E-02 
2284	 1.56123901135526E-02 
2285	 0.041865044385967 
2286	 8.80831530804437E-02 
2287	 0.142867440576781 
2288	 0.131439030625699 
2289	 0.10420938072628 
2290	 0.104114420200708 
2291	 9.42126407454602E-02 
2292	 0.104910479018068 
2293	 0.152027103154858 
2294	 0.204513542222127 
2295	 0.182154798102801 
2296	 0.125449114066956 
2297	 6.67262879718672E-02 
2298	-1.42197640874792E-02 
2299	-2.73492091491821E-02 
2300	-5.53950242878997E-03 
2301	 2.03529306391503E-02 
2302	 5.52071699439007E-02 
2303	 8.01886839600919E-02 
2304	 0.132629628000917 
2305	 0.171851438848135 
2306	 0.19882992203989 
2307	 0.226571786250421 
2308	 0.187541131413717 
2309	 0.106386178052309 
2310	 6.61881703821949E-02 
2311	 4.07768940633729E-02 
2312	-2.89391196433187E-02 
2313	-5.46024924943149E-02 
2314	-3.31242476187752E-02 
2315	-2.52218662206386E-02 
2316	 4.92471458163627E-02 
2317	 0.136608306530711 
2318	 0.17799597824146 
2319	 0.14633021264404 
2320	 8.22975001047593E-02 
2321	 1.14547850759183E-03 
2322	-5.24995034147675E-02 
2323	-0.022035347315375 
2324	 3.60316476265439E-02 
2325	 0.103611194664233 
2326	 0.134740365296131 
2327	 0.146084426707223 
2328	 0.20989906799425 
2329	 0.160818382316781 
2330	 8.00591533523659E-02 
2331	 8.42579249080235E-02 
2332	 3.21836490513078E-02 
2333	 8.31944173896524E-03 
2334	 0.126917214884688 
2335	 0.281425573721813 
2336	 0.391565340202673 
2337	 0.510629761937286 
2338	 0.579020335827225 
2339	 0.486385793475452 
2340	 0.284469545079533 
2341	 0.136074813872533 
2342	 5.90322966642595E-03 
2343	-0.11980644531341 
2344	-0.262280442712053 
2345	-0.215592284766484 
2346	-4.35792210798587E-02 
2347	 0.183907164922507 
2348	 0.342638185250181 
2349	 0.385211057631131 
2350	 0.418039651457151 
2351	 0.287778220923968 
2352	 0.207581261051063 
2353	 0.299799728211875 
2354	 0.21373487687305 
2355	 0.192439018725833 
2356	 0.342161570433511 
2357	 0.248994672510623 
2358	 0.251232496998867 
2359	 0.372214489505303 
2360	 0.362001349390555 
2361	 0.307201591016629 
2362	 0.328102867167344 
2363	 0.393201422192008 
2364	 0.283888470377924 
2365	 0.315283679280866 
2366	 0.457092551898566 
2367	 0.311933884958943 
2368	 0.222865814090328 
2369	 0.191931230772318 
2370	 2.69583869526408E-03 
2371	-5.67637357254922E-02 
2372	-1.72173287408944E-02 
2373	 0.208194030668016 
2374	 0.317334088315335 
2375	 8.36671483085354E-02 
2376	 0.194640544241717 
2377	 0.431233954423484 
2378	 0.525186108251619 
2379	 0.685597587372456 
2380	 1.0756623770441 
2381	 1.26089448497726 
2382	 0.706853701267981 
2383	 0.58845294418108 
2384	 0.484299522532146 
2385	-1.73343211700436 
2386	 0.533831425232955 
2387	-0.353832285428479 
2388	-1.28314431428603 
2389	-8.13149378516635 
2390	-8.12335236425103 
2391	-1.78460867466186 
2392	-2.40110806689299 
2393	 284.069090879986 
2394	-3.58585870085848 
2395	-66.6598363026305 
2396	 4.97056385124792 
2397	 1.72416122526624 
2398	 19.0043455904908 
2399	-1.19455667566556 
2400	-8.04192171326805 
2401	 9.68485351321467 
2402	 1.03828377790432 
2403	-7.26913059736675E-02 
2404	-0.519711596219142 
2405	-1.40456574853358 
2406	-2.75955487479588 
2407	-1.73528172121648 
2408	-7.03131834304308 
2409	-0.771913576904255 
2410	-0.702320828943314 
2411	-0.672899345025416 
2412	 0.95857428776774 
2413	 0.631205369334522 
2414	 0.942672044423656 
2415	 1.81495729914129 
2416	 3.06664435600622 
2417	 2.58846661408818 
2418	 1.76640743451489 
2419	 2.20906822988991 
2420	 1.24064251858453 
2421	 0.693001462478315 
2422	 0.976939099320807 
2423	 4.15079487363141 
2424	-2.14974877942527 
2425	-0.147404907575455 
2426	-3.7187898153093 
2427	-1.74058857779772 
2428	-4.20565070848185 
2429	-2.65062505457397 
2430	 2.03946493806653 
2431	-0.638981919028409 
2432	 6.03815809563665E-02 
2433	 0.456484242431425 
2434	 0.667109064326946 
2435	 0.57112581151183 
2436	 0.683610743108926 
2437	 0.846958527146842 
2438	 1.30146431222613 
2439	 0.351481327968667 
2440	 0.72175472151481 
2441	 1.72420250801479 
2442	 7.94227257025989 
2443	-1.86593210067404 
2444	-0.170794026860075 
2445	-1.47183363248006 
2446	 1.58879232117583 
2447	 5.33858760689932 
2448	-3.92781294590347 
2449	 0.195971208987579 
2450	 0.29394213168445 
2451	-9.19970105961275E-02 
2452	-0.75811599212739 
2453	 1.58740347408469E-02 
2454	-0.550256036653329 
2455	-0.476907244338386 
2456	-0.186732809492621 
2457	 8.93368284220349E-02 
2458	 0.291591293045914 
2459	 0.411261168395647 
2460	 0.39688658969218 
2461	 9.97914820142347E-02 
2462	 0.157312071010639 
2463	 0.544757904632204 
2464	 0.470970487449875 
2465	-0.112316780013405 
2466	-1.04195603826655 
2467	-0.624758850013179 
2468	-0.350890713895595 
2469	-4.91647201170121 
2470	-0.114957056817818 
2471	 0.155576642078707 
2472	 0.223790338726508 
2473	-6.19468776681716E-02 
2474	-0.777282272036843 
2475	-4.05237581731516 
2476	-4.21008916214995 
2477	-2.58358254633254 
2478	-0.173945186664001 
2479	 0.430213822191569 
2480	 1.48472259431013 
2481	 1.38218669586285 
2482	 0.582087695576758 
2483	-0.277582802964296 
2484	-0.942073761320463 
2485	-6.01613764848642 
2486	 0.852963639928304 
2487	-0.740344667194126 
2488	-2.34729402440579 
2489	-4.64836127493138 
2490	-1.71946483535995 
2491	-1.36852530097489 
2492	 0.827909315736793 
2493	 1.34389395587654 
2494	-0.189415594620834 
2495	 1.87080514917808 
2496	 0.935955239767927 
2497	 0.66797707820173 
2498	 0.102033335268199 
2499	-9.51065570741274E-03 
2500	 0.198479779876078 
