Wavelength	rt0712west_close00004.asd
350	 0.076259308282051 
351	 7.66144105096956E-02 
352	 7.67571652735601E-02 
353	 7.70468476030018E-02 
354	 7.76449089411873E-02 
355	 0.077655219066749 
356	 7.85760045304504E-02 
357	 0.078155087951189 
358	 7.50284212395902E-02 
359	 7.66000757218659E-02 
360	 7.71487871527269E-02 
361	 7.66752648177415E-02 
362	 0.078809806654808 
363	 7.86487158292254E-02 
364	 7.81883270768929E-02 
365	 7.85809961797511E-02 
366	 0.078400002430141 
367	 7.82537581461652E-02 
368	 0.077695934531793 
369	 0.076827041220776 
370	 7.87314764704495E-02 
371	 0.079405718431563 
372	 7.87941820747891E-02 
373	 7.90759718541823E-02 
374	 7.90489025882585E-02 
375	 7.93126076147194E-02 
376	 7.97752615714383E-02 
377	 7.92250128985316E-02 
378	 7.93878543646141E-02 
379	 7.97948200944241E-02 
380	 0.079817010367965 
381	 8.00606062787522E-02 
382	 0.080452762111581 
383	 8.07740942727242E-02 
384	 8.09082067406756E-02 
385	 8.21612502897373E-02 
386	 8.20339700216099E-02 
387	 8.07030996779804E-02 
388	 8.14703447245892E-02 
389	 0.081838146505934 
390	 0.082916851935984 
391	 8.48183750055451E-02 
392	 8.34936498581279E-02 
393	 8.28973671338286E-02 
394	 0.083050571280015 
395	 0.082858378269256 
396	 8.42149668044582E-02 
397	 8.46771929587953E-02 
398	 8.41716173761804E-02 
399	 8.47006527301587E-02 
400	 0.084141837202588 
401	 8.40337583911773E-02 
402	 8.51455725284241E-02 
403	 8.54303928520501E-02 
404	 8.50688329876808E-02 
405	 8.48351105283482E-02 
406	 8.54526100200549E-02 
407	 8.57779573019818E-02 
408	 8.56797788102038E-02 
409	 8.55810236121393E-02 
410	 8.62882366679379E-02 
411	 8.65595617099244E-02 
412	 8.65954791542129E-02 
413	 8.67517516717386E-02 
414	 8.71164753991843E-02 
415	 8.72100113982297E-02 
416	 0.087410116749373 
417	 8.81838110913917E-02 
418	 8.82211992828358E-02 
419	 8.83305386781636E-02 
420	 8.87151562084205E-02 
421	 8.87889312090089E-02 
422	 8.92232454854067E-02 
423	 8.98080105426294E-02 
424	 9.02773413041606E-02 
425	 9.07818270940755E-02 
426	 9.10093399742718E-02 
427	 9.10813245560457E-02 
428	 9.13345390812388E-02 
429	 9.18626681597571E-02 
430	 9.27533181191483E-02 
431	 9.35829096563442E-02 
432	 9.33903603743674E-02 
433	 9.36170282646476E-02 
434	 9.41641407163191E-02 
435	 9.46363036412207E-02 
436	 9.48420990527209E-02 
437	 0.0953311835482 
438	 9.59619213032828E-02 
439	 9.62651335213543E-02 
440	 9.65847018750772E-02 
441	 0.097174615139531 
442	 9.79240876751033E-02 
443	 9.82207676572696E-02 
444	 9.82320952620836E-02 
445	 9.85166596412122E-02 
446	 0.099388575193429 
447	 9.98595864056779E-02 
448	 0.099932241886057 
449	 0.10000167674441 
450	 0.100641905213522 
451	 0.100979784582652 
452	 0.101136039008088 
453	 0.101290099232168 
454	 0.101391480400511 
455	 0.101917316614414 
456	 0.10252728002364 
457	 0.102715329759664 
458	 0.10291189664036 
459	 0.102924246340947 
460	 0.102816642293745 
461	 0.102927703980439 
462	 0.103191897077785 
463	 0.103467754837718 
464	 0.103669674575013 
465	 0.103925987349398 
466	 0.104117230539618 
467	 0.104295304903978 
468	 0.104575574102403 
469	 0.104872287272767 
470	 0.104991274145 
471	 0.104957285169825 
472	 0.105090278445818 
473	 0.105262484403856 
474	 0.105671149519063 
475	 0.106310644318758 
476	 0.106147044160172 
477	 0.106382731494612 
478	 0.10702011602156 
479	 0.107262500609943 
480	 0.107419336223726 
481	 0.107614984755019 
482	 0.107955199606546 
483	 0.108575278040743 
484	 0.109028000848581 
485	 0.109242402662713 
486	 0.109372952431507 
487	 0.109810783593128 
488	 0.110403249688011 
489	 0.110943762954317 
490	 0.111241133172719 
491	 0.111879030360212 
492	 0.112494982315978 
493	 0.112800173377393 
494	 0.113224554621989 
495	 0.113631281447825 
496	 0.114097063815154 
497	 0.114731262611231 
498	 0.115014510156883 
499	 0.115299033689311 
500	 0.115817019584613 
501	 0.116462025570281 
502	 0.117281333980249 
503	 0.117812330081502 
504	 0.117801183224606 
505	 0.118336689079241 
506	 0.119187581726532 
507	 0.120005084286863 
508	 0.120441551604139 
509	 0.121008727797415 
510	 0.121895186158789 
511	 0.122983191301125 
512	 0.123592272446744 
513	 0.124307674572262 
514	 0.125007301325296 
515	 0.125417240016551 
516	 0.126457714687766 
517	 0.127400935008746 
518	 0.127942522059531 
519	 0.128485616354466 
520	 0.129205135806992 
521	 0.129996455566114 
522	 0.130730262292759 
523	 0.131425963057275 
524	 0.132402111472965 
525	 0.133507593999945 
526	 0.134309692961095 
527	 0.135320082598341 
528	 0.136143120827595 
529	 0.136690628157143 
530	 0.137760593314154 
531	 0.138532107756873 
532	 0.139254789148396 
533	 0.140421871810946 
534	 0.141496582064147 
535	 0.142403916581327 
536	 0.143262709010075 
537	 0.14436034844349 
538	 0.145252529261471 
539	 0.146127109891394 
540	 0.147169379587764 
541	 0.148019940784985 
542	 0.148836837700164 
543	 0.149742852831185 
544	 0.15081147758355 
545	 0.151785481399963 
546	 0.153053002546987 
547	 0.154574404236653 
548	 0.155331617528096 
549	 0.156223723187308 
550	 0.157352079369989 
551	 0.15854059707184 
552	 0.159767728202589 
553	 0.160696347824329 
554	 0.161341461795634 
555	 0.162119288050895 
556	 0.163167605851234 
557	 0.164297161600502 
558	 0.165291720513455 
559	 0.166237788151998 
560	 0.166993119409297 
561	 0.16768023977376 
562	 0.168568451750862 
563	 0.169530642378167 
564	 0.170355859947707 
565	 0.17094445873662 
566	 0.171413309489136 
567	 0.171949690213838 
568	 0.1725514233434 
569	 0.173133091500146 
570	 0.173701038512244 
571	 0.174219875804755 
572	 0.174740447090988 
573	 0.175395796016926 
574	 0.176088012987076 
575	 0.176741675228586 
576	 0.177286938067542 
577	 0.177644058764853 
578	 0.178093456875451 
579	 0.178680170800811 
580	 0.179270863774887 
581	 0.179600245117985 
582	 0.179820188021987 
583	 0.180006543961998 
584	 0.180011864353082 
585	 0.179635714696145 
586	 0.178922240890795 
587	 0.177987007215718 
588	 0.176651438169159 
589	 0.176103410358428 
590	 0.176417070911135 
591	 0.176280484721384 
592	 0.176577199329675 
593	 0.176813153502846 
594	 0.176589565570581 
595	 0.176557015015205 
596	 0.176436813452692 
597	 0.176246050261751 
598	 0.176132560035983 
599	 0.175928755698901 
600	 0.175854863523554 
601	 0.175914317025055 
602	 0.175689192401826 
603	 0.175532825671566 
604	 0.175556685922991 
605	 0.175733973780572 
606	 0.175757523926824 
607	 0.17576060810993 
608	 0.175687735610436 
609	 0.175306123932654 
610	 0.175541913435404 
611	 0.175976662546746 
612	 0.176091233268562 
613	 0.175922063307043 
614	 0.176083469961302 
615	 0.176300533489341 
616	 0.175942722572208 
617	 0.176260323138788 
618	 0.176330637964638 
619	 0.175902867359522 
620	 0.176212052770615 
621	 0.175952564126157 
622	 0.175536250209476 
623	 0.175680025742448 
624	 0.17572339935029 
625	 0.175370137180773 
626	 0.174674532233166 
627	 0.174078409244229 
628	 0.17414750562577 
629	 0.174413856112203 
630	 0.174541831008984 
631	 0.175212722866353 
632	 0.175277708300024 
633	 0.17504025953709 
634	 0.175338980569676 
635	 0.175283968223712 
636	 0.17534724744755 
637	 0.175655466561421 
638	 0.175690469996796 
639	 0.175500892035037 
640	 0.175386265539978 
641	 0.17553353456529 
642	 0.175325251117087 
643	 0.175101591688193 
644	 0.174649060554329 
645	 0.173319106735664 
646	 0.172382941546342 
647	 0.172225446201389 
648	 0.172670724895848 
649	 0.172893069238693 
650	 0.173151568016247 
651	 0.173367001113032 
652	 0.173325113264007 
653	 0.172778211686741 
654	 0.172052307995496 
655	 0.171440731915999 
656	 0.171187425744279 
657	 0.171053790923877 
658	 0.17107196552782 
659	 0.171195746099388 
660	 0.170936267934017 
661	 0.170685696299153 
662	 0.170439830596764 
663	 0.170026702791587 
664	 0.170078034567277 
665	 0.170134892049177 
666	 0.169965513732309 
667	 0.169997802101378 
668	 0.169814571854682 
669	 0.169651729209144 
670	 0.169754147542999 
671	 0.169236507561864 
672	 0.169236091830145 
673	 0.169778962916097 
674	 0.169814594457175 
675	 0.169746146929335 
676	 0.169806571004873 
677	 0.170039396572213 
678	 0.17006055764799 
679	 0.170195069265116 
680	 0.170201949817461 
681	 0.169778102444695 
682	 0.170123121464934 
683	 0.170231128304201 
684	 0.169711128749956 
685	 0.169175201038007 
686	 0.168489328622954 
687	 0.168046068794565 
688	 0.168137625915684 
689	 0.168249965762536 
690	 0.167800163871176 
691	 0.166778228703761 
692	 0.165584235402441 
693	 0.164874863490635 
694	 0.164960449672914 
695	 0.165435668292959 
696	 0.16538421497155 
697	 0.16466148398897 
698	 0.163337948078128 
699	 0.161892996525201 
700	 0.161332433316085 
701	 0.160976635472828 
702	 0.16047610046306 
703	 0.159813159974297 
704	 0.158664993821612 
705	 0.157520122230461 
706	 0.156684556736076 
707	 0.15560273835292 
708	 0.154585033402452 
709	 0.153522505282616 
710	 0.152210901404637 
711	 0.15050514380173 
712	 0.148647388340491 
713	 0.146564572248593 
714	 0.143755968119213 
715	 0.140544017917599 
716	 0.136217646940609 
717	 0.13113110684273 
718	 0.128641664222472 
719	 0.127076931565787 
720	 0.126312123104167 
721	 0.126130434084054 
722	 0.123780949163187 
723	 0.119699114190746 
724	 0.115962418115373 
725	 0.114921722683101 
726	 0.112710091212931 
727	 0.109632808456217 
728	 0.106668891078624 
729	 0.104032223656277 
730	 0.101103894580933 
731	 9.86392998413732E-02 
732	 9.70413637313575E-02 
733	 9.55038783972131E-02 
734	 9.36216563255198E-02 
735	 0.091609780173059 
736	 9.05183122908045E-02 
737	 8.96527877627393E-02 
738	 8.91346882780852E-02 
739	 8.90257740887003E-02 
740	 8.87109809188538E-02 
741	 8.85613586907152E-02 
742	 8.86360564754779E-02 
743	 8.88090901855928E-02 
744	 8.88452446920658E-02 
745	 8.86204701878834E-02 
746	 0.088349777606978 
747	 8.86572292001024E-02 
748	 8.88216179151982E-02 
749	 8.86523816227541E-02 
750	 8.83013682361991E-02 
751	 8.85584169946329E-02 
752	 8.86186502449361E-02 
753	 8.83428067329896E-02 
754	 8.79968668639856E-02 
755	 8.77384074288242E-02 
756	 8.77900909099099E-02 
757	 8.79117237644497E-02 
758	 8.68786308197939E-02 
759	 8.61913581665217E-02 
760	 8.50545401523588E-02 
761	 8.27850138435971E-02 
762	 8.34547910929485E-02 
763	 8.42778824810614E-02 
764	 8.53001516816158E-02 
765	 8.69366689733881E-02 
766	 8.75854097045042E-02 
767	 0.087996357316148 
768	 8.85029641575963E-02 
769	 8.91194539703001E-02 
770	 8.95710451382348E-02 
771	 0.089789137257156 
772	 8.98398002533778E-02 
773	 8.99705019011696E-02 
774	 9.04457470713612E-02 
775	 9.10170356216535E-02 
776	 9.13248461303967E-02 
777	 0.091901133565979 
778	 9.23147341584726E-02 
779	 9.25119914278231E-02 
780	 9.28594554718119E-02 
781	 9.28260092595451E-02 
782	 9.29845652491822E-02 
783	 0.093634279648959 
784	 9.39703949043591E-02 
785	 9.45437137541205E-02 
786	 9.50847536192344E-02 
787	 9.51407505826368E-02 
788	 0.095112791653922 
789	 9.54955579302875E-02 
790	 9.63427886021763E-02 
791	 9.72979365636481E-02 
792	 0.098247522920824 
793	 9.85081352368467E-02 
794	 9.81740261141732E-02 
795	 9.86696191096147E-02 
796	 9.94984963785475E-02 
797	 0.100124997657482 
798	 0.100323124801957 
799	 0.100828467138354 
800	 0.100595656455102 
801	 0.100672797740284 
802	 0.102698868661678 
803	 0.103145705834835 
804	 0.103267097676568 
805	 0.103566369417606 
806	 0.103361263569125 
807	 0.103552483755939 
808	 0.103042169784607 
809	 0.101346848883677 
810	 0.101110552564886 
811	 0.10093007179126 
812	 9.98903548317324E-02 
813	 9.75360139445478E-02 
814	 9.62425285892919E-02 
815	 9.45044122182122E-02 
816	 9.31889841196673E-02 
817	 9.46000612809628E-02 
818	 9.50953037615872E-02 
819	 9.50307193752917E-02 
820	 9.44588594398384E-02 
821	 9.23891977302864E-02 
822	 9.07842272693765E-02 
823	 8.89543775993155E-02 
824	 8.66265593015448E-02 
825	 8.57691913581778E-02 
826	 0.083684788374072 
827	 8.08990158871348E-02 
828	 7.92128434403839E-02 
829	 7.75201187143753E-02 
830	 7.56436233361526E-02 
831	 7.38222407413589E-02 
832	 7.25388999605904E-02 
833	 7.09258122211469E-02 
834	 7.04906899310605E-02 
835	 7.09056761592005E-02 
836	 6.96135501434853E-02 
837	 6.89782826594068E-02 
838	 6.87366997048922E-02 
839	 6.82769011163058E-02 
840	 0.067389684717196 
841	 0.067391405166806 
842	 6.74382295752513E-02 
843	 6.64685874877845E-02 
844	 0.066061170052947 
845	 6.60474650440715E-02 
846	 0.066135929916183 
847	 6.59791942027941E-02 
848	 6.52354364457938E-02 
849	 6.47353983795169E-02 
850	 6.46961609017015E-02 
851	 6.43642243735112E-02 
852	 6.37312627104059E-02 
853	 6.35400117936347E-02 
854	 6.37051328133029E-02 
855	 6.20735389635529E-02 
856	 6.22023461805734E-02 
857	 6.28307169404064E-02 
858	 0.062312690460832 
859	 6.25988162923715E-02 
860	 6.22767209483747E-02 
861	 6.14305678193282E-02 
862	 6.08495561274127E-02 
863	 6.04315562964768E-02 
864	 0.060810749465839 
865	 0.061430632102864 
866	 6.08073478906358E-02 
867	 5.98246491781472E-02 
868	 5.93172192400055E-02 
869	 5.93077263381234E-02 
870	 5.88304539209413E-02 
871	 5.82466292819435E-02 
872	 5.77089371413964E-02 
873	 5.74226998964158E-02 
874	 5.78272033510045E-02 
875	 5.74796512016445E-02 
876	 5.67025289340733E-02 
877	 5.61779119310829E-02 
878	 5.55599221370433E-02 
879	 5.51215413312129E-02 
880	 5.46411519468226E-02 
881	 5.38876957313346E-02 
882	 5.40694565542509E-02 
883	 5.34466459080847E-02 
884	 5.23768915556921E-02 
885	 5.26486837362744E-02 
886	 5.26242103367907E-02 
887	 5.21615150922773E-02 
888	 0.051507257716134 
889	 0.051125066198652 
890	 5.06688084232108E-02 
891	 5.01738319001435E-02 
892	 4.97955171594277E-02 
893	 0.049817247765256 
894	 5.00585462948563E-02 
895	 4.88523047028935E-02 
896	 4.58468808051931E-02 
897	 4.77836739559444E-02 
898	 4.82417938851724E-02 
899	 4.84019931011126E-02 
900	 5.02262685747603E-02 
901	 4.72723015681981E-02 
902	 4.40037347289422E-02 
903	 4.31904151388982E-02 
904	 0.045618997048283 
905	 4.68504465468882E-02 
906	 4.43119279660071E-02 
907	 4.12934139592394E-02 
908	 4.44885461844743E-02 
909	 4.10846008101499E-02 
910	 3.96467080143648E-02 
911	 4.20542315792735E-02 
912	 4.23139640666529E-02 
913	 4.45996093365272E-02 
914	 4.55270478845395E-02 
915	 4.44657976472243E-02 
916	 4.45503552972919E-02 
917	 4.06159085651441E-02 
918	 4.04580801851656E-02 
919	 4.39388825650374E-02 
920	 4.08285248855339E-02 
921	 4.28964007658166E-02 
922	 0.043370468767443 
923	 3.82391410707773E-02 
924	 3.75055449493844E-02 
925	 3.96831190256399E-02 
926	 4.18160929201607E-02 
927	 4.06270209555429E-02 
928	 0.036192829136316 
929	 5.23222621466061E-02 
930	 7.20746084458056E-02 
931	 4.79990365954642E-02 
932	 5.24294508031301E-02 
933	 0.07159040394162 
934	 8.12702245895899E-02 
935	 7.00561529372118E-02 
936	 8.19781585599564E-02 
937	 8.73221791255295E-02 
938	 8.24921656882958E-02 
939	 0.076166764522271 
940	 8.92836921032222E-02 
941	 8.83182451499431E-02 
942	 6.83547013257366E-02 
943	 4.67914062497738E-02 
944	 5.61201130141844E-02 
945	 6.13546692164049E-02 
946	 4.72968373836574E-02 
947	 2.80062701822483E-02 
948	 4.16149273010612E-02 
949	 5.12036486319528E-02 
950	 4.31745400930374E-02 
951	 3.25217110766226E-02 
952	 6.04460225119981E-02 
953	 6.93266014281542E-02 
954	 5.05843523902413E-02 
955	 3.42556484676222E-02 
956	 4.94828328020687E-02 
957	 3.74315308126886E-02 
958	 1.59208096534984E-02 
959	 3.89345353854143E-02 
960	 6.26444697918175E-02 
961	 4.07926885328318E-02 
962	 1.70731118732342E-02 
963	 5.67333913706731E-02 
964	 4.36718013281674E-02 
965	 3.14083715178343E-02 
966	 0.038615166086783 
967	 4.99218375981726E-02 
968	 3.68865268495571E-02 
969	 3.79212528077852E-02 
970	 5.18254969476394E-02 
971	 4.56974974268214E-02 
972	 3.31827198621142E-02 
973	 3.37293680458472E-02 
974	 4.25114205564305E-02 
975	 3.51957409839181E-02 
976	 0.046849061550784 
977	 5.21633432116379E-02 
978	 0.042898573949203 
979	 3.11554574133355E-02 
980	 3.27222833531147E-02 
981	 3.47561535379448E-02 
982	 3.40207398951948E-02 
983	 3.61161335954412E-02 
984	 4.29425352696684E-02 
985	 3.86559451675054E-02 
986	 3.24615427175974E-02 
987	 4.53448621720909E-02 
988	 4.38863181509805E-02 
989	 3.74262407164537E-02 
990	 3.34675409804424E-02 
991	 0.034831117383068 
992	 3.97496768205284E-02 
993	 4.00704996422025E-02 
994	 3.90268381279772E-02 
995	 4.45315470716354E-02 
996	 4.18775987084374E-02 
997	 4.44630216043529E-02 
998	 4.73547949931807E-02 
999	 3.81998163881756E-02 
1000	 3.42249643916107E-02 
1001	 0.035697782497922 
1002	 3.98601693727547E-02 
1003	 3.98983510270529E-02 
1004	 3.43274242418385E-02 
1005	 3.28182615248759E-02 
1006	 3.14513820174201E-02 
1007	 3.19538900708692E-02 
1008	 3.48246569696995E-02 
1009	 3.85429809819878E-02 
1010	 3.90122361105352E-02 
1011	 3.82144696701977E-02 
1012	 3.50876532281689E-02 
1013	 3.15656060812855E-02 
1014	 3.01819661144146E-02 
1015	 2.99735990022026E-02 
1016	 0.029122406975661 
1017	 2.93952651259437E-02 
1018	 2.93300876818232E-02 
1019	 2.84694394674602E-02 
1020	 2.85508029167089E-02 
1021	 2.99556684651464E-02 
1022	 3.04345502786194E-02 
1023	 0.029720877236844 
1024	 0.027508819373851 
1025	 2.87036781327801E-02 
1026	 3.11401428111622E-02 
1027	 3.27750045113231E-02 
1028	 0.036992225628878 
1029	 3.80583803747131E-02 
1030	 3.71916638790541E-02 
1031	 3.62339322049852E-02 
1032	 3.41934197096206E-02 
1033	 3.34795205580858E-02 
1034	 3.15408697871282E-02 
1035	 3.12236569245252E-02 
1036	 3.28259976931799E-02 
1037	 3.36410199755446E-02 
1038	 3.53393084825979E-02 
1039	 3.58340753527666E-02 
1040	 3.62874830818006E-02 
1041	 3.73191727884269E-02 
1042	 0.037468446783147 
1043	 0.037297152475316 
1044	 3.70983207278756E-02 
1045	 3.59989107845834E-02 
1046	 3.61771606037089E-02 
1047	 3.72572802309917E-02 
1048	 3.74344146303616E-02 
1049	 0.038347604527261 
1050	 3.78736779579091E-02 
1051	 3.51780392624437E-02 
1052	 3.44707947624113E-02 
1053	 3.52845681309023E-02 
1054	 3.43042178857145E-02 
1055	 0.032175744511812 
1056	 3.16464193369849E-02 
1057	 3.13085222160797E-02 
1058	 0.030081585495102 
1059	 0.029297257209753 
1060	 2.95978083449038E-02 
1061	 3.04959389558939E-02 
1062	 3.04514271683375E-02 
1063	 0.031932028827872 
1064	 3.73943167504771E-02 
1065	 3.88058704847521E-02 
1066	 3.83952613590777E-02 
1067	 3.80390658565486E-02 
1068	 3.46868822185887E-02 
1069	 3.37840711527066E-02 
1070	 3.43593466390123E-02 
1071	 3.44692898858174E-02 
1072	 3.57718213027658E-02 
1073	 3.65268529972817E-02 
1074	 3.66544096490015E-02 
1075	 3.62234691747822E-02 
1076	 3.52004455328941E-02 
1077	 3.32020650337381E-02 
1078	 3.21554467167657E-02 
1079	 3.01115157618322E-02 
1080	 2.99528027538516E-02 
1081	 3.26577039169597E-02 
1082	 3.25010257966542E-02 
1083	 3.03855608366473E-02 
1084	 3.05133812307648E-02 
1085	 3.16018173028907E-02 
1086	 3.08983318047718E-02 
1087	 3.08472964799957E-02 
1088	 3.07580003790626E-02 
1089	 2.84802245502348E-02 
1090	 2.52521551018868E-02 
1091	 2.56387886416331E-02 
1092	 2.91207735942471E-02 
1093	 3.17737440711508E-02 
1094	 3.73365476298073E-02 
1095	 0.038885569532834 
1096	 3.93438634401531E-02 
1097	 3.89030855388325E-02 
1098	 3.39255139977756E-02 
1099	 3.21368679329001E-02 
1100	 3.04220613759924E-02 
1101	 3.00005271083664E-02 
1102	 3.44917013421359E-02 
1103	 3.40788634566365E-02 
1104	 3.06988395945137E-02 
1105	 2.74903480228148E-02 
1106	 0.025974832818625 
1107	 2.60573434311725E-02 
1108	 3.00982052429634E-02 
1109	 3.41521310868562E-02 
1110	 3.26648072626791E-02 
1111	 0.020914715074417 
1112	 1.42248304330557E-02 
1113	 4.37495867150141E-03 
1114	-2.6677839294849E-04 
1115	-3.26565582107614E-03 
1116	-7.55476345862395E-03 
1117	-1.4804105610931E-03 
1118	 6.8417584361756E-03 
1119	 4.77997526982324E-02 
1120	 5.08543379776005E-02 
1121	 3.61891762549624E-02 
1122	-9.99180327740591E-02 
1123	-0.22376284381285 
1124	-0.172459555771668 
1125	-0.131660133809578 
1126	-9.84028132234409E-02 
1127	-9.98942548085695E-02 
1128	-0.276148277353553 
1129	-0.198065600581748 
1130	 0.130653743096592 
1131	 0.122478831402642 
1132	-2.43860443719505E-02 
1133	 2.37381045680145E-02 
1134	 2.35448931857893E-02 
1135	 2.09965480164188E-02 
1136	 0.204552175170126 
1137	 0.20880653949366 
1138	 0.06335529973406 
1139	-6.45955766249992E-04 
1140	 0.040484550592404 
1141	 3.45479532746529E-02 
1142	 6.54128892468995E-02 
1143	 0.128755156781251 
1144	 0.156123495408802 
1145	 0.118092529971851 
1146	 6.58317304399224E-02 
1147	 4.80397676119974E-02 
1148	-4.12590554196466E-02 
1149	-3.04510722065992E-02 
1150	-6.23784115875006E-03 
1151	 5.76738366936829E-02 
1152	 0.059906788101364 
1153	 6.79743506904606E-02 
1154	 5.99843262122471E-02 
1155	 3.96168957171953E-02 
1156	 2.26697064249998E-02 
1157	 1.55299697362077E-02 
1158	 9.88520112801792E-03 
1159	-6.33991564976988E-03 
1160	 3.35273931582864E-03 
1161	 2.27329745842172E-02 
1162	 0.020086924412135 
1163	 2.22505355090914E-02 
1164	 2.77308105952433E-02 
1165	 2.05385074378031E-02 
1166	 2.30664580392763E-02 
1167	 3.32388896583817E-02 
1168	 3.25346503434437E-02 
1169	 3.39800517487046E-02 
1170	 3.66948260903857E-02 
1171	 3.59023599777768E-02 
1172	 2.87642109317577E-02 
1173	 3.01365062108269E-02 
1174	 3.62133354462668E-02 
1175	 3.56883289537008E-02 
1176	 3.58686984807025E-02 
1177	 3.73195646645316E-02 
1178	 3.46408963891003E-02 
1179	 3.11133159290767E-02 
1180	 3.11705793646405E-02 
1181	 0.033853080653685 
1182	 3.55566081628952E-02 
1183	 4.14345039714565E-02 
1184	 4.43671872731394E-02 
1185	 3.70247806255647E-02 
1186	 3.49256279520366E-02 
1187	 3.66876391085491E-02 
1188	 3.45797319571833E-02 
1189	 0.036800361476004 
1190	 3.89798534251073E-02 
1191	 3.31735027669097E-02 
1192	 3.10327846529657E-02 
1193	 3.00656935158549E-02 
1194	 3.57253897262455E-02 
1195	 3.45494083532711E-02 
1196	 3.00749984204436E-02 
1197	 3.31632928711375E-02 
1198	 3.50476128139966E-02 
1199	 3.50269275322142E-02 
1200	 0.038783376757239 
1201	 3.83240695162596E-02 
1202	 3.42630381180392E-02 
1203	 3.34799452551944E-02 
1204	 3.32257094763162E-02 
1205	 0.031299743319371 
1206	 3.07851788004305E-02 
1207	 3.02452764924396E-02 
1208	 2.78646626559366E-02 
1209	 2.86387678814423E-02 
1210	 3.25738952671277E-02 
1211	 3.33625865415023E-02 
1212	 3.31032376299675E-02 
1213	 0.036003005407577 
1214	 3.71742566756141E-02 
1215	 3.55127806797066E-02 
1216	 3.18315060788072E-02 
1217	 3.14962079196281E-02 
1218	 3.20466164731141E-02 
1219	 3.32955930602185E-02 
1220	 3.55647507855351E-02 
1221	 3.73915129456928E-02 
1222	 3.89737328564487E-02 
1223	 3.60418459531257E-02 
1224	 3.28985696725924E-02 
1225	 3.44592110885492E-02 
1226	 3.41762745959947E-02 
1227	 3.43081500725543E-02 
1228	 3.60308903995541E-02 
1229	 3.65529889587643E-02 
1230	 3.77757926864189E-02 
1231	 0.037492476829542 
1232	 3.45931795089205E-02 
1233	 3.32683486779002E-02 
1234	 3.33649958629021E-02 
1235	 3.25461441067577E-02 
1236	 3.25042468727053E-02 
1237	 3.31960501987381E-02 
1238	 3.42283822327086E-02 
1239	 3.29100301027442E-02 
1240	 3.30937919145464E-02 
1241	 3.38683921749462E-02 
1242	 3.28808550537082E-02 
1243	 3.34612926568065E-02 
1244	 3.42975607534733E-02 
1245	 3.39668479795977E-02 
1246	 3.48884355265502E-02 
1247	 3.44385590305759E-02 
1248	 3.35248869553748E-02 
1249	 3.38239170196506E-02 
1250	 3.30715604330652E-02 
1251	 3.22798232158603E-02 
1252	 0.031363036654444 
1253	 3.27104293744023E-02 
1254	 3.56887487500689E-02 
1255	 3.44983379398511E-02 
1256	 3.39908698542712E-02 
1257	 3.34615344462823E-02 
1258	 3.32754766383105E-02 
1259	 0.032259529100915 
1260	 3.19586255982076E-02 
1261	 3.18067968315381E-02 
1262	 3.19194524067859E-02 
1263	 3.19580782932903E-02 
1264	 3.26010404221453E-02 
1265	 3.27916698096003E-02 
1266	 3.49128041001928E-02 
1267	 3.46150907056461E-02 
1268	 3.33328238658389E-02 
1269	 3.51065719738376E-02 
1270	 3.65804715933397E-02 
1271	 3.53919885468031E-02 
1272	 3.42062671754459E-02 
1273	 3.10065510726106E-02 
1274	 2.68485938276379E-02 
1275	 0.029847423998945 
1276	 3.34893700445352E-02 
1277	 3.47657161636746E-02 
1278	 3.61870968904607E-02 
1279	 3.39778209723222E-02 
1280	 3.21471074667307E-02 
1281	 3.12220274732343E-02 
1282	 3.28193940421028E-02 
1283	 3.30732228333924E-02 
1284	 3.14162557212759E-02 
1285	 3.20932124319486E-02 
1286	 3.58632364613222E-02 
1287	 3.68541202443905E-02 
1288	 3.73581983831559E-02 
1289	 3.71065264978255E-02 
1290	 3.44920280210819E-02 
1291	 3.28925362168683E-02 
1292	 3.43052084567863E-02 
1293	 3.62687179820233E-02 
1294	 4.01848361839188E-02 
1295	 4.36089922008929E-02 
1296	 4.19259713871387E-02 
1297	 4.16580757515842E-02 
1298	 4.26482567312611E-02 
1299	 3.92616106285939E-02 
1300	 3.52321326245161E-02 
1301	 3.32354101919793E-02 
1302	 3.37124349269402E-02 
1303	 3.44677105012543E-02 
1304	 3.37009976867353E-02 
1305	 3.62467503576344E-02 
1306	 3.93475130187591E-02 
1307	 3.99741250526795E-02 
1308	 3.86615838188181E-02 
1309	 4.03905795382884E-02 
1310	 4.37487714202358E-02 
1311	 4.26668106780278E-02 
1312	 3.90063676236412E-02 
1313	 4.03450927168207E-02 
1314	 4.31380518240126E-02 
1315	 3.40864468279067E-02 
1316	 0.032830933961403 
1317	 5.53676511735105E-02 
1318	 5.64505478162434E-02 
1319	 0.031613684040721 
1320	 3.00551125478612E-02 
1321	 4.77598447439261E-02 
1322	 3.46424758687094E-02 
1323	 8.05510026133181E-03 
1324	 7.73227854880014E-03 
1325	 1.34393148024969E-02 
1326	-7.90708676899514E-04 
1327	 7.14646041590771E-03 
1328	 3.46310528594777E-02 
1329	 0.033699278004331 
1330	 2.53557440894665E-02 
1331	 4.39953667248869E-02 
1332	 6.37118534381772E-02 
1333	 0.047699006259936 
1334	 1.80494979930208E-02 
1335	 9.44352900078196E-03 
1336	 9.95641336442883E-03 
1337	-1.39775495709502E-03 
1338	-3.56966783957444E-03 
1339	-5.65131406126937E-03 
1340	-3.44096723000286E-02 
1341	-5.48242592190953E-02 
1342	-4.72424074912233E-02 
1343	-4.28396140243072E-02 
1344	-6.47338586858925E-02 
1345	-6.25739748433036E-02 
1346	 3.38439983671126E-02 
1347	 6.56076716193395E-02 
1348	-5.59884944921191E-02 
1349	-6.04373550935426E-02 
1350	 4.33758291882268E-02 
1351	 1.81739978291722E-02 
1352	 3.03412714666648E-02 
1353	 0.124907906463735 
1354	 0.276631880810498 
1355	-3.46454771362379E-02 
1356	-6.19046864857035 
1357	-1.46126773410164 
1358	-1.83300921790403 
1359	 0.77919690768613 
1360	-0.450319510165479 
1361	 9.63806299338136E-03 
1362	 0.669588361072741 
1363	 0.861114586338857 
1364	-0.88820914696312 
1365	 8.46932416482012E-02 
1366	 2.41668490266292 
1367	 24.8730360906274 
1368	-11.9976074478802 
1369	-1.52824550440954 
1370	-1.27537669315994 
1371	-0.270366627213217 
1372	 0.134551298523825 
1373	 5.40619074769857 
1374	 41.8315296000762 
1375	-1.96671807999989 
1376	-12.5110998978439 
1377	 2.37111826039579 
1378	 3.3661035877829 
1379	 1.72644929853024 
1380	 1.17828611811032 
1381	 4.25607533239057 
1382	 4.57779259681721 
1383	 0.263947273651716 
1384	 0.20478440230685 
1385	 0.695669881894463 
1386	 0.88898853288408 
1387	 6.7144483346599 
1388	 14.1019528109648 
1389	 0.023392311108388 
1390	-0.365703612402253 
1391	 2.75308576002447 
1392	-0.758660867682593 
1393	-0.814735103657704 
1394	 1.35397721531449 
1395	 0.589094126439517 
1396	 0.823655819842483 
1397	 3.15309790205394 
1398	 2.67771763599913 
1399	 13.6451617120212 
1400	-2.51538493812049 
1401	-1.68910155170337 
1402	 0.525901943182874 
1403	 0.523508480222272 
1404	 1.14063228068671 
1405	 1.54851376550418 
1406	-1.32000518983892 
1407	-1.25028780991477 
1408	 0.669436884088183 
1409	 0.212811676628182 
1410	 0.412958128107879 
1411	 0.175261947752129 
1412	-1.01675405899618 
1413	-2.71216498601588 
1414	 0.420000105316699 
1415	 0.190259282502806 
1416	 0.150454111506504 
1417	 0.947533380193917 
1418	 0.929371101496446 
1419	 0.832218619897528 
1420	 0.886168749812252 
1421	 1.19306394657113 
1422	 2.07863545804491 
1423	 2.34145568396826 
1424	-0.719976446424168 
1425	-0.123433479327058 
1426	-9.01318648182784 
1427	-1.85768182854413 
1428	 0.524126910049885 
1429	 1.06292644119179 
1430	 3.17853889614408 
1431	 3.44411568897698 
1432	 2.92389541359307 
1433	 1.99793326492519 
1434	 0.375876341974117 
1435	-6.04589572015562E-03 
1436	-4.4999024594142 
1437	-3.15387601889143 
1438	 0.797166823388676 
1439	 1.33150089597337 
1440	 16.4943497775898 
1441	-52.8302030189873 
1442	 2.13769389887541 
1443	 0.959803830769898 
1444	 0.557234279920478 
1445	 0.303914893897279 
1446	 0.28996889989717 
1447	 3.44576232465395 
1448	 3.99927610187808 
1449	 6.25564867040943 
1450	-9.34232687853299 
1451	-2.44613974019318 
1452	 22.7730876127923 
1453	 3.06996446406377 
1454	 2.8852519947137 
1455	 320.589640451212 
1456	 3.98732287319285 
1457	 1.01861720825326 
1458	 1.14116903814188 
1459	 1.86469924141184 
1460	 1.35766983805315 
1461	 0.927894207321279 
1462	 1.15115448358464 
1463	 2.59013156221163 
1464	 1.10153288023322 
1465	 0.582782983258484 
1466	 1.57015675046499 
1467	 0.662476173819447 
1468	 0.517024565683338 
1469	-1.08171307052834 
1470	-0.408411824067661 
1471	-2.36300328727202 
1472	-1.26720895518927 
1473	-25.6338875842829 
1474	 0.797978835577196 
1475	-9.99605496732888E-02 
1476	-0.109245794216158 
1477	-6.65570744976798E-02 
1478	-0.058701764400464 
1479	 0.410403242783412 
1480	-33.3456503181034 
1481	-18.7515907554036 
1482	-2.15638980844182 
1483	-13.0451964536123 
1484	 29.9912957403349 
1485	 2.23043711617097 
1486	 1.39249849283573 
1487	 0.494797350817354 
1488	 0.366219906248144 
1489	 1.45632069741507 
1490	 1.49414799225154 
1491	 0.980767656235648 
1492	 0.88428204886351 
1493	 0.776439691129092 
1494	 0.584604132892094 
1495	 0.346926169483795 
1496	 0.164030997636416 
1497	-5.99693903670379E-02 
1498	-0.109750342058323 
1499	-2.15558809854882E-02 
1500	-1.20379770722685E-02 
1501	 3.82922493755257E-02 
1502	 3.27238096980538E-02 
1503	-0.113336054499032 
1504	-0.14470398303475 
1505	-9.37773315758018E-02 
1506	-0.138681483119686 
1507	-0.206068906022859 
1508	-9.15148834368892E-02 
1509	 2.05559981494757E-03 
1510	 8.39995426105476E-02 
1511	 0.15268024812191 
1512	 0.139505163168224 
1513	 0.143676869245996 
1514	 0.125327141285703 
1515	 2.53878858415551E-02 
1516	 2.05263863153102E-02 
1517	 5.70495815557814E-02 
1518	 1.10280432831189E-02 
1519	 5.22380741916838E-03 
1520	 4.50766669978907E-02 
1521	 0.027502294904034 
1522	 0.012720733256927 
1523	 5.35931269244205E-02 
1524	 7.12956793426238E-02 
1525	 4.56542473033682E-02 
1526	 2.80939887047474E-02 
1527	 2.18903579277975E-02 
1528	 1.51525250060038E-02 
1529	 2.58590176052623E-02 
1530	 5.29643760224625E-02 
1531	 6.09663062952862E-02 
1532	 7.24189351156067E-02 
1533	 0.102356428379099 
1534	 8.47017625395555E-02 
1535	 0.028310712076199 
1536	 1.50293268118548E-02 
1537	 3.98795557318027E-02 
1538	 2.85282723864064E-02 
1539	 0.027074067017139 
1540	 0.066108156911855 
1541	 4.84932996435443E-02 
1542	 3.45971843582948E-03 
1543	 3.23157130143882E-02 
1544	 6.95953521205878E-02 
1545	 6.02224756355034E-02 
1546	 5.68025912320906E-02 
1547	 6.07324470231981E-02 
1548	 4.05937058555257E-02 
1549	 6.76891043837026E-03 
1550	 1.58484971453075E-02 
1551	 5.42271951407824E-02 
1552	 5.89483748330103E-02 
1553	 4.41201613981314E-02 
1554	 4.40892946695591E-02 
1555	 6.16963827474914E-02 
1556	 0.061216526626521 
1557	 5.26787868683841E-02 
1558	 6.52477521168368E-02 
1559	 5.14526150783656E-02 
1560	 0.02015244350944 
1561	 4.78991969035796E-02 
1562	 7.82052767851094E-02 
1563	 0.056229977426956 
1564	 5.13173734701387E-02 
1565	 7.61696574149623E-02 
1566	 7.32814329440009E-02 
1567	 4.66889836475344E-02 
1568	 4.68307250813453E-02 
1569	 4.19244368644542E-02 
1570	 1.75629125089858E-02 
1571	 3.74785165072685E-02 
1572	 6.72656063842337E-02 
1573	 5.59036285316095E-02 
1574	 4.66128896052909E-02 
1575	 4.86985844511013E-02 
1576	 3.47780518202666E-02 
1577	 1.83424632646347E-02 
1578	 1.53337894983543E-02 
1579	 1.75561974768137E-02 
1580	 2.10388629898583E-02 
1581	 1.68039648193988E-02 
1582	 1.86533833092323E-02 
1583	 2.80025851665695E-02 
1584	 0.017703900163658 
1585	 0.001923298191675 
1586	-1.87716608084031E-03 
1587	 0.014335668883912 
1588	 2.50267332224475E-02 
1589	 5.23668387221503E-02 
1590	 8.87454963893478E-02 
1591	 7.67993330127241E-02 
1592	 0.064627794222498 
1593	 6.07462473086141E-02 
1594	 4.76196242072289E-02 
1595	 4.92585907729367E-02 
1596	 5.54207783403493E-02 
1597	 5.27248759827304E-02 
1598	 4.67875022457145E-02 
1599	 4.34558832759604E-02 
1600	 4.55059701986121E-02 
1601	 5.25977739767406E-02 
1602	 6.03520724299283E-02 
1603	 5.60785471134893E-02 
1604	 4.08775919742666E-02 
1605	 2.09494198557098E-02 
1606	 1.00398381063378E-02 
1607	 1.94884293124756E-02 
1608	 3.26704399143763E-02 
1609	 4.34023591747658E-02 
1610	 3.70316878760339E-02 
1611	 3.23600561038181E-02 
1612	 3.90907560669569E-02 
1613	 2.99889929189034E-02 
1614	 2.16403374356893E-02 
1615	 2.77766154532276E-02 
1616	 2.59034060642068E-02 
1617	 1.91615847089556E-02 
1618	 3.02318274356604E-02 
1619	 3.68315172452565E-02 
1620	 3.22340299858505E-02 
1621	 2.61818696611932E-02 
1622	 0.011549434311196 
1623	 7.87904972282441E-03 
1624	 9.23376242941595E-03 
1625	 9.36984262720787E-03 
1626	 2.32215412988359E-02 
1627	 0.034868943464127 
1628	 3.16798408408159E-02 
1629	 2.98868833966574E-02 
1630	 4.05708810058275E-02 
1631	 4.05641320406976E-02 
1632	 2.88496592292207E-02 
1633	 2.14474251284749E-02 
1634	 2.96927604627301E-02 
1635	 3.99656418870178E-02 
1636	 0.034836664109203 
1637	 3.30511500962456E-02 
1638	 3.92310789954296E-02 
1639	 4.57480771422687E-02 
1640	 4.33513112758876E-02 
1641	 4.45117661581038E-02 
1642	 4.55883541766156E-02 
1643	 4.23466075185597E-02 
1644	 4.20582917214328E-02 
1645	 3.56374913920479E-02 
1646	 3.79277294827033E-02 
1647	 2.68322523807445E-02 
1648	 1.16773673728872E-02 
1649	 3.06409281469234E-02 
1650	 4.17206308511095E-02 
1651	 0.034758721427366 
1652	 4.61643545328244E-02 
1653	 0.052528794396359 
1654	 4.37418318750531E-02 
1655	 2.81070638591592E-02 
1656	 2.84803715761152E-02 
1657	 0.024740009803392 
1658	 2.75036601675944E-02 
1659	 4.95697437604359E-02 
1660	 5.24312262574504E-02 
1661	 4.39633329116581E-02 
1662	 4.36456928814121E-02 
1663	 4.25555185218398E-02 
1664	 4.24625511971655E-02 
1665	 4.48037036938779E-02 
1666	 0.03882667407215 
1667	 2.83627086188667E-02 
1668	 3.64895155891419E-02 
1669	 2.52376321931013E-02 
1670	 2.42230435318453E-02 
1671	 3.92114135474177E-02 
1672	 3.85152644274508E-02 
1673	 4.48167963027329E-02 
1674	 5.78669418727519E-02 
1675	 5.03261154835722E-02 
1676	 0.038264049796184 
1677	 2.74593978115546E-02 
1678	 1.77636914794235E-02 
1679	 3.24643615746172E-02 
1680	 4.66989578897838E-02 
1681	 4.53394827332865E-02 
1682	 6.01702939562027E-02 
1683	 5.98535629770875E-02 
1684	 3.38924328632082E-02 
1685	 3.62917313711738E-02 
1686	 3.99704653441669E-02 
1687	 2.90102840910853E-02 
1688	 0.033866369286658 
1689	 3.13793373063149E-02 
1690	 2.21724378075609E-02 
1691	 2.40335325439021E-02 
1692	 2.09778110480336E-02 
1693	 2.04838370828491E-02 
1694	 4.20044227008563E-02 
1695	 5.56109331877392E-02 
1696	 5.19068328859608E-02 
1697	 5.07712131679535E-02 
1698	 4.55200029742587E-02 
1699	 3.34280575352612E-02 
1700	 3.64762253981114E-02 
1701	 5.36332303959653E-02 
1702	 4.38303919530105E-02 
1703	 2.82018200573639E-02 
1704	 0.031818416965561 
1705	 3.11517321933322E-02 
1706	 3.32296734696322E-02 
1707	 4.11862858540487E-02 
1708	 3.64665877552767E-02 
1709	 3.09307221805537E-02 
1710	 0.035867697263386 
1711	 2.81297789025884E-02 
1712	 0.023540950255056 
1713	 2.90033234511776E-02 
1714	 2.20766271108761E-02 
1715	 7.38211257005789E-03 
1716	-7.71403496979471E-03 
1717	-4.63181486096312E-03 
1718	 5.22426124741561E-03 
1719	 2.17403140478079E-02 
1720	 3.52305341729046E-02 
1721	 0.01816980222314 
1722	 1.11201515325574E-02 
1723	 2.43142432575326E-02 
1724	 3.13678690687296E-02 
1725	 5.14492327150774E-02 
1726	 5.56303832650026E-02 
1727	 0.012374387933133 
1728	-2.22830191441432E-04 
1729	 2.19144084255448E-02 
1730	 3.30817465750294E-02 
1731	 0.058798828725851 
1732	 4.93442990392876E-02 
1733	 7.83954335338015E-03 
1734	 1.20113114115579E-02 
1735	 1.67421865188755E-02 
1736	 3.93459895092698E-03 
1737	 0.014198121600069 
1738	 1.26077284570634E-02 
1739	-5.7109645036928E-04 
1740	 9.46900040770188E-03 
1741	 0.022293317179506 
1742	 3.63543568548929E-02 
1743	 4.60839854757241E-02 
1744	 5.90744838645304E-02 
1745	 7.74330968695248E-02 
1746	 3.55151152711916E-02 
1747	 3.17389863688304E-02 
1748	 5.81256553298988E-02 
1749	 5.04169342327904E-02 
1750	 3.80336067300488E-02 
1751	 3.56153830285172E-02 
1752	 1.20190868029279E-02 
1753	 2.21282055804059E-02 
1754	 0.066760937805659 
1755	 5.90445009950645E-02 
1756	 3.56540066990846E-02 
1757	 1.95393858076925E-02 
1758	 0.018977141235321 
1759	 5.27796279278943E-02 
1760	 7.65372736318127E-02 
1761	 8.76894488100522E-02 
1762	 0.103863999755062 
1763	 8.81478492054646E-02 
1764	 3.01973605079928E-02 
1765	 4.81705835135448E-03 
1766	 1.47243970460184E-02 
1767	 0.074500429991023 
1768	 0.156222152471766 
1769	 0.120369723448257 
1770	 5.61441209655759E-02 
1771	 8.08181713468599E-02 
1772	 0.110800493966844 
1773	 0.188217886090269 
1774	 0.297184004553543 
1775	 0.074803171805062 
1776	 3.28711467899865E-02 
1777	 6.67617312085368E-02 
1778	 0.107969761294616 
1779	 0.401822137871126 
1780	 0.46697724292934 
1781	 0.231276134114683 
1782	 0.196848240059382 
1783	 0.12220606714611 
1784	 0.10126285710481 
1785	 0.329874558568692 
1786	 0.424313343419933 
1787	 0.339454685247765 
1788	 0.252943482638476 
1789	 0.143650484028281 
1790	 0.162229673796439 
1791	 0.210693063625606 
1792	 0.195153552315539 
1793	 0.550237371687906 
1794	 1.01490503572204 
1795	 0.581286999793266 
1796	 0.125821248973676 
1797	-0.243818060051002 
1798	 0.312146368139673 
1799	 6.9471320625422 
1800	 2.1000893542258 
1801	 1.57129689164813 
1802	-3.85496024776786E-02 
1803	-0.189094462545743 
1804	 0.30846954097041 
1805	 0.976770257024883 
1806	 8.2440705313392 
1807	 157.195535944657 
1808	 1.94656414694992 
1809	 2.43405604960559 
1810	-0.793986279777409 
1811	-0.365323449461875 
1812	 0.184798660226266 
1813	 0.52237286640254 
1814	-8.40206149026773E-02 
1815	 0.238085395909368 
1816	 0.247310260534 
1817	 1.17995436677031 
1818	 3.25471316975925 
1819	 3.37208681939341 
1820	-28.2217913809069 
1821	 1.11524211234573 
1822	-0.548313051293748 
1823	 0.475636999940644 
1824	 0.774856826575416 
1825	-0.469542761803149 
1826	-0.137741514201446 
1827	 0.903188608075563 
1828	 1.31487171408834 
1829	-0.342792923898025 
1830	 0.112837078099085 
1831	-7.64754170890515 
1832	-15.077095527517 
1833	 4.99597912146628 
1834	 3.95046671057428 
1835	 0.561094406717158 
1836	-2.5755034135083 
1837	-0.997182610451409 
1838	-0.984155556813076 
1839	-1.29352777108677 
1840	 28.9428282060205 
1841	 2.71150944533604 
1842	 1.67427627218908 
1843	 1.10312015272084 
1844	 3.98346186046739 
1845	 3.36352437552145 
1846	-1.22434936235515 
1847	-1.7423349781177 
1848	-4.07028278043118 
1849	-15.4745919784562 
1850	-0.971105319857427 
1851	-6.7734941040013 
1852	 3.40667123450374 
1853	 1.70922490727956 
1854	 1.66304591597707 
1855	 1.80011639917843 
1856	 1.36599110109142 
1857	 0.819759930304264 
1858	 0.648278171212947 
1859	 0.433266528292199 
1860	 6.36554803060284E-03 
1861	-0.45356061623389 
1862	-0.732710592586259 
1863	-0.215469980766965 
1864	-0.113594694860436 
1865	-2.95800409356065E-02 
1866	 0.372012014102457 
1867	 0.658196724131519 
1868	 2.90811297356388 
1869	-3.5390374925902 
1870	-0.601772972437115 
1871	 0.348562766780961 
1872	 0.81244574782642 
1873	 1.28034803206798 
1874	-2.17578640454222 
1875	-0.833588792851156 
1876	-0.790187246774736 
1877	-1.83919420177647 
1878	-2.37942761853631 
1879	-3.23917239294215 
1880	-3.66276646756977 
1881	-4.36714682113986 
1882	-5.3693591754688 
1883	-9.12273366563905 
1884	 3.17115816685093 
1885	 1.06974032457483 
1886	 1.40587585578704 
1887	-0.641028899596404 
1888	-0.290134713488877 
1889	-0.228773037572845 
1890	-0.158490582689624 
1891	-0.154566066993895 
1892	-0.270302077839167 
1893	-0.661923266475336 
1894	-0.471576919522442 
1895	 0.799150799146504 
1896	 0.253706275372953 
1897	 3.85452042880465E-02 
1898	-0.124419707922563 
1899	-0.316706839391688 
1900	-0.31152435801831 
1901	-1.24078198688258E-02 
1902	-0.251239618296396 
1903	-0.446577447120993 
1904	-1.14009851161258 
1905	-2.57296186180403 
1906	 9.06074996271613 
1907	 1.5808855186171 
1908	 0.588112687467738 
1909	 0.150523830938248 
1910	-0.137734121005484 
1911	-1.12171737192063 
1912	 2.20604616378594 
1913	 1.15588932291624 
1914	 1.47588497420463 
1915	 1.55984332136541 
1916	 1.14271900809819 
1917	 1.00438964455542 
1918	 2.96673823413975 
1919	-4.27745979496574 
1920	-0.112221283667701 
1921	 3.96406611819018 
1922	 1.4161875988948 
1923	 1.69450391028299 
1924	 1.23693220638175 
1925	 0.714491142780486 
1926	 0.622288772700461 
1927	 0.608345461551773 
1928	 0.707413534707928 
1929	 0.802297779148777 
1930	 0.560372919175133 
1931	-1.51333201885681 
1932	-1.84278090063124 
1933	-0.882015754750191 
1934	-0.18391904967734 
1935	-1.54536037824364 
1936	-0.694257075293173 
1937	-0.223741500088754 
1938	-0.462955192043681 
1939	-0.367700473081639 
1940	-0.195127662331284 
1941	 0.302030600092413 
1942	 0.913324564538291 
1943	 1.83013021929142 
1944	 1.97327909724699 
1945	 1.560191588517 
1946	 0.781994690053348 
1947	-0.260725959971935 
1948	 0.449510907797829 
1949	 0.908395666495567 
1950	 1.98811012526788 
1951	-5.61407257479974 
1952	-3.344788737452 
1953	-2.60227225184972 
1954	-1.60356980112137 
1955	-1.84772002815886 
1956	-1.63462117476678 
1957	-0.27132422955658 
1958	 0.120903404638865 
1959	-2.43314430539859 
1960	-0.63656212532027 
1961	 0.57272718277437 
1962	 0.969871486692219 
1963	 2.4823011635327 
1964	 5.15370554118905 
1965	 3.18369214951677 
1966	 3.10682936822621 
1967	 3.4074567592546 
1968	 0.589816986675461 
1969	-0.911440968967545 
1970	-5.54639528070946 
1971	 3.27239088531474 
1972	 0.150072510560676 
1973	-0.384605463572291 
1974	-2.40153339767885 
1975	-8.51112707509304 
1976	-0.860818002456005 
1977	 0.570640431242677 
1978	 1.23487754695348 
1979	 1.25260905414168 
1980	 1.19413680824864 
1981	 6.33315168794566 
1982	 0.443226928461823 
1983	 0.264300378135093 
1984	 0.46905241846832 
1985	 0.702448713112903 
1986	 0.273298086966556 
1987	-0.252140633702605 
1988	-0.158893949262728 
1989	 8.52139004615615E-02 
1990	 0.330431195077233 
1991	 0.592697510319883 
1992	 0.519045034143817 
1993	 0.335386132481305 
1994	 0.205800822032198 
1995	-0.184573776589738 
1996	-1.52454418708714 
1997	 109.269105629476 
1998	 2.93677004038363 
1999	 2.1168466270252 
2000	 1.98801588426735 
2001	 1.11653294791137 
2002	-3.31596072864085E-02 
2003	-1.50820888330014 
2004	-3.17649606955131 
2005	-61.428114565133 
2006	 175.722971652894 
2007	 9.94313422744481 
2008	 70.759410337823 
2009	-21.8827623382976 
2010	-2.34785282179781 
2011	-1.50721724784937 
2012	-0.820782477551826 
2013	 0.581877476579128 
2014	-0.236552381969348 
2015	-0.756857904417441 
2016	-0.73468465596352 
2017	-0.499725529026073 
2018	-0.254282629406557 
2019	-8.68826373632097E-02 
2020	 1.3761947768496 
2021	-2.74673458497927 
2022	 5.49825114045369 
2023	 1.09251796600793 
2024	 0.959648115285584 
2025	 0.459184925358652 
2026	 0.485453590824205 
2027	 1.89739547692362 
2028	-0.773695858699095 
2029	-0.78136443756842 
2030	-1.22152526708312 
2031	-37.5582676485499 
2032	 0.928613745532447 
2033	 0.388479033929695 
2034	-0.189761894942836 
2035	-0.813292168562031 
2036	-1.17702713288331 
2037	-1.29461594198766 
2038	-3.13844428645394E-02 
2039	 0.391388573965906 
2040	 0.10630011699028 
2041	 0.408686065713926 
2042	 1.46887981712415 
2043	 1.17388965488404 
2044	 0.793680354070841 
2045	 0.556326375755386 
2046	 0.197428291218505 
2047	-0.117887792016321 
2048	-0.946899366786755 
2049	 1.16004925453017 
2050	 0.810840246408191 
2051	-12.5321532912126 
2052	-5.96416548495938 
2053	-2.34142958693447 
2054	-2.11282030898107 
2055	-2.56483644639767 
2056	-2.61640145268854 
2057	-3.23676901129311 
2058	-2.39370301543123 
2059	-1.24714774338301 
2060	-1.20773456941178 
2061	-1.22059659881318 
2062	-1.51403082104762 
2063	-3.58570218150883 
2064	-2.89912702322323 
2065	-1.83307196570945 
2066	-1.02088075755921 
2067	-0.43128771353027 
2068	-0.201728431944223 
2069	 7.53380607203154E-02 
2070	 0.270689198520505 
2071	 0.140368553554042 
2072	 0.341046259154113 
2073	 0.382562975319548 
2074	 0.485244980813485 
2075	 3.21444776715142E-02 
2076	-0.443324153140924 
2077	-0.968768172462485 
2078	-0.72839594395382 
2079	-0.813146578732929 
2080	-1.41537146967545 
2081	-2.39601586739473 
2082	-5.12552914110835 
2083	-44.3838870899226 
2084	-0.405361459660997 
2085	 6.83572320768717E-02 
2086	 0.119244710550782 
2087	 0.282144170226206 
2088	 0.551064909503146 
2089	-1.32895169042443 
2090	-0.372816790622262 
2091	-0.990430697020878 
2092	-0.676344964371396 
2093	-4.00367021047718 
2094	-1.5027573444883 
2095	-1.0030202084452 
2096	-1.04900598137067 
2097	-0.596315568581797 
2098	-0.499488167348077 
2099	-0.875124570234782 
2100	-3.16777647882619 
2101	-1.4508560231626 
2102	-1.48538798886834 
2103	-0.717511197221735 
2104	-0.207149374608622 
2105	-8.85038338074363E-02 
2106	-8.17832817030216E-02 
2107	-0.136280693055835 
2108	-0.18165178391372 
2109	-0.363700014892091 
2110	-0.308892583918787 
2111	 9.96158898547985E-03 
2112	 0.193655358130656 
2113	 0.266283968955364 
2114	 0.394047516008323 
2115	 0.238658306929399 
2116	-0.222714285824133 
2117	-0.322453872819355 
2118	-0.484596588533006 
2119	-0.516519136871745 
2120	-0.478523576144476 
2121	-0.169350588654046 
2122	-7.12661590427734E-02 
2123	 9.77866782328893E-02 
2124	 0.254779562642677 
2125	 9.97382947612861E-02 
2126	-5.26181588019254E-02 
2127	 7.90534237819988E-02 
2128	 6.68355597661605E-02 
2129	-5.02946065423094E-02 
2130	-2.61801419713776E-02 
2131	-2.89520487036059E-02 
2132	-9.76520168737516E-02 
2133	-2.63040389705756E-02 
2134	 5.04074800070388E-03 
2135	 2.49499839709052E-02 
2136	 0.066458768989673 
2137	 0.199887434639027 
2138	 0.195481519351896 
2139	 7.31084987627988E-02 
2140	 0.11812666634789 
2141	 0.210483859126287 
2142	 0.169393783787971 
2143	 0.159377360355628 
2144	 0.280671624901487 
2145	 3.29465742739501E-03 
2146	-0.206873525239074 
2147	-3.75744622010429E-02 
2148	-2.26908354175126E-02 
2149	 2.31457941249501E-02 
2150	-1.33122758623865E-02 
2151	-0.145372140230115 
2152	-0.147448800355435 
2153	-0.208136451385351 
2154	-0.174283651690459 
2155	 3.27187776057219E-02 
2156	 0.175331328635064 
2157	 0.203299344660044 
2158	 0.212893382909331 
2159	 0.185698925339044 
2160	-0.063636690054359 
2161	-7.01142359503736E-02 
2162	 0.047216655740842 
2163	 6.85967641763398E-02 
2164	 0.168915043438029 
2165	 0.149261903410511 
2166	-5.13344071200265E-03 
2167	-6.76559386448616E-03 
2168	 0.070030670535095 
2169	 0.056853768513502 
2170	 1.48493945909658E-02 
2171	 4.07239960459453E-02 
2172	 0.142563749465372 
2173	 0.070931299717085 
2174	 2.82285512481429E-02 
2175	 0.225272907258636 
2176	 0.135622983345166 
2177	 8.51019590417437E-02 
2178	 0.247318698614921 
2179	 0.307843076702223 
2180	 0.312741734474293 
2181	 0.259124879939847 
2182	 4.32465114867325E-02 
2183	-0.216323519731053 
2184	-0.34246876818657 
2185	-0.32421707834233 
2186	-0.256823338092901 
2187	-5.98162467565111E-02 
2188	 5.12450355731713E-02 
2189	 0.288711481247846 
2190	 0.341091750152041 
2191	 0.224303821070269 
2192	 0.164888014112857 
2193	 8.36464019603568E-02 
2194	-1.34727178139815E-02 
2195	-0.180077163774394 
2196	-0.225971802757717 
2197	-0.284308046551366 
2198	-0.305115457825903 
2199	-0.216063120937325 
2200	-7.96315824175017E-02 
2201	 0.125867609919004 
2202	 0.200610769562761 
2203	 0.435230385117195 
2204	 0.53095712728294 
2205	 0.243884945170474 
2206	 0.216124494653964 
2207	-5.06487545055032E-03 
2208	-5.61294651845372E-02 
2209	-2.42045087389015E-02 
2210	-0.11358055816237 
2211	-1.75849951493653E-02 
2212	-9.67046345666542E-02 
2213	-0.276573271589628 
2214	-0.217052057508407 
2215	-0.228801771860472 
2216	-0.183397810403825 
2217	-0.137055970591943 
2218	-3.68396853741145E-02 
2219	 1.68505700107156E-02 
2220	 0.045802302243223 
2221	 6.20388345126726E-02 
2222	 0.124220507295515 
2223	 0.123953183098416 
2224	 2.44838847683829E-02 
2225	 1.85927989526214E-02 
2226	 5.05651857690316E-02 
2227	-1.07095494770856E-03 
2228	-0.093161792409555 
2229	-7.84441024500598E-02 
2230	-0.06419632485489 
2231	-3.43412120012831E-02 
2232	 0.172083154198123 
2233	 0.261974505135772 
2234	 0.194256558373107 
2235	 0.304260451276831 
2236	 0.30229247421837 
2237	 0.260490783428908 
2238	 0.320779516466829 
2239	 0.205960490229523 
2240	 3.64348716224169E-02 
2241	-1.76508125374993E-02 
2242	-0.126166621551396 
2243	-0.226148397664338 
2244	-0.168726910612432 
2245	-0.110050695626399 
2246	-4.96597237361805E-02 
2247	 4.49821279097129E-02 
2248	-6.81160905670929E-02 
2249	-4.32981353572461E-02 
2250	-1.74778651859686E-02 
2251	 0.024617954647885 
2252	 0.340030533110373 
2253	 0.377088861395435 
2254	 0.43359391080192 
2255	 0.417312347949207 
2256	 3.48468054249128E-02 
2257	-0.175541865973424 
2258	-0.152403303887283 
2259	-0.374994265876087 
2260	-0.359913228405221 
2261	-0.20051002413935 
2262	-0.160230580937174 
2263	-5.23244807749176E-03 
2264	 4.93805088110535E-02 
2265	-5.78421100719095E-02 
2266	-5.74095444018924E-02 
2267	-0.162633448372318 
2268	-6.93900920496355E-02 
2269	 0.345366317685002 
2270	 0.407971281034854 
2271	 0.378068451185214 
2272	 0.31300557398725 
2273	 6.31106665380865E-02 
2274	-0.019422710090094 
2275	-0.062174207848248 
2276	-0.195152094739924 
2277	-0.306664494082404 
2278	-0.312604827148408 
2279	-0.3057216126142 
2280	-0.255446669721183 
2281	-0.151555682761065 
2282	 7.89694155127015E-02 
2283	 0.148929727817037 
2284	-0.168335133749396 
2285	-0.837044063968461 
2286	-1.77758335617961 
2287	 1.09903418064815 
2288	 144.572751386738 
2289	 0.225349064817657 
2290	 0.10174758527785 
2291	-0.413690317927973 
2292	-1.49992976341693 
2293	 2.82080414433406 
2294	 20.8191133066613 
2295	 26.3948630645062 
2296	 4.21160386079371 
2297	 1.7978948566022 
2298	 0.526769419772248 
2299	-0.559536672561548 
2300	-0.963997854152806 
2301	-1.3052545222286 
2302	-1.34856888626502 
2303	-0.444361625736324 
2304	 0.158649217790757 
2305	-1.96154125056424E-02 
2306	-5.86222083614078E-02 
2307	-6.61660986402992E-02 
2308	 6.97998262737866E-02 
2309	 0.161065576584557 
2310	 0.180693208638117 
2311	 0.138244708211721 
2312	-0.391369839502872 
2313	-0.547442182961862 
2314	-0.46560622716227 
2315	-0.512632951939954 
2316	-0.411476876985194 
2317	-0.764938517435211 
2318	-0.637827961014129 
2319	-0.423008176319848 
2320	-2.46424410264668 
2321	-3.33949266175765 
2322	-3.78325794138481 
2323	-3.96820053556509 
2324	-1.370256624789 
2325	-0.25877874638612 
2326	-3.94971607528765E-03 
2327	-0.474370696063042 
2328	-1.38666424250924 
2329	-1.27519250433875 
2330	-1.06204419004255 
2331	-0.873884739117888 
2332	-0.526077040053172 
2333	 0.152673988381045 
2334	 2.33016366716602 
2335	 1.88063683713588 
2336	 2.05565533297634 
2337	 2.35812147913541 
2338	 0.835122875263389 
2339	-0.640586234534038 
2340	-1.03644986839018 
2341	-1.41692878542321 
2342	-1.73184298999551 
2343	-2.42505549016498 
2344	-4.78655957938296 
2345	-18.926288064473 
2346	 0.860138606760986 
2347	 0.12067690168488 
2348	-0.879306665971287 
2349	-1.91709228790345 
2350	 2.36972077941741 
2351	 3.00194093331285 
2352	-1.85846221747192 
2353	-0.921845228112747 
2354	-0.285365128570047 
2355	 0.206380844016646 
2356	 0.484897631231123 
2357	-30.2698751177698 
2358	-2.01393953566403 
2359	-1.42243429444328 
2360	-1.17783453800957 
2361	 5.53365869740036 
2362	 0.893920348565286 
2363	 1.0349550493621 
2364	 1.18490039015671 
2365	 2.35493808770126 
2366	 2.81501768050979 
2367	-155.966323413247 
2368	-3.70984821677761 
2369	-1.07711368992923 
2370	-0.317577110658514 
2371	-0.155712194050944 
2372	-0.543835467224037 
2373	-1.77643578862576 
2374	-1.26908089523392 
2375	-2.29026214611072 
2376	-3.86559215824619 
2377	-1.03846133053682 
2378	 0.51087059623913 
2379	 0.257432107227177 
2380	-0.204012221878072 
2381	-0.645662868715037 
2382	-0.386340389578975 
2383	-4.7746047116739 
2384	-4.34052610420773 
2385	-6.73926036255032 
2386	-17.5018808012172 
2387	-3.32407908584254 
2388	-3.2745932735914 
2389	 0.451080630199103 
2390	-2.03149766478378 
2391	-0.916984123087805 
2392	-0.941365897496146 
2393	 4.72258416270324 
2394	 3.45122917594996 
2395	 6.64010210550779 
2396	-4.07910493504876 
2397	-0.663780852177935 
2398	 0.210330695307121 
2399	 1.55025883751043 
2400	 2.64723527747202 
2401	-0.343712375573055 
2402	 0.307086849390778 
2403	-1.04258699904172 
2404	 0.719679103304526 
2405	 1.27291695390053 
2406	 1.03927258238831 
2407	 3.74609306723517 
2408	-4.03838150955511 
2409	 0.5350248443523 
2410	 0.128830440836264 
2411	-5.0297761372413E-03 
2412	 6.59220172126172E-03 
2413	-7.23242449092384E-02 
2414	-0.108409162060935 
2415	 0.130582834741309 
2416	 2.02085058017507E-03 
2417	 0.117443327742794 
2418	 1.63844041271106 
2419	 2.1385784528459 
2420	 5.11063370821375 
2421	-2.89447529128451 
2422	-0.938920879114771 
2423	-1.12904665287304 
2424	-1.81020463284912 
2425	-1.66564973107938 
2426	-2.87708300562563 
2427	 4.65555074085464 
2428	 1.60305279282476 
2429	 0.751542275694668 
2430	 0.283716280351446 
2431	-1.37828644513185E-02 
2432	-0.140141626164573 
2433	 0.143398307287438 
2434	 0.729477550000386 
2435	 0.98318036376407 
2436	-74.2582903599526 
2437	-0.224496460928638 
2438	 4.62222310562552E-02 
2439	-6.94271576221923E-02 
2440	-0.699009745079624 
2441	-0.603115021982969 
2442	 4.12794066850202 
2443	 1.86981319814559 
2444	-4.67450199097496 
2445	-1.83450748471835 
2446	-1.22900175747977 
2447	-0.116950663912823 
2448	-6.47904711790252E-03 
2449	-0.860935298350587 
2450	-1.74728551776643 
2451	 0.849171264075532 
2452	-6.17609449735003 
2453	-1.60011294869417 
2454	-1.31952149384015 
2455	-1.28411601320916 
2456	-7.44773804717035 
2457	 0.222044474951811 
2458	 0.399519806278011 
2459	 0.923870753140324 
2460	 2.10182834682375 
2461	 4.7352113407904 
2462	 10.8011338222263 
2463	-7.54711381498156 
2464	-10.0009221635594 
2465	 145.20660894992 
2466	 10.0545029128523 
2467	 11.2741720802129 
2468	 2.27533122561442 
2469	 0.689712488336848 
2470	-7.78088853061086E-02 
2471	-0.666175202763372 
2472	-1.3013950796977 
2473	 0.358431177633109 
2474	-0.675342673971327 
2475	-0.72623124529172 
2476	-0.793156432964487 
2477	-0.703387227228918 
2478	-1.02625894722695 
2479	-1.69925614705804 
2480	-1.93711909227805 
2481	-3.52158540895196 
2482	-0.984561816099658 
2483	 0.20516262960788 
2484	 0.42858353307788 
2485	 0.592455438311657 
2486	 1.26245326461285 
2487	 1.53208876963727 
2488	 1.62302395870629 
2489	-6.896456678207 
2490	-0.662425826961318 
2491	 8.85179264245603E-03 
2492	-0.268696995147111 
2493	-1.26646695006007 
2494	-2.77917494600109 
2495	-65.7030484495909 
2496	-11.2599894049873 
2497	-8.30985011131146 
2498	-5.79681314265252 
2499	-3.13388475496449 
2500	-3.9331742061721 
