Wavelength	rt0712west_far200002.asd
350	 6.65096018343974E-02 
351	 6.83365602343975E-02 
352	 0.069188261997316 
353	 6.87650035820969E-02 
354	 6.79557637250037E-02 
355	 0.068587864494771 
356	 6.91131943003474E-02 
357	 6.89349301899829E-02 
358	 6.81345698401127E-02 
359	 6.81172428856446E-02 
360	 6.84239331433201E-02 
361	 0.069327648898656 
362	 7.11777935586491E-02 
363	 6.92178482606959E-02 
364	 6.83533538311718E-02 
365	 7.00576769693943E-02 
366	 6.88277695970556E-02 
367	 6.88067233032886E-02 
368	 6.97152923612946E-02 
369	 7.02853493735627E-02 
370	 7.00676271000312E-02 
371	 6.94709390913047E-02 
372	 0.069243034850574 
373	 6.99857563990828E-02 
374	 6.92919514542501E-02 
375	 6.95923897863004E-02 
376	 7.11490926187588E-02 
377	 7.06660229374249E-02 
378	 7.09195362410314E-02 
379	 7.11847142659079E-02 
380	 7.05467293314462E-02 
381	 0.069961234346757 
382	 7.07757480309934E-02 
383	 7.19038270974665E-02 
384	 7.15955923496888E-02 
385	 7.29721424378205E-02 
386	 7.28226494946405E-02 
387	 0.071186514175064 
388	 7.20561723460003E-02 
389	 7.24970248892054E-02 
390	 7.30905530287716E-02 
391	 7.41895114916876E-02 
392	 7.39637505827679E-02 
393	 7.33544493175754E-02 
394	 7.30285749245741E-02 
395	 7.34229133657315E-02 
396	 0.074650549998348 
397	 7.48662121576193E-02 
398	 7.43764813686819E-02 
399	 7.52049563904641E-02 
400	 7.44555458279123E-02 
401	 7.39309042825516E-02 
402	 7.47405267387768E-02 
403	 7.48948997105122E-02 
404	 0.075199219705054 
405	 7.52984555578862E-02 
406	 7.48316222248252E-02 
407	 0.075866611491008 
408	 0.076188423633148 
409	 7.56844468798712E-02 
410	 7.64274071753198E-02 
411	 7.66513520659139E-02 
412	 7.64469526188387E-02 
413	 7.63325691157287E-02 
414	 7.71281927459955E-02 
415	 7.70890697645322E-02 
416	 7.68877399345744E-02 
417	 7.77778751222028E-02 
418	 7.79275457772849E-02 
419	 7.79408945145796E-02 
420	 0.078285411967475 
421	 7.90564704295505E-02 
422	 7.90787944884699E-02 
423	 7.91495252531253E-02 
424	 7.98376586266857E-02 
425	 7.98544539283522E-02 
426	 7.99468328648684E-02 
427	 8.04581137331979E-02 
428	 8.13235190739344E-02 
429	 8.10666604632453E-02 
430	 8.14413084219646E-02 
431	 8.25539342787718E-02 
432	 8.22773705104624E-02 
433	 8.24971745196888E-02 
434	 8.31956163683164E-02 
435	 8.38179268330672E-02 
436	 0.083423372501519 
437	 8.38487594714365E-02 
438	 8.47948214081724E-02 
439	 8.49163912094639E-02 
440	 8.51246206629651E-02 
441	 8.56749716657935E-02 
442	 8.63481591901877E-02 
443	 8.63270570132549E-02 
444	 8.66943415056408E-02 
445	 8.72653804284826E-02 
446	 8.76304005710511E-02 
447	 8.80077031630533E-02 
448	 8.80609452355899E-02 
449	 8.80813970965001E-02 
450	 8.87220651416582E-02 
451	 8.89649720258777E-02 
452	 8.92256886585072E-02 
453	 8.97353798988895E-02 
454	 8.99070601342988E-02 
455	 9.01413527548448E-02 
456	 9.03111697454519E-02 
457	 9.02639166328676E-02 
458	 9.07426507642911E-02 
459	 9.10040369464384E-02 
460	 9.09340706364845E-02 
461	 9.11154618179607E-02 
462	 9.14931093255688E-02 
463	 9.16767139659118E-02 
464	 9.15396313050363E-02 
465	 9.18683708812237E-02 
466	 9.23227558749509E-02 
467	 9.25884597142667E-02 
468	 9.24904944711224E-02 
469	 9.28605480549471E-02 
470	 9.30980307617825E-02 
471	 9.30671073950602E-02 
472	 9.34314302138938E-02 
473	 9.32771386306835E-02 
474	 9.33615367294975E-02 
475	 9.42666714186013E-02 
476	 9.43640618758122E-02 
477	 9.44566054242546E-02 
478	 0.094800805931318 
479	 9.52217392900768E-02 
480	 9.52926695202937E-02 
481	 9.55969219407449E-02 
482	 9.62608283938822E-02 
483	 0.096168405969489 
484	 0.096539556747364 
485	 9.70167383317199E-02 
486	 9.69714735330617E-02 
487	 9.76708286736203E-02 
488	 0.098180563209437 
489	 9.83073601680262E-02 
490	 9.86699710714287E-02 
491	 9.92469381439292E-02 
492	 9.96415600887753E-02 
493	 9.97407172691284E-02 
494	 0.100463666408192 
495	 0.100859695339935 
496	 0.101162334865377 
497	 0.102028712282141 
498	 0.102191184620185 
499	 0.102282337457326 
500	 0.102737710074682 
501	 0.103371528281524 
502	 0.103896403784542 
503	 0.104294769425173 
504	 0.104655053338034 
505	 0.105009711378756 
506	 0.105696426104691 
507	 0.106555415819843 
508	 0.107073588909685 
509	 0.107500586763955 
510	 0.108029063862815 
511	 0.108710770568385 
512	 0.109304627032792 
513	 0.109992380537666 
514	 0.110584023846535 
515	 0.110881808857226 
516	 0.111820685166689 
517	 0.112774548925183 
518	 0.113400548335837 
519	 0.113893299800081 
520	 0.114363069434638 
521	 0.114978699664702 
522	 0.115814423470567 
523	 0.116628685935349 
524	 0.117417585975604 
525	 0.11818174050036 
526	 0.118935433267591 
527	 0.119761993089394 
528	 0.120432887344721 
529	 0.120929439833093 
530	 0.121745036155859 
531	 0.12240284186176 
532	 0.123021603330761 
533	 0.123865777757685 
534	 0.124690540559814 
535	 0.125488161895953 
536	 0.126283054142271 
537	 0.12711238953098 
538	 0.127885964201498 
539	 0.128637682261031 
540	 0.129400530397254 
541	 0.130085174979408 
542	 0.130846589601137 
543	 0.131691648400023 
544	 0.132534088976987 
545	 0.133320296224071 
546	 0.134241641303796 
547	 0.135276056166736 
548	 0.135935899696619 
549	 0.136610101536795 
550	 0.137471479236558 
551	 0.138531537734872 
552	 0.139396011761801 
553	 0.139960718205611 
554	 0.140418600487997 
555	 0.141255227962217 
556	 0.142139256644962 
557	 0.142976225729264 
558	 0.143691929923798 
559	 0.144101841239649 
560	 0.144669247149666 
561	 0.145383390544283 
562	 0.145965266993325 
563	 0.146779279662713 
564	 0.147304859053377 
565	 0.147411744800104 
566	 0.147963746609099 
567	 0.148409489527406 
568	 0.148761834052456 
569	 0.149196975412453 
570	 0.149597981388977 
571	 0.150000451144114 
572	 0.150337377375842 
573	 0.150432653244428 
574	 0.150948080389635 
575	 0.1514649813838 
576	 0.151587393079832 
577	 0.15183066928464 
578	 0.152204733339673 
579	 0.152572018932245 
580	 0.152712905453986 
581	 0.152593300619491 
582	 0.152635774277042 
583	 0.152851455758064 
584	 0.152389674227748 
585	 0.151856516526429 
586	 0.151192290260914 
587	 0.15015620816338 
588	 0.149072774220579 
589	 0.148346681799119 
590	 0.148053505992781 
591	 0.147799136281358 
592	 0.147916585118474 
593	 0.147764926884039 
594	 0.146964751713962 
595	 0.146380292463059 
596	 0.146067057997865 
597	 0.145671312087042 
598	 0.144737454143998 
599	 0.143991528223172 
600	 0.143572343812625 
601	 0.143377710619358 
602	 0.143058319574773 
603	 0.142575384592802 
604	 0.142263163412513 
605	 0.142415006708198 
606	 0.142464326250432 
607	 0.142276537422503 
608	 0.141978001819472 
609	 0.141938256209945 
610	 0.142220133477211 
611	 0.142204342531177 
612	 0.141654341080674 
613	 0.141899245937681 
614	 0.142018056920033 
615	 0.14185855582562 
616	 0.141717781691875 
617	 0.141779617665883 
618	 0.141634980588888 
619	 0.14135604905549 
620	 0.141953089595649 
621	 0.14169492049859 
622	 0.141106953415155 
623	 0.141172226444848 
624	 0.141145676254499 
625	 0.140947385303027 
626	 0.140597156821232 
627	 0.140216941585563 
628	 0.139998679034483 
629	 0.139820018916005 
630	 0.139719783166149 
631	 0.140473276673698 
632	 0.140640433391721 
633	 0.140257248073775 
634	 0.140029214443341 
635	 0.139713847805501 
636	 0.139759752018833 
637	 0.140086582558668 
638	 0.139804006415857 
639	 0.139775109535562 
640	 0.139768269055684 
641	 0.139445837490144 
642	 0.139387228664062 
643	 0.139150012716035 
644	 0.138512933179619 
645	 0.137491144605836 
646	 0.136931239346216 
647	 0.136596543987721 
648	 0.136295238585665 
649	 0.136571098948291 
650	 0.136595660600707 
651	 0.136506861968285 
652	 0.136638333347145 
653	 0.136089279136334 
654	 0.135218935757427 
655	 0.134446479857163 
656	 0.134222066835792 
657	 0.133816479734951 
658	 0.133415355109898 
659	 0.133211268763124 
660	 0.132882491240402 
661	 0.132673305342325 
662	 0.132442201038984 
663	 0.131903507603871 
664	 0.131779196451174 
665	 0.131752613229989 
666	 0.131604532290282 
667	 0.131542743655078 
668	 0.131258041311836 
669	 0.131087718908872 
670	 0.13131752575964 
671	 0.130842137975114 
672	 0.130630904931609 
673	 0.13085858472345 
674	 0.130884359379608 
675	 0.130773418756682 
676	 0.130857460187221 
677	 0.131179671981337 
678	 0.130876938077106 
679	 0.130743528136736 
680	 0.130748383980213 
681	 0.130585441036573 
682	 0.13091392560057 
683	 0.130970757984023 
684	 0.13053293901733 
685	 0.130209928804641 
686	 0.129829885050269 
687	 0.129474342217303 
688	 0.129286286146133 
689	 0.129309735406748 
690	 0.129017011996855 
691	 0.128303298399577 
692	 0.12733337385355 
693	 0.126310740562505 
694	 0.126240120603195 
695	 0.126890924273483 
696	 0.126496323376392 
697	 0.125485872780674 
698	 0.124052542089335 
699	 0.122717961638038 
700	 0.122455893854766 
701	 0.122021320502209 
702	 0.121014340203756 
703	 0.119788670418403 
704	 0.119051403828782 
705	 0.117932767586001 
706	 0.116205574428013 
707	 0.115401437323902 
708	 0.114250699226425 
709	 0.112799467095998 
710	 0.111457485352184 
711	 0.109654038533743 
712	 0.107811204422225 
713	 0.105938540926953 
714	 0.10349216496877 
715	 0.100359818365576 
716	 9.66299386867547E-02 
717	 9.35140493045128E-02 
718	 9.17738049546624E-02 
719	 0.089297980957038 
720	 8.74463407927734E-02 
721	 8.69596809255424E-02 
722	 8.53712455071691E-02 
723	 8.25308218271608E-02 
724	 7.96084843939627E-02 
725	 7.83648035514351E-02 
726	 7.59663014224638E-02 
727	 7.34243864734193E-02 
728	 0.071686008394812 
729	 6.92638713651627E-02 
730	 6.65238475014002E-02 
731	 6.41188144219874E-02 
732	 6.22479609650657E-02 
733	 6.14010170807939E-02 
734	 6.05161652362087E-02 
735	 5.92153237815624E-02 
736	 5.80277712765915E-02 
737	 5.74284862067518E-02 
738	 5.70388707315558E-02 
739	 5.65806446437679E-02 
740	 0.05659460724981 
741	 5.65137155863445E-02 
742	 5.65285467200306E-02 
743	 5.70005280230976E-02 
744	 5.66411269827916E-02 
745	 5.61586378808466E-02 
746	 5.60427763416274E-02 
747	 5.62346827681226E-02 
748	 5.62415291236632E-02 
749	 5.61063382681226E-02 
750	 0.056034557510042 
751	 5.62856392384567E-02 
752	 5.61577268319829E-02 
753	 5.57837010731364E-02 
754	 5.57163687720443E-02 
755	 5.57516751311394E-02 
756	 5.56729205769739E-02 
757	 5.54812839028192E-02 
758	 5.55315308776037E-02 
759	 5.56266187053811E-02 
760	 5.47098864469797E-02 
761	 5.28920357783074E-02 
762	 5.30764780405657E-02 
763	 5.38194930998403E-02 
764	 5.46690398330881E-02 
765	 0.055487234093711 
766	 0.055372678019911 
767	 5.52725468488906E-02 
768	 5.55596480813138E-02 
769	 5.62365494456199E-02 
770	 5.66019367643132E-02 
771	 5.65995297064477E-02 
772	 5.64438660214602E-02 
773	 0.056654236157641 
774	 5.71041750506065E-02 
775	 5.74195174784428E-02 
776	 5.72639958053297E-02 
777	 5.72132893279483E-02 
778	 5.73927774152854E-02 
779	 5.78412769863201E-02 
780	 5.84994453728189E-02 
781	 5.86578019467155E-02 
782	 5.86251803622765E-02 
783	 5.87093255471091E-02 
784	 5.86831064483093E-02 
785	 5.94176828521261E-02 
786	 6.01318686899217E-02 
787	 5.97380948529516E-02 
788	 5.95949897304393E-02 
789	 6.00052999125015E-02 
790	 6.07928031681658E-02 
791	 6.14266878528487E-02 
792	 6.17858360699373E-02 
793	 0.061859407237856 
794	 6.18085766468127E-02 
795	 6.20252472362374E-02 
796	 6.26787428456258E-02 
797	 0.063357786151011 
798	 6.36362546816315E-02 
799	 6.34116471231422E-02 
800	 6.37518261024794E-02 
801	 6.45584256709764E-02 
802	 6.50155533769511E-02 
803	 6.51931105071611E-02 
804	 6.52495112894831E-02 
805	 0.065335297479258 
806	 6.55493849607005E-02 
807	 6.55790750080293E-02 
808	 0.065040314621332 
809	 6.39918856061593E-02 
810	 6.38594683196434E-02 
811	 6.38349710431464E-02 
812	 6.33767159618221E-02 
813	 6.21619289668564E-02 
814	 6.12622599031349E-02 
815	 6.03861515833804E-02 
816	 6.00407508662593E-02 
817	 6.09365730283609E-02 
818	 6.05254736136338E-02 
819	 6.02124906271926E-02 
820	 6.02606249125936E-02 
821	 5.93572667330503E-02 
822	 5.78486649826898E-02 
823	 5.61085208798659E-02 
824	 5.46427873403135E-02 
825	 5.38218018527431E-02 
826	 5.26519798371063E-02 
827	 5.14516474021028E-02 
828	 5.09090874711556E-02 
829	 4.97508131494761E-02 
830	 4.82570067752219E-02 
831	 4.69187772181612E-02 
832	 4.62857757213922E-02 
833	 4.61004142662575E-02 
834	 4.63652151596564E-02 
835	 4.65954414003637E-02 
836	 4.57864426879565E-02 
837	 4.56547885412921E-02 
838	 4.59426406117853E-02 
839	 4.59659779893682E-02 
840	 4.49701904212005E-02 
841	 4.46361027453807E-02 
842	 4.46531545039241E-02 
843	 4.42083111547233E-02 
844	 4.36232889883295E-02 
845	 4.38810586418505E-02 
846	 4.48091004717784E-02 
847	 0.045336925374485 
848	 4.39015972103885E-02 
849	 4.27561098806681E-02 
850	 4.30121571476057E-02 
851	 4.36010066787485E-02 
852	 0.043278166547499 
853	 4.31325366143616E-02 
854	 4.36472861619118E-02 
855	 0.042948232850369 
856	 4.27620422082969E-02 
857	 4.29127559597486E-02 
858	 4.28323150008529E-02 
859	 4.24883828816919E-02 
860	 4.24761482341634E-02 
861	 0.042432047550467 
862	 4.17964193117852E-02 
863	 4.19593945932473E-02 
864	 4.25037975757221E-02 
865	 4.26040490578904E-02 
866	 4.15087260877712E-02 
867	 4.15850828623181E-02 
868	 4.21695814461011E-02 
869	 4.23519225856022E-02 
870	 4.15686564388604E-02 
871	 4.11129051329353E-02 
872	 4.08495528806142E-02 
873	 4.05441010114951E-02 
874	 4.04628514914789E-02 
875	 4.09610086691698E-02 
876	 4.10538995325928E-02 
877	 4.00557224946905E-02 
878	 3.99119971261549E-02 
879	 3.96817194289514E-02 
880	 3.94336020170067E-02 
881	 3.95860034490133E-02 
882	 3.96066891565672E-02 
883	 3.94310296111087E-02 
884	 3.93421982078386E-02 
885	 3.96975332437933E-02 
886	 3.92886573968446E-02 
887	 3.89194032732619E-02 
888	 3.89236152454661E-02 
889	 0.03882298154829 
890	 3.88441673742258E-02 
891	 3.72783405449186E-02 
892	 3.45299391698609E-02 
893	 3.65484465450327E-02 
894	 3.85043754991224E-02 
895	 0.0380179285042 
896	 3.49466919873932E-02 
897	 3.42851253508202E-02 
898	 3.70134949792369E-02 
899	 3.96704817427432E-02 
900	 3.83600675128715E-02 
901	 3.35019171403687E-02 
902	 3.37945771831567E-02 
903	 3.66672332453086E-02 
904	 3.69856129811578E-02 
905	 3.81433467672823E-02 
906	 0.037185445397867 
907	 3.49080346535345E-02 
908	 3.48843190975591E-02 
909	 3.20792967339425E-02 
910	 3.43093970322501E-02 
911	 3.96538921267436E-02 
912	 3.75196553650803E-02 
913	 3.53450976858599E-02 
914	 3.43250008148099E-02 
915	 0.03441394175534 
916	 3.48905102828633E-02 
917	 3.54216062048874E-02 
918	 3.63577678827103E-02 
919	 3.62867166768758E-02 
920	 3.20652975214877E-02 
921	 3.79592509657228E-02 
922	 4.05387745078071E-02 
923	 3.19398581512558E-02 
924	 2.87164777898627E-02 
925	 2.86923389772605E-02 
926	 3.30168547219483E-02 
927	 3.97584352338401E-02 
928	 3.11905488586702E-02 
929	 3.58843808921123E-02 
930	 5.59818868611338E-02 
931	 6.16120439979743E-02 
932	 4.56605913377821E-03 
933	 2.03147012537858E-02 
934	 7.12447368760621E-02 
935	 3.15292579181793E-02 
936	 7.24132625750815E-02 
937	 0.085273467223738 
938	 6.46930135090175E-02 
939	 3.70229629406715E-02 
940	 1.09522479749875E-02 
941	 0.020225974909862 
942	 3.74811752887536E-02 
943	 1.25534432643873E-02 
944	-8.64493516439508E-03 
945	-1.88537151364075E-02 
946	-8.14675142320565E-03 
947	 2.09700225541539E-02 
948	 4.55987494823935E-02 
949	 4.42871375681234E-02 
950	 2.95581268353964E-02 
951	 2.89764662048962E-02 
952	 1.83728832037387E-02 
953	 0.032092929684333 
954	 0.058635658074011 
955	 6.27310733340903E-02 
956	 5.85501481836188E-02 
957	 2.52305953937897E-02 
958	 1.18900134048519E-02 
959	 7.35315254440383E-02 
960	 5.03804476905299E-02 
961	 2.13608661497721E-02 
962	 0.024245764689346 
963	 4.62191133053374E-02 
964	 2.27948669144604E-02 
965	 1.98603764167261E-02 
966	 3.77440213563131E-02 
967	 3.66992776801923E-02 
968	 0.03323282061784 
969	 3.30453751331875E-02 
970	 0.034977549479454 
971	 3.33561723585758E-02 
972	 2.65806047636811E-02 
973	 0.026745062027427 
974	 3.30449211781489E-02 
975	 3.24784111922262E-02 
976	 3.86671297288112E-02 
977	 4.11816075464705E-02 
978	 3.35912101623989E-02 
979	 0.019419410314562 
980	 3.36769492660296E-02 
981	 3.85847327744711E-02 
982	 3.05674687733533E-02 
983	 3.30239408441088E-02 
984	 4.53924426642358E-02 
985	 0.043396604374595 
986	 3.09238095131597E-02 
987	 3.06635364233239E-02 
988	 3.39166958020934E-02 
989	 3.70480288790265E-02 
990	 3.68417692160641E-02 
991	 3.21977864673836E-02 
992	 3.30073536988099E-02 
993	 3.36376995113467E-02 
994	 3.57011226684053E-02 
995	 4.27291170214751E-02 
996	 3.47864794600973E-02 
997	 3.26586721315427E-02 
998	 3.99344336050681E-02 
999	 4.54508115136659E-02 
1000	 3.66784780769836E-02 
1001	 3.19882376865346E-02 
1002	 3.43852256674211E-02 
1003	 3.49455062957175E-02 
1004	 3.70643409770769E-02 
1005	 0.038040778583624 
1006	 3.85820809786503E-02 
1007	 0.038168891379202 
1008	 3.62998951132889E-02 
1009	 3.81914643253992E-02 
1010	 3.60246922704879E-02 
1011	 3.31302291623037E-02 
1012	 0.032640403818385 
1013	 0.030931173976576 
1014	 3.09494162141774E-02 
1015	 3.31440496579111E-02 
1016	 3.46881184706185E-02 
1017	 3.69951203980259E-02 
1018	 3.76758389221635E-02 
1019	 3.80913381694407E-02 
1020	 3.86545145308974E-02 
1021	 3.76700454206193E-02 
1022	 3.78651133095388E-02 
1023	 3.97929489362065E-02 
1024	 3.90422832319478E-02 
1025	 3.84196652454409E-02 
1026	 3.90597743718292E-02 
1027	 3.82982229976773E-02 
1028	 3.63237922340134E-02 
1029	 3.64431241090968E-02 
1030	 3.69483626587731E-02 
1031	 3.69071689995149E-02 
1032	 3.86634424003022E-02 
1033	 3.86212257830519E-02 
1034	 3.64046610288044E-02 
1035	 3.58382566190815E-02 
1036	 3.51803998778463E-02 
1037	 3.50253140888658E-02 
1038	 3.60086658201868E-02 
1039	 3.66690013004949E-02 
1040	 3.48643595778717E-02 
1041	 3.68773291877006E-02 
1042	 3.82716774316143E-02 
1043	 4.04906731040704E-02 
1044	 4.06040401294923E-02 
1045	 4.14776786944707E-02 
1046	 4.02500531300457E-02 
1047	 3.57577622434321E-02 
1048	 3.34967378063626E-02 
1049	 3.05583890517309E-02 
1050	 2.97062684924978E-02 
1051	 3.09382971741861E-02 
1052	 3.09799322133698E-02 
1053	 3.16284521827245E-02 
1054	 3.24744204212931E-02 
1055	 3.31071321830206E-02 
1056	 3.33881567241188E-02 
1057	 3.36697482285096E-02 
1058	 3.44792541533836E-02 
1059	 3.50044491205253E-02 
1060	 3.51397516691626E-02 
1061	 3.48212372474508E-02 
1062	 0.033849856316945 
1063	 3.45704792168512E-02 
1064	 3.56175789232943E-02 
1065	 3.63236753668397E-02 
1066	 3.97199243982211E-02 
1067	 4.01523737693189E-02 
1068	 3.80759242889677E-02 
1069	 3.63954933232888E-02 
1070	 3.13374633404648E-02 
1071	 0.030181191588736 
1072	 2.94809680221889E-02 
1073	 3.29318209760912E-02 
1074	 3.40647455994144E-02 
1075	 3.84298301905425E-02 
1076	 3.82342996363358E-02 
1077	 3.32614096535222E-02 
1078	 3.32608364815615E-02 
1079	 3.54085011729261E-02 
1080	 3.51102945123791E-02 
1081	 3.65843100645847E-02 
1082	 3.62149609196159E-02 
1083	 2.96592755601645E-02 
1084	 2.89008756354153E-02 
1085	 3.26818072759852E-02 
1086	 3.45772292850963E-02 
1087	 4.11314399812631E-02 
1088	 4.30074753439041E-02 
1089	 4.31226514242944E-02 
1090	 3.70936099954691E-02 
1091	 3.42616782168141E-02 
1092	 2.78033985628029E-02 
1093	 2.74080104549163E-02 
1094	 3.17282516539981E-02 
1095	 3.27936320272482E-02 
1096	 3.60762737182148E-02 
1097	 3.68554020031593E-02 
1098	 3.41924329298299E-02 
1099	 3.37460556637625E-02 
1100	 3.30544900581675E-02 
1101	 3.31749910646158E-02 
1102	 3.78075354934197E-02 
1103	 3.65007589071929E-02 
1104	 2.97848241925657E-02 
1105	 0.0261421269693 
1106	 2.24875706860179E-02 
1107	 1.42826970187786E-02 
1108	 1.66850710180603E-02 
1109	 2.01764944265774E-02 
1110	 0.017377843026326 
1111	 6.48813413548051E-03 
1112	 6.03027100601972E-03 
1113	 6.99631718293522E-03 
1114	 5.99880504352175E-03 
1115	 2.46996497847262E-02 
1116	 0.018218021504681 
1117	-3.83226365794476E-02 
1118	-4.61964214320513E-02 
1119	-1.73568889459515E-02 
1120	-1.95007898802088E-02 
1121	 4.60838143433664E-02 
1122	 0.080352566696536 
1123	-0.105543193559738 
1124	-0.186674439531465 
1125	-0.198296142615164 
1126	-0.304887170701149 
1127	-0.269654575409488 
1128	-0.135245291094584 
1129	-0.134080230762756 
1130	-0.15712225548436 
1131	-0.118652554542583 
1132	-0.158321625941499 
1133	-0.126138444346345 
1134	 4.35419208233264E-02 
1135	 6.87728341928662E-02 
1136	-3.03411651914393E-02 
1137	-3.28176567890372E-03 
1138	 0.103016313547923 
1139	 7.04979063997219E-02 
1140	-4.99807169727171E-02 
1141	-3.74696230213366E-02 
1142	-8.88184173368883E-02 
1143	-0.109593253096488 
1144	 6.86016848500854E-02 
1145	 0.138844521242618 
1146	 0.115893382801179 
1147	 0.11335754535209 
1148	 7.72269228304376E-02 
1149	 0.050414516120898 
1150	 5.23415504417579E-02 
1151	 8.69859767479523E-02 
1152	 6.61605773938291E-02 
1153	 3.43578877194645E-02 
1154	 4.03838188201079E-02 
1155	 5.37511223624549E-02 
1156	 3.90870594215424E-02 
1157	 3.21625675993745E-02 
1158	 2.43183271136107E-02 
1159	 1.85837720005222E-02 
1160	 2.16968038395259E-02 
1161	 2.79626950354794E-02 
1162	 3.76487220839488E-02 
1163	 4.30955132490224E-02 
1164	 4.31995345774303E-02 
1165	 4.60193874935489E-02 
1166	 0.047070304145779 
1167	 4.05307276493598E-02 
1168	 3.64381411873378E-02 
1169	 3.57866119985129E-02 
1170	 3.39851865015222E-02 
1171	 3.29946110244908E-02 
1172	 3.13529713638188E-02 
1173	 3.09297655029082E-02 
1174	 2.94900897361793E-02 
1175	 3.49429675190037E-02 
1176	 4.01129715198454E-02 
1177	 4.15747239445103E-02 
1178	 3.80743803422992E-02 
1179	 3.41627365441624E-02 
1180	 3.16984003074005E-02 
1181	 2.93689725907395E-02 
1182	 3.20186789342988E-02 
1183	 2.91888422454629E-02 
1184	 2.12798615513203E-02 
1185	 2.80881837945109E-02 
1186	 3.76585318643455E-02 
1187	 3.84654136230715E-02 
1188	 0.040692448804222 
1189	 3.64344718845463E-02 
1190	 2.52546446453569E-02 
1191	 2.73106949318058E-02 
1192	 3.03239875123566E-02 
1193	 3.93446641269393E-02 
1194	 3.90228983149211E-02 
1195	 3.70290046477588E-02 
1196	 3.70786727776017E-02 
1197	 3.58188502723938E-02 
1198	 3.46834635081416E-02 
1199	 4.02527092098794E-02 
1200	 4.13342377005992E-02 
1201	 3.41007713603161E-02 
1202	 0.035303147838602 
1203	 3.89007009118826E-02 
1204	 3.44916076833112E-02 
1205	 3.37486501790039E-02 
1206	 3.72095264733643E-02 
1207	 3.58048548975318E-02 
1208	 3.57439012879842E-02 
1209	 3.64360644937241E-02 
1210	 3.38663312263353E-02 
1211	 3.19568737024361E-02 
1212	 3.38445486237231E-02 
1213	 3.47239142909678E-02 
1214	 3.41009267051082E-02 
1215	 3.06413067653492E-02 
1216	 3.03716946368194E-02 
1217	 3.10558191931584E-02 
1218	 0.032207709976942 
1219	 3.40778271226377E-02 
1220	 0.03322616908689 
1221	 3.15912183147323E-02 
1222	 3.14086119114522E-02 
1223	 3.28404061044693E-02 
1224	 0.033349603983916 
1225	 3.14148444710756E-02 
1226	 3.02194710598285E-02 
1227	 3.14438918142605E-02 
1228	 3.21187359972067E-02 
1229	 3.24107187179582E-02 
1230	 3.43116797995992E-02 
1231	 3.42979138320464E-02 
1232	 3.23739832215228E-02 
1233	 3.31108030462392E-02 
1234	 0.033901156188439 
1235	 3.40123503083355E-02 
1236	 3.35666910482892E-02 
1237	 3.41310193635481E-02 
1238	 3.55535805518748E-02 
1239	 3.53752525390998E-02 
1240	 0.031918518215415 
1241	 2.94970779332658E-02 
1242	 0.031265841939942 
1243	 3.18250964017154E-02 
1244	 3.27550664492523E-02 
1245	 3.60451504684004E-02 
1246	 3.56488419310738E-02 
1247	 3.11743894970958E-02 
1248	 3.06804919501848E-02 
1249	 3.41136946273118E-02 
1250	 3.45962455514223E-02 
1251	 3.34915168283215E-02 
1252	 3.30103583262787E-02 
1253	 3.36108479266674E-02 
1254	 3.21172269996473E-02 
1255	 2.97677344933833E-02 
1256	 2.93988335603441E-02 
1257	 0.029242504163338 
1258	 2.97190126246104E-02 
1259	 0.032836485267766 
1260	 3.42847315761975E-02 
1261	 3.66419791084486E-02 
1262	 3.76382813110444E-02 
1263	 3.67605207178624E-02 
1264	 3.52126908998002E-02 
1265	 3.46626227184289E-02 
1266	 3.16894192839922E-02 
1267	 3.05343812561046E-02 
1268	 0.033575147658091 
1269	 3.64340998996853E-02 
1270	 0.036378026078684 
1271	 3.46236052211839E-02 
1272	 3.26959568384327E-02 
1273	 3.32743665162831E-02 
1274	 3.69761771920153E-02 
1275	 0.037264122450127 
1276	 3.41239411241686E-02 
1277	 3.19239659042727E-02 
1278	 3.32978056528939E-02 
1279	 3.60108736769947E-02 
1280	 3.63498991990388E-02 
1281	 3.70476856428175E-02 
1282	 3.78269975751129E-02 
1283	 3.59475080013736E-02 
1284	 3.14627342611647E-02 
1285	 3.09121135176515E-02 
1286	 2.93847086579533E-02 
1287	 2.87476730298475E-02 
1288	 3.31495602926193E-02 
1289	 3.40853612616645E-02 
1290	 3.26147134906843E-02 
1291	 3.21016734429607E-02 
1292	 0.033360906775576 
1293	 3.36648382068499E-02 
1294	 3.33615615536344E-02 
1295	 3.22740484722658E-02 
1296	 3.24383743574149E-02 
1297	 3.22539134798602E-02 
1298	 3.11665587111861E-02 
1299	 3.07506890380229E-02 
1300	 3.20857214199657E-02 
1301	 3.11075034431531E-02 
1302	 2.97027171078428E-02 
1303	 0.034048745323067 
1304	 3.45653971553078E-02 
1305	 0.030860985021118 
1306	 3.00138002401588E-02 
1307	 3.22494063379777E-02 
1308	 3.15982225115888E-02 
1309	 2.93491809722355E-02 
1310	 2.81919585853832E-02 
1311	 2.46593747843599E-02 
1312	 2.76046037188571E-02 
1313	 3.75249567848255E-02 
1314	 4.10937022306763E-02 
1315	 4.89181065416454E-02 
1316	 5.04659943198496E-02 
1317	 3.74552812746289E-02 
1318	 3.50126456576332E-02 
1319	 3.92464591849655E-02 
1320	 4.09252957948861E-02 
1321	 5.06625215610126E-02 
1322	 4.93629886751799E-02 
1323	 3.60836830320173E-02 
1324	 1.92318136245742E-02 
1325	 9.8524153096515E-03 
1326	-2.21686315474716E-03 
1327	-2.43495594595397E-03 
1328	 2.98734293971351E-03 
1329	-1.02044604552895E-02 
1330	-7.4355801553216E-03 
1331	 1.03393584459266E-02 
1332	 1.59950300110226E-02 
1333	 1.71182026890506E-02 
1334	 3.77343879000018E-02 
1335	 0.046706379320605 
1336	 0.045758633257734 
1337	 3.62374152902817E-02 
1338	 1.56918052283478E-02 
1339	 9.53088540789644E-03 
1340	-4.49972655648045E-03 
1341	-2.17972870135413E-02 
1342	-0.01675287560839 
1343	-9.99138150284861E-03 
1344	-3.35848355354406E-02 
1345	-4.89176002467579E-02 
1346	-1.04392823654436E-02 
1347	-1.84471821399633E-02 
1348	-0.17992864832312 
1349	-0.130696056299983 
1350	 0.175871488892094 
1351	 0.306215656947094 
1352	 0.641367683080527 
1353	 0.716857368267021 
1354	 0.241016391156342 
1355	-0.468127095070144 
1356	 0.136731281299309 
1357	 0.818488283564829 
1358	 0.567195416797618 
1359	-1.58593501318731 
1360	 2.61320995923144 
1361	 0.673596445000557 
1362	 0.606053386712377 
1363	 2.91050573541975 
1364	 1.1980824438681 
1365	 0.152758920690558 
1366	 2.10069104649866 
1367	 22.1475247551898 
1368	-8.88822562643272 
1369	 7.75123595534442E-02 
1370	 0.324536611086614 
1371	 1.55272131412899 
1372	 6.83114779817736 
1373	-10.6863524651881 
1374	-74.9730489194874 
1375	 4.8926841343547 
1376	 22.9136941210454 
1377	-7.75255581757529E-02 
1378	 1.53095039548056 
1379	 0.999883144171849 
1380	 1.08093238628076 
1381	 5.01934330481662 
1382	 4.65660738882631 
1383	-8.80693760397385E-02 
1384	-9.40776875389272E-03 
1385	 0.760304660469657 
1386	 0.507256339225185 
1387	-3.01781741181948 
1388	-8.42045704310418 
1389	-1.74034040830119 
1390	-3.46639728885944 
1391	-13.2579923285988 
1392	-3.09043351860317 
1393	-1.27107169231742 
1394	 3.36011087655974 
1395	 5.30205961728082E-02 
1396	-0.228441676904846 
1397	 1.674536301101 
1398	 1.98329376238186 
1399	 10.9703369360178 
1400	-1.0860750433153 
1401	-0.244761100911096 
1402	-0.306356413401799 
1403	-0.176406221019327 
1404	 0.103572859364111 
1405	 1.36198594972443E-02 
1406	 0.44488836165438 
1407	-0.231044357668939 
1408	 0.391880167973161 
1409	-0.180583503550516 
1410	-1.51043533436269 
1411	-1.32137625071205 
1412	-1.05228207985302 
1413	-2.81288603224843 
1414	 0.59936963128726 
1415	-0.360544184805095 
1416	 1.2700786800695 
1417	 0.738284468618688 
1418	 0.53166696714562 
1419	 0.484966621960142 
1420	 0.223565148913869 
1421	 4.37399416076707E-02 
1422	-0.511705042627071 
1423	-0.887595595609816 
1424	-0.30502356545047 
1425	-1.51696599352042E-02 
1426	-6.06458122310755 
1427	-0.629434461442313 
1428	 0.589856501040911 
1429	 0.491470767106873 
1430	 1.06372624018227 
1431	 1.31936864742792 
1432	-0.133001173219835 
1433	-0.332819678477096 
1434	 0.679078274663954 
1435	 0.853918803978243 
1436	 3.95346099718431 
1437	 6.05766620816265 
1438	 0.509470138569898 
1439	 0.316601550534207 
1440	 3.27949951085797 
1441	 22.8989527675197 
1442	-0.812772468423512 
1443	 0.279036254362767 
1444	 0.431883358413903 
1445	 0.337440066463579 
1446	 0.608559557512044 
1447	-1.03028467398343 
1448	-1.46528431330535 
1449	-0.336769961867494 
1450	 0.688188157703297 
1451	 0.579222064974457 
1452	-4.97698321276599 
1453	-0.30145815873094 
1454	 1.17748074133979E-02 
1455	 24.4537763683163 
1456	 0.883148847255301 
1457	 0.779071008917132 
1458	 0.837745867842804 
1459	 0.687421517896519 
1460	 0.260491265358514 
1461	-7.52701915407474E-02 
1462	-0.248272071768054 
1463	-2.17333825781825 
1464	-1.37371045246795 
1465	-0.188701980678189 
1466	 4.00257600398258E-02 
1467	-0.142062800422129 
1468	-8.48767696905974E-02 
1469	 0.465641992145146 
1470	-4.48682509837866E-02 
1471	 12.3743912560126 
1472	 4.19542513213416 
1473	-43.218126604679 
1474	 0.385220844002654 
1475	-0.370777700402882 
1476	-0.467457173715501 
1477	-0.352055374158541 
1478	-0.232817914995101 
1479	 0.470197582430654 
1480	-21.7339850014891 
1481	-28.0146218667332 
1482	 1.4516752901709 
1483	-0.911838926914551 
1484	-0.802223182092841 
1485	 0.169760360878241 
1486	 0.262539513691307 
1487	 0.156776545409876 
1488	-6.87583530167353E-02 
1489	-1.49715610673211 
1490	-0.965836012622777 
1491	-2.77977250138201E-02 
1492	-0.244712502136253 
1493	-0.301405316764826 
1494	-0.120341189380693 
1495	-0.197647842568541 
1496	-0.349690054187901 
1497	-0.276450534129201 
1498	-0.166289845453112 
1499	-0.118208968710726 
1500	-0.127395206635332 
1501	-2.97043596864279E-02 
1502	 4.16883003170095E-02 
1503	-2.32306187253259E-02 
1504	-1.38134773423827E-02 
1505	 0.160747274951246 
1506	 0.219182120572643 
1507	 0.127868473513417 
1508	 2.42191178816792E-02 
1509	-5.38833693485159E-03 
1510	 5.35097990317624E-03 
1511	 8.70182338916904E-03 
1512	 0.069418563398441 
1513	 9.24933082318545E-02 
1514	 4.83033805319643E-02 
1515	 0.131389370346201 
1516	 0.112848782049137 
1517	 1.78342346561579E-02 
1518	 5.72605615808371E-02 
1519	 4.19330849625357E-02 
1520	 2.69038286044334E-02 
1521	 5.20995446854965E-02 
1522	 5.48843849728253E-02 
1523	 0.046356313106987 
1524	 2.45356142410456E-02 
1525	 0.032095247347999 
1526	 3.57184433394991E-02 
1527	 3.83687961562408E-02 
1528	 6.41918937620212E-02 
1529	 3.92741834267334E-02 
1530	-9.27411705735549E-03 
1531	-1.96057782797589E-02 
1532	-1.52788227183315E-02 
1533	-4.9535595300513E-03 
1534	 1.29952694500972E-02 
1535	 1.54925846517603E-02 
1536	-1.21989814209951E-02 
1537	-2.48618036388462E-02 
1538	 6.86297073398675E-03 
1539	 6.55417647756001E-03 
1540	-5.54386027927017E-03 
1541	 1.34238027280086E-02 
1542	-1.77304209709406E-03 
1543	-0.025258672937026 
1544	-1.16545637601893E-02 
1545	 1.37904061490088E-02 
1546	 1.09373285815552E-02 
1547	-1.19360512301145E-02 
1548	-1.17938773523088E-02 
1549	-1.11313326417888E-02 
1550	-3.36789781006288E-02 
1551	-0.029200948854913 
1552	-4.30708241596912E-03 
1553	 9.09950903746566E-03 
1554	 0.024147285950808 
1555	 4.23052367788637E-02 
1556	 5.71705286471121E-02 
1557	 3.27352397495901E-02 
1558	-6.47317839639859E-03 
1559	 3.77714269612234E-03 
1560	 5.4365754131111E-03 
1561	-2.40344789506075E-02 
1562	-1.38039646679224E-02 
1563	 9.52478154363121E-03 
1564	 1.29406292372122E-02 
1565	 2.78896914465322E-02 
1566	 3.95768664279516E-02 
1567	 1.87547801341126E-02 
1568	 6.98820116334684E-03 
1569	 2.62466992347905E-02 
1570	 2.90331502800346E-02 
1571	 1.15996740003409E-02 
1572	-1.63651179137682E-02 
1573	-0.034983386761817 
1574	-2.11738329048276E-02 
1575	-1.12679911385535E-02 
1576	-2.45019798341745E-02 
1577	-1.37102873372858E-02 
1578	 1.29989354748606E-02 
1579	 1.60013817360167E-02 
1580	 2.92795175841235E-02 
1581	 3.12882678267997E-02 
1582	 1.63004176716348E-02 
1583	 1.63747277522354E-02 
1584	 3.20732263395275E-02 
1585	 5.86426609267093E-02 
1586	 0.048269252692316 
1587	 2.12402990123664E-02 
1588	 2.88537440302382E-02 
1589	 5.02343314315769E-02 
1590	 4.56604585835094E-02 
1591	 3.55976163278839E-02 
1592	 4.31997075287239E-02 
1593	 2.20192769352511E-02 
1594	 7.53828763323494E-03 
1595	 3.40632387163739E-02 
1596	 3.46749252394968E-02 
1597	 1.01648206576191E-02 
1598	 8.21750722994623E-03 
1599	 2.55382699750406E-03 
1600	-1.24526417949934E-02 
1601	 1.50673128524643E-02 
1602	 0.041997934253651 
1603	 2.84822601849865E-02 
1604	 1.75774230557533E-02 
1605	 1.35941875148143E-02 
1606	 3.81729955884559E-03 
1607	 1.61127118789077E-02 
1608	 4.62361537251273E-02 
1609	 5.27188923868991E-02 
1610	 0.056613750884749 
1611	 6.31819502703836E-02 
1612	 5.23589201149934E-02 
1613	 5.12614243785162E-02 
1614	 4.34465807622373E-02 
1615	 2.66468232278621E-02 
1616	 3.79937077721686E-02 
1617	 4.99548478512703E-02 
1618	 4.06870604864801E-02 
1619	 4.01376398201831E-02 
1620	 4.43662978038421E-02 
1621	 3.33955043574708E-02 
1622	 3.14489279731849E-02 
1623	 4.97073369676004E-02 
1624	 5.77082730227849E-02 
1625	 4.43543874772016E-02 
1626	 0.029015409616852 
1627	 2.36144990004898E-02 
1628	 2.56899038291382E-02 
1629	 3.67309551705512E-02 
1630	 5.62719161335996E-02 
1631	 5.56664397329899E-02 
1632	 3.37817450081241E-02 
1633	 2.09510113384173E-02 
1634	 2.74873437407509E-02 
1635	 2.33346115125387E-02 
1636	 1.8682087962998E-03 
1637	-4.95342460182666E-03 
1638	-7.38261108243806E-03 
1639	-0.012031059787949 
1640	-5.33875443969784E-03 
1641	 1.88222172051259E-03 
1642	 1.37920472515785E-02 
1643	 2.92027935255781E-02 
1644	 3.46688475592931E-02 
1645	 4.22039064165238E-02 
1646	 3.99661227281606E-02 
1647	 1.37433715263224E-02 
1648	 1.24884509331192E-02 
1649	 3.06304264360364E-02 
1650	 2.41030209912544E-02 
1651	 0.029544295736073 
1652	 4.76222346030703E-02 
1653	 3.41880839267147E-02 
1654	 2.84889063222136E-02 
1655	 2.92104411883274E-02 
1656	 2.87520025413493E-02 
1657	 2.86452841573174E-02 
1658	 2.21751548628459E-02 
1659	 5.47271531895635E-03 
1660	 2.34644793305598E-03 
1661	 6.28848629799734E-03 
1662	 1.24494943829979E-02 
1663	 0.030377380566841 
1664	 0.038845417279893 
1665	 3.81389535180964E-02 
1666	 3.71276915476015E-02 
1667	 4.13579189670495E-02 
1668	 4.63605393033041E-02 
1669	 3.78434634244023E-02 
1670	 1.63209021996117E-02 
1671	 8.76178549266573E-03 
1672	 2.21816948819004E-02 
1673	 2.18771534048502E-02 
1674	 1.48649682369097E-02 
1675	 1.90422847001803E-02 
1676	 2.56344353267267E-02 
1677	 2.27481398851625E-02 
1678	 2.58767072159583E-02 
1679	 3.03478150507902E-02 
1680	 2.17107966051058E-02 
1681	 2.40751746546375E-02 
1682	 3.43854945911806E-02 
1683	 3.46039117906155E-02 
1684	 0.022319864023391 
1685	 8.34379959950985E-03 
1686	 1.01057465560519E-02 
1687	 1.61854102954329E-02 
1688	 1.35058332330532E-02 
1689	 7.76243208370518E-03 
1690	 8.35579659564456E-03 
1691	 2.16260439591537E-02 
1692	 3.72720239190319E-02 
1693	 3.78659329574401E-02 
1694	 2.76185616865986E-02 
1695	 1.29681322891714E-02 
1696	 3.14320102596099E-03 
1697	 1.89814821175082E-02 
1698	 4.04615950730463E-02 
1699	 3.64025275195027E-02 
1700	 3.12486048939658E-02 
1701	 3.08836644136021E-02 
1702	 2.96520712227651E-02 
1703	 4.01927371900131E-02 
1704	 4.50166495559396E-02 
1705	 1.96753417729211E-02 
1706	-6.97593944440916E-03 
1707	-4.13176587745792E-03 
1708	 1.42245091755678E-02 
1709	 0.037469143716129 
1710	 5.37145172997545E-02 
1711	 5.12673461602867E-02 
1712	 0.038827260487841 
1713	 6.37408378158728E-02 
1714	 6.15523142726084E-02 
1715	 3.21972683315937E-02 
1716	 4.53006752010484E-02 
1717	 3.02675327980759E-02 
1718	 1.40900877502376E-02 
1719	 3.71389854991457E-02 
1720	 3.35101562091837E-02 
1721	 1.03220120405653E-02 
1722	 2.13858275384014E-02 
1723	 2.69783509972662E-02 
1724	 3.14643203384131E-02 
1725	 4.93851106378207E-02 
1726	 5.34874302174478E-02 
1727	 4.79510474053104E-02 
1728	 4.44398339932361E-02 
1729	 4.60789823595876E-02 
1730	 5.95997130617783E-02 
1731	 5.87323043546243E-02 
1732	 1.86003705938895E-02 
1733	 1.69598232791775E-03 
1734	 2.87022046395574E-02 
1735	 2.27440889677134E-02 
1736	-1.11248500096873E-02 
1737	-1.52127377400229E-02 
1738	-1.13058372706094E-02 
1739	-2.05656124816655E-02 
1740	-0.003926730115586 
1741	 1.60024691607061E-02 
1742	-3.12052816883305E-03 
1743	-5.32896436798085E-03 
1744	 4.58076435082897E-02 
1745	 4.66698849015697E-02 
1746	-5.00505988849506E-03 
1747	-0.014834897676843 
1748	-2.62792756542398E-02 
1749	-3.22898497451468E-02 
1750	-2.97531528007524E-02 
1751	-2.79013629744937E-02 
1752	-7.43604496160488E-03 
1753	-5.98829602070142E-03 
1754	 1.09334332336028E-03 
1755	 4.20202993161045E-03 
1756	-3.56666206221866E-02 
1757	-3.62036543110325E-02 
1758	-1.36517428174342E-02 
1759	 1.70274909474706E-02 
1760	 2.71901757091965E-02 
1761	 8.88861626461003E-03 
1762	-3.81808769835575E-03 
1763	 8.95761928637649E-03 
1764	 3.58749736139466E-02 
1765	 4.91060456073058E-02 
1766	 5.55605973338347E-02 
1767	 1.51481714918759E-02 
1768	-2.61241058030962E-02 
1769	 2.38707999787381E-02 
1770	 9.96200282601767E-02 
1771	 0.13467400258886 
1772	 0.151800461436392 
1773	 4.03715719648724E-02 
1774	-0.114792320033788 
1775	-0.17834165095292 
1776	-0.1792934361362 
1777	 0.018648953810506 
1778	 6.06794931474543E-02 
1779	 7.92141402533057E-02 
1780	 9.62637573843052E-02 
1781	-0.134041442709462 
1782	-0.193986253932891 
1783	-0.100214501312198 
1784	-4.79563196255197E-02 
1785	 0.182648450881479 
1786	 0.277673888021202 
1787	 0.287876404726194 
1788	 0.195432948829915 
1789	-8.32378479989044E-02 
1790	-0.141422876602856 
1791	-0.080625916663743 
1792	-3.54129421074607E-02 
1793	 0.138646563581853 
1794	 0.641160919921723 
1795	 0.318368322767602 
1796	-0.436972659785033 
1797	-0.475541818953271 
1798	-1.25394785988315 
1799	-2.57092903932053 
1800	 0.320909145285323 
1801	 0.323217257290998 
1802	-6.91703943383664E-02 
1803	-0.112392952564529 
1804	 0.106716053050793 
1805	 0.559030036443682 
1806	 5.16407403189493 
1807	 30.236808988442 
1808	-0.739343202373486 
1809	-1.1685725049035 
1810	 0.945299026564294 
1811	 0.732051588215357 
1812	-2.77494746479394E-02 
1813	 0.109371866497893 
1814	-1.27022805673933 
1815	-0.897839288950856 
1816	-0.945100510325059 
1817	-0.500659465077616 
1818	 0.454465110479405 
1819	 1.29175013961258 
1820	-23.8723696525396 
1821	 0.731916747644483 
1822	-1.1826286116472 
1823	-2.19331887368006 
1824	-3.2483044016476 
1825	 1.6245248986978 
1826	 0.769196793316149 
1827	-1.80282312253227 
1828	-3.62857846698808 
1829	 0.679561730532636 
1830	 0.182956965571888 
1831	-1.1848236486639 
1832	-1.25243708147024 
1833	 7.67973106277939E-02 
1834	-0.420103844377019 
1835	-0.748898807119011 
1836	-13.6377858987981 
1837	 0.814851540496094 
1838	 0.831245164179865 
1839	 1.14469386979651 
1840	-18.4718358808371 
1841	-0.645965406192205 
1842	-0.707536930757457 
1843	-0.486937913310845 
1844	-1.51839798765148 
1845	-1.97041860868494 
1846	-0.176748793757662 
1847	-0.100615222995636 
1848	-1.59922426641465 
1849	-2.38886928046709 
1850	 0.932805578139922 
1851	-2.14986737878632 
1852	-3.25981788130988E-02 
1853	 3.54506347971626E-02 
1854	-2.60037469255998E-02 
1855	-0.342154063959706 
1856	-0.264292195048741 
1857	 2.05457357954638E-02 
1858	-2.55263079690101E-03 
1859	-0.249728393112518 
1860	-0.236260858043355 
1861	-0.362589525153606 
1862	-0.11497024676912 
1863	 0.38590735247264 
1864	 0.506076065242415 
1865	 0.687836854675535 
1866	 0.734008816597278 
1867	 0.844766567373298 
1868	 3.19537621203044 
1869	-3.98812108720114 
1870	-0.285649321645429 
1871	 2.68565351512712E-02 
1872	-0.533262944010971 
1873	-1.30901702442476 
1874	 0.702845066831383 
1875	-0.259279730522587 
1876	-0.665633224359292 
1877	-2.59794193438043 
1878	-2.74230178561827 
1879	-1.21805931337139 
1880	-0.766039186520039 
1881	 0.177871918854884 
1882	 4.53135534809561E-02 
1883	-2.39782668842146 
1884	 2.14195773194365 
1885	 1.43116965656819 
1886	 0.89352695267082 
1887	 5.09290066135177E-02 
1888	 0.272454760102074 
1889	 0.214768274356541 
1890	-7.18991422211102E-02 
1891	-0.160411871509528 
1892	-0.386558003932559 
1893	-1.11850572351174 
1894	-2.84111800574363 
1895	 2.95126401324581 
1896	 0.708545912613978 
1897	 0.506364250625254 
1898	 0.487554904515215 
1899	 0.481845607745252 
1900	 0.575829157701122 
1901	 1.65389493523103 
1902	 2.34498593845021 
1903	 2.42959943785182 
1904	 1.53395507056525 
1905	 0.764267045170896 
1906	 1.7358979909704 
1907	 1.18189040764241 
1908	 0.959431848464525 
1909	 1.27894261742229 
1910	 2.82307107998452 
1911	 5.39179247259246 
1912	-4.79227853319388 
1913	-1.36691953425195 
1914	 0.305191695029822 
1915	 0.962759396599448 
1916	 1.15884220057265 
1917	 1.3013290990654 
1918	 3.7851799058104 
1919	-7.61183947958945 
1920	 5.88141168665345 
1921	-7.52297672475752 
1922	-1.67005549538813 
1923	-0.44853348267529 
1924	 7.89876294436893E-02 
1925	 0.18420353476218 
1926	 0.304017538400997 
1927	 0.375080928683853 
1928	 0.223450675130143 
1929	 7.38026513769047E-02 
1930	-1.9794257768399 
1931	-1.55307899120897 
1932	-1.7191027659129 
1933	-2.19391653439996 
1934	-2.47879419374334 
1935	 6.06964126798304 
1936	 1.1774268437403 
1937	 1.23851339613236 
1938	 0.86623943430597 
1939	 0.762010926402674 
1940	 1.15139021211846 
1941	 1.16910592934185 
1942	 1.11488801726731 
1943	 0.899176220168412 
1944	 1.08036222487431 
1945	 0.70578206646215 
1946	 0.335656671839195 
1947	 0.597392756347561 
1948	 0.311663282151677 
1949	 0.346602872055973 
1950	 0.890869181041188 
1951	-1.93904537998998 
1952	-1.18970974641931 
1953	-1.34662345195426 
1954	-1.06999404769941 
1955	-1.25919202230164 
1956	-1.11283167495062 
1957	-0.286881187009902 
1958	-0.452000388656978 
1959	 1.81072214182229 
1960	 0.726983193778619 
1961	 0.149954535716972 
1962	-0.386984247613449 
1963	-1.08651732034537 
1964	-1.83429493321629 
1965	-1.39056692962938 
1966	-1.53392982145598 
1967	-3.94898494717019 
1968	-0.414557711452816 
1969	-1.5685896814578 
1970	-5.67144076399182 
1971	 8.65064077642744 
1972	 2.83331909916922 
1973	 9.16366044790698E-02 
1974	 0.286016033755928 
1975	 2.4325485881373 
1976	 0.795926050659539 
1977	 3.06206730621818 
1978	-0.028933509586262 
1979	-0.754684711567074 
1980	-1.51966013711681 
1981	-14.7809859455092 
1982	-2.94812016856966 
1983	-2.3695204329478 
1984	-4.14533487504915 
1985	-3.18900400675346 
1986	-2.12351448665291 
1987	-1.00865272780001 
1988	 8.88282699442224E-02 
1989	 0.113828446594495 
1990	-0.137727692411426 
1991	-0.109796310787934 
1992	-0.192367081097021 
1993	-0.337670218708154 
1994	-0.460422533778763 
1995	-0.966297014891951 
1996	-3.04750024232059 
1997	 59.5316118190027 
1998	-0.808509756516984 
1999	-1.47320754074929 
2000	-2.55272692410899 
2001	-1.35227544082481 
2002	-0.424938490240434 
2003	-0.224342220449588 
2004	-0.487280917399051 
2005	-13.1904357644699 
2006	 15.3577797616671 
2007	-1.08844950980194 
2008	-40.5219682045107 
2009	 23.7808739670506 
2010	 5.68141851211617 
2011	 6.06017431326099 
2012	 3.75125405451638 
2013	-3.36233115416056 
2014	-0.661725033112639 
2015	-0.355714631757814 
2016	-6.13433026323788E-03 
2017	 0.355147150961253 
2018	 0.571025443023871 
2019	 0.383891855608271 
2020	 5.13496266146205 
2021	-4.49159232486325 
2022	 7.15605913967956 
2023	 1.66887112516249 
2024	 1.43470108391026 
2025	 0.69850005512273 
2026	 0.603049407148066 
2027	 1.70009951706699 
2028	-0.640382247976889 
2029	-2.08465618655896E-03 
2030	 0.223734152761013 
2031	 36.1053532703389 
2032	-0.377201464545072 
2033	 0.151647986542756 
2034	 0.263986293033909 
2035	 0.401357953700049 
2036	 1.48237754680126 
2037	-0.600192344542305 
2038	-1.69159080244032 
2039	-1.57093312366141 
2040	-0.771161016586372 
2041	-0.508182500503273 
2042	-0.247462332644851 
2043	 1.14311487155742E-02 
2044	 0.188003912680244 
2045	 0.102311466220318 
2046	-0.115598052969759 
2047	 1.70784850600493E-02 
2048	-0.4688647529044 
2049	 2.27543539855774 
2050	 2.49270000743528 
2051	-20.5365822892738 
2052	-4.41109824471284 
2053	-0.774288209312246 
2054	-0.721595194186323 
2055	-0.854839238948041 
2056	-0.915867578763064 
2057	-3.2826292371622 
2058	-3.16047164831643 
2059	-0.82244825919153 
2060	-0.677045021782262 
2061	-0.668042949829402 
2062	-0.682718036767369 
2063	-1.729770805528 
2064	-1.51749454678777 
2065	-0.602310500044915 
2066	-0.169137391600751 
2067	-0.354483383655307 
2068	-0.423443398085306 
2069	-0.311301763315613 
2070	-0.212389716834154 
2071	-1.08371620542279E-02 
2072	-0.130244480953566 
2073	-3.10556655797485E-02 
2074	 0.163799947283502 
2075	 0.348216450072866 
2076	 0.695031158690446 
2077	 1.20981237647104 
2078	 0.838613399870199 
2079	 0.875799816758857 
2080	 1.43342781633576 
2081	 2.39168433882726 
2082	 5.2152397000248 
2083	 29.7319013945245 
2084	 0.266278746259286 
2085	-0.20105472565296 
2086	-0.805326114577465 
2087	-1.68609300473771 
2088	-3.50319977194211 
2089	 38.5152848727133 
2090	 2.39828785963568 
2091	 0.328177709901537 
2092	-1.35114423888185 
2093	 6.2207893978087 
2094	 1.1869408194543 
2095	-0.586136690372358 
2096	-0.85745924778939 
2097	-1.37856768502271 
2098	-1.44742140634707 
2099	-1.27702631804781 
2100	-1.63290659079601 
2101	-1.16254035122448 
2102	-1.33370904257026 
2103	-0.297539241437842 
2104	-7.49440936011521E-02 
2105	-3.98622291124308E-02 
2106	 2.08059893364295E-02 
2107	-9.38281181353002E-02 
2108	-7.34144857225067E-02 
2109	-5.25795566613995E-02 
2110	 0.288943055209566 
2111	 0.818887493078385 
2112	 0.998416163912679 
2113	 0.620843869051653 
2114	 4.57495265224187E-02 
2115	-9.53167735445777E-02 
2116	-0.348780821143 
2117	-0.348830315755727 
2118	-0.144640668667784 
2119	-8.76344465741722E-02 
2120	-7.03944963176923E-02 
2121	 3.17671063374514E-02 
2122	 0.201562045930184 
2123	 0.1662833286374 
2124	 0.174443735761686 
2125	 0.310609615485876 
2126	 0.159116979970937 
2127	-4.67170720656924E-02 
2128	-0.212012946319512 
2129	-0.44616274149128 
2130	-0.378992377936781 
2131	-0.171671784794488 
2132	 0.087695470496597 
2133	 0.31390158236925 
2134	 0.367539858862585 
2135	 0.210819332329044 
2136	 0.146079852907173 
2137	-9.50755510657033E-02 
2138	-0.147565177171458 
2139	-3.92600939145928E-02 
2140	-8.23078262041607E-03 
2141	 0.157755362184205 
2142	 0.239735529855738 
2143	 0.319464705913242 
2144	 0.138636638890077 
2145	 4.62249244757914E-02 
2146	-5.65728623486746E-02 
2147	-0.143999735290279 
2148	-3.95761348170586E-02 
2149	 0.194967196336396 
2150	 0.268740088779848 
2151	 0.467552625933268 
2152	 0.480792120845911 
2153	 0.406075994131359 
2154	 0.393295924086443 
2155	 0.355228671266956 
2156	 0.318983644461439 
2157	 0.167963379243944 
2158	-6.28465918951386E-02 
2159	-0.118550093686335 
2160	-0.10529317292246 
2161	-0.164937123039019 
2162	-0.223663811145985 
2163	-0.211319652155148 
2164	-0.228652056540656 
2165	-0.197422038685762 
2166	-4.02514920844502E-02 
2167	-3.36623839277183E-04 
2168	-2.21694902204362E-02 
2169	-4.31640486877373E-02 
2170	-0.109917711632256 
2171	-0.140219934562333 
2172	-0.113779765808266 
2173	-0.147300883161066 
2174	-0.124616912326869 
2175	-0.150969123134889 
2176	-0.19703458614919 
2177	-0.112060174984822 
2178	-5.49672007830272E-02 
2179	 5.03705502736222E-02 
2180	 0.150036527485037 
2181	 7.34419528519229E-02 
2182	-0.105536413788402 
2183	-8.05219651628526E-02 
2184	 4.92246302837557E-02 
2185	-5.04852951359138E-02 
2186	-6.11165596386785E-02 
2187	-4.34322419341331E-02 
2188	-2.66873308245836E-02 
2189	 2.70766669195373E-02 
2190	 6.44801030778286E-02 
2191	 7.27470278412184E-02 
2192	 9.69540074742758E-02 
2193	 7.91737352845025E-02 
2194	 0.113659446626965 
2195	 0.207533759126333 
2196	 0.265506108588744 
2197	 0.379836669382463 
2198	 0.391106769628641 
2199	 0.316347451665815 
2200	 0.351118687703336 
2201	-2.42871078136139E-02 
2202	-0.198870511372199 
2203	-9.66570923194217E-02 
2204	-0.22699812124035 
2205	-8.08873371659046E-02 
2206	 2.11607873655757E-02 
2207	-4.21348050622877E-03 
2208	 7.54278685220367E-02 
2209	 0.132077562184283 
2210	 0.092151639360716 
2211	-4.07953618272347E-02 
2212	-0.230030984636134 
2213	-0.246944890711476 
2214	-0.202049268069097 
2215	-0.136022142481673 
2216	-4.32510641502722E-02 
2217	-2.06417944011779E-02 
2218	-8.93830296140959E-02 
2219	-9.57885801833227E-02 
2220	-7.31894723125636E-02 
2221	-8.37944690740647E-02 
2222	-0.120187304547945 
2223	-0.108098338758251 
2224	-0.093222017579336 
2225	-5.89655435486881E-02 
2226	 6.42637710318801E-02 
2227	 0.121159529921865 
2228	 0.210049301406496 
2229	 0.20505790476038 
2230	 4.89497771239038E-02 
2231	-2.47923779723741E-02 
2232	-0.231638260452983 
2233	-0.262773305955474 
2234	-0.135566801965885 
2235	-2.58521217193543E-02 
2236	 0.152150515059048 
2237	 0.250746259282384 
2238	 0.153112262399175 
2239	 0.108312227789067 
2240	 7.93367843193791E-02 
2241	 7.19602487634202E-02 
2242	 0.135592048454247 
2243	 0.100215229960168 
2244	-6.48566224294597E-03 
2245	-6.02304046130448E-02 
2246	-4.77811352918241E-02 
2247	 5.73650630185621E-02 
2248	 7.66139768460576E-02 
2249	-5.39605273470851E-02 
2250	-0.258095477977945 
2251	-0.500384150571235 
2252	-0.61877625445534 
2253	-0.531516864099259 
2254	-0.553293717963332 
2255	-0.636289365909511 
2256	-0.499935942351251 
2257	-0.394644629090972 
2258	-0.158366765861797 
2259	 0.112498072522769 
2260	 0.143332126727442 
2261	 2.34097367063096E-02 
2262	-1.05985323471614E-02 
2263	-0.166123196527716 
2264	-0.208981016216265 
2265	-0.164894444197252 
2266	-0.222896321899805 
2267	-0.313931055878833 
2268	-0.373769335718245 
2269	-0.398942385437312 
2270	-0.381384444891689 
2271	-0.328302265077415 
2272	-0.2649353012881 
2273	-0.161750448860091 
2274	-0.119063914430255 
2275	-5.94550588922714E-02 
2276	 2.12782159741164E-02 
2277	 0.121578626392631 
2278	 0.045967327827836 
2279	-0.187499985228462 
2280	-0.276933756200441 
2281	-0.398589134307269 
2282	-0.524248102139556 
2283	-0.443218384568895 
2284	-0.409312373941473 
2285	-0.350777482079624 
2286	-0.355299993689771 
2287	 0.986108359006702 
2288	-183.646986090561 
2289	-0.576352434256228 
2290	-0.666650262451578 
2291	-9.96063524111898E-02 
2292	 0.362758001811008 
2293	 0.661999234842254 
2294	-1.08843099301773 
2295	 8.30227027721804 
2296	 2.38548987064913 
2297	 1.08896149093788 
2298	 0.66714155454757 
2299	 0.22221575188682 
2300	-0.20323776546497 
2301	-0.378071818025242 
2302	-0.572598797319687 
2303	-1.00826820634033 
2304	-0.991838778950229 
2305	-0.631339340172131 
2306	-0.607227041429151 
2307	-0.67356423141774 
2308	-0.56897511708758 
2309	-0.642781565090922 
2310	-0.783383804411079 
2311	-0.496163274096457 
2312	-0.694207908243687 
2313	-0.678928207976459 
2314	-0.235120651332213 
2315	-0.241682255973525 
2316	-0.332529366987107 
2317	 8.76028680699135E-02 
2318	-0.122628207273553 
2319	-0.983426771068389 
2320	-0.757020487351838 
2321	-0.832145773771588 
2322	-2.14651128813194 
2323	-1.72278351428934 
2324	-0.870708178283539 
2325	-0.485900510374461 
2326	 0.194705681037537 
2327	-2.73592276595345E-02 
2328	-0.311494867199696 
2329	-6.59675732912588E-02 
2330	-0.212532255897204 
2331	-0.407703985305886 
2332	-0.333600092005372 
2333	-0.728984985168954 
2334	-2.65412095934465 
2335	-1.86644039558008 
2336	-1.72007977502449 
2337	-2.58216916836016 
2338	-3.48477077614792 
2339	-3.87373098241459 
2340	-2.437894350341 
2341	-1.12104341942131 
2342	-0.480944898555784 
2343	-0.636170089724275 
2344	-1.32170246835893 
2345	-6.66827290277893 
2346	 0.239700780464459 
2347	-0.600014020565889 
2348	-1.36480788119918 
2349	-2.14492544786408 
2350	 0.796081036381006 
2351	-0.707524151694947 
2352	 0.806222313951982 
2353	 0.532032447404038 
2354	 0.319918153967068 
2355	-5.41049943956859E-02 
2356	 0.30892069650927 
2357	 1.59855300268287 
2358	 1.27606438667457 
2359	 1.08113146893575 
2360	 1.41033550263705 
2361	-7.74495246794449 
2362	-0.375598787717966 
2363	-0.441997575754345 
2364	-0.684191912192313 
2365	-1.45815552461917 
2366	-2.36499453306957 
2367	 126.384068946916 
2368	 1.74245164036965 
2369	-0.249747440756325 
2370	-0.337525739799424 
2371	-0.382654158346134 
2372	-0.386532833082305 
2373	-0.545165207873946 
2374	-1.22843252688723 
2375	-2.65778034162758 
2376	-5.2994910828679 
2377	-4.955619773331 
2378	 1.62913789981945 
2379	 0.358305937013595 
2380	 0.212577630326987 
2381	 0.172529495515337 
2382	 1.32193548064539 
2383	-6.4446274628737 
2384	-3.91575855523813 
2385	-4.57352945489262 
2386	-7.91118084470402 
2387	-1.33810030487347 
2388	-3.93680230699405 
2389	 1.9680183070748 
2390	 1.94753764712525 
2391	 1.20064502804314 
2392	 1.62959785876103 
2393	-7.13905302665728 
2394	-5.16828551917885 
2395	-11.608023833744 
2396	 8.58244650502253 
2397	 2.25475546701122 
2398	 2.53645955057033 
2399	 5.47069678871423 
2400	 9.22358633813984 
2401	-1.95937699274512 
2402	-2.22672277896844 
2403	 2.68401348776902 
2404	 2.52743138339833 
2405	 2.06372996621312 
2406	 0.846979605187377 
2407	 0.859433656409617 
2408	 4.02774427822898 
2409	-2.13963010755291 
2410	-1.28369345883159 
2411	-1.40049916488681 
2412	-0.417698172482543 
2413	-3.10187809900121E-02 
2414	 0.214801154407151 
2415	 0.126508926677296 
2416	-0.118579545096131 
2417	-0.489304686481107 
2418	-2.75419251244182 
2419	-7.31844153241923 
2420	-6.68705822170386 
2421	 2.05624578509091 
2422	 0.767467168582936 
2423	 0.516819283738479 
2424	 1.08605915050386 
2425	 1.03482899898638 
2426	 0.031578630660219 
2427	 1.40659041819041 
2428	 0.697935805141563 
2429	 0.622022256858032 
2430	 0.493326912731015 
2431	 0.35431254017009 
2432	 0.28966543247859 
2433	 0.141027925435587 
2434	-0.608384905941002 
2435	-0.892547453971937 
2436	 107.660202091988 
2437	 1.63135323410828 
2438	 0.184544650152659 
2439	-0.604225112163229 
2440	-1.71804512882825 
2441	-3.56015581297996 
2442	 14.5058076560954 
2443	 2.17531551621614 
2444	-5.58677195141038 
2445	-1.49131029579711 
2446	-1.14251846131292 
2447	-0.53220828291609 
2448	-0.26546642277769 
2449	-0.128137754299271 
2450	-0.114565841807721 
2451	-1.87476452266222 
2452	-0.914559134385113 
2453	-1.15372839517841 
2454	-2.34591999002769 
2455	-4.8957493619779 
2456	-32.2075692598283 
2457	 2.89289327939378 
2458	 2.33602277484422 
2459	 1.93031077272074 
2460	 2.19210109023914 
2461	 7.50547199702669 
2462	 84.0372750074727 
2463	 19.214906281897 
2464	 6.37625014158172 
2465	-49.9837372845394 
2466	-2.84326835449418 
2467	-3.41779943464615 
2468	-1.10204693805274 
2469	-1.02777647753029 
2470	-1.26741650965091 
2471	-2.00095580921131 
2472	-6.68856432587583 
2473	 5.51186501863104 
2474	 3.4274951771912 
2475	 3.85819014769731 
2476	 2.60951948895692 
2477	 0.607884576663635 
2478	 5.21820866455294E-02 
2479	-0.811187511986789 
2480	-1.46039603192068 
2481	 6.34273292908893E-02 
2482	 0.348281416433968 
2483	-8.55282000343209E-02 
2484	-8.20217465832309E-02 
2485	 0.165245526168395 
2486	 0.153706600675807 
2487	 0.185637128216109 
2488	 0.282379276645666 
2489	 2.19321549429797 
2490	 0.461916828419425 
2491	-8.82081273270678E-02 
2492	-0.27120587110117 
2493	-0.580823505273559 
2494	 2.81396101028809E-02 
2495	 12.4677825672634 
2496	 2.07067014525229 
2497	 1.18867044148893 
2498	-2.45538339433531 
2499	-2.70951462768932 
2500	-4.54808658445623 
