Wavelength	rt0712west_close200002.asd
350	 7.54457356671519E-02 
351	 7.59260643261593E-02 
352	 7.51217753737278E-02 
353	 7.46802953723752E-02 
354	 7.54817187503367E-02 
355	 7.58781433584535E-02 
356	 7.66026846158504E-02 
357	 7.65237620461306E-02 
358	 7.48904533373351E-02 
359	 7.47708382390881E-02 
360	 7.46384873399972E-02 
361	 7.49872978424202E-02 
362	 7.72498520229162E-02 
363	 7.67112256533961E-02 
364	 7.59945791812572E-02 
365	 7.62895396619119E-02 
366	 7.51556475971095E-02 
367	 7.58264343377005E-02 
368	 7.68272629164709E-02 
369	 7.64547430505445E-02 
370	 7.69579311937094E-02 
371	 7.61227303664408E-02 
372	 7.50633244043618E-02 
373	 7.64003911335501E-02 
374	 7.73446561632457E-02 
375	 7.71895400135822E-02 
376	 7.65654498866145E-02 
377	 7.75165713139767E-02 
378	 7.76225860043721E-02 
379	 7.75804283810686E-02 
380	 7.81872163582097E-02 
381	 7.80604289172634E-02 
382	 7.86314061064044E-02 
383	 7.92285978965098E-02 
384	 7.86146684791861E-02 
385	 0.079360540787183 
386	 7.93972668546336E-02 
387	 7.85351987963578E-02 
388	 7.89982927059261E-02 
389	 7.98215811326513E-02 
390	 8.08796342132218E-02 
391	 8.17841672862953E-02 
392	 8.11117839811587E-02 
393	 0.080352483843424 
394	 8.02881490470883E-02 
395	 8.11430063607674E-02 
396	 8.24275773345473E-02 
397	 8.20522771022332E-02 
398	 8.09334565359856E-02 
399	 8.22789671501101E-02 
400	 8.23667982653173E-02 
401	 8.18490576796881E-02 
402	 0.081793644245054 
403	 8.27434145533193E-02 
404	 8.28167664537548E-02 
405	 8.23315098171521E-02 
406	 8.23582331929049E-02 
407	 8.29180525263076E-02 
408	 8.33927675750102E-02 
409	 8.35876012505227E-02 
410	 8.37632082875281E-02 
411	 8.38363129042562E-02 
412	 8.40559575440386E-02 
413	 8.44644116215096E-02 
414	 8.44816740802615E-02 
415	 8.45417311314072E-02 
416	 8.48481094944677E-02 
417	 8.53581296943376E-02 
418	 8.51200562035878E-02 
419	 8.53887303319176E-02 
420	 0.086303982731132 
421	 8.66705562952639E-02 
422	 8.65051694848608E-02 
423	 8.66146829681284E-02 
424	 8.74299582162874E-02 
425	 8.78912753854253E-02 
426	 8.80936227356319E-02 
427	 0.088255430461898 
428	 8.86494762805599E-02 
429	 8.92623649001143E-02 
430	 8.98573611087999E-02 
431	 9.02044282960176E-02 
432	 9.01263664318707E-02 
433	 9.05559374962918E-02 
434	 9.12961746126463E-02 
435	 9.18724271969036E-02 
436	 9.17312546526902E-02 
437	 9.21586311331533E-02 
438	 9.30569262033182E-02 
439	 9.35736750729028E-02 
440	 9.37389506801729E-02 
441	 9.40161257303634E-02 
442	 9.45039928753686E-02 
443	 9.46865879840766E-02 
444	 9.49349843231051E-02 
445	 9.54906087364486E-02 
446	 0.096317349088287 
447	 9.65280931161613E-02 
448	 0.096453035270889 
449	 9.65206731664048E-02 
450	 9.71343366256111E-02 
451	 9.77165188769102E-02 
452	 9.80127160518582E-02 
453	 0.098028328410554 
454	 9.81421674082067E-02 
455	 9.85755487895271E-02 
456	 9.89309701977997E-02 
457	 9.88115702666871E-02 
458	 9.92361724955768E-02 
459	 9.93401632503364E-02 
460	 9.91164324590532E-02 
461	 9.94758706159383E-02 
462	 9.99370701561903E-02 
463	 0.100213973613937 
464	 0.100198415596412 
465	 0.10010575662689 
466	 0.100365170183609 
467	 0.100816693556696 
468	 0.101040174104185 
469	 0.101298052569615 
470	 0.101337704139354 
471	 0.101155554609493 
472	 0.101126439561153 
473	 0.101321949456304 
474	 0.101859737936826 
475	 0.102588264220737 
476	 0.102423642607315 
477	 0.102476511014381 
478	 0.102947340763248 
479	 0.103372211396186 
480	 0.103590025294002 
481	 0.103728868451888 
482	 0.103983868631083 
483	 0.104613847489672 
484	 0.105110383698408 
485	 0.105342215037809 
486	 0.105425010521123 
487	 0.10583728562217 
488	 0.106407925122084 
489	 0.106933343974535 
490	 0.107245414741206 
491	 0.10776399534485 
492	 0.108257803466805 
493	 0.108590930166388 
494	 0.109285672150726 
495	 0.109727775392615 
496	 0.110044401568478 
497	 0.110661670338095 
498	 0.111048158463101 
499	 0.111332387468992 
500	 0.111684016059739 
501	 0.112221126440332 
502	 0.112987798018007 
503	 0.113538927734828 
504	 0.113605397365956 
505	 0.114130252620827 
506	 0.11517942925011 
507	 0.116157248527635 
508	 0.116131526524333 
509	 0.116681873164216 
510	 0.117625128051836 
511	 0.118506471114165 
512	 0.118886018824213 
513	 0.119668078536599 
514	 0.120649515992449 
515	 0.12123680455209 
516	 0.121896093899497 
517	 0.122688389557164 
518	 0.123516174660239 
519	 0.124140448945882 
520	 0.12461393800758 
521	 0.125315590288427 
522	 0.12639818147442 
523	 0.126952809127012 
524	 0.127734200410001 
525	 0.128794960948185 
526	 0.129682934877827 
527	 0.130351567936137 
528	 0.131165444953524 
529	 0.132232952366934 
530	 0.133056829710968 
531	 0.133725509766272 
532	 0.134529689073611 
533	 0.135701628856131 
534	 0.136579364083721 
535	 0.137503591808367 
536	 0.138507614953103 
537	 0.139203940412022 
538	 0.140033289554758 
539	 0.140940754513813 
540	 0.141818804973157 
541	 0.142831696154597 
542	 0.143755834644091 
543	 0.144652098839054 
544	 0.14573180989709 
545	 0.146654340252612 
546	 0.147802369075571 
547	 0.149214794527221 
548	 0.150119742983377 
549	 0.150920249854544 
550	 0.151906973600516 
551	 0.153218455601704 
552	 0.1543443648178 
553	 0.155259503504632 
554	 0.15604096394067 
555	 0.156839272958477 
556	 0.157889559835989 
557	 0.158978326312366 
558	 0.1598651756093 
559	 0.160667995606918 
560	 0.161404148894393 
561	 0.162180003958257 
562	 0.163130245667633 
563	 0.16406146664172 
564	 0.164824613500504 
565	 0.165354565035113 
566	 0.16570212492482 
567	 0.166169317992472 
568	 0.166767642549274 
569	 0.167381871724934 
570	 0.168011102306857 
571	 0.168567081670993 
572	 0.169027208278548 
573	 0.169440094755761 
574	 0.170068282482609 
575	 0.170723184452172 
576	 0.17124440840789 
577	 0.171966403700233 
578	 0.172480520555932 
579	 0.17290085009975 
580	 0.173578390951686 
581	 0.173854021841767 
582	 0.174037476875833 
583	 0.174235222813333 
584	 0.17394972042092 
585	 0.173611153778212 
586	 0.17303919056302 
587	 0.171926211301778 
588	 0.170893261908564 
589	 0.17017651050557 
590	 0.170013587084478 
591	 0.170495758677976 
592	 0.170695437059485 
593	 0.170657056205651 
594	 0.170607551545061 
595	 0.170672022691058 
596	 0.170715483194174 
597	 0.170695961910191 
598	 0.170631585027712 
599	 0.170574328207859 
600	 0.170619551033216 
601	 0.170700773717734 
602	 0.170473697610307 
603	 0.170350183867384 
604	 0.170373460951581 
605	 0.170469138353358 
606	 0.170619645272528 
607	 0.170732849028769 
608	 0.170656601094016 
609	 0.170224452087542 
610	 0.170491377147165 
611	 0.170870604292687 
612	 0.170810638114578 
613	 0.170966253748703 
614	 0.171039442837653 
615	 0.170876746534789 
616	 0.170506167136372 
617	 0.17079343201513 
618	 0.170869885260668 
619	 0.170514410384812 
620	 0.170878996681976 
621	 0.170817150707613 
622	 0.170505929997216 
623	 0.170429862641201 
624	 0.170330441932941 
625	 0.17014325067997 
626	 0.169707449065951 
627	 0.168849047335339 
628	 0.16911338306654 
629	 0.169450432153071 
630	 0.169118558065431 
631	 0.169557354444062 
632	 0.169818756973103 
633	 0.169739749564833 
634	 0.169584948028979 
635	 0.169834070418317 
636	 0.170214686097796 
637	 0.170436758869203 
638	 0.170293069378499 
639	 0.170339492882141 
640	 0.170465952989408 
641	 0.170380917208439 
642	 0.169886648429604 
643	 0.169765335549012 
644	 0.169592173840248 
645	 0.167977888359523 
646	 0.16705365778171 
647	 0.166927472424091 
648	 0.167185153485201 
649	 0.167435556077769 
650	 0.167595993326364 
651	 0.167793711124089 
652	 0.168060283989615 
653	 0.167241891204413 
654	 0.166649409499471 
655	 0.166653705622551 
656	 0.166102225938608 
657	 0.16585555965137 
658	 0.165872689752539 
659	 0.165904267416437 
660	 0.165605634451208 
661	 0.165258925669308 
662	 0.164999304815447 
663	 0.164871538338762 
664	 0.164867288397632 
665	 0.164695086911042 
666	 0.164362775775946 
667	 0.164493155689063 
668	 0.164176958993498 
669	 0.163880998155451 
670	 0.164187351974263 
671	 0.163837952735233 
672	 0.16361246751139 
673	 0.163781019157726 
674	 0.164039558479813 
675	 0.164132148587443 
676	 0.164236338219979 
677	 0.164435236504977 
678	 0.164289992372471 
679	 0.164448264207636 
680	 0.164655476861813 
681	 0.164425302074736 
682	 0.16485644362675 
683	 0.165179379589805 
684	 0.164888268007422 
685	 0.163928584196217 
686	 0.163490388592619 
687	 0.163436455741561 
688	 0.163214240469726 
689	 0.163288480477041 
690	 0.163017447088479 
691	 0.162202767861454 
692	 0.160963702086914 
693	 0.160144316514982 
694	 0.160277078610883 
695	 0.161024684494193 
696	 0.161414290824523 
697	 0.160454806193474 
698	 0.158792845167251 
699	 0.157745008519718 
700	 0.157361760880029 
701	 0.157020862247667 
702	 0.156463229127045 
703	 0.155758598181811 
704	 0.155060368750743 
705	 0.154148274802618 
706	 0.15305968128569 
707	 0.152411864330835 
708	 0.151190983519842 
709	 0.149788180175728 
710	 0.14886893790153 
711	 0.147372819725384 
712	 0.145657454212926 
713	 0.143751279578499 
714	 0.141175854556509 
715	 0.137465492686015 
716	 0.13273729570324 
717	 0.128460719241429 
718	 0.124810762482181 
719	 0.123663253783551 
720	 0.12370413632825 
721	 0.123034135982068 
722	 0.120870094647815 
723	 0.117393156905926 
724	 0.113966385436992 
725	 0.112019609084729 
726	 0.110323441092388 
727	 0.108125243134353 
728	 0.105253377727106 
729	 0.102795585785329 
730	 9.97219641851046E-02 
731	 9.71849340246848E-02 
732	 9.59608459963527E-02 
733	 9.43213029386712E-02 
734	 9.25316782895156E-02 
735	 9.08653144075543E-02 
736	 0.089562529278771 
737	 8.89200068720718E-02 
738	 0.088555314379022 
739	 8.81389755941383E-02 
740	 8.78509819011563E-02 
741	 8.76247291235025E-02 
742	 8.76951163391633E-02 
743	 0.088245292533646 
744	 8.80199018591052E-02 
745	 8.75579837020781E-02 
746	 8.73493784706035E-02 
747	 8.75735037163631E-02 
748	 8.77361862015696E-02 
749	 8.76358394402266E-02 
750	 8.73491367128683E-02 
751	 8.75584849085015E-02 
752	 8.76839047243219E-02 
753	 8.75899488681618E-02 
754	 8.74111737469318E-02 
755	 8.72415545753301E-02 
756	 8.70701029153933E-02 
757	 8.68835983342418E-02 
758	 8.66430462750176E-02 
759	 8.54835699934496E-02 
760	 8.27900360350443E-02 
761	 8.15770133024372E-02 
762	 8.26727670298576E-02 
763	 8.35505271222298E-02 
764	 8.44277956673583E-02 
765	 8.59330760527906E-02 
766	 8.68010769456627E-02 
767	 8.72835397726949E-02 
768	 8.76901541448178E-02 
769	 8.83485347407868E-02 
770	 8.87710046096841E-02 
771	 8.89998211106661E-02 
772	 0.089202081764701 
773	 8.95979932516025E-02 
774	 8.98966029712582E-02 
775	 9.01811391414904E-02 
776	 9.06274329015263E-02 
777	 0.090893673670577 
778	 9.10960593486194E-02 
779	 9.14419843743394E-02 
780	 9.21399510200848E-02 
781	 0.092259614756708 
782	 9.24751537682649E-02 
783	 9.31496225951687E-02 
784	 9.31858305281109E-02 
785	 9.35482910940433E-02 
786	 9.39849942938873E-02 
787	 9.39285704488554E-02 
788	 9.38330018080024E-02 
789	 9.45793728840727E-02 
790	 9.58493274585215E-02 
791	 0.096449722660673 
792	 9.71620719145446E-02 
793	 0.097381714007942 
794	 9.70948674524963E-02 
795	 9.74937133723382E-02 
796	 9.83027135787207E-02 
797	 9.90921329404873E-02 
798	 0.099553805336425 
799	 9.97762709188874E-02 
800	 9.99893963753815E-02 
801	 0.100368395409888 
802	 0.100965368310472 
803	 0.101379633974433 
804	 0.101840458931799 
805	 0.102280819672974 
806	 0.102289512394256 
807	 0.102105604578666 
808	 0.101334413897832 
809	 9.99485182246821E-02 
810	 9.93710877020171E-02 
811	 9.91812638922279E-02 
812	 9.84757847029313E-02 
813	 9.62490302318265E-02 
814	 9.40553891958416E-02 
815	 9.32766041897081E-02 
816	 0.093507472632032 
817	 9.29284902406453E-02 
818	 9.30755878291316E-02 
819	 9.33508911349438E-02 
820	 9.29934038332536E-02 
821	 9.09981136659316E-02 
822	 8.87857044138287E-02 
823	 8.70229117973786E-02 
824	 8.57916022188911E-02 
825	 8.46127829043019E-02 
826	 8.21817898712805E-02 
827	 7.95332685447293E-02 
828	 7.83431126751957E-02 
829	 7.55056022859083E-02 
830	 7.36930737764949E-02 
831	 7.28489273342531E-02 
832	 7.12364439564392E-02 
833	 7.08187212102837E-02 
834	 7.02780792654866E-02 
835	 6.91859774414981E-02 
836	 0.06852319124257 
837	 0.068221898209048 
838	 6.81760141386832E-02 
839	 6.81310882190508E-02 
840	 6.75235075879514E-02 
841	 6.70500781355546E-02 
842	 6.68360713688069E-02 
843	 6.66445376535906E-02 
844	 6.55590089856507E-02 
845	 6.53181757162327E-02 
846	 6.59611037992485E-02 
847	 6.62821006025625E-02 
848	 6.53540346199905E-02 
849	 6.43527163410045E-02 
850	 6.39858699614019E-02 
851	 6.39225785705727E-02 
852	 6.33864818276369E-02 
853	 6.31427466319793E-02 
854	 0.063351081493326 
855	 6.22078919622106E-02 
856	 6.20331046590962E-02 
857	 6.24991224811688E-02 
858	 6.26472316603347E-02 
859	 6.20305530656494E-02 
860	 6.16871915354454E-02 
861	 6.15507237162951E-02 
862	 6.10689542621551E-02 
863	 6.05153042645651E-02 
864	 6.05573141841901E-02 
865	 6.08000382212846E-02 
866	 6.00599437318234E-02 
867	 0.059669302572272 
868	 5.96246763167672E-02 
869	 5.95305699675605E-02 
870	 5.87857823697769E-02 
871	 5.80364743645986E-02 
872	 5.75392037631716E-02 
873	 5.73245472332825E-02 
874	 5.71338764087102E-02 
875	 5.70290116468677E-02 
876	 5.65176501316539E-02 
877	 5.53862459319764E-02 
878	 0.055014186559561 
879	 5.40700965533866E-02 
880	 5.33634761568444E-02 
881	 5.40438481326027E-02 
882	 5.30139474342166E-02 
883	 5.21803461579192E-02 
884	 5.24296240059549E-02 
885	 5.33247397453494E-02 
886	 5.23188351941649E-02 
887	 5.19016354388522E-02 
888	 5.23841170625273E-02 
889	 5.10840724306446E-02 
890	 5.06477330099679E-02 
891	 0.050139325234245 
892	 4.90063848969403E-02 
893	 4.90302439628541E-02 
894	 4.87308548542024E-02 
895	 0.046900218141762 
896	 4.38835295592042E-02 
897	 4.53060372939184E-02 
898	 4.65336246235372E-02 
899	 4.64279151603014E-02 
900	 4.59024352256294E-02 
901	 4.64745518061176E-02 
902	 4.43338565809952E-02 
903	 4.25963197184808E-02 
904	 0.045120992131924 
905	 4.77051376962139E-02 
906	 4.55438143276049E-02 
907	 4.20918740124773E-02 
908	 4.60497110118652E-02 
909	 4.28873614335065E-02 
910	 4.16271028635685E-02 
911	 4.34898914407109E-02 
912	 4.09290696814299E-02 
913	 3.96914402882517E-02 
914	 4.04416662958001E-02 
915	 4.24002607137402E-02 
916	 4.37979460090429E-02 
917	 4.12164566087165E-02 
918	 4.09853473020408E-02 
919	 0.043157659892288 
920	 3.97511128795641E-02 
921	 3.81412751852543E-02 
922	 3.94483781994155E-02 
923	 4.11323824138492E-02 
924	 3.46019722004461E-02 
925	 3.17654549243025E-02 
926	 3.66227356251715E-02 
927	 4.43968498554201E-02 
928	 2.42319271546613E-02 
929	 4.02323241127963E-02 
930	 7.57148417739472E-02 
931	 4.54214246566341E-02 
932	 1.95657961372295E-02 
933	 2.32327882099967E-02 
934	 4.90495701253634E-02 
935	 5.82985106426334E-02 
936	 6.06006027498761E-02 
937	 7.71708446984435E-02 
938	 8.47925288637384E-02 
939	 6.29483234053631E-02 
940	 4.11911558350611E-02 
941	 4.05770888567894E-02 
942	 5.37863803388859E-02 
943	 5.87976272836151E-02 
944	 5.13986064267799E-02 
945	 6.08044831519603E-02 
946	 5.78414176231055E-02 
947	 1.21173690009449E-02 
948	 5.33486912248471E-02 
949	 5.23221797069627E-02 
950	 0.010619550142901 
951	 6.80233878986966E-03 
952	 1.37611291352791E-02 
953	 2.01082933159203E-02 
954	 2.35743291615418E-02 
955	 2.97307566774978E-02 
956	 5.75347338566842E-02 
957	 0.043028738614702 
958	 0.016207128968358 
959	 0.045076244415491 
960	 4.76589539572446E-02 
961	 3.68195571983757E-02 
962	 3.65653096970587E-02 
963	 5.80207320173852E-02 
964	 4.21410168597942E-02 
965	 2.55775862659355E-02 
966	 2.76869961084153E-02 
967	 4.40855489267546E-02 
968	 0.036902767972589 
969	 3.40635480587059E-02 
970	 3.90829296463824E-02 
971	 0.034348715159669 
972	 3.19188842253366E-02 
973	 0.031809304694534 
974	 3.27007014731644E-02 
975	 3.34590009578739E-02 
976	 0.037940470263274 
977	 3.92001407637389E-02 
978	 3.49604083911558E-02 
979	 2.92604957377764E-02 
980	 3.82357356273506E-02 
981	 3.89564848759774E-02 
982	 3.19554406301591E-02 
983	 3.46281911579364E-02 
984	 4.34577928298898E-02 
985	 3.95986811752039E-02 
986	 3.02838171342294E-02 
987	 3.74710555160649E-02 
988	 4.22351521202768E-02 
989	 3.82017027870844E-02 
990	 3.06151262450305E-02 
991	 3.12575606976489E-02 
992	 3.90819996314078E-02 
993	 3.90022736940978E-02 
994	 3.56194773066292E-02 
995	 4.28176997235289E-02 
996	 4.15880752362501E-02 
997	 3.78732566044214E-02 
998	 3.77768509652833E-02 
999	 4.23947612356529E-02 
1000	 3.34035186218746E-02 
1001	 3.71034831382809E-02 
1002	 3.87877044349924E-02 
1003	 3.87717212155181E-02 
1004	 3.72130676378307E-02 
1005	 3.72612518511579E-02 
1006	 3.81264228210255E-02 
1007	 3.69577764409826E-02 
1008	 3.71848297258868E-02 
1009	 3.90458153242019E-02 
1010	 3.79985934163327E-02 
1011	 3.91831801332683E-02 
1012	 4.07842196036018E-02 
1013	 3.78650133357595E-02 
1014	 3.65459739528191E-02 
1015	 3.44996327826921E-02 
1016	 3.24463303114136E-02 
1017	 3.08029441345504E-02 
1018	 2.95420515410614E-02 
1019	 0.026368642911541 
1020	 2.66860599142965E-02 
1021	 3.01228715840321E-02 
1022	 3.08802560918969E-02 
1023	 0.034421359058395 
1024	 3.61047189128596E-02 
1025	 3.70881679778098E-02 
1026	 3.65655700501308E-02 
1027	 3.58250624526427E-02 
1028	 3.44337097698651E-02 
1029	 3.38736723577084E-02 
1030	 0.032393994079135 
1031	 3.21653076091884E-02 
1032	 3.35260160199131E-02 
1033	 3.39396847518154E-02 
1034	 3.34793403009213E-02 
1035	 3.39364634524606E-02 
1036	 3.55329837030613E-02 
1037	 3.56054573115403E-02 
1038	 3.37784789872491E-02 
1039	 3.55223492235476E-02 
1040	 3.52182291561036E-02 
1041	 3.43548701505527E-02 
1042	 3.43863618164921E-02 
1043	 3.58574556567359E-02 
1044	 3.48270783456357E-02 
1045	 3.17338424583879E-02 
1046	 3.16641190627165E-02 
1047	 3.18162576759266E-02 
1048	 3.24023029979291E-02 
1049	 3.57750512168762E-02 
1050	 0.036977811836958 
1051	 3.64926597294575E-02 
1052	 3.67151097914357E-02 
1053	 0.037410424554273 
1054	 3.74613904031803E-02 
1055	 3.63964353782875E-02 
1056	 3.65021326829275E-02 
1057	 3.69264424576909E-02 
1058	 3.82373590016189E-02 
1059	 0.036852236896766 
1060	 3.44491474459166E-02 
1061	 3.34680647984809E-02 
1062	 2.98786491115037E-02 
1063	 2.98429411718016E-02 
1064	 3.46037952083368E-02 
1065	 3.54784009452218E-02 
1066	 3.45930071433992E-02 
1067	 3.52831019734232E-02 
1068	 3.68804519674739E-02 
1069	 3.61354295040103E-02 
1070	 3.39931710609356E-02 
1071	 3.35201203857648E-02 
1072	 3.23079354211226E-02 
1073	 2.96463813255037E-02 
1074	 3.03187946775608E-02 
1075	 3.55595293985855E-02 
1076	 3.62776273655189E-02 
1077	 3.54486926167915E-02 
1078	 3.56728725418734E-02 
1079	 3.51100007262287E-02 
1080	 3.42361107842729E-02 
1081	 3.36883121152706E-02 
1082	 3.30702639502779E-02 
1083	 3.06323773188925E-02 
1084	 3.01585152513858E-02 
1085	 3.23146956012718E-02 
1086	 3.29269532425572E-02 
1087	 3.39338966773293E-02 
1088	 3.35673831852818E-02 
1089	 3.09955087402423E-02 
1090	 2.83338561747605E-02 
1091	 2.84586535111805E-02 
1092	 3.04089785205794E-02 
1093	 3.06194279958888E-02 
1094	 0.033499201627285 
1095	 3.24497624891212E-02 
1096	 2.49121385050416E-02 
1097	 2.34035337452383E-02 
1098	 2.41664260993779E-02 
1099	 2.46035721945255E-02 
1100	 3.05468155131729E-02 
1101	 3.29559462533703E-02 
1102	 3.13540890848247E-02 
1103	 3.13893529314524E-02 
1104	 3.38204860602218E-02 
1105	 3.03284459361048E-02 
1106	 2.68309450198643E-02 
1107	 2.49952157789444E-02 
1108	 1.56625633304222E-02 
1109	 1.28122052532927E-02 
1110	 1.14652294453583E-02 
1111	 1.34604491453847E-02 
1112	 1.40823309705273E-02 
1113	 2.21037723738667E-02 
1114	 2.23430990029755E-02 
1115	 1.04641306775472E-02 
1116	 8.60969240797896E-03 
1117	 2.41810555161327E-02 
1118	 2.31483644022044E-02 
1119	 3.90552820220973E-03 
1120	-9.98996831229866E-03 
1121	-5.03256929076682E-02 
1122	-0.162642118960759 
1123	-0.11118315480697 
1124	 0.101829749909113 
1125	 9.22445427713202E-02 
1126	-7.09022142035062E-02 
1127	-0.160981866773149 
1128	-0.258228214081318 
1129	-0.223288481572147 
1130	 7.49902668087168E-02 
1131	 0.110184099998816 
1132	 0.044534170028681 
1133	 1.71964175801922E-02 
1134	-6.58702557092821E-02 
1135	-7.12487430814221E-02 
1136	 1.97949506696003E-02 
1137	 3.87434828995521E-02 
1138	 5.38300137585552E-02 
1139	 2.71240226120364E-02 
1140	 6.95809193644956E-02 
1141	 2.40565195910681E-02 
1142	-5.92483458997818E-02 
1143	 7.03622850875697E-03 
1144	 1.16799479058838E-02 
1145	-5.58008974031287E-02 
1146	 7.0433570450968E-03 
1147	 7.34208136018832E-02 
1148	 3.99896245478863E-02 
1149	 3.10548962745807E-02 
1150	 2.78811785823617E-02 
1151	-1.69386010498315E-02 
1152	-5.74069381543927E-03 
1153	 5.01354638988061E-02 
1154	 4.86665920253854E-02 
1155	 3.00948477608742E-02 
1156	 3.67352947936623E-02 
1157	 4.13200174826541E-02 
1158	 4.46308254235396E-02 
1159	 5.04260056986035E-02 
1160	 4.34900640116771E-02 
1161	 3.15364896116513E-02 
1162	 2.24126613935817E-02 
1163	 2.23753560109104E-02 
1164	 0.02920663857973 
1165	 3.45312625430409E-02 
1166	 3.40710323947274E-02 
1167	 0.031112620188884 
1168	 3.06164186911069E-02 
1169	 0.028854374674326 
1170	 2.54843756579047E-02 
1171	 2.63040900982128E-02 
1172	 3.36871106880383E-02 
1173	 3.53415110911211E-02 
1174	 3.47279392018057E-02 
1175	 3.60127944940137E-02 
1176	 3.80989174575652E-02 
1177	 3.44017079396418E-02 
1178	 0.030620282081199 
1179	 3.09209426289407E-02 
1180	 3.18385579418544E-02 
1181	 3.39646369569132E-02 
1182	 3.83830221840145E-02 
1183	 3.87579639942358E-02 
1184	 3.55441034881306E-02 
1185	 3.06005016045943E-02 
1186	 2.82934225702461E-02 
1187	 0.032574089778712 
1188	 3.51988197106908E-02 
1189	 3.52116457884342E-02 
1190	 3.38977577626641E-02 
1191	 3.13760969249916E-02 
1192	 3.00597963842563E-02 
1193	 2.98426743219913E-02 
1194	 2.97616181366662E-02 
1195	 2.84371117335888E-02 
1196	 2.61464056183387E-02 
1197	 2.50099384079016E-02 
1198	 2.86576370148428E-02 
1199	 3.20585177740703E-02 
1200	 3.32990218102599E-02 
1201	 0.038752500258734 
1202	 4.38700790338602E-02 
1203	 4.23619719085905E-02 
1204	 4.15412744451617E-02 
1205	 4.34502815681462E-02 
1206	 0.041064448986612 
1207	 3.93281329646623E-02 
1208	 4.03647956876234E-02 
1209	 0.03638661894273 
1210	 3.27682186326726E-02 
1211	 3.35548571790204E-02 
1212	 3.34326592822452E-02 
1213	 3.22144884710139E-02 
1214	 3.30164814944585E-02 
1215	 3.42663380465087E-02 
1216	 3.39254827289251E-02 
1217	 3.37403023757531E-02 
1218	 3.62074224669704E-02 
1219	 3.34134479490061E-02 
1220	 3.08680781388504E-02 
1221	 3.46178306637536E-02 
1222	 3.57115380942592E-02 
1223	 3.48456071806979E-02 
1224	 3.57690071948259E-02 
1225	 3.48337301123534E-02 
1226	 3.39644749065026E-02 
1227	 3.49083678380482E-02 
1228	 3.54357606284136E-02 
1229	 3.56230349454415E-02 
1230	 3.47847984228169E-02 
1231	 3.37867758420716E-02 
1232	 3.52567691827227E-02 
1233	 3.66989178102248E-02 
1234	 3.59532712318311E-02 
1235	 3.60830684472535E-02 
1236	 3.78432428596818E-02 
1237	 3.70325737479283E-02 
1238	 3.37705380437172E-02 
1239	 3.35432762531961E-02 
1240	 0.035038216613896 
1241	 0.03429003980436 
1242	 3.43379899226933E-02 
1243	 3.72060323129876E-02 
1244	 3.80484728370623E-02 
1245	 0.03616016412413 
1246	 3.43944139538563E-02 
1247	 3.41738029861017E-02 
1248	 3.38266358516719E-02 
1249	 3.35901444874785E-02 
1250	 3.36995094452405E-02 
1251	 3.26547324395363E-02 
1252	 3.17749989365553E-02 
1253	 3.12952435084703E-02 
1254	 3.29462322700729E-02 
1255	 0.034160901290705 
1256	 3.46803650314873E-02 
1257	 3.42102171184904E-02 
1258	 3.37220814423842E-02 
1259	 3.17993281872499E-02 
1260	 3.14593494537609E-02 
1261	 3.21446961231518E-02 
1262	 3.18057712786439E-02 
1263	 3.20816735263609E-02 
1264	 0.031438057208853 
1265	 3.31279340143764E-02 
1266	 3.29012323789357E-02 
1267	 3.05309978912836E-02 
1268	 3.32113299650111E-02 
1269	 3.46264304943563E-02 
1270	 3.28023224762598E-02 
1271	 3.43240697813384E-02 
1272	 3.56759305518684E-02 
1273	 3.54682790821775E-02 
1274	 3.60123570789131E-02 
1275	 3.46550896584083E-02 
1276	 3.26845353728101E-02 
1277	 3.34437059502442E-02 
1278	 3.40696739777316E-02 
1279	 3.19814595465529E-02 
1280	 0.030520365858365 
1281	 3.14148551220433E-02 
1282	 3.33725866695275E-02 
1283	 3.21887792017069E-02 
1284	 3.16631537431527E-02 
1285	 3.27482991904772E-02 
1286	 3.04559900886065E-02 
1287	 2.96125318978875E-02 
1288	 3.41623569359058E-02 
1289	 3.60617407700699E-02 
1290	 0.036498640382832 
1291	 3.39287158639167E-02 
1292	 3.40966931784232E-02 
1293	 3.33580761022987E-02 
1294	 3.15518485270356E-02 
1295	 3.09408500297054E-02 
1296	 3.01328822223555E-02 
1297	 2.90476273572686E-02 
1298	 2.77793097089041E-02 
1299	 3.07179708578614E-02 
1300	 0.032992088637767 
1301	 3.03119025130993E-02 
1302	 3.31288015986201E-02 
1303	 3.26931769140023E-02 
1304	 2.82911243569678E-02 
1305	 3.39265969244998E-02 
1306	 3.46778414948742E-02 
1307	 2.80892553952061E-02 
1308	 2.55986580610986E-02 
1309	 0.027953180584733 
1310	 0.026816038310915 
1311	 2.07990366668698E-02 
1312	 2.02472328734177E-02 
1313	 0.027724518963733 
1314	 2.47544465339735E-02 
1315	 1.60669294551543E-02 
1316	 0.012585990729836 
1317	-3.28837850725361E-03 
1318	-4.15297459262273E-03 
1319	 1.66858381315062E-02 
1320	 2.28460248784618E-02 
1321	 2.60413712149237E-02 
1322	 4.13121719510587E-02 
1323	 3.84090027386332E-02 
1324	 2.72869435950603E-02 
1325	 3.82465925358866E-02 
1326	 4.60627407375996E-02 
1327	 0.024705393279036 
1328	 3.25702861039457E-02 
1329	 6.18204974577766E-02 
1330	 0.055984144249562 
1331	 0.068793255918055 
1332	 0.102589669510013 
1333	 0.115554214711265 
1334	 9.10376179940283E-02 
1335	 8.53469013047734E-02 
1336	 0.117818151246571 
1337	 0.107325427274606 
1338	 3.37769238877997E-02 
1339	 1.84077231383244E-02 
1340	 2.18698198783967E-02 
1341	 1.54393848358656E-02 
1342	 3.72174464139958E-02 
1343	 6.67237450731373E-02 
1344	 0.133595651607684 
1345	 0.130730317542213 
1346	 4.35231515461945E-02 
1347	 9.20259312692075E-02 
1348	 0.251359688300809 
1349	 0.226616840885077 
1350	 0.180781081755143 
1351	 0.283592408218635 
1352	 0.15568322843902 
1353	 4.34940679701326E-02 
1354	 0.13648228651502 
1355	 1.14025351726013 
1356	 13.6749475796869 
1357	 3.27133516326989 
1358	 7.65692106351786 
1359	-8.28993620187386 
1360	 1.95614632442043 
1361	-0.323143279140834 
1362	-0.530331050357009 
1363	-0.231507219825734 
1364	 0.244349491501003 
1365	 0.202989161457222 
1366	 2.06650165525295 
1367	 15.8358520042786 
1368	-8.23426240920238 
1369	-0.99732183516916 
1370	-0.731398665544551 
1371	 5.23217783695999E-02 
1372	-0.348497359172631 
1373	 4.25004246018954 
1374	 37.7629264718526 
1375	-4.24628990661423 
1376	-23.5023868961383 
1377	 0.434361783387479 
1378	-0.302680526539722 
1379	-0.145083021516309 
1380	-6.29301053915267E-02 
1381	 3.20560976593407 
1382	 6.48718673587607 
1383	 1.60593853029494 
1384	 1.38769554934045 
1385	 1.20950823566805 
1386	 1.37462647982708 
1387	 5.73830342090753 
1388	 9.94406290676194 
1389	 1.37013490961122 
1390	 1.8279001818018 
1391	 8.86086296503096 
1392	 2.32600523711348 
1393	-0.111595513683412 
1394	 7.83172389651498E-02 
1395	-0.038752517198831 
1396	 0.325062758295569 
1397	 0.485861074721659 
1398	 0.470049551322666 
1399	 1.40277913891385 
1400	 0.273663379383281 
1401	 3.29454912670562E-02 
1402	 0.141662004155171 
1403	 0.120660733926738 
1404	 0.319635540870099 
1405	 0.883693995365864 
1406	-4.08249811419552 
1407	-4.64725636124944 
1408	 2.42365125486315 
1409	 1.64980461750923 
1410	 0.565359420351076 
1411	 0.945484480572175 
1412	 1.80601134072528 
1413	 3.90257885573336 
1414	-1.32407025350928 
1415	-3.69913010702059 
1416	 3.9417092239377 
1417	 2.01840934974152 
1418	 0.8727327005953 
1419	 0.729684089505195 
1420	 0.344747323081971 
1421	 0.372872983330894 
1422	 2.11595143719309 
1423	 4.51687390464982 
1424	-3.90128931046066 
1425	-2.52292516113395 
1426	 5.7584146766449 
1427	 0.988453033124842 
1428	 0.591605702013788 
1429	 0.572958401178361 
1430	 2.09703948944024 
1431	 2.40168847563884 
1432	 2.87728048285832 
1433	 2.11785985783104 
1434	 0.141412039179693 
1435	 8.04386984113819E-04 
1436	 0.690465779804396 
1437	 3.72048294410266 
1438	 0.171057697208768 
1439	 0.112720134016719 
1440	 18.4589767972279 
1441	-6.50448777735405 
1442	-0.509899891113039 
1443	 0.939868246243812 
1444	 1.03128000465479 
1445	-3.76818949596081E-02 
1446	 0.314080535993846 
1447	 2.55110961257357 
1448	 0.525409994858791 
1449	-1.35486108662428 
1450	-0.376681573071615 
1451	-1.17197362672212 
1452	 8.18681348654055 
1453	 1.39067291984477 
1454	 1.97547034021105 
1455	 313.927001391053 
1456	 4.212857621302 
1457	 1.95947451600556 
1458	 1.85082778425764 
1459	 0.973702720628001 
1460	 0.380248252270914 
1461	 2.13843194903864E-02 
1462	 1.87642766382277E-02 
1463	 0.863848821857736 
1464	 0.579924828191133 
1465	 1.18269530838498 
1466	 2.94498816452643 
1467	 0.1442216987794 
1468	 4.98422273269593E-02 
1469	-0.39378181326586 
1470	-0.197508041506651 
1471	 6.81394208742259 
1472	 0.593141243255003 
1473	 142.059566028522 
1474	-3.78123239820851 
1475	-0.512072800787432 
1476	-0.30641795655934 
1477	 0.439557211432138 
1478	 0.792425267028358 
1479	 2.15578232776977 
1480	-111.03682688305 
1481	 101.210137587292 
1482	-14.8633157959305 
1483	-3.3630303435357 
1484	-0.826683755409366 
1485	-1.0500724476032 
1486	-0.666717017225767 
1487	-0.341591230993899 
1488	-0.300564617837511 
1489	-0.312295133415894 
1490	 0.144319754340144 
1491	 0.628285974088925 
1492	 0.752632909179344 
1493	 0.4782583156966 
1494	 0.431876138905617 
1495	 0.561484478198598 
1496	 0.44293295451457 
1497	 0.225688048501195 
1498	 0.190962093046703 
1499	 0.160787188847407 
1500	 0.129746978185557 
1501	 0.126550514042795 
1502	 0.166811374667109 
1503	 0.276016380695459 
1504	 0.234378188646323 
1505	 0.105086549290716 
1506	 0.155003261228237 
1507	 6.45538787126069E-03 
1508	-3.85707380289689E-02 
1509	-1.26900462504406E-02 
1510	-5.67527191863558E-02 
1511	-4.03173673928237E-03 
1512	-3.83815574183689E-04 
1513	-1.07010600706159E-02 
1514	 9.37615620782704E-02 
1515	 0.113721566395814 
1516	 7.03867554783264E-02 
1517	 7.87519216717677E-02 
1518	 4.92275599309175E-02 
1519	-3.86165586464425E-02 
1520	-6.44878001552962E-02 
1521	 2.53948884310348E-02 
1522	 0.06876741090983 
1523	 4.34023507738108E-02 
1524	 9.25728360047001E-02 
1525	 0.141651208822855 
1526	 0.112457773555791 
1527	 7.37017367164763E-02 
1528	 0.070965051984857 
1529	 4.80365099680912E-02 
1530	-2.45115483775045E-04 
1531	 4.20986005994398E-03 
1532	 4.15786513575614E-02 
1533	 4.66017910384396E-02 
1534	 2.33426228674186E-02 
1535	 8.07663299196504E-03 
1536	 2.48529344906311E-02 
1537	 4.21813400136685E-02 
1538	 5.02584948949912E-02 
1539	 7.04881842739719E-02 
1540	 9.86562469116204E-02 
1541	 0.104978044045084 
1542	 5.08187733328404E-02 
1543	 1.91437834627201E-02 
1544	 4.41717334615509E-02 
1545	 0.067418457580841 
1546	 7.31883098315556E-02 
1547	 7.40996325744246E-02 
1548	 0.06885577739516 
1549	 0.063648452620144 
1550	 0.067119151069554 
1551	 7.41829456805644E-02 
1552	 0.071954743127779 
1553	 5.48303835649163E-02 
1554	 4.24659135001099E-02 
1555	 3.81851376351328E-02 
1556	 3.31663151352531E-02 
1557	 3.54937501956067E-02 
1558	 3.25629920915959E-02 
1559	 1.59552087984336E-02 
1560	 1.27813926571758E-02 
1561	 2.49400443996072E-02 
1562	 0.016686836712674 
1563	 9.80879327477883E-03 
1564	 2.65724303516126E-02 
1565	 3.35974121128951E-02 
1566	 2.97273018783038E-02 
1567	 4.36152656753086E-02 
1568	 4.77396585361863E-02 
1569	 0.032050328430361 
1570	 3.58299275437759E-02 
1571	 6.96392755954791E-02 
1572	 0.086772984693377 
1573	 4.89373898468422E-02 
1574	 5.09013354717714E-02 
1575	 7.73239853964237E-02 
1576	 5.05597063414272E-02 
1577	 5.44552951838644E-02 
1578	 8.04770053044883E-02 
1579	 0.067375650053809 
1580	 5.94199513396439E-02 
1581	 6.42812244565273E-02 
1582	 5.15662102412823E-02 
1583	 3.90127169041848E-02 
1584	 3.03635371811094E-02 
1585	 3.01227977337528E-02 
1586	 3.42156060740698E-02 
1587	 7.87892438646733E-03 
1588	-2.12079782351618E-03 
1589	 2.42127407627631E-02 
1590	 2.24829159609339E-02 
1591	 1.51788611592327E-02 
1592	 3.16351505207019E-02 
1593	 3.58858437407918E-02 
1594	 2.37860499855352E-02 
1595	 2.10745461295453E-02 
1596	 3.04576448630984E-02 
1597	 2.97993954120745E-02 
1598	 3.67410105789044E-02 
1599	 4.86842336887702E-02 
1600	 4.91578159536808E-02 
1601	 4.23673263213891E-02 
1602	 2.70655001040521E-02 
1603	 3.32130411469081E-02 
1604	 4.41212194986156E-02 
1605	 3.70568784279001E-02 
1606	 4.32739679226647E-02 
1607	 4.68153985187003E-02 
1608	 3.90040278600683E-02 
1609	 3.66977030692658E-02 
1610	 3.71580684181803E-02 
1611	 4.55697048848282E-02 
1612	 4.65351592575285E-02 
1613	 3.30223704989318E-02 
1614	 4.30327354438495E-02 
1615	 0.054717877357102 
1616	 4.17916251713377E-02 
1617	 5.30278325722429E-02 
1618	 5.68967480161955E-02 
1619	 0.024317005826657 
1620	 1.84082846761484E-02 
1621	 2.91289259528772E-02 
1622	 1.70142760055597E-02 
1623	 1.00243531455191E-02 
1624	 3.09480482762489E-02 
1625	 4.19366081455618E-02 
1626	 4.38055042416906E-02 
1627	 6.68421762820343E-02 
1628	 7.16562134595404E-02 
1629	 5.19030275170108E-02 
1630	 4.36245195545429E-02 
1631	 4.62641173378589E-02 
1632	 0.04197346643796 
1633	 0.034542096753201 
1634	 4.04323647862595E-02 
1635	 4.53201568865706E-02 
1636	 4.46059619019958E-02 
1637	 5.06589609255339E-02 
1638	 5.81431081473883E-02 
1639	 5.36420201615761E-02 
1640	 5.11889311228457E-02 
1641	 6.03074744332167E-02 
1642	 4.95091998100593E-02 
1643	 2.51663320060694E-02 
1644	 1.85302791968454E-02 
1645	 2.12556187273639E-02 
1646	 2.39339303958539E-02 
1647	 3.59244568792362E-02 
1648	 4.54143293157084E-02 
1649	 3.49344200617792E-02 
1650	 2.91971902574971E-02 
1651	 0.045399054701952 
1652	 4.85195509479135E-02 
1653	 3.24562202128418E-02 
1654	 3.73183273550154E-02 
1655	 4.77492271913129E-02 
1656	 4.33264326874387E-02 
1657	 4.40724938491655E-02 
1658	 4.76937511798502E-02 
1659	 3.87313260115953E-02 
1660	 3.62191634629274E-02 
1661	 4.63747675231655E-02 
1662	 4.13055876744755E-02 
1663	 1.67796399794203E-02 
1664	 2.00613047172061E-02 
1665	 4.60107094009448E-02 
1666	 4.75166959485876E-02 
1667	 4.16653634256712E-02 
1668	 4.51575691352325E-02 
1669	 0.051855951764246 
1670	 4.35577343303356E-02 
1671	 4.44060268579757E-02 
1672	 5.22074554621699E-02 
1673	 3.63864621123338E-02 
1674	 0.029933884979495 
1675	 4.60155557612331E-02 
1676	 4.99853687410847E-02 
1677	 3.72824600328262E-02 
1678	 3.90821792022114E-02 
1679	 4.30082230899939E-02 
1680	 2.49195070572793E-02 
1681	 1.32203673543647E-02 
1682	 0.021268610919844 
1683	 3.29208705292899E-02 
1684	 3.06918095461047E-02 
1685	 2.22453146267089E-02 
1686	 2.61097534944357E-02 
1687	 3.38009230054927E-02 
1688	 4.37384824594259E-02 
1689	 5.37556862089854E-02 
1690	 5.01845792778143E-02 
1691	 3.82296476347297E-02 
1692	 2.99216050493833E-02 
1693	 0.03281637992501 
1694	 0.03438042411354 
1695	 2.18134577783653E-02 
1696	 2.27334378133468E-02 
1697	 4.57344760908281E-02 
1698	 5.79463136191694E-02 
1699	 5.21655297899921E-02 
1700	 5.02515071221524E-02 
1701	 4.15739827447121E-02 
1702	 2.68628367818677E-02 
1703	 3.27941453541795E-02 
1704	 4.10877487056437E-02 
1705	 3.44379561905737E-02 
1706	 2.96404732443483E-02 
1707	 2.85803157214997E-02 
1708	 2.25560106982099E-02 
1709	 2.55447769247068E-02 
1710	 4.30020234504055E-02 
1711	 0.036421227406199 
1712	 1.30605713490204E-02 
1713	-1.58326579998458E-02 
1714	-1.66190798909333E-02 
1715	 2.77130772849446E-02 
1716	 2.89694174618907E-02 
1717	 2.67873938929918E-02 
1718	 0.010305788943654 
1719	-1.16719887475123E-03 
1720	-1.90946830781696E-04 
1721	 1.05775174616931E-02 
1722	 3.43057357953001E-02 
1723	 2.92259750962819E-02 
1724	 3.36844262246717E-02 
1725	 7.16241622268636E-02 
1726	 7.09673481137964E-02 
1727	 6.10045888842971E-02 
1728	 0.08299080120352 
1729	 5.68152776371181E-02 
1730	 3.56535384592703E-02 
1731	 6.80177672087941E-02 
1732	 4.06458643926021E-02 
1733	 1.64807240805226E-02 
1734	 5.79076109270726E-02 
1735	 5.04803075261097E-02 
1736	 3.78546219265171E-02 
1737	 6.04915263412739E-02 
1738	 2.90525908579642E-02 
1739	-1.17500993098008E-02 
1740	 4.68584794037447E-03 
1741	 1.41478306213135E-02 
1742	-1.61255393393105E-03 
1743	 2.07238422039197E-02 
1744	 0.048982383111417 
1745	 3.66351572802072E-02 
1746	 5.72170917937266E-02 
1747	 5.90926240442945E-02 
1748	 3.47852884237619E-02 
1749	 4.54597642324303E-02 
1750	 0.060753705791922 
1751	 6.92262266118497E-02 
1752	 0.116918006224077 
1753	 0.121087727407451 
1754	 8.42256105405061E-02 
1755	 7.32616576704568E-02 
1756	 4.63275739198445E-02 
1757	-5.35795112009883E-03 
1758	 2.48906493562228E-02 
1759	 2.98125681211446E-02 
1760	-2.666607003124E-04 
1761	 2.63443278161915E-02 
1762	 4.36445051261048E-02 
1763	 3.30059936379667E-02 
1764	 2.43651737357417E-02 
1765	 2.18501337736293E-02 
1766	 2.29486733872556E-03 
1767	-5.63867970686326E-03 
1768	 4.35054629038918E-02 
1769	 9.17399373705576E-02 
1770	 0.119226653277343 
1771	 0.14712936366083 
1772	 0.143113073634083 
1773	 3.07771757693544E-02 
1774	-4.06518038377539E-02 
1775	-5.20999980496474E-02 
1776	-0.087900574104516 
1777	-0.096813809456681 
1778	-8.40085099967866E-02 
1779	-6.29340220871778E-02 
1780	-1.39163630263926E-02 
1781	 0.153454527968507 
1782	 0.185063994163523 
1783	 5.95194546680575E-02 
1784	 4.89165634811706E-02 
1785	 5.34914103316315E-02 
1786	 4.44095401299789E-02 
1787	 9.61777081514589E-02 
1788	 5.86574781659525E-02 
1789	-3.52399904454552E-02 
1790	 3.55251216375234E-02 
1791	 0.121576088413259 
1792	 0.155334529952125 
1793	 0.106143661080846 
1794	-0.172950275849242 
1795	-0.544480231575304 
1796	-0.376028262081419 
1797	-0.112661525954745 
1798	-1.20831979689519 
1799	-6.28002306254662 
1800	 0.294109669537929 
1801	 0.364248281456792 
1802	 0.604447233889019 
1803	 0.708440406183193 
1804	 0.694419763185169 
1805	 0.13377815205546 
1806	-4.77352994282049 
1807	-91.388212733729 
1808	-0.793346567506684 
1809	-1.22280443567342 
1810	 0.593033814097834 
1811	 0.375382470741271 
1812	 0.485040496046485 
1813	 0.652028035387843 
1814	-0.428349950776009 
1815	-7.70231089628859E-02 
1816	 0.205430175594419 
1817	 1.74579611814002E-02 
1818	-0.303241837634085 
1819	-1.44969379882682 
1820	 16.2329713056636 
1821	-0.51196225230121 
1822	-0.134886674123954 
1823	-0.395827685828406 
1824	-0.820199108325646 
1825	 1.52495504613551 
1826	 1.19567402368425 
1827	 0.469189981276714 
1828	 0.141656867931121 
1829	 0.716584533910222 
1830	 0.582148411076813 
1831	 0.637688117596901 
1832	 1.01734663381128 
1833	-1.18354360558048 
1834	-0.835144814538597 
1835	 1.43529970164002 
1836	 12.1926685861096 
1837	 7.91926661277314E-02 
1838	 0.204033148062743 
1839	 0.548631632649307 
1840	-23.6951476978628 
1841	-3.22504014327964 
1842	-2.54056518994861 
1843	-2.45998486299898 
1844	-10.8997516806865 
1845	-14.6236381726756 
1846	-2.1385422573769 
1847	-1.57976253919178 
1848	-1.69846272419942 
1849	-1.09412477421029 
1850	 0.108869887575095 
1851	 5.34881871979573 
1852	-4.29554683326263 
1853	-0.800152502982743 
1854	-0.655214656975447 
1855	-0.668846211632161 
1856	-0.520406395798017 
1857	-0.395050142562002 
1858	-0.420041929112892 
1859	-0.627489697489997 
1860	-0.426249602092605 
1861	-0.528068941145292 
1862	-0.725943489518707 
1863	-8.32724374266856E-02 
1864	 2.68693112126638E-02 
1865	 7.14464632644964E-02 
1866	 0.265796888826592 
1867	 0.258243119813406 
1868	-1.65156725407833 
1869	 3.64250921764337 
1870	 0.946127525280985 
1871	 0.873657017252828 
1872	 1.02258606008363 
1873	 2.28586499242794 
1874	-3.39943124709962 
1875	-2.243737779771 
1876	-1.89961380851886 
1877	-1.83661234935809 
1878	-1.6290340819787 
1879	-2.02396404834232 
1880	-1.78723825016738 
1881	-1.45649801840781 
1882	 0.891091949326776 
1883	 6.25656737709615 
1884	-4.9526780912539 
1885	-2.71877131372221 
1886	-1.40909661640971 
1887	-0.296735401518261 
1888	-0.499991800434453 
1889	-0.474055560024936 
1890	-3.14270708525429E-02 
1891	 1.15807154544235E-02 
1892	 5.07229779767514E-02 
1893	-0.128980931029014 
1894	-0.650497142884805 
1895	 0.450304487729046 
1896	 2.36655572691019E-02 
1897	-0.245017325102063 
1898	-0.397476258937161 
1899	-0.421779602396623 
1900	-0.326793063358808 
1901	 3.19665890089759E-02 
1902	 0.268018144106756 
1903	 0.57689675769908 
1904	 0.701461570638368 
1905	 0.825927526495081 
1906	-2.03236060181825 
1907	-0.466108594846666 
1908	-0.531189995977502 
1909	-0.533764730791206 
1910	-0.469742504852401 
1911	-1.365941938583 
1912	 1.25304757549937 
1913	 0.390165086485044 
1914	 0.659664828427091 
1915	 0.380832669817674 
1916	-0.411166475875413 
1917	-1.41963692166023 
1918	-11.0510092178414 
1919	-41.5650464460628 
1920	 2.67565446213681 
1921	 4.96151107935974 
1922	 2.33883669842005 
1923	 2.16842426914034 
1924	 1.31130926105789 
1925	 1.20576296857288 
1926	 1.15624541531555 
1927	 1.2486815859061 
1928	 1.03198420874203 
1929	 1.62116084706718 
1930	 3.9947814487183 
1931	-3.93127472128842E-02 
1932	-0.164926507546906 
1933	-0.22941957141793 
1934	-0.580566075963018 
1935	 5.05669201284608 
1936	 1.35517463098463 
1937	 0.687441430337918 
1938	 0.360840018824668 
1939	 0.037914536324651 
1940	-0.689524505052017 
1941	-1.27898631887263 
1942	-1.32290811449674 
1943	-1.71696224007353 
1944	-2.69087701457563 
1945	-2.99116201173958 
1946	-3.80014215986618 
1947	-3.78629171472071 
1948	-2.13083609311877 
1949	-0.676436055168888 
1950	 0.205197998795179 
1951	-3.87690274887067 
1952	-2.89143695012495 
1953	-2.39218940551553 
1954	-1.28055384451473 
1955	-1.29790745765821 
1956	-1.44358582935318 
1957	-0.36579583859785 
1958	 0.984355664191324 
1959	-5.70787236897528 
1960	-3.39366427271665 
1961	-1.9811251379018 
1962	-1.00092253330058 
1963	-1.54441741500515 
1964	-1.71088918126651 
1965	 0.761002914822015 
1966	 1.49843318027473 
1967	 2.02128371216724 
1968	 0.102220528200563 
1969	 0.236625169221649 
1970	 3.89518678974335 
1971	 0.357642652230697 
1972	 2.4277529068869 
1973	 1.48844765426665 
1974	 2.53113359892628 
1975	 6.67099518775133 
1976	 1.94482162738984 
1977	 2.58161814087324 
1978	-1.20856625532474 
1979	-1.04122222941601 
1980	-0.697344191499976 
1981	-1.91261240403513 
1982	 1.39603004558016 
1983	 1.54138768783393 
1984	 2.07005479293609 
1985	 0.856230823797854 
1986	-0.135712729715956 
1987	-1.71913282841439E-02 
1988	-0.661206184438488 
1989	-0.886362517842738 
1990	-0.32272003597379 
1991	-0.207054936999393 
1992	-3.60245676066991E-02 
1993	 0.11103982709674 
1994	 0.165866163859387 
1995	-0.113100270071111 
1996	-1.3606942752531 
1997	 91.5911362731337 
1998	 2.05118813789848 
1999	 1.49573779270524 
2000	 1.26110425741972 
2001	 0.363288630096317 
2002	-0.239346291377779 
2003	-0.605381010361725 
2004	-0.92241578681978 
2005	-8.95187073363025 
2006	 31.4668359804282 
2007	 1.58693916368496 
2008	-20.5421348551959 
2009	 12.0383008423509 
2010	 1.46070455990834 
2011	 1.56715167529946 
2012	 1.0689423539803 
2013	-0.713806957402654 
2014	-0.25735616484789 
2015	-0.618759721756114 
2016	-0.541197146145145 
2017	-0.261745906411059 
2018	-0.127021345429188 
2019	-0.255422167669385 
2020	-0.778160746345697 
2021	 1.19508743674043 
2022	-5.04704392616419E-02 
2023	-6.15181996764251E-02 
2024	-0.272240759732994 
2025	-0.536584762331059 
2026	-0.862777093227031 
2027	-4.640049213025 
2028	 2.51587379755898 
2029	 0.853699199786289 
2030	 0.854068419646167 
2031	-5.50958151547161 
2032	 0.530578258206111 
2033	 0.249163597593625 
2034	 0.196045279508188 
2035	-0.209701490767237 
2036	-3.71139203251439 
2037	-2.16005147813306 
2038	-0.510804583122714 
2039	-0.573120386440591 
2040	-0.741220811883764 
2041	-0.648293624224241 
2042	-1.00610431632777 
2043	-0.851400268784382 
2044	-0.522959817577371 
2045	-0.524631461207462 
2046	-0.371860967038685 
2047	-0.434557891356533 
2048	-1.40662401789502 
2049	 1.24011284586637 
2050	 1.0959500588091 
2051	-10.1350698328683 
2052	 0.599624800996118 
2053	 1.29230569788601 
2054	 1.50807161025838 
2055	 2.11845906059243 
2056	 2.36376659000028 
2057	 3.71718968521664 
2058	 3.04552451960018 
2059	 1.34943340618775 
2060	 0.988729774742361 
2061	 0.758494570120498 
2062	 0.227558195141326 
2063	 5.15284521056568E-02 
2064	 0.622954423748925 
2065	 0.555682741737267 
2066	 0.55610745365289 
2067	 0.140459197515574 
2068	-0.116140862353481 
2069	-0.148657352849347 
2070	-0.328041940724948 
2071	-0.272485366832592 
2072	-0.375221652331965 
2073	-0.434363722799127 
2074	-1.16725389162491 
2075	-1.47809207787842 
2076	-1.16634000801997 
2077	-0.692940809081733 
2078	-0.129408768271634 
2079	-0.104688674816742 
2080	-5.04900587292285E-02 
2081	 0.163352641509869 
2082	 1.28491575617924 
2083	-0.684716510670867 
2084	 0.167143576664568 
2085	 0.506503734876928 
2086	 0.321993602881125 
2087	 0.400141429865687 
2088	 0.719065418386857 
2089	-0.856670364734667 
2090	-0.402004409029781 
2091	-0.766721237621262 
2092	 0.190400779972606 
2093	-7.8888292012335 
2094	-2.64347237721867 
2095	-1.47159712722658 
2096	-1.42670087268614 
2097	-0.657072027033878 
2098	-0.326110072669961 
2099	-0.355784999691304 
2100	-2.04048718557887 
2101	-0.70925347751601 
2102	-0.771106333796134 
2103	-0.290102345877154 
2104	 1.97507968986406E-03 
2105	 0.115635129319764 
2106	 0.290320862268239 
2107	 0.219092024707799 
2108	 0.171016175474014 
2109	 0.101738810017459 
2110	 0.086605865597891 
2111	 0.469341440810778 
2112	 0.625454703569781 
2113	 0.431841056509263 
2114	 4.90620369161755E-02 
2115	 1.72492785306386E-02 
2116	 1.80028348465596E-02 
2117	 2.05911266446091E-02 
2118	 7.27368080144587E-02 
2119	 4.98818047701421E-02 
2120	-2.30090175551636E-03 
2121	-0.131861935745713 
2122	-0.343241365573433 
2123	-0.338896842086529 
2124	-0.295285157297068 
2125	-0.38722543249404 
2126	-0.204233232763448 
2127	 1.51455052689022E-03 
2128	 2.50139996886854E-02 
2129	 0.226938419935932 
2130	 0.322581993311716 
2131	 0.308220836970637 
2132	 0.290544530113068 
2133	 0.280754593004536 
2134	 0.175271674907814 
2135	-5.70819541072982E-02 
2136	-0.197910170182748 
2137	-0.498821291919453 
2138	-0.537644641378297 
2139	-0.399524262050141 
2140	-0.32922653450323 
2141	-9.62480510676954E-03 
2142	 0.155605616494008 
2143	 0.229828237990151 
2144	 0.205363624133393 
2145	 0.266163591801659 
2146	 0.118931734674918 
2147	-0.129415410051502 
2148	-0.183650287977834 
2149	-0.128074639503468 
2150	-0.106660079576043 
2151	-4.60448250889981E-02 
2152	 8.17146146404138E-02 
2153	 0.109050197256979 
2154	 9.30368292809554E-02 
2155	 0.081773891195276 
2156	 4.76002578257372E-02 
2157	 0.124362623887093 
2158	 0.278878849545714 
2159	 0.277696550060328 
2160	 0.26859707311176 
2161	 0.244630336261373 
2162	 9.11322189314687E-02 
2163	 9.71986647216759E-03 
2164	 9.54136074695508E-02 
2165	 2.59942758951197E-02 
2166	-0.147686964677658 
2167	-0.216359418682235 
2168	-0.397182085664911 
2169	-0.44993969160638 
2170	-0.400581108823561 
2171	-0.369288265454769 
2172	-0.206458228883881 
2173	 5.19178527154805E-02 
2174	 6.97081386928508E-02 
2175	 0.247289782601539 
2176	 0.303800277560766 
2177	 7.85583991454423E-02 
2178	 8.29427835709417E-02 
2179	 2.99452739469762E-02 
2180	-0.144381960535882 
2181	-0.153234533815092 
2182	-0.338242394182271 
2183	-0.455301611841837 
2184	-0.27598877140574 
2185	-0.292689788763285 
2186	-0.309155806140212 
2187	-0.305646731316308 
2188	-0.239447794310172 
2189	-0.219019455133697 
2190	-0.138073888752178 
2191	 5.96587153136137E-02 
2192	 0.114473481678106 
2193	 0.124013713015669 
2194	 9.16335287457166E-02 
2195	 0.013971041557996 
2196	-3.10840599393231E-02 
2197	-0.198827803075415 
2198	-0.254268449398925 
2199	-0.16527289093737 
2200	-0.254299322374541 
2201	-0.264560906901681 
2202	-0.152230122076402 
2203	-0.224155690397666 
2204	-0.262275908322788 
2205	-2.17787463173061E-04 
2206	 0.195254276125883 
2207	 7.62260927912374E-02 
2208	 5.87416272230561E-02 
2209	 8.96004229289313E-02 
2210	 8.43965746535127E-03 
2211	 4.32063848102028E-02 
2212	 9.29850366906241E-02 
2213	-8.20550064020641E-02 
2214	-0.271488437859685 
2215	-0.368992958698367 
2216	-0.407630691185883 
2217	-0.388042424810369 
2218	-0.268602601236518 
2219	-0.195780557446903 
2220	-0.110908888798441 
2221	-6.23111696787772E-02 
2222	-8.49660626448278E-03 
2223	-2.93654892768271E-02 
2224	-9.71464779125532E-02 
2225	-0.138166592210963 
2226	-0.275800525062951 
2227	-0.313227766050113 
2228	-0.222275930783085 
2229	-0.264670648461695 
2230	-0.379731664197349 
2231	-0.367373691310284 
2232	-0.336975853046737 
2233	-0.390380380636697 
2234	-0.370887310840646 
2235	-0.362579522738519 
2236	-0.507850170600694 
2237	-0.525761891158691 
2238	-0.473676564110722 
2239	-0.490485211741349 
2240	-0.439445501558656 
2241	-0.294113193191022 
2242	-0.226588305954073 
2243	-0.152992482387886 
2244	-0.220161983051766 
2245	-0.454755633018249 
2246	-0.458214012329025 
2247	-0.449088295212978 
2248	-0.341451337201679 
2249	-0.103412697239189 
2250	-5.84037839776189E-02 
2251	-0.130399713842108 
2252	 4.85858880034352E-02 
2253	 5.66985610154071E-02 
2254	-0.229444029983594 
2255	-1.61762579480666E-02 
2256	 0.20676029898413 
2257	 9.18207212696179E-02 
2258	 5.26711192993206E-02 
2259	-8.44872906003751E-02 
2260	-0.139810379786441 
2261	-0.21954554024016 
2262	-0.280787272687325 
2263	-0.288901266070833 
2264	-0.343125288789053 
2265	-0.7345489001748 
2266	-1.06652040749624 
2267	-1.35633995375962 
2268	-1.35337365084628 
2269	-0.768292354982005 
2270	-0.561095612899991 
2271	-0.488076069784539 
2272	-0.432173116657792 
2273	-0.507730128508674 
2274	-0.462742162989664 
2275	-7.86673075244845E-02 
2276	 7.35279400352082E-02 
2277	-8.93329400086806E-02 
2278	-3.15536172451439E-02 
2279	 0.118303769915354 
2280	 7.91519640368392E-02 
2281	 5.42354899803285E-02 
2282	 0.107638284745891 
2283	-0.16427694793573 
2284	-0.408658002009472 
2285	-0.40744146391153 
2286	-1.27105372908548 
2287	 1.67459679399667 
2288	-151.643479589469 
2289	-0.857651577092515 
2290	-0.78804046961863 
2291	 3.81656208060112E-02 
2292	-0.854721071697416 
2293	-9.85581680334269 
2294	-34.1992915090195 
2295	-40.6747641447502 
2296	-4.29316749402843 
2297	-2.08961203326104 
2298	-1.19955484167888 
2299	-0.952436167174597 
2300	-1.15009461448462 
2301	-1.52418402555693 
2302	-2.21514526597139 
2303	-2.68913792133347 
2304	-1.89672449097751 
2305	-1.07929576215545 
2306	-0.510807317346913 
2307	-0.104285695176465 
2308	-9.41570878746341E-03 
2309	 0.410770228623397 
2310	 0.902860470039201 
2311	 0.544354926262084 
2312	 0.289087717076596 
2313	 0.265887253423021 
2314	 0.131777380328974 
2315	-0.034442569951585 
2316	-0.198172296621526 
2317	-0.866931520443826 
2318	-0.886946815409459 
2319	 3.21888036248305E-02 
2320	 1.01138171731001 
2321	 1.75248265681987 
2322	 2.43783931885286 
2323	 2.02458181702892 
2324	 0.545395977252961 
2325	 0.149292110931405 
2326	 6.69270704256767E-02 
2327	-0.226767419198452 
2328	-0.684958127318884 
2329	-0.795958150818577 
2330	-1.0019346928618 
2331	-0.707556892907362 
2332	-0.485371806829792 
2333	-1.4963147862367 
2334	-3.39728383767808 
2335	-2.25433216490038 
2336	-2.93777162874487 
2337	-3.54906530792536 
2338	-2.51378967487289 
2339	-3.96318133276964 
2340	-4.04599578569419 
2341	-2.11665847093764 
2342	-1.83346133349542 
2343	-2.11550522320357 
2344	-2.12271043189483 
2345	-3.66360969860144 
2346	-1.09099005490284 
2347	-1.05629829325988 
2348	-0.631199526342739 
2349	 8.99681472853397E-02 
2350	-0.938804161692437 
2351	 0.689662663260264 
2352	-0.687789309419731 
2353	 0.248257042137698 
2354	 0.315983770776991 
2355	 0.858345812569583 
2356	 2.31229068406373 
2357	-52.8426012485312 
2358	-3.73415103320565 
2359	-3.92268538580628 
2360	-2.32868695818436 
2361	 9.52254281673559 
2362	 1.46247713838819 
2363	 1.47093232578806 
2364	 1.45047731145308 
2365	 1.51486972596537 
2366	-3.50217950159167E-03 
2367	 35.2889590075494 
2368	 2.03760110405681 
2369	 1.0276814000114 
2370	-0.179726815796446 
2371	-0.526421824235163 
2372	-0.915045517882977 
2373	-2.21459144789646 
2374	-1.62841724933774 
2375	 3.03807001913686E-02 
2376	 3.32314580993529 
2377	 2.55876344099903 
2378	-2.09377342719212 
2379	-1.34626327351356 
2380	-0.842498314394357 
2381	-1.05864401199544 
2382	-0.855529678723926 
2383	-9.6519729466754 
2384	-4.97753167691614 
2385	-5.24407927394922 
2386	-10.4989753143766 
2387	-0.346921470351119 
2388	 2.96978159693897 
2389	-0.828990702110309 
2390	-0.132119982485683 
2391	-0.143826213999088 
2392	 0.508872156956053 
2393	-1.6736140648905 
2394	-0.988155611541469 
2395	-5.34474356646265 
2396	 2.69191968074934 
2397	 2.04505405873205E-02 
2398	-0.661489745489123 
2399	-1.71505930685829 
2400	-3.38909982883314 
2401	 1.03282862580699 
2402	 1.16387748900694 
2403	-2.03785615363205 
2404	-2.17102413558179 
2405	 0.686439655719174 
2406	 1.09479987523367 
2407	 0.9106117899726 
2408	-2.06946276634481 
2409	-0.722512913893437 
2410	-1.44355505637746 
2411	-1.63939431301386 
2412	-0.668555669640181 
2413	-0.300500771757493 
2414	 0.260183295834071 
2415	 0.498317895744716 
2416	 0.369285344036845 
2417	 1.24217169771978 
2418	 4.94831709483465 
2419	 9.0795028489476 
2420	 11.1966292600251 
2421	-3.4793877092721 
2422	-0.527230127156988 
2423	-0.239745026758297 
2424	-0.235486492769495 
2425	-4.42720327888668E-02 
2426	 0.384717964456827 
2427	-1.96999276880893 
2428	-0.769832271276671 
2429	-0.202117565205038 
2430	-3.43670694928233E-02 
2431	 0.544658372361389 
2432	 1.21272586331805 
2433	 1.59808265104614 
2434	 1.18692932412781 
2435	 0.037721274892002 
2436	 31.1473603048051 
2437	-0.938199599436357 
2438	-0.156206805783586 
2439	-0.123941152642211 
2440	-0.590532803286265 
2441	-2.06493300639768 
2442	 13.3704939946719 
2443	 3.32969064292336 
2444	-9.70869548962397 
2445	-2.10372200526689 
2446	-1.58684710827537 
2447	-1.43562613516669 
2448	-1.8936093248552 
2449	-4.12949185724503 
2450	-6.75476028104635 
2451	 1.76274794498791 
2452	-2.38375142391755 
2453	-0.798026947591079 
2454	-2.23304981297227 
2455	-3.5028623884022 
2456	-19.7405410724333 
2457	 2.54606941699401 
2458	 1.80581343986467 
2459	 0.906941029619697 
2460	 0.895328009807269 
2461	 2.33913236625241 
2462	 45.5178621614981 
2463	 13.2356667986508 
2464	 5.14448525271821 
2465	-67.2800345632237 
2466	-1.05251706923217 
2467	 0.403346812875333 
2468	-0.506251459388505 
2469	-0.13233213117729 
2470	-0.105277845611217 
2471	-1.06509151339054 
2472	-2.59769771320519 
2473	 1.88812462026191 
2474	 1.93883257978732 
2475	 2.20947997300747 
2476	 2.63757474231587 
2477	 2.37992612002138 
2478	 2.25881089795481 
2479	 2.55108967483107 
2480	 2.77853161091906 
2481	 3.74769649764483 
2482	 1.11256454834772 
2483	 0.664023400383784 
2484	 0.642617734953318 
2485	 0.555348892657464 
2486	 0.677431081392989 
2487	 0.884631322167168 
2488	 2.07024384924278 
2489	-13.0856857288655 
2490	-1.63705629526787 
2491	-0.814536490473834 
2492	-0.459667034123399 
2493	-1.1605956255001 
2494	-3.41089227958146 
2495	-67.7808562033586 
2496	-10.930784461661 
2497	-9.11727876845193 
2498	-6.04326005844997 
2499	-4.83493258993495 
2500	-11.5450020419586 
