Wavelength	rt0712EAST_FAR00000.asd
350	 6.12179073451691E-02 
351	 6.20691968304729E-02 
352	 6.15986754024557E-02 
353	 6.16280479905005E-02 
354	 6.28207427837405E-02 
355	 6.20512304643543E-02 
356	 6.19949603196398E-02 
357	 6.24632012789736E-02 
358	 6.25127501114986E-02 
359	 6.20458067070123E-02 
360	 6.20314035724772E-02 
361	 6.23695239981967E-02 
362	 6.22431504667227E-02 
363	 6.17210769955869E-02 
364	 6.14953406172954E-02 
365	 6.17160512513658E-02 
366	 6.16076813861117E-02 
367	 6.17280980484851E-02 
368	 6.18511806708515E-02 
369	 6.17149767840012E-02 
370	 6.16131501028941E-02 
371	 6.20078470900425E-02 
372	 6.21913548416935E-02 
373	 6.11413913373649E-02 
374	 0.061449463985438 
375	 6.23417566123531E-02 
376	 6.28511523915146E-02 
377	 6.23242586739097E-02 
378	 0.062211956332112 
379	 0.061726370910484 
380	 6.06129431831931E-02 
381	 6.20689101485603E-02 
382	 0.062858746341951 
383	 6.27632550179527E-02 
384	 6.28718095062656E-02 
385	 6.17385318447499E-02 
386	 6.14934742187409E-02 
387	 6.25926797334461E-02 
388	 6.33437012005302E-02 
389	 6.41397500709897E-02 
390	 6.40461915448008E-02 
391	 6.29552030546232E-02 
392	 6.31505076945545E-02 
393	 6.36832556129817E-02 
394	 6.39404041553387E-02 
395	 6.36466818735906E-02 
396	 6.35054008666615E-02 
397	 6.34308814458966E-02 
398	 6.34809849184313E-02 
399	 6.38438824100448E-02 
400	 6.39458879678141E-02 
401	 6.36574558082385E-02 
402	 6.32189184762006E-02 
403	 6.35305120309976E-02 
404	 6.37067205815768E-02 
405	 6.36473187268206E-02 
406	 6.35469037588827E-02 
407	 6.34056450936432E-02 
408	 6.35085676625317E-02 
409	 6.38223555366561E-02 
410	 6.39964017087033E-02 
411	 6.38055853978713E-02 
412	 6.36631269179445E-02 
413	 6.38293985451849E-02 
414	 0.06396209004082 
415	 6.37045229688149E-02 
416	 6.35382650696002E-02 
417	 6.40280063369442E-02 
418	 6.39222948897668E-02 
419	 6.37735673402413E-02 
420	 6.38136261860646E-02 
421	 6.37922272406187E-02 
422	 6.38486763865739E-02 
423	 6.40584504203828E-02 
424	 6.43412128004468E-02 
425	 6.42307131215182E-02 
426	 6.39880630700005E-02 
427	 0.063896499630845 
428	 6.41635360821633E-02 
429	 6.44201612237593E-02 
430	 6.44408583690924E-02 
431	 0.064316811961463 
432	 6.44755422059351E-02 
433	 6.44482702103663E-02 
434	 6.45545903536512E-02 
435	 6.49766527283432E-02 
436	 6.49913083804819E-02 
437	 6.48640664904492E-02 
438	 6.48494382769814E-02 
439	 6.51271064972486E-02 
440	 6.52778260225154E-02 
441	 6.54015500169296E-02 
442	 6.55248383636994E-02 
443	 6.54635976054024E-02 
444	 6.57944685181684E-02 
445	 0.066128078487467 
446	 0.066086379358991 
447	 6.64568979519474E-02 
448	 6.67143056472335E-02 
449	 6.66994191538269E-02 
450	 6.65809838526635E-02 
451	 6.67644365712312E-02 
452	 6.70872852602982E-02 
453	 6.72631794826059E-02 
454	 0.066891286389575 
455	 6.69053189484247E-02 
456	 6.71467544760492E-02 
457	 6.71618115694694E-02 
458	 0.067343853627021 
459	 6.73480762936202E-02 
460	 6.72056300883603E-02 
461	 6.73380387480377E-02 
462	 6.73978606811492E-02 
463	 6.74892776656164E-02 
464	 6.76959054506515E-02 
465	 6.78001258620339E-02 
466	 6.79137060660828E-02 
467	 6.80117222513599E-02 
468	 6.80334395793441E-02 
469	 6.81432002592572E-02 
470	 6.83131378860445E-02 
471	 0.068521918581261 
472	 0.068785915379972 
473	 6.87334539119954E-02 
474	 6.88024207305956E-02 
475	 6.93252184029499E-02 
476	 6.94599307067882E-02 
477	 0.069682414506395 
478	 6.99853780122203E-02 
479	 7.00696226917722E-02 
480	 7.03777179642652E-02 
481	 7.06846778983173E-02 
482	 7.08175287751378E-02 
483	 0.070865695198625 
484	 7.11122882647067E-02 
485	 7.14614285641609E-02 
486	 7.16909021993824E-02 
487	 7.18314540083964E-02 
488	 7.18808548301233E-02 
489	 7.20294805492229E-02 
490	 7.26068588669702E-02 
491	 7.28050997275706E-02 
492	 0.07301300603872 
493	 7.35438269927546E-02 
494	 7.38356301322729E-02 
495	 7.42262499110235E-02 
496	 7.45420781324377E-02 
497	 7.44861780559575E-02 
498	 7.50120978313412E-02 
499	 7.54849737081712E-02 
500	 7.56499901106552E-02 
501	 0.076107098637367 
502	 7.64095579696927E-02 
503	 7.67902658841471E-02 
504	 7.74637865580492E-02 
505	 7.77615586161511E-02 
506	 7.81337071268649E-02 
507	 7.86640381175623E-02 
508	 7.91288242333272E-02 
509	 7.95800988928852E-02 
510	 7.98930465113634E-02 
511	 0.080094335022436 
512	 8.06299438414178E-02 
513	 8.11089662055577E-02 
514	 8.15461466900425E-02 
515	 8.20788946822338E-02 
516	 8.24222357720086E-02 
517	 8.29251854671075E-02 
518	 8.35644036778603E-02 
519	 8.38094800964436E-02 
520	 8.42889201086822E-02 
521	 8.48521438972266E-02 
522	 8.52898814509579E-02 
523	 8.58422375966285E-02 
524	 8.63411934268513E-02 
525	 8.68320933132389E-02 
526	 8.74790861913247E-02 
527	 8.78923051725675E-02 
528	 8.82844601621671E-02 
529	 0.08881916224993 
530	 8.94076406210342E-02 
531	 8.99568569853837E-02 
532	 9.04472438583271E-02 
533	 9.09282227818902E-02 
534	 9.16428600208421E-02 
535	 9.23044360475962E-02 
536	 9.28333510857091E-02 
537	 9.34169257529058E-02 
538	 0.093953398355065 
539	 9.45078117347069E-02 
540	 9.51537177843119E-02 
541	 9.58859794741578E-02 
542	 9.65370077891472E-02 
543	 9.70552700476202E-02 
544	 9.75001791536915E-02 
545	 9.81876817465202E-02 
546	 9.88504096480059E-02 
547	 9.93609052609309E-02 
548	 0.100013410008386 
549	 0.100591298405518 
550	 0.101163727306885 
551	 0.101848697153162 
552	 0.102464846020167 
553	 0.102973790046463 
554	 0.103448005853931 
555	 0.104066123834808 
556	 0.104717935579771 
557	 0.105339425188444 
558	 0.105869800664707 
559	 0.10623982926801 
560	 0.106638670614732 
561	 0.107073485921812 
562	 0.107441514147472 
563	 0.107797737239096 
564	 0.108085169690606 
565	 0.108267400090222 
566	 0.108362589569378 
567	 0.108493828500234 
568	 0.108640577466544 
569	 0.108747557188298 
570	 0.108951715965652 
571	 0.109008400688175 
572	 0.108948318936023 
573	 0.109107695971637 
574	 0.109160020659312 
575	 0.109056327036456 
576	 0.108844592777664 
577	 0.10864778610084 
578	 0.108481207184033 
579	 0.108353672552487 
580	 0.108241263003517 
581	 0.10789692442224 
582	 0.107541249804858 
583	 0.107234648515273 
584	 0.10662409892278 
585	 0.106074954420255 
586	 0.105475061902307 
587	 0.104601005292506 
588	 0.103797913965387 
589	 0.103176412589891 
590	 0.102709698551307 
591	 0.1021816278837 
592	 0.101712735983196 
593	 0.101198672733136 
594	 0.100549194216246 
595	 9.97817017199847E-02 
596	 9.90232216929179E-02 
597	 9.82877747804517E-02 
598	 9.75175340583718E-02 
599	 9.65723008346531E-02 
600	 9.56606157955393E-02 
601	 9.49421526859301E-02 
602	 9.44377728361989E-02 
603	 9.39964100082537E-02 
604	 9.36190807806828E-02 
605	 9.33794930732382E-02 
606	 9.34668605017482E-02 
607	 9.32638547153444E-02 
608	 9.28043504238517E-02 
609	 9.27991802026126E-02 
610	 9.24802410947455E-02 
611	 9.21119334798989E-02 
612	 9.19629798990119E-02 
613	 9.16560687786043E-02 
614	 9.14298411511542E-02 
615	 9.12588453157803E-02 
616	 0.091000060056983 
617	 9.08659696646518E-02 
618	 9.06074577104521E-02 
619	 9.02454698269014E-02 
620	 9.03386058821627E-02 
621	 9.01452938900925E-02 
622	 8.98308222313586E-02 
623	 8.97428347671187E-02 
624	 8.95607591188885E-02 
625	 8.93408926393273E-02 
626	 0.08906469105772 
627	 8.86563393655958E-02 
628	 8.85586321316504E-02 
629	 8.84991590065131E-02 
630	 8.82487045428952E-02 
631	 8.80911135162031E-02 
632	 8.78191272906718E-02 
633	 8.76556728887599E-02 
634	 8.78853523140668E-02 
635	 0.087659677932697 
636	 8.74543060937019E-02 
637	 8.75017143515402E-02 
638	 0.087518455821892 
639	 8.72301765112981E-02 
640	 8.69197062301614E-02 
641	 8.69054156742613E-02 
642	 8.68991005103346E-02 
643	 8.67361464490744E-02 
644	 8.63946139030103E-02 
645	 8.59747025743786E-02 
646	 8.55063327051773E-02 
647	 8.52659094262936E-02 
648	 8.53101409527743E-02 
649	 0.085112236579794 
650	 8.47036750765022E-02 
651	 8.42344499137758E-02 
652	 8.38743192635985E-02 
653	 8.32720290237586E-02 
654	 8.26037064268086E-02 
655	 8.18789949877975E-02 
656	 0.080937579038683 
657	 8.01643258771898E-02 
658	 7.94733432153603E-02 
659	 7.87254323281957E-02 
660	 7.79944243877106E-02 
661	 7.72354676929224E-02 
662	 7.64619152210034E-02 
663	 7.57662587218233E-02 
664	 7.54632368220825E-02 
665	 0.075109201305807 
666	 7.45649317541302E-02 
667	 7.44173535841236E-02 
668	 7.42554827930637E-02 
669	 7.41552007710606E-02 
670	 7.42782015110573E-02 
671	 7.44147275252593E-02 
672	 0.074494191124416 
673	 7.46092121796906E-02 
674	 7.49786438079948E-02 
675	 7.53234171604764E-02 
676	 7.56861805832037E-02 
677	 7.61221174000444E-02 
678	 7.65564941964468E-02 
679	 7.69896101941876E-02 
680	 7.73623468203824E-02 
681	 7.76500502878947E-02 
682	 7.82181030315686E-02 
683	 7.89138516305133E-02 
684	 7.95419022292823E-02 
685	 7.99577809910274E-02 
686	 8.09444826254897E-02 
687	 0.081642582759701 
688	 8.12537150178135E-02 
689	 8.12310012393024E-02 
690	 8.12040139432308E-02 
691	 8.12929981092735E-02 
692	 8.18325145346322E-02 
693	 8.17267623580263E-02 
694	 8.14145211183662E-02 
695	 8.12296290604221E-02 
696	 8.08474937349502E-02 
697	 8.02516520789988E-02 
698	 7.96627521906526E-02 
699	 7.93486413870834E-02 
700	 7.88002846858293E-02 
701	 7.82469778621272E-02 
702	 7.76942318410785E-02 
703	 7.69289764117181E-02 
704	 7.61831571014919E-02 
705	 7.53696469225778E-02 
706	 7.45131775034339E-02 
707	 7.39460134575162E-02 
708	 0.072669812884236 
709	 7.12733071480641E-02 
710	 7.06328343278048E-02 
711	 6.96012532369245E-02 
712	 6.83273859657249E-02 
713	 6.69835418432514E-02 
714	 6.56707750616941E-02 
715	 6.46364394027956E-02 
716	 0.063540149161555 
717	 6.21556361872334E-02 
718	 6.11851071429116E-02 
719	 5.97816683933651E-02 
720	 5.85553678299031E-02 
721	 5.78397775922209E-02 
722	 0.056864159300367 
723	 5.57647669998069E-02 
724	 5.48599798408546E-02 
725	 5.40283792112703E-02 
726	 5.33907162750907E-02 
727	 5.26772360820121E-02 
728	 5.16774730429577E-02 
729	 5.04356525904276E-02 
730	 5.01008797884372E-02 
731	 4.99415045580737E-02 
732	 4.88821866802995E-02 
733	 4.83179957835168E-02 
734	 4.79968603356443E-02 
735	 4.77420120514349E-02 
736	 4.75278650099978E-02 
737	 4.74391254739529E-02 
738	 0.047254385698064 
739	 4.69347867627849E-02 
740	 4.71485008497452E-02 
741	 4.72376329948464E-02 
742	 4.71448963974013E-02 
743	 4.70973629677638E-02 
744	 4.69299584625325E-02 
745	 4.69184199159353E-02 
746	 4.70761772835883E-02 
747	 4.70246829643086E-02 
748	 4.68703203463259E-02 
749	 4.67894178698908E-02 
750	 4.68455004954492E-02 
751	 4.66299119068578E-02 
752	 4.66849341098301E-02 
753	 4.67707974737648E-02 
754	 4.63683011668863E-02 
755	 4.65023525134916E-02 
756	 4.64749188789316E-02 
757	 4.61059906938682E-02 
758	 4.62547694725139E-02 
759	 0.046125269344514 
760	 4.56019394884777E-02 
761	 4.55419085936961E-02 
762	 4.58632658635916E-02 
763	 4.57127670220936E-02 
764	 0.045529593491381 
765	 4.58165865519973E-02 
766	 4.59797854893666E-02 
767	 4.61341902951009E-02 
768	 0.046276156524264 
769	 4.62731326029541E-02 
770	 0.046141184273142 
771	 4.61039337784822E-02 
772	 4.62672862153243E-02 
773	 4.63343493887757E-02 
774	 4.62580652400063E-02 
775	 4.61730111286307E-02 
776	 4.62753461258953E-02 
777	 4.65542283630138E-02 
778	 4.67857247221207E-02 
779	 0.046751414185794 
780	 4.63324965860108E-02 
781	 4.67601736558055E-02 
782	 4.70103454070196E-02 
783	 4.65021916540798E-02 
784	 4.66453759378809E-02 
785	 4.68335678196334E-02 
786	 0.046901945788153 
787	 4.68491027776175E-02 
788	 4.68076270449191E-02 
789	 0.046636514829264 
790	 4.65821352882127E-02 
791	 4.70762098757034E-02 
792	 4.71819562107291E-02 
793	 4.71966818508032E-02 
794	 4.72557556825786E-02 
795	 4.69260741911502E-02 
796	 4.74450447774038E-02 
797	 4.78676091964595E-02 
798	 4.73264689624991E-02 
799	 4.73665027695155E-02 
800	 4.74957369629899E-02 
801	 4.76328857770056E-02 
802	 4.78809602432437E-02 
803	 4.79281549829171E-02 
804	 4.79930174950017E-02 
805	 0.048090622209455 
806	 4.79882213057992E-02 
807	 4.79077103118378E-02 
808	 4.78202821111204E-02 
809	 4.76859189670189E-02 
810	 4.76049651648231E-02 
811	 0.047034810683231 
812	 4.65866049456937E-02 
813	 4.71696821980865E-02 
814	 4.69954416724714E-02 
815	 4.63267139258809E-02 
816	 0.045726714384114 
817	 4.57223727083833E-02 
818	 4.62543818444669E-02 
819	 4.62350530679752E-02 
820	 4.55988232379438E-02 
821	 4.53919830028193E-02 
822	 4.55438568091958E-02 
823	 4.57314241218828E-02 
824	 4.56477530270821E-02 
825	 4.52235873382377E-02 
826	 4.50272705050818E-02 
827	 4.47865783114716E-02 
828	 4.41116350756226E-02 
829	 0.043895493402303 
830	 4.39095169008224E-02 
831	 4.37589369312507E-02 
832	 4.31597143213536E-02 
833	 4.32987463629112E-02 
834	 0.043808484627724 
835	 0.04397312305182 
836	 4.29506389191544E-02 
837	 4.30284343583068E-02 
838	 4.34842526704257E-02 
839	 4.34023058871532E-02 
840	 4.30143948387928E-02 
841	 4.28256576838773E-02 
842	 4.30222011779207E-02 
843	 4.35279875290279E-02 
844	 4.39422786105192E-02 
845	 4.35654201447882E-02 
846	 4.28477692313683E-02 
847	 0.042893746797237 
848	 4.31590062927169E-02 
849	 4.34632499913243E-02 
850	 0.043547098082898 
851	 4.30881037239469E-02 
852	 4.30726681744345E-02 
853	 4.31365875225693E-02 
854	 4.30906478710723E-02 
855	 4.37781989687683E-02 
856	 4.34724652192142E-02 
857	 4.29991927014048E-02 
858	 4.32777230307528E-02 
859	 4.29505281340601E-02 
860	 4.25791104945709E-02 
861	 4.27011830239946E-02 
862	 4.35248507070312E-02 
863	 4.35989858896561E-02 
864	 4.31373215706093E-02 
865	 0.042705673057703 
866	 4.29324977268189E-02 
867	 4.27409895980636E-02 
868	 4.28183618258332E-02 
869	 4.32226927185654E-02 
870	 0.042943305495568 
871	 4.26759823916741E-02 
872	 4.24698068549801E-02 
873	 4.23485835392365E-02 
874	 4.26199778376101E-02 
875	 4.22292176620254E-02 
876	 4.18963121106375E-02 
877	 4.24071657532144E-02 
878	 0.042661945858579 
879	 4.25032827946794E-02 
880	 4.24225328912925E-02 
881	 4.29070232867782E-02 
882	 4.24744860909217E-02 
883	 4.24173752127281E-02 
884	 4.25531390205422E-02 
885	 0.041746356034899 
886	 4.17526282872985E-02 
887	 0.042139221224398 
888	 0.042262625494341 
889	 4.16594066790782E-02 
890	 4.19500351847609E-02 
891	 4.21112059239055E-02 
892	 0.041664187415937 
893	 0.042326875838536 
894	 4.21506967161182E-02 
895	 4.12263424352077E-02 
896	 4.04420343131836E-02 
897	 4.06678814021487E-02 
898	 3.96783123960697E-02 
899	 4.00889805986051E-02 
900	 4.31501677533535E-02 
901	 4.00392741550952E-02 
902	 3.94057038232883E-02 
903	 4.02374675745919E-02 
904	 3.92362810787963E-02 
905	 4.08760750994226E-02 
906	 4.12889290439227E-02 
907	 4.05093296500665E-02 
908	 4.14686863357858E-02 
909	 4.14098513330506E-02 
910	 4.15395579051656E-02 
911	 4.15874236943888E-02 
912	 0.04000685718844 
913	 3.99222201581961E-02 
914	 4.02609137395374E-02 
915	 4.01659552912343E-02 
916	 3.98113081985173E-02 
917	 3.92775466666686E-02 
918	 0.039279141926282 
919	 3.98173452667957E-02 
920	 0.040048350271557 
921	 0.04125978840998 
922	 4.14006155769176E-02 
923	 0.039397596968264 
924	 3.77093391602772E-02 
925	 0.03923796943307 
926	 4.12503256764954E-02 
927	 3.99892502600755E-02 
928	 3.80002254477475E-02 
929	 3.39655633059785E-02 
930	 3.01853559089428E-02 
931	 3.13258484214052E-02 
932	 3.03448244670766E-02 
933	 4.66739204672772E-02 
934	 5.21303673290578E-02 
935	 0.021075215184576 
936	 4.24939603066665E-02 
937	 0.0482797657613 
938	 3.39050404390981E-02 
939	 1.91657889009473E-02 
940	 3.70640758665812E-02 
941	 4.37005345680758E-02 
942	 3.42604446563818E-02 
943	 2.50158437886902E-02 
944	 3.48227304076347E-02 
945	 3.07160948710269E-02 
946	 1.64865292868112E-02 
947	 1.80001986804702E-02 
948	 2.99271693952771E-02 
949	 0.038314997101209 
950	 0.043460965277273 
951	 5.25341308058187E-02 
952	 5.46454604602376E-02 
953	 4.09146854748737E-02 
954	 2.80645251845374E-02 
955	 4.04474028181727E-02 
956	 4.31242675242709E-02 
957	 4.22710719947252E-02 
958	 4.06960612881943E-02 
959	 3.84357611234652E-02 
960	 4.92609279434481E-02 
961	 4.74777538331858E-02 
962	 3.94293913224104E-02 
963	 4.61322931898682E-02 
964	 4.73226600371319E-02 
965	 4.30667026839159E-02 
966	 0.040467781031858 
967	 4.61695631362071E-02 
968	 4.13607419602005E-02 
969	 3.78888982709954E-02 
970	 0.039664409364368 
971	 4.14003874785579E-02 
972	 3.60622912897935E-02 
973	 3.47243800151699E-02 
974	 0.041573064984039 
975	 4.93205596703719E-02 
976	 3.88539710933285E-02 
977	 3.48721339169333E-02 
978	 4.09318059648083E-02 
979	 4.00499263017764E-02 
980	 3.95228519276313E-02 
981	 3.72945720261106E-02 
982	 3.63066522076431E-02 
983	 4.14834537643377E-02 
984	 4.28945897645818E-02 
985	 4.04608959187258E-02 
986	 3.81574499324682E-02 
987	 4.05705729172274E-02 
988	 4.08280484098202E-02 
989	 3.99488706128062E-02 
990	 3.87251640946646E-02 
991	 3.79446688048889E-02 
992	 4.26897579202251E-02 
993	 4.35442329906946E-02 
994	 3.91114244106352E-02 
995	 3.53952764892609E-02 
996	 4.01176986462923E-02 
997	 4.18832095302997E-02 
998	 3.85444790902841E-02 
999	 3.53071812403871E-02 
1000	 0.036694740064352 
1001	 4.05099809492483E-02 
1002	 4.03448992013306E-02 
1003	 0.039764456635465 
1004	 3.82459078037528E-02 
1005	 3.82149111709725E-02 
1006	 3.88098363709521E-02 
1007	 3.89583643282173E-02 
1008	 4.00571287170653E-02 
1009	 4.18742603400755E-02 
1010	 4.19897868988612E-02 
1011	 4.22047063069395E-02 
1012	 4.16771921299007E-02 
1013	 4.01256030760239E-02 
1014	 3.97594715412214E-02 
1015	 3.90881037523928E-02 
1016	 3.93040857971784E-02 
1017	 4.10938732498733E-02 
1018	 4.20602269509464E-02 
1019	 4.29800449545296E-02 
1020	 4.33650360556981E-02 
1021	 4.38626918797126E-02 
1022	 4.36002960268188E-02 
1023	 4.10915100550797E-02 
1024	 4.01975308208141E-02 
1025	 4.07049902718785E-02 
1026	 0.041698232704873 
1027	 4.20765158734089E-02 
1028	 4.43611275915505E-02 
1029	 4.42291147026495E-02 
1030	 4.12990301183639E-02 
1031	 4.06525978437399E-02 
1032	 4.09729541355046E-02 
1033	 4.06299503725428E-02 
1034	 4.04271179254937E-02 
1035	 4.04959808156091E-02 
1036	 4.05572927460564E-02 
1037	 4.01138400671187E-02 
1038	 3.94544061575447E-02 
1039	 0.039676967560161 
1040	 3.85164888129923E-02 
1041	 3.76887941693631E-02 
1042	 3.78004872002559E-02 
1043	 3.88372530909959E-02 
1044	 3.93546173858561E-02 
1045	 4.04819147349074E-02 
1046	 4.08576561290177E-02 
1047	 4.04722182517034E-02 
1048	 4.08505650575016E-02 
1049	 4.19000822658555E-02 
1050	 4.18327901563212E-02 
1051	 4.14381274471059E-02 
1052	 4.12035932790325E-02 
1053	 0.039179581963059 
1054	 3.90766059942124E-02 
1055	 0.041586396771445 
1056	 4.22367784191654E-02 
1057	 4.25038556126192E-02 
1058	 4.31986867528221E-02 
1059	 4.26960320566286E-02 
1060	 3.97281644185874E-02 
1061	 3.96021585406807E-02 
1062	 4.09064569042789E-02 
1063	 4.11085821897619E-02 
1064	 4.24431649032042E-02 
1065	 4.23842601652947E-02 
1066	 4.00701464881503E-02 
1067	 3.97202101814384E-02 
1068	 4.00707698630587E-02 
1069	 4.03103975815178E-02 
1070	 4.19778389327669E-02 
1071	 4.25485826511435E-02 
1072	 4.20066176411815E-02 
1073	 4.21495577388268E-02 
1074	 4.18379922310396E-02 
1075	 4.09322195212567E-02 
1076	 0.04076292478858 
1077	 4.08334290350882E-02 
1078	 4.09071415820802E-02 
1079	 4.13898090268522E-02 
1080	 4.16310482252163E-02 
1081	 4.17806122172398E-02 
1082	 4.18006793090142E-02 
1083	 4.15203706594482E-02 
1084	 4.16041650663184E-02 
1085	 4.23640709943759E-02 
1086	 0.0424236362205 
1087	 4.19670106503858E-02 
1088	 4.18156010639659E-02 
1089	 4.20899724674709E-02 
1090	 4.07171563410469E-02 
1091	 3.97934356514425E-02 
1092	 3.86170138314077E-02 
1093	 3.91197019478903E-02 
1094	 4.03305966359986E-02 
1095	 4.08205287129304E-02 
1096	 4.31441925888337E-02 
1097	 4.34464061613904E-02 
1098	 0.041073174447437 
1099	 4.00092596271463E-02 
1100	 3.89067592989388E-02 
1101	 0.03860055658799 
1102	 3.97830845874748E-02 
1103	 3.95039598412841E-02 
1104	 3.93500655140418E-02 
1105	 3.71100818185862E-02 
1106	 3.80095816428358E-02 
1107	 0.037747008105379 
1108	 0.036648615236075 
1109	 4.04936305036783E-02 
1110	 4.17871383399894E-02 
1111	 3.97609250961154E-02 
1112	 3.91445169922598E-02 
1113	 4.22879294636728E-02 
1114	 4.02711024358963E-02 
1115	 2.74756271748912E-02 
1116	 2.52431538550596E-02 
1117	 3.32453334257935E-02 
1118	 0.029308207296483 
1119	 2.91346984389131E-02 
1120	 0.027839373712342 
1121	-1.27976164470073E-02 
1122	-3.45478565908615E-02 
1123	 0.051757923743575 
1124	 0.084054104861114 
1125	 0.118003858784955 
1126	 0.104428233114075 
1127	-3.48796176360058E-02 
1128	-0.061252473705565 
1129	-5.24975070426031E-02 
1130	 2.14110108322879E-03 
1131	 1.58233335410649E-02 
1132	 5.85335415252163E-02 
1133	 5.54066358340495E-02 
1134	 2.35957423509528E-02 
1135	 2.24963779961801E-02 
1136	 8.79701188826976E-03 
1137	 1.38831762841005E-02 
1138	 4.68776535972894E-02 
1139	 4.96917617919149E-02 
1140	 2.05025942657434E-02 
1141	 3.91145636753552E-02 
1142	 4.78008760702284E-02 
1143	 2.76747922528043E-02 
1144	 4.53817690366778E-02 
1145	 5.96354676884891E-02 
1146	 0.039390128618893 
1147	 3.87298092925208E-02 
1148	 5.66489513713588E-02 
1149	 5.40875198236581E-02 
1150	 4.91138570882224E-02 
1151	 0.046102427679212 
1152	 4.36838365216641E-02 
1153	 3.36453670168766E-02 
1154	 3.17934450380635E-02 
1155	 3.66250576840263E-02 
1156	 3.48095019599092E-02 
1157	 3.17596097721529E-02 
1158	 3.39063855621067E-02 
1159	 3.36994834703047E-02 
1160	 0.03500154217748 
1161	 3.77212969400066E-02 
1162	 0.035337464927326 
1163	 3.49319570586284E-02 
1164	 3.62896910493752E-02 
1165	 3.61508291285354E-02 
1166	 3.76230050097413E-02 
1167	 3.73493494911204E-02 
1168	 3.62178392537269E-02 
1169	 3.75904689579468E-02 
1170	 3.92597973798347E-02 
1171	 3.94858056415707E-02 
1172	 4.00050648930608E-02 
1173	 4.03351399573639E-02 
1174	 3.99516907599114E-02 
1175	 0.037598948912073 
1176	 3.75290534818944E-02 
1177	 3.97229439495039E-02 
1178	 4.09893057270574E-02 
1179	 4.14806421683441E-02 
1180	 0.042547560829971 
1181	 4.18640749043413E-02 
1182	 3.92719226592657E-02 
1183	 4.00472981869569E-02 
1184	 0.04083132339755 
1185	 3.82523445828145E-02 
1186	 3.73738301089298E-02 
1187	 3.78760710690884E-02 
1188	 3.74996283069962E-02 
1189	 3.87353216697493E-02 
1190	 3.98340708641296E-02 
1191	 3.92725783423854E-02 
1192	 3.94376327122392E-02 
1193	 3.96136210113504E-02 
1194	 4.01188567025418E-02 
1195	 4.03096956444522E-02 
1196	 3.97919858308496E-02 
1197	 3.91924041598113E-02 
1198	 3.94903984720802E-02 
1199	 3.98489805037801E-02 
1200	 3.98863272787541E-02 
1201	 3.89150992979638E-02 
1202	 3.82145711952044E-02 
1203	 0.038133185544091 
1204	 3.82719181838846E-02 
1205	 4.02493528220664E-02 
1206	 4.08309362849794E-02 
1207	 3.87115707104002E-02 
1208	 3.82736491351787E-02 
1209	 3.85846715636596E-02 
1210	 3.79393230891328E-02 
1211	 0.039241512075374 
1212	 4.08649819588228E-02 
1213	 0.03965651568251 
1214	 3.93746435363229E-02 
1215	 3.90631883070135E-02 
1216	 4.01606760480989E-02 
1217	 4.01587296718605E-02 
1218	 4.02430793317956E-02 
1219	 4.13698803126451E-02 
1220	 4.08193613868038E-02 
1221	 3.95458926733659E-02 
1222	 0.040062773812544 
1223	 4.03777645872911E-02 
1224	 4.00225284374367E-02 
1225	 3.99492513275561E-02 
1226	 0.040307300871606 
1227	 4.05842721590546E-02 
1228	 4.00287217204544E-02 
1229	 3.95835523732818E-02 
1230	 0.040032341254883 
1231	 0.039628823742169 
1232	 3.83259630547323E-02 
1233	 3.83412023269949E-02 
1234	 3.85490462925322E-02 
1235	 3.86368036986306E-02 
1236	 3.92102320469599E-02 
1237	 3.99113298169836E-02 
1238	 4.09045536159179E-02 
1239	 4.08480901157649E-02 
1240	 4.10976608666026E-02 
1241	 4.05164133880671E-02 
1242	 3.88054392359558E-02 
1243	 3.86975822797914E-02 
1244	 3.96150919218257E-02 
1245	 4.00011899260585E-02 
1246	 4.05329266766033E-02 
1247	 4.07393253364981E-02 
1248	 4.02466103556734E-02 
1249	 3.96177744653485E-02 
1250	 3.94129416235655E-02 
1251	 3.87483329199445E-02 
1252	 3.76745908244335E-02 
1253	 3.82100737318481E-02 
1254	 3.94293799106306E-02 
1255	 0.039588354203045 
1256	 3.98224288396356E-02 
1257	 3.95662223845863E-02 
1258	 3.96948398223434E-02 
1259	 0.039845264155584 
1260	 4.02306054878486E-02 
1261	 4.09506858960529E-02 
1262	 4.08057051560208E-02 
1263	 3.96143491977629E-02 
1264	 4.05311710191564E-02 
1265	 4.21589713138657E-02 
1266	 4.20799480898853E-02 
1267	 4.10211402967224E-02 
1268	 4.05401885538798E-02 
1269	 0.039128595197494 
1270	 3.71164704674498E-02 
1271	 3.68684059280755E-02 
1272	 0.037401801873623 
1273	 3.66141786707223E-02 
1274	 3.69643450487523E-02 
1275	 3.97384606254593E-02 
1276	 4.03397264381367E-02 
1277	 3.89985707569223E-02 
1278	 3.85153148399182E-02 
1279	 3.88778028546252E-02 
1280	 0.039593715531687 
1281	 3.92530663028654E-02 
1282	 0.039490794492112 
1283	 3.98857608047203E-02 
1284	 0.03877823679239 
1285	 3.80707067946798E-02 
1286	 3.89693399398166E-02 
1287	 3.92875021128083E-02 
1288	 3.82181621743787E-02 
1289	 3.78254523072322E-02 
1290	 3.80514103429317E-02 
1291	 3.88079260514983E-02 
1292	 3.93481844944339E-02 
1293	 3.92073045440062E-02 
1294	 3.95465881652931E-02 
1295	 3.99186408970797E-02 
1296	 3.97331978983974E-02 
1297	 4.02214673721987E-02 
1298	 4.05563097281465E-02 
1299	 4.01547983211848E-02 
1300	 3.96134657624907E-02 
1301	 3.91503287061028E-02 
1302	 0.038572769503907 
1303	 3.73329738308492E-02 
1304	 3.70975116191856E-02 
1305	 0.038195169339089 
1306	 3.82843455717739E-02 
1307	 4.03321719261454E-02 
1308	 4.00583160180763E-02 
1309	 3.54329762216825E-02 
1310	 3.49233425531031E-02 
1311	 3.77819648096637E-02 
1312	 3.77842416795922E-02 
1313	 3.73329464472512E-02 
1314	 3.82116694644208E-02 
1315	 3.81657822169484E-02 
1316	 3.72566499507531E-02 
1317	 3.83915151325136E-02 
1318	 3.92557705665389E-02 
1319	 0.037843006644026 
1320	 3.59569235740081E-02 
1321	 3.38036103294098E-02 
1322	 3.37948031819641E-02 
1323	 3.23209564245966E-02 
1324	 3.00134898370604E-02 
1325	 3.12256863891723E-02 
1326	 3.31467065937852E-02 
1327	 3.66448094325776E-02 
1328	 3.88570279472124E-02 
1329	 3.68378691642878E-02 
1330	 3.64031133875319E-02 
1331	 3.97421194134027E-02 
1332	 3.80439154103577E-02 
1333	 0.031399512134617 
1334	 3.33240736788811E-02 
1335	 3.65819479057867E-02 
1336	 3.50807690785441E-02 
1337	 3.28334280003089E-02 
1338	 3.99314843888683E-02 
1339	 4.04710076758049E-02 
1340	 2.45547144943281E-02 
1341	 2.44551728228469E-02 
1342	 4.82156116357404E-02 
1343	 4.99015067275527E-02 
1344	 2.83495814253343E-02 
1345	 2.92856562122678E-02 
1346	 4.05628027325282E-02 
1347	 4.03477639324094E-02 
1348	 5.84893851715608E-02 
1349	 8.29981789280979E-02 
1350	 0.095921339574228 
1351	 8.55921229753846E-02 
1352	 6.05650008567595E-02 
1353	 7.69328570531052E-02 
1354	 0.150577146507744 
1355	-0.159069829491613 
1356	-0.375286850759285 
1357	-0.36549995425762 
1358	-0.343073789214855 
1359	-0.26236737698258 
1360	-0.324671738417198 
1361	-0.338535047042133 
1362	-0.499475247576484 
1363	-1.02827883111252 
1364	-0.109280047563969 
1365	 0.211110856530573 
1366	 0.371845985483709 
1367	 0.330257346014066 
1368	 0.203975025989464 
1369	 4.19439374233342E-03 
1370	 3.63055665740127E-03 
1371	-0.493421726382446 
1372	-1.63076574417869 
1373	-1.33265426210196 
1374	 1.35778312758819 
1375	-1.36778831562374 
1376	-1.08949130733018 
1377	-0.539380937822343 
1378	-0.51236699304217 
1379	-1.07186864486488 
1380	-0.821156730446586 
1381	 2.96405120435992E-02 
1382	 0.549620242351861 
1383	 0.089552922565243 
1384	 1.15673741613922E-02 
1385	 6.47737373789824E-02 
1386	-8.02660233664907E-02 
1387	-2.50560530863583 
1388	-2.48957489123443 
1389	 0.184642020132502 
1390	 0.281158068790531 
1391	-0.210166538802279 
1392	-1.13109371176149E-02 
1393	-0.1585909545066 
1394	-0.638583170455182 
1395	-0.905069152397192 
1396	-0.367464293966866 
1397	-0.623854666302713 
1398	 178.646273983722 
1399	-0.832110166450547 
1400	 0.353121951605068 
1401	 1.11660372900591 
1402	-93.2966904847899 
1403	-1.54303849692658 
1404	 4.95021980651027 
1405	 116.893067472448 
1406	-1.44799624717209 
1407	-1.08109712870316 
1408	-1.13922883806893 
1409	-3.45808201665202 
1410	-1.08789327833816 
1411	-2.0491469885723 
1412	-0.990296708910468 
1413	-1.50908050423367 
1414	-2.23679386572472 
1415	-2.32250581249779 
1416	-6.29840946544771 
1417	-18.7895263885624 
1418	-6.7970309405194 
1419	-2.47824765779567 
1420	-2.98968790290727 
1421	-1.51671350029321 
1422	-6.82494185548701E-02 
1423	-2.89610366724254E-02 
1424	 0.620107067015455 
1425	 0.636136994480676 
1426	-2.71973730076243 
1427	-2.52036347377632 
1428	-0.253466834789059 
1429	-0.158538574557271 
1430	-0.245903041470384 
1431	-0.228147401834933 
1432	-0.620594332654971 
1433	-0.678576837605462 
1434	-9.08624784189893E-02 
1435	 2.26986371081801E-02 
1436	-0.171703386395878 
1437	-0.201667810331061 
1438	-0.528148947012011 
1439	-0.737356922782962 
1440	-0.327853180429699 
1441	-0.398249056217297 
1442	-9.54919815056322E-02 
1443	 0.359349666222929 
1444	 0.216719607402655 
1445	 6.87912195559475E-02 
1446	-5.60541258558502E-02 
1447	-0.249446032889398 
1448	-0.199331749868876 
1449	-6.94795217629484E-02 
1450	-6.47104835804271E-02 
1451	-3.95588060979979E-02 
1452	-1.55078000227572E-02 
1453	 1.21201942828489E-02 
1454	 4.33841958433521E-02 
1455	 0.106757206926641 
1456	 0.112530104525824 
1457	 0.100869477155556 
1458	 7.70995442740779E-02 
1459	 2.67755236447122E-02 
1460	 4.17917786565762E-03 
1461	-2.21557234875344E-02 
1462	-5.28124957101846E-02 
1463	-0.103769067192617 
1464	-0.068610902608993 
1465	 4.43501974698991E-02 
1466	 3.60417000320423E-02 
1467	 3.11110874023897E-02 
1468	 3.24310194196533E-02 
1469	-0.107534958159161 
1470	-0.122198112006431 
1471	 1.73520255083395E-02 
1472	 5.97985657849407E-02 
1473	 7.83732106019225E-02 
1474	 6.65519107408288E-02 
1475	 2.02461438535616E-03 
1476	-3.65065899602001E-03 
1477	-5.52579626590687E-03 
1478	-9.05346341413636E-04 
1479	 5.40034049260531E-02 
1480	 6.37254239388603E-02 
1481	 3.73317839693219E-02 
1482	 3.22369824864965E-02 
1483	 0.02610960191242 
1484	 2.25340693140524E-02 
1485	 2.40934495242591E-02 
1486	 2.50199106329823E-02 
1487	 2.12269821352771E-02 
1488	 2.88207112557845E-02 
1489	 4.54393565725514E-02 
1490	 4.72755354344495E-02 
1491	 5.47910999211724E-02 
1492	 4.93854415507142E-02 
1493	 1.99128741526757E-02 
1494	 1.94104269424114E-02 
1495	 3.30049708056382E-02 
1496	 3.38727177997798E-02 
1497	 4.09581097306069E-02 
1498	 4.47964202683685E-02 
1499	 4.11084542595484E-02 
1500	 3.66457783299832E-02 
1501	 2.92207812396345E-02 
1502	 3.01967917044979E-02 
1503	 3.80118576323145E-02 
1504	 3.57539309924686E-02 
1505	 3.27356525338952E-02 
1506	 3.02820042490836E-02 
1507	 2.57470512538623E-02 
1508	 2.42952502208757E-02 
1509	 2.80866559890785E-02 
1510	 3.23898552428314E-02 
1511	 3.36460048094516E-02 
1512	 3.39616156041732E-02 
1513	 3.61926247789517E-02 
1514	 3.62718967818191E-02 
1515	 3.49481623730154E-02 
1516	 3.47268778471784E-02 
1517	 3.24192851845588E-02 
1518	 3.16767904146333E-02 
1519	 3.21348727945122E-02 
1520	 3.04714862023025E-02 
1521	 3.17525966539597E-02 
1522	 3.52169806468182E-02 
1523	 3.70622100428341E-02 
1524	 3.71463822300753E-02 
1525	 3.65522119892299E-02 
1526	 3.50614692725798E-02 
1527	 3.48536336903545E-02 
1528	 3.85967112054589E-02 
1529	 3.90714405874717E-02 
1530	 3.86904508984086E-02 
1531	 4.32251829065025E-02 
1532	 4.34252680621642E-02 
1533	 4.05408148843797E-02 
1534	 4.21930223051186E-02 
1535	 4.19213295622302E-02 
1536	 3.82433051445315E-02 
1537	 3.79184362413034E-02 
1538	 3.90456759556069E-02 
1539	 3.99004802368235E-02 
1540	 4.02071487960292E-02 
1541	 3.86295097303959E-02 
1542	 3.82581840579307E-02 
1543	 3.69635942351593E-02 
1544	 3.36360455292087E-02 
1545	 3.35189950407197E-02 
1546	 0.034050558403457 
1547	 3.29364919334869E-02 
1548	 3.37032797170408E-02 
1549	 3.45769576152786E-02 
1550	 3.51242745454421E-02 
1551	 3.65377577020115E-02 
1552	 3.62464792232517E-02 
1553	 3.43043457314045E-02 
1554	 3.37219098282464E-02 
1555	 3.65405712363657E-02 
1556	 3.93833457351834E-02 
1557	 3.88937546190675E-02 
1558	 3.82937616193813E-02 
1559	 3.86619195645593E-02 
1560	 3.75409385816379E-02 
1561	 3.54233606295459E-02 
1562	 0.034943597315085 
1563	 3.59549589382422E-02 
1564	 3.49925280628884E-02 
1565	 3.44970517312533E-02 
1566	 3.81413801210883E-02 
1567	 3.98852347137333E-02 
1568	 3.68061568558841E-02 
1569	 3.65452338196565E-02 
1570	 3.95204837617357E-02 
1571	 3.85480377487636E-02 
1572	 3.65314755788419E-02 
1573	 3.70531074018259E-02 
1574	 3.58248957837059E-02 
1575	 3.37444632979055E-02 
1576	 0.034004552884571 
1577	 0.036167316869113 
1578	 0.036593490042808 
1579	 0.034227500595188 
1580	 3.50868935072212E-02 
1581	 3.74141857125709E-02 
1582	 3.74824483180552E-02 
1583	 3.76886778239597E-02 
1584	 3.79754716808332E-02 
1585	 3.84976232364621E-02 
1586	 3.82613805367112E-02 
1587	 3.65416200800245E-02 
1588	 0.037480961073395 
1589	 3.98906506830171E-02 
1590	 3.87963821913568E-02 
1591	 0.038839462201511 
1592	 4.10945078138747E-02 
1593	 3.81259600934809E-02 
1594	 3.46151990738993E-02 
1595	 3.71709116682693E-02 
1596	 3.80569327855741E-02 
1597	 3.61187247896325E-02 
1598	 3.63458315130881E-02 
1599	 3.65934811038695E-02 
1600	 3.68400624385249E-02 
1601	 3.76142924071302E-02 
1602	 3.85200859660029E-02 
1603	 3.87588397673238E-02 
1604	 3.75956195460197E-02 
1605	 3.74313540601439E-02 
1606	 3.94842373168676E-02 
1607	 3.99597520686575E-02 
1608	 3.81355191420908E-02 
1609	 3.44931552021561E-02 
1610	 3.14538957662249E-02 
1611	 3.37701317389284E-02 
1612	 3.54172741556689E-02 
1613	 3.54686575137878E-02 
1614	 3.70716173363998E-02 
1615	 3.46174573288258E-02 
1616	 3.23467702736125E-02 
1617	 3.62757151261791E-02 
1618	 3.80089684796808E-02 
1619	 3.59955486115319E-02 
1620	 3.55775411043598E-02 
1621	 3.47792858889405E-02 
1622	 3.51589900726118E-02 
1623	 3.82458391040332E-02 
1624	 3.94692616278171E-02 
1625	 3.78271489406212E-02 
1626	 3.68420146523621E-02 
1627	 3.69630692176504E-02 
1628	 3.63663281899424E-02 
1629	 3.62216661405599E-02 
1630	 3.63485825693572E-02 
1631	 3.63233419351955E-02 
1632	 3.67115419850263E-02 
1633	 3.61902277980353E-02 
1634	 3.61230771085853E-02 
1635	 3.70591336152358E-02 
1636	 3.65925839851032E-02 
1637	 0.034993515137025 
1638	 3.47702289615571E-02 
1639	 3.53437373150129E-02 
1640	 3.44143351974543E-02 
1641	 3.50471090656901E-02 
1642	 3.68004005331734E-02 
1643	 3.60156641257634E-02 
1644	 3.51179518220976E-02 
1645	 3.65042268833666E-02 
1646	 3.75056057084665E-02 
1647	 3.66233598441215E-02 
1648	 0.035483396390361 
1649	 3.21267164731715E-02 
1650	 2.99436951261404E-02 
1651	 3.10541271884469E-02 
1652	 3.12039915895479E-02 
1653	 3.21727031253736E-02 
1654	 3.32928218129499E-02 
1655	 3.20034934619789E-02 
1656	 0.032956247161242 
1657	 3.76020720203887E-02 
1658	 3.88627909665995E-02 
1659	 3.87725962795168E-02 
1660	 3.82390441364416E-02 
1661	 3.51279829017362E-02 
1662	 3.52959194938064E-02 
1663	 3.80006456170076E-02 
1664	 3.58119125188903E-02 
1665	 3.13267540418598E-02 
1666	 3.28523708019872E-02 
1667	 3.49328276221761E-02 
1668	 3.57547279166554E-02 
1669	 3.83177550887039E-02 
1670	 3.65150836061935E-02 
1671	 3.43368702837264E-02 
1672	 0.038223474489927 
1673	 3.99338669470009E-02 
1674	 0.036717997338994 
1675	 0.034701359206158 
1676	 3.43016393405727E-02 
1677	 3.42093650142462E-02 
1678	 3.52671638970938E-02 
1679	 3.50407562891569E-02 
1680	 3.29821528474296E-02 
1681	 3.46467947483246E-02 
1682	 3.86998821109637E-02 
1683	 3.88375271654354E-02 
1684	 3.85758834317158E-02 
1685	 3.78090905381817E-02 
1686	 3.36302747387268E-02 
1687	 0.033365401734482 
1688	 3.60491625258393E-02 
1689	 0.03535427746972 
1690	 3.41934625781532E-02 
1691	 3.60142422789145E-02 
1692	 0.037883231192483 
1693	 3.65887959991263E-02 
1694	 3.59231877495711E-02 
1695	 0.035886530371168 
1696	 3.32237706375151E-02 
1697	 3.34051430546523E-02 
1698	 0.038850461983148 
1699	 3.96605052127884E-02 
1700	 3.51414989460839E-02 
1701	 0.034277674301631 
1702	 3.26848386153974E-02 
1703	 3.08003622299853E-02 
1704	 3.52359977977657E-02 
1705	 3.74529357562337E-02 
1706	 3.57588460873191E-02 
1707	 3.58047114537318E-02 
1708	 3.46776878623657E-02 
1709	 3.38796179400642E-02 
1710	 3.35511042536104E-02 
1711	 3.21872820556444E-02 
1712	 3.25493221544194E-02 
1713	 3.08874491877347E-02 
1714	 3.09400354526402E-02 
1715	 3.42540425960818E-02 
1716	 3.50593167462294E-02 
1717	 3.20885277281699E-02 
1718	 3.28508531498896E-02 
1719	 3.13105695543775E-02 
1720	 2.79132527050892E-02 
1721	 3.49675981257509E-02 
1722	 4.01485671637909E-02 
1723	 3.51708446462212E-02 
1724	 3.23576460414051E-02 
1725	 3.19816456195814E-02 
1726	 3.06281789134377E-02 
1727	 3.44800541040436E-02 
1728	 3.77955419902166E-02 
1729	 3.39078276007046E-02 
1730	 3.10578719695708E-02 
1731	 3.06215920247641E-02 
1732	 3.44548430134048E-02 
1733	 4.32405422128788E-02 
1734	 4.41186947366151E-02 
1735	 0.040212371822516 
1736	 4.11874943010596E-02 
1737	 3.95137669086424E-02 
1738	 3.34963968637271E-02 
1739	 3.16781723869893E-02 
1740	 0.028382182748134 
1741	 2.35025821334289E-02 
1742	 2.73411680455479E-02 
1743	 3.44357088393323E-02 
1744	 3.72225505489812E-02 
1745	 3.77025574887594E-02 
1746	 3.88749442456213E-02 
1747	 3.75308369481714E-02 
1748	 3.37210553716581E-02 
1749	 3.24011986565689E-02 
1750	 2.94156341347454E-02 
1751	 2.93147849547243E-02 
1752	 3.37994411496606E-02 
1753	 3.65194849606593E-02 
1754	 3.78846053496821E-02 
1755	 3.87451987665491E-02 
1756	 4.29058085337285E-02 
1757	 3.97475046658435E-02 
1758	 3.31370458010115E-02 
1759	 3.21247823286277E-02 
1760	 2.72457146902049E-02 
1761	 2.22933316971401E-02 
1762	 2.70418446970973E-02 
1763	 3.32894144448798E-02 
1764	 3.56666661140413E-02 
1765	 3.33734292319979E-02 
1766	 3.02013940731017E-02 
1767	 2.81543147618359E-02 
1768	 2.39622268682667E-02 
1769	 3.01545082231133E-02 
1770	 4.13676611752652E-02 
1771	 3.86139294634508E-02 
1772	 3.28356005599474E-02 
1773	 2.87603454259458E-02 
1774	 2.13213253132631E-02 
1775	 2.49719764414771E-02 
1776	 2.64383990975091E-02 
1777	 2.14854558555024E-02 
1778	 2.59583163662617E-02 
1779	 4.40251143575547E-02 
1780	 4.09100099042117E-02 
1781	 0.029857028999073 
1782	 3.06205818593984E-02 
1783	 1.88975827974696E-02 
1784	 1.27313976120366E-02 
1785	 2.53816217857971E-02 
1786	 2.39815733559976E-02 
1787	 5.37630842344648E-03 
1788	 7.12909853960131E-03 
1789	 2.77778981405707E-02 
1790	 9.76339464266053E-03 
1791	 1.83021943831314E-02 
1792	 0.060447018508649 
1793	 5.92198232273497E-02 
1794	 0.101987261925159 
1795	 0.10328044328659 
1796	-2.79692747873078E-02 
1797	-8.68156207962229E-02 
1798	-5.79174494945265E-02 
1799	-0.123352978177567 
1800	 0.101972789791176 
1801	 0.175825236342522 
1802	 8.80357364361095E-02 
1803	 0.109719411482641 
1804	 5.59805518465832E-02 
1805	 2.73807037649746E-03 
1806	 5.01771910635937E-02 
1807	 7.66585648471711E-02 
1808	 8.70073458507806E-02 
1809	 0.140553562239726 
1810	 0.440821609385663 
1811	 0.585927216178071 
1812	 0.319927621988534 
1813	 0.294554368259724 
1814	 0.475662809290042 
1815	 0.122511843043394 
1816	-0.439996850208591 
1817	-0.662169352906696 
1818	-0.576905433761148 
1819	-0.336284581039441 
1820	-6.65740227959175E-02 
1821	-1.81630864196166 
1822	-3.6513410904956 
1823	-2.16076485827284 
1824	-2.27475185027226 
1825	-0.284127332592968 
1826	-0.100164339862905 
1827	-1.03313754017729 
1828	-1.28352382803918 
1829	-1.19574186265716 
1830	-0.687839990395547 
1831	-2.51618544808575 
1832	-4.10177689110226 
1833	-0.626378661065518 
1834	-1.34842113617297 
1835	 6.77929366178622 
1836	 4.8504521454798 
1837	 2.82070531733398 
1838	 2.84636283077119 
1839	 4.16067402806222 
1840	 39.6596639031008 
1841	-2.47444940892894 
1842	-1.46296735454214 
1843	-1.34228102549912 
1844	-2.82179769433203 
1845	-3.45419362460828 
1846	 1.58013280863283 
1847	 0.619158370605521 
1848	 0.287514210652737 
1849	 0.470516036372226 
1850	 1.42153105343065 
1851	 3.67863831899524 
1852	 0.195186059864511 
1853	 0.150530273128752 
1854	-9.25609443976214E-02 
1855	-0.431720384501877 
1856	-0.357479463505031 
1857	-0.172056335483642 
1858	-0.190396307320753 
1859	-9.24767560700068E-02 
1860	-1.33990516670372E-02 
1861	-0.43636321341313 
1862	-1.25481269412801 
1863	-2.37468123291414 
1864	-4.21158165887825 
1865	-7.91427933768811 
1866	 5.73783244749394 
1867	-0.741520676202396 
1868	-7.12233849940267 
1869	-24.1689198991595 
1870	-0.370182704594487 
1871	-1.19616652712157 
1872	-0.781545284036644 
1873	-0.814862387456508 
1874	-0.537870521811708 
1875	-0.388372143485555 
1876	-0.481136215864269 
1877	-1.76992561844104 
1878	-1.73084871231162 
1879	-0.806070483584821 
1880	-0.731375491127731 
1881	-0.48179844607538 
1882	-0.398961271225985 
1883	-0.773836114720865 
1884	-2.50359980847713 
1885	-4.58518542919323 
1886	-23.4846893244821 
1887	 0.278110407623207 
1888	 0.622967722355275 
1889	 0.182364902389126 
1890	-0.579216681025383 
1891	-0.549434285731401 
1892	-0.424350742584998 
1893	-0.112907082754493 
1894	 2.48509952208743 
1895	 6.3017433361955 
1896	 1.51532474658613 
1897	-0.626618552382206 
1898	-0.766875999652681 
1899	-1.01866672772161 
1900	-2.362133274812 
1901	-2.24930776344743 
1902	-2.32448030667257 
1903	-1.97368742365199 
1904	 0.566688369469429 
1905	-0.999286536028243 
1906	-0.810159246325244 
1907	-0.510450598660123 
1908	-0.132088283282848 
1909	-6.35640003770711E-02 
1910	 0.639207384181695 
1911	 4.52050863591148 
1912	-6.1464225164793 
1913	-12.9873533691999 
1914	-2.6390929840457 
1915	-3.3276553428985 
1916	-6.32873709407636 
1917	-8.11555905900079 
1918	-7.49792915457873 
1919	 2.31759569318869 
1920	 0.956045040205088 
1921	 1.41958857054463 
1922	 0.659314536061862 
1923	 0.260632374558189 
1924	 4.24447387642077E-02 
1925	-0.358647820748168 
1926	-0.606961444990623 
1927	-0.442278132984751 
1928	-1.10957134745743 
1929	-13.7872408054806 
1930	 2.17364608159374 
1931	 0.631824636666814 
1932	-1.54173023644589E-02 
1933	-0.503998409782577 
1934	 0.195879299140263 
1935	 3.30384918877513 
1936	 10.9447216267494 
1937	 4.10206865520573 
1938	 2.01603563495459 
1939	 1.69944185028016 
1940	 1.14036006382249 
1941	 1.63636873564262 
1942	 1.60511333079684 
1943	 1.63357855720864 
1944	 2.18661666468653 
1945	 2.22648545068216 
1946	 2.40107506238614 
1947	-34.4384248787063 
1948	 1.43351125856926 
1949	 1.13109128684105 
1950	 0.798258300940674 
1951	 0.67543943655713 
1952	 0.690790293441853 
1953	 0.166760709143037 
1954	 2.06409033392213 
1955	 0.736936843787803 
1956	-9.45993791973634E-02 
1957	-0.618392973705831 
1958	-1.33069529728774 
1959	-0.300053274334038 
1960	-5.64325157151522E-02 
1961	 0.265364996574635 
1962	 0.323455761575633 
1963	 0.266963601407939 
1964	 0.470967103672068 
1965	 0.125184088302932 
1966	-0.264823807607671 
1967	-1.21492230718727 
1968	-1.5631002373667 
1969	-0.833233805007046 
1970	-0.802530527035875 
1971	-0.666555425785185 
1972	-0.494665002056066 
1973	-0.509496710177924 
1974	-0.486484806813524 
1975	-0.436143115626229 
1976	-0.369797450671705 
1977	-0.156729797604623 
1978	 4.67235959916465E-02 
1979	 0.148474083136872 
1980	 0.228596877431694 
1981	 0.385824902249238 
1982	 0.271299913824597 
1983	 0.106036844503058 
1984	 0.123698165366855 
1985	 0.202001673665024 
1986	 0.28624677206186 
1987	 0.315522485212985 
1988	 0.260453151509131 
1989	 0.126147766934896 
1990	-1.25263770543147E-03 
1991	 0.014872201951908 
1992	-1.32932897872606E-02 
1993	-0.088489401222448 
1994	-8.88411039624596E-02 
1995	-7.20963271416921E-02 
1996	-1.09898761246181E-02 
1997	-2.76366349243362E-03 
1998	 1.16608229914678E-02 
1999	-0.143666150131616 
2000	-0.357103730418133 
2001	-0.119219341988619 
2002	-6.41526280772615E-02 
2003	-0.103489942938232 
2004	-7.92361504911803E-02 
2005	-0.332582952514773 
2006	-0.333215647427398 
2007	-0.164629682291025 
2008	-0.313187066354509 
2009	-0.316253483353034 
2010	-0.182313202164488 
2011	-8.71177299068672E-02 
2012	-2.72595070119215E-02 
2013	 6.56825253912977E-02 
2014	-9.06250158647123E-02 
2015	-0.215385079328801 
2016	-0.206200627919231 
2017	-0.189687576195452 
2018	-0.117284483684316 
2019	-1.58687158502316E-02 
2020	-0.105631732025593 
2021	-0.103014624736877 
2022	-7.80197222760043E-02 
2023	-0.111931493690978 
2024	-7.89980156980723E-02 
2025	 5.56191442539616E-04 
2026	 1.51618861532993E-02 
2027	 0.0141135323222 
2028	 3.52133007055347E-02 
2029	 3.68913542923839E-02 
2030	 4.40412716389547E-02 
2031	 4.71740094865944E-02 
2032	 5.59247178316724E-02 
2033	 5.12610157647444E-02 
2034	 4.41891404159963E-02 
2035	 4.63068403294856E-02 
2036	 0.047947663980439 
2037	 3.98092770908385E-02 
2038	 3.75370778564248E-02 
2039	 3.61873010364738E-02 
2040	 1.74112166250806E-02 
2041	 0.021226394421467 
2042	 6.30759480769476E-02 
2043	 5.93809628954864E-02 
2044	 3.15192165108552E-02 
2045	 3.94116442020209E-02 
2046	 0.003825687489284 
2047	-9.53147453947563E-03 
2048	 3.73315493203009E-02 
2049	 3.14616435778186E-02 
2050	 4.23386504890719E-02 
2051	 2.08977736657461E-02 
2052	-4.38705921682078E-02 
2053	-2.78356438071658E-02 
2054	-1.45679309344014E-02 
2055	-3.34560954406267E-02 
2056	-0.033971925637484 
2057	-4.31830081292694E-02 
2058	-0.02309852863208 
2059	 2.69391206104461E-02 
2060	 5.15089988816441E-02 
2061	 8.84900452045705E-02 
2062	 0.116300681548356 
2063	 6.26618499366702E-02 
2064	 2.19895619938577E-02 
2065	-2.64516687176664E-02 
2066	-0.103120480109774 
2067	-0.101369484971567 
2068	-5.27527221537025E-02 
2069	 4.60132791246495E-03 
2070	 4.83505497020914E-02 
2071	 6.31269056109016E-02 
2072	 5.31355789839272E-02 
2073	 5.02583636545103E-02 
2074	 3.12064972265545E-02 
2075	 3.05748803146357E-02 
2076	 5.14864908438224E-02 
2077	 4.46528071265277E-02 
2078	 8.86914577671743E-03 
2079	 5.47605023995433E-03 
2080	 6.64056873067166E-03 
2081	 0.017227978528056 
2082	 1.82494279608771E-02 
2083	 3.83938695379898E-02 
2084	 4.09125162182962E-02 
2085	 2.01479626947266E-03 
2086	-1.54636846678641E-02 
2087	-0.019095202306862 
2088	-2.82115111730395E-02 
2089	-1.21096911363219E-02 
2090	-4.65282823427538E-04 
2091	 3.82064296050822E-04 
2092	 7.66135251858189E-04 
2093	-9.93048105555353E-03 
2094	-2.15197057046938E-02 
2095	-3.66982808864944E-02 
2096	-4.05179556889505E-02 
2097	-4.70020892287092E-02 
2098	-4.30652466523021E-02 
2099	-3.07151205529218E-02 
2100	-7.97954718469771E-03 
2101	 1.37295058792142E-02 
2102	 3.07046127980504E-02 
2103	 3.57550810567938E-02 
2104	 3.13739573849759E-02 
2105	 1.79121056310486E-02 
2106	 9.50836368887756E-03 
2107	 1.77534984009252E-02 
2108	 2.37294810465184E-02 
2109	 2.58784083196662E-02 
2110	 1.59257649322582E-02 
2111	 1.46715478725821E-02 
2112	 2.96678125325333E-02 
2113	 2.76580026195852E-02 
2114	 2.24570021985946E-02 
2115	 2.32191645017957E-02 
2116	 1.42762528657228E-02 
2117	 4.87976559641066E-03 
2118	 2.20084880966114E-03 
2119	 6.01186934117671E-03 
2120	 9.0298173739774E-03 
2121	 8.76457841280612E-03 
2122	 2.14491442791673E-02 
2123	 2.53173261580369E-02 
2124	 2.49359964654312E-02 
2125	 2.60684219084101E-02 
2126	 2.20478863082266E-02 
2127	 2.30609817385811E-02 
2128	 2.18654857916342E-02 
2129	 1.97098059493336E-02 
2130	 2.87818314425348E-02 
2131	 0.04190052714525 
2132	 5.93906099031924E-02 
2133	 0.070766359882933 
2134	 6.61949039891109E-02 
2135	 4.55223503482252E-02 
2136	 3.80434947087701E-02 
2137	 1.92238819845717E-02 
2138	 1.36950779925647E-02 
2139	 2.78588057360225E-02 
2140	 2.62589417584993E-02 
2141	 1.43431899895567E-02 
2142	 1.30300962674425E-02 
2143	 9.93187269190096E-03 
2144	 1.71825055935097E-02 
2145	 2.17430674215819E-02 
2146	 1.70760391497349E-02 
2147	 0.01668900816241 
2148	 9.92581019511958E-03 
2149	 1.65292420967926E-02 
2150	 2.79470741508211E-02 
2151	 2.17292189304659E-02 
2152	 2.55647227346616E-02 
2153	 2.34830080296749E-02 
2154	 1.69301243589626E-02 
2155	 2.20382670448475E-02 
2156	 1.72382913152568E-02 
2157	 2.40262126608381E-02 
2158	 4.28088176077699E-02 
2159	 4.43011757329688E-02 
2160	 4.02821453477311E-02 
2161	 4.33026946842408E-02 
2162	 4.09036294203393E-02 
2163	 3.81974303079949E-02 
2164	 4.27976183424271E-02 
2165	 5.02812677378044E-02 
2166	 5.19707862730996E-02 
2167	 5.62137619452785E-02 
2168	 0.069486768840896 
2169	 7.44834089306455E-02 
2170	 7.38632622848797E-02 
2171	 7.00542606283359E-02 
2172	 7.60548402988339E-02 
2173	 7.81351690305765E-02 
2174	 6.90170524446617E-02 
2175	 7.52859866107863E-02 
2176	 6.78970163045145E-02 
2177	 6.48247182571302E-02 
2178	 7.14634796586966E-02 
2179	 5.14841453105386E-02 
2180	 3.74697365904903E-02 
2181	 2.18517811247364E-02 
2182	-5.86576476987875E-03 
2183	-7.05921232132713E-03 
2184	-1.05376001027485E-02 
2185	-1.48301295578703E-02 
2186	-5.02730682614613E-03 
2187	 2.83128183037579E-02 
2188	 3.90098718990696E-02 
2189	 4.89748800694432E-02 
2190	 5.54176871570463E-02 
2191	 0.04868062043706 
2192	 5.04425877728721E-02 
2193	 5.74259025213179E-02 
2194	 5.99387680084162E-02 
2195	 6.33699902986885E-02 
2196	 5.75089291174972E-02 
2197	 3.22955308679269E-02 
2198	 3.20855486179376E-02 
2199	 4.77219834872441E-02 
2200	 5.23163336531521E-02 
2201	 5.33173212209436E-02 
2202	 5.95239141942456E-02 
2203	 0.04223392089748 
2204	 2.89371855235276E-02 
2205	 1.65290501647702E-02 
2206	-5.64046766472612E-04 
2207	-8.89184298611135E-03 
2208	-1.06418487782561E-02 
2209	 1.16456180404943E-03 
2210	 4.48769039534461E-03 
2211	 6.75181988930622E-03 
2212	 2.31888757410352E-03 
2213	-6.43960912312927E-03 
2214	 7.80856524406414E-03 
2215	 1.36471113119592E-02 
2216	 1.54137117082231E-02 
2217	 2.36944011803003E-02 
2218	 0.038258583498562 
2219	 4.18295273795756E-02 
2220	 4.38851898538047E-02 
2221	 5.24966235554403E-02 
2222	 6.09652848099247E-02 
2223	 6.36610810091392E-02 
2224	 7.45196620243056E-02 
2225	 6.75799492250643E-02 
2226	 3.75815707758871E-02 
2227	 2.93702496324447E-02 
2228	 2.73844839270848E-02 
2229	 0.019669422630469 
2230	 1.97601779420789E-02 
2231	 1.97237043944131E-02 
2232	 5.31923376022954E-03 
2233	 9.16948011921328E-04 
2234	 1.36293768144858E-02 
2235	 6.75161705062946E-03 
2236	 2.57566496800968E-03 
2237	 2.15836435063159E-02 
2238	 2.13496313886393E-02 
2239	 1.74828261143519E-02 
2240	 2.55557992371883E-02 
2241	 2.69734055606795E-02 
2242	 3.12572665400223E-02 
2243	 5.69110265634808E-02 
2244	 0.058828202651255 
2245	 5.71149379693851E-02 
2246	 6.64887338691189E-02 
2247	 5.78282325026298E-02 
2248	 4.62250045243045E-02 
2249	 3.35802361354411E-02 
2250	 1.86738224962077E-02 
2251	 1.62393395974071E-02 
2252	 3.84865927440708E-02 
2253	 5.17704951033422E-02 
2254	 4.39014480152239E-02 
2255	 2.32369839589995E-02 
2256	-4.01636002262148E-03 
2257	-1.49400910349457E-02 
2258	-7.3852380906952E-03 
2259	-1.02370526858564E-04 
2260	-4.78435791736136E-03 
2261	-2.14420901756662E-02 
2262	-3.12845277871284E-02 
2263	-5.05808733905579E-02 
2264	-4.87077555718397E-02 
2265	-3.97700363559339E-02 
2266	-2.71330848120802E-02 
2267	 1.41795305405235E-02 
2268	 2.04543499552262E-02 
2269	 1.29085259519922E-02 
2270	 2.21556135094561E-02 
2271	 7.6031930401682E-03 
2272	 1.88403642123279E-02 
2273	 6.21065864815921E-02 
2274	 8.82655497514208E-02 
2275	 0.12758525043894 
2276	 0.13719071780242 
2277	 0.130819301690546 
2278	 0.112932566915224 
2279	 7.17873914607749E-02 
2280	 3.20994874754592E-02 
2281	-4.36747929234979E-02 
2282	-5.30755930534921E-02 
2283	-1.94723230735985E-02 
2284	-3.82546394571306E-02 
2285	-1.57992213736778E-02 
2286	 1.42873477539399E-02 
2287	-3.22762138717512E-02 
2288	-3.14880026121255E-02 
2289	-1.15195767766159E-02 
2290	-4.88919744801039E-02 
2291	-8.49700982506731E-02 
2292	-9.70752248295373E-02 
2293	-0.111477595884605 
2294	-0.101076758885151 
2295	-2.18516854860122E-02 
2296	 3.40880428950501E-02 
2297	 3.95257651061286E-02 
2298	 6.02516894147046E-02 
2299	 5.83708356428777E-02 
2300	 0.019960258470946 
2301	 0.017553968591893 
2302	 3.21148369857751E-02 
2303	 2.93411831387543E-02 
2304	 8.08460488026428E-02 
2305	 8.13127592295051E-02 
2306	 5.74988126832226E-02 
2307	 9.80546761714137E-02 
2308	 0.04194270120831 
2309	 6.30044365366541E-03 
2310	 3.11046902667889E-02 
2311	-2.39649312192972E-02 
2312	-8.88512428251401E-02 
2313	-0.154890613896544 
2314	-0.189578121866135 
2315	-0.185150284496056 
2316	-0.194564126329632 
2317	-0.187142162484486 
2318	-0.156611554229973 
2319	-0.163802994958754 
2320	-0.127517435091743 
2321	-8.26479008194949E-02 
2322	-9.08481699653352E-02 
2323	-6.76064151936464E-02 
2324	-8.90590982840499E-02 
2325	-3.89391352088579E-02 
2326	 2.78552089955833E-02 
2327	-2.11501753743561E-02 
2328	 3.3601935381193E-03 
2329	-4.7996961857347E-03 
2330	-7.38671669233894E-03 
2331	 3.22422780750195E-02 
2332	 4.03190413770193E-02 
2333	-3.96986330472992E-03 
2334	-4.31667319926918E-02 
2335	-0.142355924794837 
2336	-0.290674863872304 
2337	-0.302264739453602 
2338	-0.408451470241182 
2339	-0.454470586379249 
2340	-0.171132203333768 
2341	-4.97931963785796E-02 
2342	 2.63188275123366E-03 
2343	 0.176618942899545 
2344	-2.45158567928313E-02 
2345	-0.200815985739734 
2346	 0.033753884666874 
2347	-2.96269708933477E-02 
2348	 0.126146748480076 
2349	 0.28048224455977 
2350	 0.162312615487095 
2351	 0.174937754221161 
2352	 0.200656188141509 
2353	 0.265110914974939 
2354	 0.234061033750864 
2355	 6.13183621204258E-02 
2356	-9.14650954809282E-02 
2357	-0.148367955081685 
2358	-0.121622501984151 
2359	 5.8804846833072E-03 
2360	 0.211431401241854 
2361	 0.224975166913077 
2362	 3.81090954874143E-04 
2363	-0.129874999828167 
2364	-6.88591459939208E-02 
2365	-2.38339766344519E-02 
2366	-7.33083897101245E-02 
2367	-0.185937127354535 
2368	-0.307690069891538 
2369	-0.351216908588063 
2370	-0.305500429579801 
2371	-0.121141242380519 
2372	-5.89983756725085E-02 
2373	-0.300306269088986 
2374	-0.165363230475228 
2375	-4.06136594989908E-02 
2376	-0.600937680135034 
2377	-0.435697986926267 
2378	-0.336667266486674 
2379	-0.331900514489071 
2380	 2.84188748112908E-02 
2381	 0.369017190621966 
2382	 0.554791301405852 
2383	 1.08214259915808 
2384	 0.756187931863356 
2385	 0.962138815898594 
2386	-0.827893144843832 
2387	-0.730644358361178 
2388	-0.250125326407954 
2389	-2.13114606792575 
2390	-0.126306063090185 
2391	 0.574547779315154 
2392	-1.60322936453512 
2393	 224.402598180336 
2394	-4.15387305201518 
2395	-293.128609584068 
2396	 6.8823184636321 
2397	 1.3109341441145 
2398	 35.2165991649724 
2399	-5.19695251031489 
2400	 13.7688815399863 
2401	-6.67405838993366 
2402	-2.71737195142804 
2403	-3.12028821080772 
2404	-5.09646793243868 
2405	-3.18269047309645 
2406	-6.93793749849645 
2407	 2.9379319719823 
2408	 7.72512340173982 
2409	 0.533492010962942 
2410	-0.597628620415131 
2411	-0.99356001537927 
2412	-1.51010437748201 
2413	-1.2534952268915 
2414	 6.99417710543808E-02 
2415	-0.299750150875683 
2416	 0.787236848544469 
2417	 3.57434598227521E-02 
2418	-0.327417326085436 
2419	-0.121436779457444 
2420	 0.3723494976871 
2421	 0.212125405035824 
2422	 0.252975664502816 
2423	-2.798268379248 
2424	 3.11770403480112 
2425	 2.22292687569686 
2426	-13.8279050393228 
2427	-3.1500794200902 
2428	-6.05280826605148 
2429	-5.22079393184847 
2430	 8.57462100797395 
2431	-6.55302712035216 
2432	-1.39785716000136 
2433	-0.749921453520905 
2434	-9.82855612303494E-02 
2435	-6.72946398889903E-03 
2436	-0.265546924237027 
2437	-1.03661857961058 
2438	-4.63675264597081 
2439	 0.891394631016682 
2440	 0.41105641199701 
2441	 0.538648097331982 
2442	 3.20009278155629 
2443	-1.23526774188903 
2444	-1.11001981772479 
2445	-3.81227822777882 
2446	 1.3831892536767 
2447	 4.202937537495 
2448	-4.01458590076668 
2449	-0.817810816749732 
2450	-0.615642752889883 
2451	-0.592479055644282 
2452	-0.89914049610752 
2453	-0.180756749529911 
2454	-8.15970734627317E-02 
2455	-0.220670141681858 
2456	-0.150795842332073 
2457	 9.94743497033523E-02 
2458	 0.253178221708159 
2459	 0.379381495832696 
2460	 0.423046781581884 
2461	 0.121528348924786 
2462	 0.127901732805095 
2463	 0.691288761231316 
2464	 1.46538607749936 
2465	 1.89235500564591 
2466	 2.21883739478827 
2467	 1.35311732226703 
2468	 3.07908466888676 
2469	-37.6966200931631 
2470	-0.216765044360835 
2471	-6.58128971474249E-02 
2472	 9.42152230384959E-02 
2473	 0.295091971940068 
2474	 0.505674209611708 
2475	 0.917086415168584 
2476	-1.07581994824247 
2477	-1.78583703942279 
2478	-1.30974704508167 
2479	-1.26094819769779 
2480	-0.843296667217294 
2481	-1.07101474806048 
2482	-1.94893917517094 
2483	-1.00905233793108 
2484	-1.51812429637493 
2485	-10.7118992471773 
2486	 3.73347056497106 
2487	 31.2504040392998 
2488	 9.55421542868626 
2489	 18.736430589724 
2490	 13.2372011032408 
2491	 7.62126961856199 
2492	-1.78691911729931 
2493	-2.71060936065614 
2494	-5.80578319115082 
2495	 9.58901883000298 
2496	 3.17146261256933 
2497	 1.02912787943969 
2498	 0.827519447044965 
2499	 0.88656094965417 
2500	 0.867456936153632 
