Wavelength	rt0712west_close200006.asd
350	 7.65669933917452E-02 
351	 7.71695630275771E-02 
352	 7.67654378023063E-02 
353	 7.61965530631264E-02 
354	 7.61706355823749E-02 
355	 7.65180734479595E-02 
356	 7.75495014688047E-02 
357	 7.80064204649497E-02 
358	 7.68916206897901E-02 
359	 7.62432719711561E-02 
360	 7.59221112142576E-02 
361	 7.63808860895392E-02 
362	 0.078110396658344 
363	 7.74124568181472E-02 
364	 7.71380762849761E-02 
365	 7.80769160562568E-02 
366	 7.66326688755039E-02 
367	 7.65476918445067E-02 
368	 7.76062436327963E-02 
369	 7.85660677190593E-02 
370	 0.078707209368813 
371	 7.76257500481704E-02 
372	 7.67653296537915E-02 
373	 7.81021601763464E-02 
374	 7.80162186794757E-02 
375	 7.83660942899109E-02 
376	 7.95960862903999E-02 
377	 7.94840864711421E-02 
378	 7.93059376724702E-02 
379	 7.91397007525278E-02 
380	 7.89916234991635E-02 
381	 7.95991710220293E-02 
382	 7.93018284540905E-02 
383	 7.90764143420022E-02 
384	 8.06360144618378E-02 
385	 8.11415061845771E-02 
386	 8.13672859706685E-02 
387	 8.14851864622642E-02 
388	 8.07344991916565E-02 
389	 8.09620038840457E-02 
390	 8.15981421317775E-02 
391	 8.19715843407017E-02 
392	 8.25257613412059E-02 
393	 8.23017660817481E-02 
394	 8.20036040461482E-02 
395	 8.25924808177481E-02 
396	 8.29252782982055E-02 
397	 8.28659106857556E-02 
398	 8.27684043872167E-02 
399	 8.32629695017787E-02 
400	 8.32987799737342E-02 
401	 8.32436362720793E-02 
402	 0.083540398434837 
403	 8.44589096096168E-02 
404	 8.42023464239541E-02 
405	 8.36106105519286E-02 
406	 8.41309262596251E-02 
407	 8.43683683184442E-02 
408	 8.44381113975855E-02 
409	 0.084601265163449 
410	 8.51256755322533E-02 
411	 8.53393182629211E-02 
412	 8.55014925646824E-02 
413	 8.58563273951833E-02 
414	 0.086222436004895 
415	 8.63410904086338E-02 
416	 8.63760223850917E-02 
417	 8.65724080097128E-02 
418	 8.63692291533721E-02 
419	 8.67139422784425E-02 
420	 0.087553128566065 
421	 8.76990217819353E-02 
422	 8.79415816582916E-02 
423	 8.81788989162283E-02 
424	 8.82957378570155E-02 
425	 8.86208730738431E-02 
426	 0.089204048554185 
427	 8.98153307716804E-02 
428	 9.01581926071773E-02 
429	 0.090560208610502 
430	 9.10071209439934E-02 
431	 9.14230332859176E-02 
432	 0.091704923193241 
433	 9.22144638786323E-02 
434	 9.27258000129008E-02 
435	 9.30034708289043E-02 
436	 9.31181205638587E-02 
437	 9.36700535688876E-02 
438	 9.44037144430996E-02 
439	 9.46701750770393E-02 
440	 9.49947005915464E-02 
441	 9.54477949998691E-02 
442	 9.59252671201114E-02 
443	 9.61432103282372E-02 
444	 9.63663655641239E-02 
445	 9.67868648536093E-02 
446	 9.74403939500295E-02 
447	 9.79355039323966E-02 
448	 9.79828233175144E-02 
449	 9.79727526689655E-02 
450	 9.86724151861281E-02 
451	 9.89442059062774E-02 
452	 9.90213292422723E-02 
453	 9.92213825715667E-02 
454	 9.96169930819922E-02 
455	 0.100043859924863 
456	 0.100188766077165 
457	 9.99425619585276E-02 
458	 0.100513353773641 
459	 0.10083258695384 
460	 0.100716949626102 
461	 0.100967114432705 
462	 0.101277684835751 
463	 0.101394783959188 
464	 0.101334336393284 
465	 0.101879055483185 
466	 0.102158812728643 
467	 0.102105834548919 
468	 0.102102630989526 
469	 0.102562296541176 
470	 0.102921823804531 
471	 0.102932906532466 
472	 0.102894973981625 
473	 0.102699779798278 
474	 0.103007150246451 
475	 0.10409836755814 
476	 0.104310028385953 
477	 0.104349999602085 
478	 0.104496007161175 
479	 0.104721970169684 
480	 0.105257904190227 
481	 0.105583378591809 
482	 0.10553340020539 
483	 0.105824432050326 
484	 0.10641547278236 
485	 0.106975065023162 
486	 0.107177853738098 
487	 0.107476319303624 
488	 0.107934188214346 
489	 0.108467462083526 
490	 0.108883131412844 
491	 0.1092677772268 
492	 0.109767207424537 
493	 0.110396305416601 
494	 0.110803134925736 
495	 0.111057828584944 
496	 0.1114246347917 
497	 0.112165066837698 
498	 0.1125684663661 
499	 0.11289564291519 
500	 0.113336010861336 
501	 0.113792726284669 
502	 0.114537065296684 
503	 0.11507370846433 
504	 0.115055910443044 
505	 0.115595495790704 
506	 0.116601101108163 
507	 0.117559998500979 
508	 0.117770345758343 
509	 0.118218392749834 
510	 0.119082066086844 
511	 0.12017027394752 
512	 0.120787756193972 
513	 0.121453006244883 
514	 0.122139159157966 
515	 0.122655480613791 
516	 0.123354177202398 
517	 0.124131542755818 
518	 0.124867774188955 
519	 0.125482957926662 
520	 0.126191253544041 
521	 0.126901909926859 
522	 0.127567070672359 
523	 0.128564052259733 
524	 0.129412680126526 
525	 0.130096987094731 
526	 0.130928466168063 
527	 0.131756964636562 
528	 0.132603667305225 
529	 0.133512009698638 
530	 0.134572614934105 
531	 0.135252988957918 
532	 0.135936527680214 
533	 0.137154556523009 
534	 0.138079840480153 
535	 0.138913599678909 
536	 0.139801489637066 
537	 0.140740328107511 
538	 0.14150600898245 
539	 0.142270996265577 
540	 0.143200697148224 
541	 0.144073479930664 
542	 0.145087908597184 
543	 0.146225138637652 
544	 0.147320130810143 
545	 0.148102466457314 
546	 0.14921732198336 
547	 0.150753829079402 
548	 0.151511762677139 
549	 0.152568867689326 
550	 0.153767411647886 
551	 0.15466322218078 
552	 0.155791823924893 
553	 0.156794436693193 
554	 0.157544278606948 
555	 0.158229483423583 
556	 0.159331905628644 
557	 0.160515940318535 
558	 0.161386242083814 
559	 0.162117099741972 
560	 0.162845832228293 
561	 0.163700815553369 
562	 0.164748159218194 
563	 0.165520731988156 
564	 0.166121084895761 
565	 0.166673489789157 
566	 0.167174852701293 
567	 0.167698767134901 
568	 0.168219189736039 
569	 0.168690843063595 
570	 0.169216447422595 
571	 0.169857804852654 
572	 0.170577456990121 
573	 0.171226384152115 
574	 0.171534194980752 
575	 0.17192857268206 
576	 0.172700558117182 
577	 0.173167167861579 
578	 0.17366130902637 
579	 0.174215839744246 
580	 0.174685630144447 
581	 0.175060579179651 
582	 0.175354671634292 
583	 0.175524846574428 
584	 0.175408850856212 
585	 0.175141525154757 
586	 0.174370033939181 
587	 0.172774921374665 
588	 0.171806650867604 
589	 0.171390031515032 
590	 0.171337194709526 
591	 0.17146290885131 
592	 0.17187489663127 
593	 0.17210709662029 
594	 0.171861557017962 
595	 0.171631362049546 
596	 0.171420683698944 
597	 0.171327252215147 
598	 0.171452284579829 
599	 0.171583321522595 
600	 0.17162987562275 
601	 0.17153892155835 
602	 0.171272768729616 
603	 0.170995113344609 
604	 0.170975326216506 
605	 0.171350758012947 
606	 0.17150285762631 
607	 0.171458548380084 
608	 0.17126786792433 
609	 0.170995320844312 
610	 0.171261103275343 
611	 0.171511114929131 
612	 0.171353853423943 
613	 0.171700027358317 
614	 0.17165630522124 
615	 0.171298331100768 
616	 0.171242077752313 
617	 0.171547481256684 
618	 0.171575724043418 
619	 0.171264332198923 
620	 0.171625922007423 
621	 0.171446441245208 
622	 0.170994425161251 
623	 0.170905104645 
624	 0.171074915673968 
625	 0.170893531280879 
626	 0.170213404659553 
627	 0.169439435111293 
628	 0.169529419304051 
629	 0.16984650447142 
630	 0.169892940991268 
631	 0.17049398179087 
632	 0.170650998156485 
633	 0.17039050103484 
634	 0.17023881812314 
635	 0.170382994714763 
636	 0.170652485575389 
637	 0.170849603582509 
638	 0.170802963171312 
639	 0.170657699358208 
640	 0.170729722708826 
641	 0.17110885992234 
642	 0.170837174920312 
643	 0.170356310570202 
644	 0.169671639519113 
645	 0.16844626344352 
646	 0.167737163140174 
647	 0.16769407996161 
648	 0.167997038586244 
649	 0.167855296579825 
650	 0.168277542339439 
651	 0.168711239005202 
652	 0.168247522733187 
653	 0.16785339520183 
654	 0.167375708121695 
655	 0.166825414446721 
656	 0.166584313961308 
657	 0.166331020214244 
658	 0.166178466696875 
659	 0.166184729865175 
660	 0.166036452030023 
661	 0.165549991708294 
662	 0.165122552196612 
663	 0.16538721788878 
664	 0.165289062003221 
665	 0.165044620679245 
666	 0.164874295052856 
667	 0.164708328331228 
668	 0.164564031761719 
669	 0.164576700455002 
670	 0.164740550867106 
671	 0.164123338184456 
672	 0.16397379514979 
673	 0.164427498129549 
674	 0.164521631896559 
675	 0.164614650120616 
676	 0.164732206491151 
677	 0.164845989197931 
678	 0.164938842030136 
679	 0.16479206025922 
680	 0.16466329831693 
681	 0.164949543573668 
682	 0.165360089146179 
683	 0.165399958644756 
684	 0.164946570856399 
685	 0.164312475603474 
686	 0.163689839239261 
687	 0.16327986063001 
688	 0.163208470048684 
689	 0.163624609426112 
690	 0.163006849924461 
691	 0.161607663999329 
692	 0.160771683813082 
693	 0.15992089463788 
694	 0.160160290724968 
695	 0.161265593795533 
696	 0.161313505813541 
697	 0.16007732669659 
698	 0.158381515856302 
699	 0.157512557755354 
700	 0.156926141428947 
701	 0.156697469357745 
702	 0.156442833514762 
703	 0.155544595344533 
704	 0.154578663939913 
705	 0.153457796567938 
706	 0.152300890317893 
707	 0.151765254562155 
708	 0.150608749830223 
709	 0.149120677170638 
710	 0.147995088350373 
711	 0.146583825253513 
712	 0.144888120938787 
713	 0.142844514830062 
714	 0.140199077808945 
715	 0.136200190865771 
716	 0.13113236063382 
717	 0.127010877495735 
718	 0.124592042708726 
719	 0.123086276678339 
720	 0.122417327107834 
721	 0.122216629994489 
722	 0.120349838322967 
723	 0.11668591941044 
724	 0.11278274055324 
725	 0.111196086503708 
726	 0.108913648917943 
727	 0.106174510832105 
728	 0.103760240705045 
729	 0.102103212267751 
730	 9.91422472544882E-02 
731	 9.60520921692927E-02 
732	 9.42704818097442E-02 
733	 9.30991402159637E-02 
734	 9.15727343433673E-02 
735	 8.96264070049714E-02 
736	 0.088385428383942 
737	 8.77333240582229E-02 
738	 8.73979531173717E-02 
739	 0.087145324202094 
740	 8.69421828342963E-02 
741	 8.67588510015566E-02 
742	 0.086738531002695 
743	 8.70058540518305E-02 
744	 8.69604331311832E-02 
745	 8.65805080046549E-02 
746	 8.61885712290942E-02 
747	 0.086460049009631 
748	 8.67246303127716E-02 
749	 0.086635658111597 
750	 8.62195950748399E-02 
751	 8.63931073828742E-02 
752	 8.65886553299008E-02 
753	 8.65891981913926E-02 
754	 0.086411605699756 
755	 8.62398714011464E-02 
756	 8.59831894899851E-02 
757	 8.56018081391842E-02 
758	 8.50588684262217E-02 
759	 0.084408823869619 
760	 8.34318306975439E-02 
761	 8.25520715017217E-02 
762	 8.17090271015661E-02 
763	 8.15926339301878E-02 
764	 8.28249652351403E-02 
765	 8.49400369369606E-02 
766	 8.54707503700421E-02 
767	 0.085910639915087 
768	 8.67106594049518E-02 
769	 8.75372283368129E-02 
770	 8.78456700164071E-02 
771	 8.79286806474787E-02 
772	 8.80904346543177E-02 
773	 8.81410647266876E-02 
774	 8.84495544156192E-02 
775	 8.89437665497571E-02 
776	 8.93869074323916E-02 
777	 0.08988373725357 
778	 9.02173254265759E-02 
779	 9.04244943185411E-02 
780	 9.07977247508417E-02 
781	 9.10026238278998E-02 
782	 0.091338220384276 
783	 0.091910212698635 
784	 9.21011456893108E-02 
785	 9.24199648171563E-02 
786	 9.26695861837479E-02 
787	 0.092580020766717 
788	 9.30683238777305E-02 
789	 9.36378553949909E-02 
790	 9.41440962362461E-02 
791	 9.48268053524913E-02 
792	 9.57908154034659E-02 
793	 9.65789270115882E-02 
794	 9.69077972360906E-02 
795	 0.096744202383244 
796	 9.68149955757116E-02 
797	 9.73050342128071E-02 
798	 9.80813407988213E-02 
799	 9.87453444610123E-02 
800	 9.85541707328502E-02 
801	 9.83419501487008E-02 
802	 9.95545640672282E-02 
803	 0.100536270232835 
804	 0.100872637151552 
805	 0.100815453558463 
806	 0.101070268223488 
807	 0.101212786151275 
808	 0.100305775976984 
809	 0.098267646085399 
810	 9.79278489573481E-02 
811	 9.81098031902356E-02 
812	 9.73275234825506E-02 
813	 9.43392515181275E-02 
814	 9.30934621476258E-02 
815	 0.092415245421155 
816	 9.17722986899233E-02 
817	 9.15974320675849E-02 
818	 9.19131222721714E-02 
819	 9.22884734137618E-02 
820	 9.21532882735842E-02 
821	 9.05573067433195E-02 
822	 8.91012308313283E-02 
823	 8.69291329638849E-02 
824	 8.41500476453783E-02 
825	 8.38156265376114E-02 
826	 8.19367954586907E-02 
827	 7.90564483929953E-02 
828	 7.73992405837656E-02 
829	 7.54286189901519E-02 
830	 0.073456031424203 
831	 7.17521183092644E-02 
832	 0.070562766968409 
833	 0.069739364159189 
834	 0.069573572243454 
835	 6.94975565943735E-02 
836	 0.068013332408903 
837	 6.80992645643113E-02 
838	 6.82726084716354E-02 
839	 6.72997980784249E-02 
840	 6.67557849318736E-02 
841	 6.65396484886718E-02 
842	 6.63494982771363E-02 
843	 0.065918388296158 
844	 6.56879201568765E-02 
845	 6.50636513162834E-02 
846	 6.47992194358805E-02 
847	 6.60411334734266E-02 
848	 6.48935169430249E-02 
849	 6.39313960986385E-02 
850	 6.41047514838526E-02 
851	 0.063348310417923 
852	 6.28424589091749E-02 
853	 6.28064347894186E-02 
854	 6.28637907002394E-02 
855	 6.18173515719329E-02 
856	 6.18592479898299E-02 
857	 6.21053619449439E-02 
858	 6.14499619940408E-02 
859	 0.061070974053863 
860	 6.11366747159911E-02 
861	 6.09304233247281E-02 
862	 5.97887673643654E-02 
863	 6.02763432618051E-02 
864	 6.03963716473103E-02 
865	 5.95780192810979E-02 
866	 5.88847556849556E-02 
867	 5.87497087696727E-02 
868	 0.059005383563004 
869	 5.90630511665919E-02 
870	 5.80259094716631E-02 
871	 5.73025382343598E-02 
872	 5.66456439383334E-02 
873	 0.056063071892626 
874	 5.70493983390525E-02 
875	 5.67558137505862E-02 
876	 5.57375093870625E-02 
877	 5.52576434550361E-02 
878	 5.47176209382489E-02 
879	 5.46054926945004E-02 
880	 5.43891462248138E-02 
881	 5.34191942850486E-02 
882	 5.32809179569803E-02 
883	 5.32244338635445E-02 
884	 5.29520103176661E-02 
885	 5.26376840397698E-02 
886	 5.24669721095736E-02 
887	 5.19651270489835E-02 
888	 5.13334729896465E-02 
889	 5.14999644984503E-02 
890	 5.05931319061195E-02 
891	 0.050001436596751 
892	 5.03973779762172E-02 
893	 4.94738494664411E-02 
894	 4.92311107217319E-02 
895	 4.80230579515894E-02 
896	 4.50212787610415E-02 
897	 4.76775512468175E-02 
898	 4.92999722289067E-02 
899	 4.79066297125854E-02 
900	 4.52783993134636E-02 
901	 4.62060087289905E-02 
902	 4.51860337950041E-02 
903	 4.36540644572923E-02 
904	 4.47251916816607E-02 
905	 0.047326647359243 
906	 4.65459715423934E-02 
907	 4.27816056711315E-02 
908	 4.11916990330812E-02 
909	 4.11736654942834E-02 
910	 4.27606901150497E-02 
911	 4.27994190141974E-02 
912	 3.73851874555617E-02 
913	 4.24004997967852E-02 
914	 4.31016221908463E-02 
915	 3.82910884390665E-02 
916	 4.41724151409023E-02 
917	 4.10762885857164E-02 
918	 3.94092274157645E-02 
919	 4.24118572595187E-02 
920	 4.10986556207906E-02 
921	 4.16985348726856E-02 
922	 4.13611941432432E-02 
923	 3.85014183193741E-02 
924	 3.81439652041313E-02 
925	 0.036737081757563 
926	 3.80829060798375E-02 
927	 0.043930298236911 
928	 3.32303022554084E-02 
929	 4.80066402141905E-02 
930	 7.45333012468033E-02 
931	 0.050890706451505 
932	 1.36493226332537E-02 
933	 7.07722172756248E-02 
934	 0.131442934195284 
935	 4.02258668379778E-02 
936	 8.31674200350093E-03 
937	 5.11555701628138E-02 
938	 9.64111367746241E-02 
939	 8.61579996317795E-02 
940	 6.12775078741571E-02 
941	 4.77801533144661E-02 
942	 4.17334330960127E-02 
943	 3.20358084826467E-02 
944	 5.08066606134139E-02 
945	 2.95176108535835E-02 
946	 1.09454760875849E-02 
947	 6.63793199215638E-02 
948	 0.055628094823897 
949	 4.96300695849884E-02 
950	 5.48871251980043E-02 
951	 3.79612515906705E-02 
952	 3.11286298289573E-02 
953	 4.40581446800568E-02 
954	 5.22600205195001E-02 
955	 3.02194257453429E-02 
956	 5.78674691634426E-02 
957	 5.23478924747166E-02 
958	 0.028792972736228 
959	 5.20941317442943E-02 
960	 0.059902545638455 
961	 5.22796147527647E-02 
962	 0.042010243233755 
963	 4.20300425916741E-02 
964	 0.037980603184061 
965	 3.11419163840352E-02 
966	 3.13918524756246E-02 
967	 4.63191354724152E-02 
968	 4.82101485178122E-02 
969	 4.04399977205628E-02 
970	 0.034403156054531 
971	 4.15362007395398E-02 
972	 3.39219861221974E-02 
973	 0.032691742494284 
974	 4.06416393266672E-02 
975	 3.93313655235266E-02 
976	 4.31027650536725E-02 
977	 4.04004405696172E-02 
978	 3.46073068300707E-02 
979	 3.87968170984231E-02 
980	 3.74923875306731E-02 
981	 3.42706024629697E-02 
982	 3.54685466302063E-02 
983	 4.47459195372535E-02 
984	 4.55765331907211E-02 
985	 3.76964995733657E-02 
986	 3.30200357748663E-02 
987	 4.50836716328587E-02 
988	 4.69437183390784E-02 
989	 3.89511853497274E-02 
990	 3.20604046420274E-02 
991	 3.88351329850316E-02 
992	 4.03342520109612E-02 
993	 3.91154703013825E-02 
994	 3.84326726139988E-02 
995	 4.04986588120005E-02 
996	 4.58954161595492E-02 
997	 4.66480495793837E-02 
998	 4.18848738777213E-02 
999	 3.68766181879764E-02 
1000	 3.80205992513507E-02 
1001	 3.93891219426398E-02 
1002	 4.02425303668552E-02 
1003	 4.13418071713383E-02 
1004	 4.06882010188414E-02 
1005	 3.99903172677728E-02 
1006	 3.92298437720195E-02 
1007	 0.040392761739919 
1008	 3.73130064057348E-02 
1009	 3.55867857220319E-02 
1010	 3.72479249629448E-02 
1011	 3.57283967069532E-02 
1012	 3.71856011280514E-02 
1013	 3.90874952679092E-02 
1014	 3.86329959564002E-02 
1015	 3.63085947038559E-02 
1016	 3.49416367691455E-02 
1017	 3.12095998404743E-02 
1018	 3.06776372883924E-02 
1019	 3.31121858304834E-02 
1020	 3.36703565659886E-02 
1021	 0.034521665893283 
1022	 3.52740981043173E-02 
1023	 3.69276993703534E-02 
1024	 3.69211897783622E-02 
1025	 3.61703902293631E-02 
1026	 0.037346690448159 
1027	 3.72939298390088E-02 
1028	 3.45330814756671E-02 
1029	 0.035338846556933 
1030	 3.94329217605991E-02 
1031	 3.98141224818461E-02 
1032	 3.94141209864398E-02 
1033	 3.92096381568743E-02 
1034	 3.64326564543393E-02 
1035	 3.58309983621018E-02 
1036	 3.90130217666127E-02 
1037	 3.85932364315335E-02 
1038	 3.62658514461956E-02 
1039	 3.39035301848988E-02 
1040	 3.24754521998047E-02 
1041	 2.96520338342286E-02 
1042	 3.01308945157978E-02 
1043	 3.40886822063738E-02 
1044	 3.60234992485301E-02 
1045	 3.87454773621755E-02 
1046	 4.00901852943461E-02 
1047	 4.07697970070246E-02 
1048	 4.10348428042175E-02 
1049	 4.09581790922697E-02 
1050	 3.99165632671962E-02 
1051	 3.63388801630385E-02 
1052	 3.59161690378708E-02 
1053	 3.71747667943531E-02 
1054	 3.70638847047456E-02 
1055	 3.84637913548755E-02 
1056	 3.92879574096767E-02 
1057	 3.94371348748805E-02 
1058	 3.73203612114495E-02 
1059	 3.73438649587176E-02 
1060	 3.84495582061546E-02 
1061	 3.91753421170733E-02 
1062	 4.10361697877644E-02 
1063	 4.05352999421145E-02 
1064	 3.87687665121412E-02 
1065	 3.76171803389599E-02 
1066	 3.40867467532111E-02 
1067	 3.29458946205846E-02 
1068	 3.43668084258251E-02 
1069	 3.44374093436352E-02 
1070	 0.034349675505075 
1071	 3.46239509880269E-02 
1072	 3.59337218387953E-02 
1073	 0.034302213778594 
1074	 3.50734195575745E-02 
1075	 3.74502743864467E-02 
1076	 3.80608550674969E-02 
1077	 3.90290210353379E-02 
1078	 3.82013644649342E-02 
1079	 3.41194544461243E-02 
1080	 3.34888171009231E-02 
1081	 3.38199962117938E-02 
1082	 3.39466242922976E-02 
1083	 3.57919849558855E-02 
1084	 3.76911992803074E-02 
1085	 4.03548776011515E-02 
1086	 4.06722017361788E-02 
1087	 4.13872765731513E-02 
1088	 4.08687208121198E-02 
1089	 3.58165302095275E-02 
1090	 3.21078075282093E-02 
1091	 3.17589862178633E-02 
1092	 0.034162102656356 
1093	 3.42468757709547E-02 
1094	 3.70983053797722E-02 
1095	 3.68138575732385E-02 
1096	 3.16307372121639E-02 
1097	 3.12364755647623E-02 
1098	 0.034313635279687 
1099	 3.41834471698639E-02 
1100	 3.39593357082303E-02 
1101	 3.36551196759431E-02 
1102	 2.83060660147344E-02 
1103	 2.76776619932121E-02 
1104	 3.02984230801004E-02 
1105	 3.81305760808802E-02 
1106	 0.043898389848918 
1107	 4.37606692909755E-02 
1108	 4.61408869210648E-02 
1109	 5.26908246233544E-02 
1110	 5.13556866381822E-02 
1111	 4.51634617668319E-02 
1112	 4.34715075010736E-02 
1113	 2.89174123472412E-02 
1114	 2.51045772307569E-02 
1115	 4.82098943453403E-02 
1116	 5.28086140737394E-02 
1117	 4.39130745061545E-02 
1118	 4.22554853365047E-02 
1119	 5.23072904976546E-03 
1120	 3.8330552024903E-03 
1121	 5.88435336529474E-02 
1122	 0.171999086261655 
1123	 0.345775168042774 
1124	 0.410153874904004 
1125	 0.312160211932517 
1126	 0.287488845357174 
1127	 0.142997877053619 
1128	 5.56901832157594E-02 
1129	 8.66671204377998E-03 
1130	 1.17929109042093E-02 
1131	-3.00276392292588E-02 
1132	-9.48178442917131E-02 
1133	-9.87869223514429E-02 
1134	-9.46931050025268E-02 
1135	-4.91033127572556E-02 
1136	 0.10007707391072 
1137	 0.124580478754579 
1138	 0.123087718189343 
1139	 9.47491393259839E-02 
1140	 7.75631540029554E-02 
1141	 4.02625020085116E-02 
1142	 4.86376250536626E-02 
1143	 0.109129598828973 
1144	 7.60672084714688E-02 
1145	 6.55792777417625E-02 
1146	 0.074715152188355 
1147	 5.00784477674263E-02 
1148	 8.05006235533006E-02 
1149	 7.47261454369746E-02 
1150	 7.33505379411332E-02 
1151	 9.06562545881917E-02 
1152	 9.07202380800413E-02 
1153	 6.78493057786664E-02 
1154	 6.74352473059772E-02 
1155	 8.12255409338487E-02 
1156	 0.071521336819912 
1157	 4.20419649530804E-02 
1158	 3.13313220864299E-02 
1159	 2.67852993417072E-02 
1160	 2.20109278919126E-02 
1161	 3.65362374150289E-02 
1162	 5.21864734593639E-02 
1163	 4.44084908964974E-02 
1164	 3.65478704192894E-02 
1165	 4.19480322781664E-02 
1166	 0.043457889593144 
1167	 4.42045025211046E-02 
1168	 4.73223030735215E-02 
1169	 4.73893309381846E-02 
1170	 0.044545001392864 
1171	 4.10469020878724E-02 
1172	 3.77857820673896E-02 
1173	 3.62449734428993E-02 
1174	 3.14789797952385E-02 
1175	 3.27369587511343E-02 
1176	 3.74389260271825E-02 
1177	 4.13133074571711E-02 
1178	 4.26746385252436E-02 
1179	 0.036284073276894 
1180	 3.34080922758202E-02 
1181	 3.70245934217396E-02 
1182	 3.98426988594381E-02 
1183	 4.03170190290313E-02 
1184	 3.65730343452935E-02 
1185	 3.41275963114618E-02 
1186	 0.034938230934437 
1187	 3.24124217186457E-02 
1188	 0.033760168304184 
1189	 3.90783331940363E-02 
1190	 3.52743437705756E-02 
1191	 3.16442285864809E-02 
1192	 3.20829984903125E-02 
1193	 3.55797006854419E-02 
1194	 3.21354407059192E-02 
1195	 2.97989521580698E-02 
1196	 3.56016383338404E-02 
1197	 3.86156732699913E-02 
1198	 0.034266176658688 
1199	 3.32799932395151E-02 
1200	 3.42339816350098E-02 
1201	 3.05073158556269E-02 
1202	 2.90175776162653E-02 
1203	 3.39961015205849E-02 
1204	 3.71686602070497E-02 
1205	 3.62812537754203E-02 
1206	 3.51011482475039E-02 
1207	 3.32357614109451E-02 
1208	 3.35299419592868E-02 
1209	 3.64948689967619E-02 
1210	 3.88201524686851E-02 
1211	 3.84134768324256E-02 
1212	 3.35944172331115E-02 
1213	 2.82063237801953E-02 
1214	 2.77976374907397E-02 
1215	 3.10236216687817E-02 
1216	 3.68432058214311E-02 
1217	 3.82392420801177E-02 
1218	 3.78970296755167E-02 
1219	 3.75852039716982E-02 
1220	 3.42771063423337E-02 
1221	 3.08041543263285E-02 
1222	 3.07958379722876E-02 
1223	 3.18918055618228E-02 
1224	 3.06559241009226E-02 
1225	 0.029759184512722 
1226	 3.03419002560666E-02 
1227	 2.99873981017069E-02 
1228	 2.96192681870929E-02 
1229	 3.35865176642264E-02 
1230	 3.94065025657275E-02 
1231	 4.11375335923595E-02 
1232	 4.13625316941242E-02 
1233	 3.97995876616769E-02 
1234	 3.68789065746688E-02 
1235	 3.61978649628647E-02 
1236	 3.65380371247874E-02 
1237	 3.59984918731923E-02 
1238	 3.62488378490421E-02 
1239	 3.77249761015655E-02 
1240	 3.59009192144521E-02 
1241	 3.30035535180601E-02 
1242	 3.34670167557435E-02 
1243	 3.44256358036408E-02 
1244	 3.54149815469944E-02 
1245	 3.95154196392371E-02 
1246	 3.97440954488253E-02 
1247	 3.60121256633659E-02 
1248	 0.034925161191074 
1249	 0.034048374209643 
1250	 3.42318012302259E-02 
1251	 0.036898645025098 
1252	 3.87150151235569E-02 
1253	 3.75207319293074E-02 
1254	 0.035928928458 
1255	 3.65868994432273E-02 
1256	 3.62892628986866E-02 
1257	 3.41815521606639E-02 
1258	 3.41964637056734E-02 
1259	 0.0358249144177 
1260	 3.66637139291318E-02 
1261	 3.96241657010306E-02 
1262	 3.90151761720162E-02 
1263	 3.59967097013979E-02 
1264	 3.32483499219547E-02 
1265	 3.31594167533694E-02 
1266	 3.26728848454044E-02 
1267	 3.28814025098438E-02 
1268	 3.43649759240306E-02 
1269	 3.36360061375621E-02 
1270	 3.37395874515823E-02 
1271	 3.52824190036044E-02 
1272	 3.77281557065999E-02 
1273	 3.81649709368113E-02 
1274	 3.61339254166366E-02 
1275	 3.58408040590693E-02 
1276	 3.48308001935864E-02 
1277	 3.32866651314076E-02 
1278	 3.27641318530084E-02 
1279	 0.03298331196611 
1280	 3.48519556694592E-02 
1281	 3.59396250273899E-02 
1282	 0.037375902680262 
1283	 3.75042827189414E-02 
1284	 3.71711306281888E-02 
1285	 3.55034092589588E-02 
1286	 3.05338878144396E-02 
1287	 2.98375531659363E-02 
1288	 3.23127468135797E-02 
1289	 3.26543039188905E-02 
1290	 3.41913224537487E-02 
1291	 3.43026989167208E-02 
1292	 3.45819264032186E-02 
1293	 0.033489143914679 
1294	 3.31526180307871E-02 
1295	 3.57948315831488E-02 
1296	 3.83126685857056E-02 
1297	 3.77247239412436E-02 
1298	 3.65887411993916E-02 
1299	 3.87418735980223E-02 
1300	 3.97553532469304E-02 
1301	 3.52799056884906E-02 
1302	 3.31060602040312E-02 
1303	 3.52042992985152E-02 
1304	 3.39464203663271E-02 
1305	 3.16354607208642E-02 
1306	 3.04976635804602E-02 
1307	 2.98499868662285E-02 
1308	 2.91130201868292E-02 
1309	 2.94829753358661E-02 
1310	 3.02254370587301E-02 
1311	 3.07788332665842E-02 
1312	 3.34227035339958E-02 
1313	 4.12099282629158E-02 
1314	 0.041069312675171 
1315	 3.61172123679537E-02 
1316	 3.31629447852199E-02 
1317	 2.23616193779975E-02 
1318	 1.69281265727828E-02 
1319	 0.022941173542894 
1320	 2.25803029723059E-02 
1321	 1.76051687283044E-02 
1322	 9.06533871681846E-03 
1323	 1.91568400285729E-02 
1324	 2.22490429357325E-02 
1325	 0.020782368735391 
1326	 2.68124613890257E-02 
1327	 2.57546630551333E-02 
1328	 2.61612419149016E-02 
1329	 3.16321123789554E-02 
1330	 4.30885829638027E-02 
1331	 5.59677430296844E-02 
1332	 4.74796434694656E-02 
1333	 2.83460521501557E-02 
1334	 2.86110718065881E-02 
1335	 3.64924784953713E-02 
1336	 3.07478740009919E-02 
1337	 3.49729019674159E-02 
1338	 7.39944988987682E-02 
1339	 0.097116352623738 
1340	 0.133798128960838 
1341	 0.123034322065666 
1342	 6.35560252268955E-02 
1343	 4.74885476098772E-02 
1344	-2.59378940913331E-02 
1345	-8.05675767639139E-02 
1346	-2.79151135641328E-02 
1347	-1.55638017152079E-02 
1348	-0.135326346676693 
1349	-0.165463575119533 
1350	 2.49795544683231E-02 
1351	 0.103204069290904 
1352	 0.129540426784736 
1353	 0.233593589633577 
1354	 0.35828044927187 
1355	 0.424252985801129 
1356	 3.87157945911046 
1357	 1.32709194328783 
1358	 1.14954135939534 
1359	 0.602358859701447 
1360	 0.458421333488428 
1361	 0.277853526378957 
1362	 2.71555521772952E-02 
1363	 0.155478028696465 
1364	-9.84423390927708E-02 
1365	-0.612506655183098 
1366	-2.52302047305282 
1367	-18.66066173351 
1368	 6.51391449581702 
1369	 0.164711466159831 
1370	-4.17337448781435E-02 
1371	-1.56148931738967 
1372	-4.52435256702158 
1373	 0.41412631944595 
1374	-0.418184132848345 
1375	-0.240520161790292 
1376	-0.667504816006559 
1377	 0.557337332292536 
1378	 0.952016837238284 
1379	 0.28133436909233 
1380	-0.114573398699101 
1381	-3.49229795100783 
1382	-3.60785562619326 
1383	 3.33674418121751E-02 
1384	-1.57444186772941E-02 
1385	-5.99587676523378E-02 
1386	 0.115529562530538 
1387	-3.2796326782939 
1388	-7.94444324392622 
1389	 1.55182106895809 
1390	 2.74786550138002 
1391	 7.002896410151 
1392	 3.00739929090153 
1393	 1.05460171331957 
1394	 1.61091302244001 
1395	-3.93142536992666E-03 
1396	-0.749991482037175 
1397	-1.14774732549728 
1398	-0.803624191445803 
1399	-1.91690350189862 
1400	-0.524860027569201 
1401	 4.76614695388694E-02 
1402	 0.540018718055134 
1403	-3.99620538775467E-03 
1404	-7.26388861596238E-02 
1405	 0.430829083694854 
1406	-2.29712610522689 
1407	-0.99730984791995 
1408	 0.021982981299264 
1409	 0.143250207727787 
1410	-1.39016236377626 
1411	-1.43803766562704 
1412	 0.886147255717157 
1413	 1.75313379470683 
1414	 1.29550443495179 
1415	 3.58320600786132 
1416	-3.63121866560483 
1417	-1.9332683397979 
1418	-0.318645249349089 
1419	-0.166454884785094 
1420	-0.197210302326666 
1421	-9.18340298339875E-02 
1422	 0.528545544098569 
1423	 1.40423485603574 
1424	-1.26738543788588 
1425	-1.04689590078079 
1426	 6.16947245180562 
1427	 1.10823242018893 
1428	 0.445587667860344 
1429	 0.166622846915716 
1430	-0.804729814376434 
1431	-0.945706389206776 
1432	-0.67712973635755 
1433	-0.644829790829085 
1434	-0.275125803168328 
1435	-2.85745915656806E-02 
1436	 3.7377182083029 
1437	 3.39551897215265 
1438	 0.620440443887469 
1439	 1.10140207281952 
1440	 18.7182109839556 
1441	-28.5393359772568 
1442	 0.353260675403312 
1443	 0.695727641422708 
1444	 0.157657083909746 
1445	-1.00384157137539 
1446	-0.813747894442235 
1447	-8.28327418580878E-03 
1448	-8.78465491988702E-03 
1449	 1.7068269932148 
1450	-2.54927391102684 
1451	-0.178313976642545 
1452	-3.79017494494024 
1453	-0.323428950922014 
1454	-0.150410779972588 
1455	 10.8340588938687 
1456	 0.215135504313158 
1457	 0.279889083961447 
1458	 0.219098046881515 
1459	-8.16083147846039E-02 
1460	-0.254355124172524 
1461	-0.405801426026493 
1462	-0.495016225005741 
1463	-0.614436364078062 
1464	-0.407663501718743 
1465	-0.383427093046024 
1466	-1.83964094703325 
1467	-1.08753967477413 
1468	-1.00587543434917 
1469	 2.11971228384402 
1470	 0.516707461903636 
1471	 9.25365544046698 
1472	 3.94580975248832 
1473	-38.7715209103309 
1474	 1.06296975318243 
1475	 0.295677929410289 
1476	 0.194547683438912 
1477	 0.132271986701778 
1478	 0.257323944101074 
1479	 1.73347094841016 
1480	-80.7248408490641 
1481	 29.2316540830776 
1482	-4.39511210101485 
1483	-1.40439150929302 
1484	-4.9407010541327 
1485	-1.76640857640142 
1486	-0.788569331903227 
1487	-0.131755767074989 
1488	-0.174092772576204 
1489	 3.99751030475756E-02 
1490	 0.377193971781725 
1491	-6.31093453347156E-03 
1492	-0.121115966726629 
1493	 0.126225157403268 
1494	 0.154155517161091 
1495	-8.20155999112166E-02 
1496	-0.111327429778319 
1497	 3.85235188861804E-03 
1498	 2.97296131167137E-02 
1499	 0.162777673290739 
1500	 0.154295346259906 
1501	-1.73922818370611E-02 
1502	-4.49059423887708E-02 
1503	 1.70004965642797E-02 
1504	-4.78088319817005E-02 
1505	-0.172338045242922 
1506	-0.150068156711892 
1507	-4.57264726311727E-02 
1508	-0.150357741435632 
1509	-0.106363722069529 
1510	 0.109081620151697 
1511	 0.112510556611143 
1512	 8.68234816909874E-02 
1513	 0.085780420740334 
1514	 3.66022741305093E-02 
1515	 2.71132187984805E-03 
1516	-6.64723471656101E-03 
1517	-1.33361246536516E-02 
1518	-1.55780025580706E-02 
1519	 3.55890422239288E-02 
1520	 0.113468889434609 
1521	 0.168776294177699 
1522	 0.164095126131209 
1523	 0.115136144285484 
1524	 9.55941524468066E-02 
1525	 0.118386718676353 
1526	 0.10356844933083 
1527	 4.41299502307278E-02 
1528	 3.47449171547822E-02 
1529	 6.84933638835451E-02 
1530	 0.079744984150689 
1531	 7.93779549968153E-02 
1532	 7.77187663896731E-02 
1533	 3.82952688894829E-02 
1534	 3.42720060182527E-02 
1535	 7.47332750562546E-02 
1536	 0.067871045068635 
1537	 5.81323681563203E-02 
1538	 7.31576088828238E-02 
1539	 0.070622991562064 
1540	 0.067220778460003 
1541	 7.58470008234198E-02 
1542	 6.00098818789955E-02 
1543	 3.48684291646726E-02 
1544	 4.63803419035043E-02 
1545	 6.36842744470818E-02 
1546	 5.22474838124457E-02 
1547	 5.60779101211196E-02 
1548	 7.32536269533515E-02 
1549	 7.38842339368004E-02 
1550	 7.76111066212277E-02 
1551	 7.99561662888313E-02 
1552	 0.076354742891155 
1553	 8.72880356676906E-02 
1554	 9.79672448669957E-02 
1555	 9.01579052254727E-02 
1556	 8.34632075672151E-02 
1557	 7.47134532980964E-02 
1558	 6.00285643722508E-02 
1559	 5.25953384388226E-02 
1560	 0.057802712237603 
1561	 8.02634525572752E-02 
1562	 8.26030945561019E-02 
1563	 9.24715788583506E-02 
1564	 0.108103526749354 
1565	 6.16872250712779E-02 
1566	 2.89399876485456E-02 
1567	 4.63211689893022E-02 
1568	 4.90790044953322E-02 
1569	 0.031692565673055 
1570	 4.82544864592196E-02 
1571	 7.33109694333802E-02 
1572	 6.89548087886138E-02 
1573	 6.41056389224247E-02 
1574	 0.059092466510398 
1575	 5.39638575234651E-02 
1576	 3.77819235973635E-02 
1577	 4.24310919746498E-02 
1578	 5.75542466732485E-02 
1579	 3.15716029930004E-02 
1580	 1.47630137243864E-02 
1581	 2.40930647464522E-02 
1582	 2.88522238452992E-02 
1583	 1.17730548343299E-02 
1584	-0.011767150198294 
1585	-1.57630397439684E-02 
1586	 1.54465819879542E-03 
1587	 3.33702136069243E-02 
1588	 3.72439972491053E-02 
1589	 1.90897952141527E-02 
1590	 3.09612974396695E-02 
1591	 0.049749206952609 
1592	 0.042841450916538 
1593	 4.03319479793691E-02 
1594	 4.38025651515163E-02 
1595	 0.041631291178245 
1596	 3.70061040448156E-02 
1597	 3.88153205977432E-02 
1598	 4.73852821099931E-02 
1599	 3.04111648669669E-02 
1600	 1.61477497583256E-02 
1601	 3.70267247615483E-02 
1602	 5.57484388254462E-02 
1603	 5.27193068474261E-02 
1604	 4.73692649227298E-02 
1605	 4.24921106193829E-02 
1606	 2.20666877442504E-02 
1607	 2.14416463235554E-02 
1608	 4.61668087917517E-02 
1609	 5.13019819037289E-02 
1610	 0.035375209439346 
1611	 2.18066379788972E-02 
1612	 2.33696276912656E-02 
1613	 2.53534768348517E-02 
1614	 1.31378551896069E-02 
1615	 2.17628978002907E-03 
1616	 1.38345374499109E-02 
1617	 3.62541968172352E-02 
1618	 4.47788322261551E-02 
1619	 5.17513416623132E-02 
1620	 4.76285043297154E-02 
1621	 2.66701845519652E-02 
1622	 2.24341896044273E-02 
1623	 1.89278985453955E-02 
1624	 6.75657831112613E-03 
1625	 1.93738601230567E-02 
1626	 4.24444049581514E-02 
1627	 4.84330459795921E-02 
1628	 4.35502572648771E-02 
1629	 3.65291667863356E-02 
1630	 0.027003509651642 
1631	 9.28735249414277E-03 
1632	 7.31796982519029E-03 
1633	 2.43533733425956E-02 
1634	 2.09743617707563E-02 
1635	 2.20688308481526E-02 
1636	 3.68285701565228E-02 
1637	 3.10126719815098E-02 
1638	 2.30416232824701E-02 
1639	 3.39882998567337E-02 
1640	 4.77681060648862E-02 
1641	 4.61639010168126E-02 
1642	 5.16899203808858E-02 
1643	 8.21048948077573E-02 
1644	 8.18080957763241E-02 
1645	 4.75036270929767E-02 
1646	 5.01367254433261E-02 
1647	 6.48502377773091E-02 
1648	 6.78020694873581E-02 
1649	 8.39634741479079E-02 
1650	 7.76470366217324E-02 
1651	 5.12206290185679E-02 
1652	 5.49197404954471E-02 
1653	 8.38015654417917E-02 
1654	 0.08139401178706 
1655	 4.70785339197019E-02 
1656	 4.17055187832447E-02 
1657	 4.86216527323583E-02 
1658	 0.042469486847357 
1659	 3.88773624082402E-02 
1660	 3.58962971766625E-02 
1661	 2.00863251533143E-02 
1662	 1.01475724338886E-02 
1663	 1.57813827766056E-02 
1664	 2.03761282583899E-02 
1665	 1.85101344407179E-02 
1666	 2.79349749265937E-02 
1667	 4.69993539400531E-02 
1668	 3.64933701575451E-02 
1669	 0.045337317053302 
1670	 4.56036518541595E-02 
1671	 3.36776858360927E-02 
1672	 3.08777199396923E-02 
1673	 3.64224183135018E-02 
1674	 2.25701103898576E-02 
1675	 2.02308185622808E-02 
1676	 4.06764623411642E-02 
1677	 0.02878821173773 
1678	 1.38523615324675E-02 
1679	 2.52378416203319E-02 
1680	 3.08085144931252E-02 
1681	 3.67967407019913E-02 
1682	 5.17552386940122E-02 
1683	 4.71774560500374E-02 
1684	 3.05467978171791E-02 
1685	 1.71664036028114E-02 
1686	 3.48478949957621E-03 
1687	 8.03288803988465E-03 
1688	 2.49950936196901E-02 
1689	 3.36597343737315E-02 
1690	 0.030010486253015 
1691	 2.16957370180581E-02 
1692	 0.020866695641008 
1693	 3.69986729247101E-02 
1694	 5.82340474762507E-02 
1695	 6.12621335834673E-02 
1696	 5.53044480372167E-02 
1697	 5.60488331265575E-02 
1698	 5.68821444656316E-02 
1699	 5.40167538564869E-02 
1700	 4.92421547220498E-02 
1701	 2.68803229326651E-02 
1702	 1.28872870264633E-02 
1703	 3.35391103279327E-02 
1704	 4.87026300588613E-02 
1705	 4.40150979570241E-02 
1706	 0.030787484736812 
1707	 0.031356076611309 
1708	 4.54215829034885E-02 
1709	 6.44797446416935E-02 
1710	 8.86690599100596E-02 
1711	 8.00957227379007E-02 
1712	 6.34353638602218E-02 
1713	 5.15583911761854E-02 
1714	 4.22527490334878E-02 
1715	 4.22244488822065E-02 
1716	 4.76866520096564E-02 
1717	 0.044560852703768 
1718	 3.92975253578394E-02 
1719	 4.23979644923512E-02 
1720	 4.37444484195108E-02 
1721	 4.83500587898561E-02 
1722	 5.23188921802813E-02 
1723	 0.037611390652899 
1724	 3.07072247274004E-02 
1725	 0.047710288594612 
1726	 6.69135089718328E-02 
1727	 7.86814424309555E-02 
1728	 6.72221328915901E-02 
1729	 3.95839224384712E-02 
1730	 3.79737839028841E-02 
1731	 4.95433525105697E-02 
1732	 4.93293804786128E-02 
1733	 6.25427043413549E-02 
1734	 6.66857409898915E-02 
1735	 3.75017192091196E-02 
1736	 3.77734187789302E-02 
1737	 0.065096665815417 
1738	 7.54792680692405E-02 
1739	 0.107665807682122 
1740	 0.115321451555408 
1741	 6.32876843592615E-02 
1742	 3.32791905011921E-02 
1743	 2.86666069125691E-02 
1744	 3.58070590061966E-02 
1745	 6.61962273070449E-02 
1746	 3.50387905476479E-02 
1747	 2.54462643749457E-02 
1748	 3.67637458609244E-02 
1749	 4.08243841862558E-02 
1750	 5.50586131254325E-02 
1751	 0.065041760691335 
1752	 4.96526295510439E-02 
1753	 5.74472115980902E-02 
1754	 9.48301207645511E-02 
1755	 8.68470265910352E-02 
1756	 6.39161512660742E-02 
1757	 9.02235311246841E-02 
1758	 7.29484155204401E-02 
1759	 0.087696186070903 
1760	 9.90872507647804E-02 
1761	 0.065768779572911 
1762	 7.20837945777652E-02 
1763	 0.132385821672477 
1764	 0.170866354085321 
1765	 0.144972065823456 
1766	 0.10595451171705 
1767	 8.61568004893723E-02 
1768	 2.90227802519851E-02 
1769	 2.17739000465106E-02 
1770	 9.86245653385766E-02 
1771	 0.134587354844435 
1772	 0.179775649227288 
1773	 0.17562204049892 
1774	 9.60760056033843E-02 
1775	 6.04132639260298E-02 
1776	 2.83753362051725E-02 
1777	 5.71339612166825E-02 
1778	 7.56731039689824E-02 
1779	 4.83060313342188E-02 
1780	 0.102111836932704 
1781	 0.27663957255045 
1782	 0.327170315584707 
1783	 0.282323798135655 
1784	 0.262595021010207 
1785	 0.188426051535629 
1786	 0.20013925367594 
1787	 0.291847419902997 
1788	 0.304404704987892 
1789	 0.300306656589723 
1790	 0.210921404286294 
1791	 0.254992785089235 
1792	 0.439778228995699 
1793	 0.555016887999269 
1794	 0.487241210111571 
1795	 0.518981199793812 
1796	 0.608390262916242 
1797	 0.471860102342046 
1798	 0.474249495286552 
1799	 0.803168120785468 
1800	-1.87976446750174 
1801	-1.04772967807736 
1802	 0.637971530830719 
1803	 0.862260301866918 
1804	 2.82916474513079 
1805	 6.17520848110179 
1806	 6.70920458991107 
1807	 16.4972238301785 
1808	 0.523731986356878 
1809	 0.6964160480429 
1810	-0.158934602462982 
1811	-0.495030499997708 
1812	-1.1847707665664 
1813	-1.96546265985798 
1814	 2.69230488969994 
1815	 1.4795153956591 
1816	 0.45578690366311 
1817	 0.129694459390985 
1818	 0.512682534825505 
1819	 0.538722302506731 
1820	-16.8706475665356 
1821	 4.16502170287362 
1822	 3.31985372380891 
1823	 1.08079486243329 
1824	 1.04505247049785 
1825	 0.462253629685374 
1826	 0.284653082578692 
1827	-1.32214657480528 
1828	-2.63334655090884 
1829	 1.71611334713836 
1830	 1.12824035460496 
1831	-3.39741259796143 
1832	-5.12096468703339 
1833	 2.69673011318325 
1834	 2.0752652167982 
1835	-0.545156690575038 
1836	-8.8772761691467 
1837	-0.577068839436544 
1838	-0.690348606392987 
1839	-1.36648948850455 
1840	 21.6156205142114 
1841	 1.47264050985592 
1842	 0.837541846630602 
1843	 0.563064327901347 
1844	 1.933071509096 
1845	 2.69586328977753 
1846	 0.416964189161282 
1847	 0.420562618335416 
1848	 2.02736484036773 
1849	 6.76648192049591 
1850	 0.837960105842935 
1851	-6.56261938232784 
1852	 4.65888165327379 
1853	 1.60291770369398 
1854	 1.09244662573395 
1855	 0.721354463717889 
1856	 0.427657461784068 
1857	-0.158601179652364 
1858	-0.301665710373519 
1859	-0.135631874305334 
1860	-0.118139536280351 
1861	-9.77031985849954E-02 
1862	-6.23617701734922E-02 
1863	 0.242397557773456 
1864	 0.394843957825439 
1865	 0.395914255766033 
1866	 0.211623094292524 
1867	 0.193142578023518 
1868	-1.53000646369754 
1869	 1.78418593779168 
1870	-0.706691949066151 
1871	-1.28753581281141 
1872	-1.97811114204375 
1873	-3.4626243738696 
1874	 2.58348251227793 
1875	 0.923744791732644 
1876	 0.802796147121975 
1877	 1.30096010638516 
1878	 1.55795289560643 
1879	 2.91869352344156 
1880	 3.42362405590561 
1881	 3.90466276018995 
1882	 3.65300069723601 
1883	 4.53854920194426 
1884	-3.22914480679522 
1885	-1.63980155412531 
1886	-1.01390375180307 
1887	 1.69985955985453 
1888	 0.930804508199287 
1889	 0.765076812523471 
1890	 0.724308178030897 
1891	 0.709542816237523 
1892	 0.699451401115608 
1893	 0.37327470949097 
1894	 0.58352253661351 
1895	-0.680385281116402 
1896	-0.215768690359621 
1897	-0.3516536131527 
1898	-0.196102958783479 
1899	 0.035434017904959 
1900	 2.19017844371172E-02 
1901	-0.310846922288924 
1902	-0.523507851497837 
1903	-0.799456368247511 
1904	-1.28638044587369 
1905	-1.04474255949318 
1906	 1.02144769769055 
1907	 0.371871575093843 
1908	 0.463543280985923 
1909	 0.683043947976437 
1910	 1.9187987608704 
1911	 5.11024291633295 
1912	-4.30063076225788 
1913	-1.44638075956103 
1914	-0.7486065900204 
1915	-0.652922487036534 
1916	-0.403012254195333 
1917	-1.07769350661761 
1918	-10.1266423690129 
1919	-46.1761298367823 
1920	 11.3181160145569 
1921	-9.05004138752331 
1922	-1.94517890287606 
1923	-1.3760152072194 
1924	-1.5470537052439 
1925	-1.22479958862518 
1926	-1.04433342963446 
1927	-0.41743731074872 
1928	-1.06270651781446 
1929	-2.2381215850321 
1930	-12.5251211418438 
1931	-5.17801674843162 
1932	-2.39423297457467 
1933	-1.19060100241696 
1934	-0.847973172737889 
1935	 0.509188897444041 
1936	 1.05652737588536 
1937	 2.32604607862129 
1938	 2.7827410645552 
1939	 3.11041285747666 
1940	 4.3566874987497 
1941	 3.53484338763846 
1942	 2.69140263616239 
1943	 2.34037675549856 
1944	 2.20495487804503 
1945	 1.94586906893116 
1946	 1.95318069340744 
1947	 1.21280492929871 
1948	 0.926658897545129 
1949	 1.20306427791426 
1950	 2.68216482755848 
1951	-4.08860380761087 
1952	-1.96288482148232 
1953	-1.67697139543608 
1954	-0.607993844517377 
1955	 4.84464026406613E-02 
1956	 0.383669967557131 
1957	 0.515003214609646 
1958	 1.19352760521149 
1959	-4.55696889454288 
1960	-2.21469039648575 
1961	-1.57906076132224 
1962	-1.10238580009177 
1963	-1.38449053071201 
1964	-2.1435906111092 
1965	-1.17687188203839 
1966	-0.725294141045549 
1967	 0.662232319812645 
1968	-1.28905531951627 
1969	 0.113778285905555 
1970	 3.14523495373344 
1971	-4.39966720384859 
1972	-2.43080494544513 
1973	-0.728994642827721 
1974	 6.73448913100442E-02 
1975	 1.42375197919445 
1976	 1.41454962633471 
1977	 4.28229714692996 
1978	 1.76042995613673 
1979	 1.00967913598732 
1980	 0.586794913053679 
1981	-5.12597378040832 
1982	-2.29666625305329 
1983	-1.51398300330302 
1984	-2.45616494133829 
1985	-1.89727069859265 
1986	-1.25650412997472 
1987	-0.547038810682523 
1988	-0.521259808268036 
1989	-0.653733345344354 
1990	-0.454939830370121 
1991	-0.667365351661075 
1992	-0.983404984739389 
1993	-0.911951930294555 
1994	-0.894364035848405 
1995	-1.16890527910309 
1996	-1.66553208951194 
1997	-39.1096277139857 
1998	-1.31444619230625 
1999	-0.437508744944302 
2000	-0.396450578961316 
2001	 4.20924286055036E-02 
2002	-0.293709212365865 
2003	 0.164408989181604 
2004	 1.86679978102101 
2005	 22.3960296831785 
2006	-45.1155523313612 
2007	-2.1966085699166 
2008	 7.4582176750077 
2009	-10.3402652288811 
2010	-2.2098592376253 
2011	-2.29119943827132 
2012	-1.77860100328177 
2013	 1.7647660990774 
2014	 0.473763759021396 
2015	 0.428975524213219 
2016	 0.614344798016736 
2017	 0.897209673162487 
2018	 1.0457704701983 
2019	 1.09338671179891 
2020	 4.18211029948521 
2021	-3.45419760175386 
2022	 8.36864822974677 
2023	 1.45791037995382 
2024	 0.905963486598182 
2025	-0.189762845922073 
2026	-0.676976907864532 
2027	-3.48815782882599 
2028	 2.14022982717744 
2029	 0.885974606834003 
2030	 1.31640728226518 
2031	 77.4240992207559 
2032	-0.842611140653962 
2033	-0.764546569037949 
2034	-0.987977076694015 
2035	-2.31263080652984 
2036	-8.63263891266628 
2037	-5.87179901879198 
2038	-3.28378537800625 
2039	-2.00882732152183 
2040	-0.771160029619645 
2041	-6.02539626750518E-02 
2042	 0.764878911428402 
2043	 0.814573151203901 
2044	 0.560053798752707 
2045	 0.453822170419232 
2046	 0.378827583400418 
2047	 0.484842583819165 
2048	 0.377088100700125 
2049	 0.718960250621907 
2050	 0.1847684270174 
2051	 0.916805375032031 
2052	 0.473072303817263 
2053	 0.617972454401442 
2054	 0.69256188377804 
2055	 0.710653941309262 
2056	 0.919695367733966 
2057	 3.34834121026331 
2058	 3.24945845449136 
2059	 1.36641533155675 
2060	 1.21243521399679 
2061	 0.826962145624431 
2062	 0.354485280257582 
2063	 0.524215856304418 
2064	-0.174656882200701 
2065	-0.805398065695273 
2066	-0.61749964204489 
2067	-0.449055458751958 
2068	-0.156604226637997 
2069	 0.172385150049203 
2070	 0.478964426586821 
2071	 0.646863437195377 
2072	 0.454291838661449 
2073	 0.338465852955517 
2074	-0.531657677503619 
2075	-0.802122333909235 
2076	-0.488241559488944 
2077	 0.112934296091385 
2078	 0.663877954639824 
2079	 0.83841121671839 
2080	 1.38442162348927 
2081	 2.55273704158757 
2082	 4.88595063622235 
2083	 45.7733319654591 
2084	 1.59406015427345 
2085	 0.457996732491574 
2086	 0.216614933711353 
2087	 0.600010064109939 
2088	 1.71533498217476 
2089	-25.0653311669193 
2090	-3.00129158107528 
2091	-4.35401873362268 
2092	-5.42503614093881 
2093	 8.1870950265625 
2094	 1.5122905992139 
2095	 0.154118404450578 
2096	 2.04466588805392E-02 
2097	 0.140342813651868 
2098	 0.389218658513838 
2099	 1.55417625942454 
2100	 7.27727937421495 
2101	 3.30132263192508 
2102	 1.16931538125747 
2103	 5.50587122414794E-02 
2104	-0.249970773751795 
2105	-0.300464594101051 
2106	-0.100718845765983 
2107	 2.30488923740173E-02 
2108	-2.79820788481887E-02 
2109	 0.06396972131496 
2110	 0.151399978712331 
2111	 1.41569655926581E-02 
2112	-0.284078032089614 
2113	-0.391098032196409 
2114	-0.390060684214901 
2115	-0.439749821835688 
2116	-0.293374779687009 
2117	-0.274817985199575 
2118	-0.376049882890801 
2119	-0.34732817462972 
2120	-0.263128246322057 
2121	-0.203435724885122 
2122	-8.00855603372857E-02 
2123	-0.106195075089845 
2124	-0.081942319517764 
2125	-0.160106139169148 
2126	-0.14771771287334 
2127	 0.358675361205023 
2128	 0.623464588166954 
2129	 0.687910418944698 
2130	 0.57254117814521 
2131	 0.380385475924118 
2132	 0.18245340263458 
2133	-4.93670955766217E-02 
2134	-0.131748519716741 
2135	-0.02378903333343 
2136	-1.60207998453376E-02 
2137	 4.36173445526691E-03 
2138	 7.20918217062834E-02 
2139	 0.110690897554451 
2140	 0.141416623573235 
2141	 0.26408870687242 
2142	 0.365341114850566 
2143	 0.462178350146378 
2144	 0.496178855567883 
2145	 0.527767157263222 
2146	 0.547383127420568 
2147	 0.314661149387713 
2148	 0.217701253978931 
2149	 0.28878731191719 
2150	 0.272497806396628 
2151	 0.267755208636396 
2152	 0.260200965586543 
2153	 0.231040297855598 
2154	 0.189787747421341 
2155	 8.16486868534576E-02 
2156	 8.25525921183071E-02 
2157	 2.32485959160793E-02 
2158	-0.192606725374423 
2159	-0.158020526296363 
2160	 8.51729060862037E-02 
2161	 0.11417949670548 
2162	 0.214155762034449 
2163	 0.169502267820731 
2164	-7.89370066422507E-02 
2165	-0.184835431310101 
2166	-0.278139166811876 
2167	-0.262398548522888 
2168	-0.118718179238529 
2169	-3.64169398185459E-02 
2170	 7.68099766919172E-02 
2171	 0.224940021284669 
2172	 0.409355326233065 
2173	 0.388369189878565 
2174	 0.286798647430414 
2175	 0.218653130155151 
2176	-4.82657155767937E-02 
2177	-0.141862521283586 
2178	 5.25273184081761E-02 
2179	 0.275469578205504 
2180	 0.40415752185088 
2181	 0.455094085406835 
2182	 0.363151183966595 
2183	 8.59556049609278E-02 
2184	-0.092954381518606 
2185	-5.76088558783274E-02 
2186	-8.50169481753981E-02 
2187	-0.16814911854664 
2188	-0.145261099850915 
2189	-4.08143338539155E-02 
2190	-4.45355701170192E-02 
2191	-5.22552885798275E-02 
2192	-5.56872689821627E-02 
2193	-0.108644760975095 
2194	-7.14433190934304E-02 
2195	 1.28978396481332E-02 
2196	 8.32848254201588E-02 
2197	 0.222202769513744 
2198	 0.306089528032412 
2199	 0.399838313796628 
2200	 0.52695444418289 
2201	 0.261423167209041 
2202	 8.29735499296832E-02 
2203	 9.05507218224758E-03 
2204	-0.173999425817539 
2205	-0.05195932995798 
2206	 0.116718762494653 
2207	 9.74337385251726E-02 
2208	 8.30166888076339E-02 
2209	 8.62213173555755E-02 
2210	 4.15817405882004E-02 
2211	-1.53630178446384E-02 
2212	-5.85208442020149E-02 
2213	 7.47236950664904E-02 
2214	 0.153890201368713 
2215	 1.75356855801108E-02 
2216	-6.03028344349211E-02 
2217	-9.86158571565687E-02 
2218	-0.240603236783623 
2219	-0.281384724045902 
2220	-0.225440499053551 
2221	-0.166288944861054 
2222	-9.18874507853849E-02 
2223	-5.39047968516939E-02 
2224	 5.81153468817086E-02 
2225	 0.119143137031289 
2226	 7.11943581673302E-02 
2227	 7.30640541244941E-02 
2228	 0.128841421312577 
2229	 0.191154705517699 
2230	 0.24862642926867 
2231	 0.255582962996124 
2232	 0.22843490330677 
2233	 0.259950150764736 
2234	 0.286390247946076 
2235	 0.282083863700071 
2236	 0.235565622368768 
2237	 0.280857083441743 
2238	 0.244592730880472 
2239	 0.266181276207465 
2240	 0.391060808806323 
2241	 0.326830975465555 
2242	 0.222307548619435 
2243	 0.118747977520509 
2244	 3.76705631588557E-02 
2245	 6.92091078455184E-02 
2246	 0.272635582169257 
2247	 0.458139439345607 
2248	 0.369063394279806 
2249	 0.306804145572677 
2250	 0.213139745513622 
2251	 7.66754397151641E-02 
2252	 0.147419928584403 
2253	 0.249598582993309 
2254	 0.057664333261087 
2255	-4.61452135381546E-02 
2256	-4.90306480139777E-02 
2257	-0.331554544189342 
2258	-0.396551556565895 
2259	-0.177252185518681 
2260	-4.04793300461822E-02 
2261	 0.120259469273973 
2262	 0.212360172767266 
2263	 0.364977007754572 
2264	 0.415263105178285 
2265	 0.441549369787358 
2266	 0.557696969322529 
2267	 0.737387023267175 
2268	 0.600600572512043 
2269	 0.383435944160314 
2270	 0.179909007596896 
2271	-0.123816608205014 
2272	-0.209810880817973 
2273	-0.264110109081548 
2274	-0.276089361064787 
2275	-0.155799642177282 
2276	-6.78578228462838E-02 
2277	-9.79275320768959E-03 
2278	-9.56775776272885E-03 
2279	-0.237492830965922 
2280	-0.140304694028867 
2281	 7.25937034242909E-02 
2282	 0.262576242160179 
2283	 0.525455387210775 
2284	 1.05578942405134 
2285	 1.84180826777499 
2286	 3.82094141609894 
2287	-4.47563792835623 
2288	 250.383702077197 
2289	 0.35626835657489 
2290	 0.431690620530439 
2291	 0.413948783570426 
2292	 1.06363955612743 
2293	 6.80998958582884 
2294	 26.5859572778061 
2295	 27.7471282813005 
2296	 4.62383501394262 
2297	 3.43857572854169 
2298	 2.06305889127231 
2299	 1.11071770321537 
2300	 0.749694425229086 
2301	 0.358787206466811 
2302	 0.396356033776101 
2303	 0.946273423190867 
2304	 0.642099355131434 
2305	 8.32125240541757E-02 
2306	-0.150008098396125 
2307	-0.198996353649636 
2308	 0.04485350791622 
2309	 0.200257226221604 
2310	 9.69137889341133E-02 
2311	 0.233688662341598 
2312	 0.146826195675761 
2313	-1.39757930775514E-02 
2314	-1.36182811980068E-02 
2315	-0.343997583437351 
2316	-0.771635502209008 
2317	-1.0994422974243 
2318	-0.88660527044006 
2319	-0.462339368812877 
2320	 0.219319514015447 
2321	 0.921116757326054 
2322	 1.63637728687728 
2323	 1.0147171743944 
2324	 0.186177504690902 
2325	 0.373105322230755 
2326	 0.254274663853181 
2327	-0.185841025354487 
2328	-0.278720752557331 
2329	-0.510072911348806 
2330	-0.734822046025135 
2331	-0.381383838488191 
2332	-5.12313222153525E-02 
2333	 1.48715053354691E-02 
2334	 0.215534900828553 
2335	-0.332240166622307 
2336	-1.16256278716672 
2337	-1.20490409969231 
2338	-0.987052895072539 
2339	-2.13623010002632 
2340	-1.51698119623442 
2341	-0.780000028908958 
2342	-0.602508781440937 
2343	-0.517884382225096 
2344	-0.678591654048655 
2345	-6.1656118853617 
2346	 1.12580878215369 
2347	 0.259243406882078 
2348	 2.27968561870177E-03 
2349	-0.673671649563853 
2350	 2.94841993409179 
2351	 1.40035177131783 
2352	-0.99745130970501 
2353	-0.821542328764636 
2354	-0.388539303476725 
2355	-0.26313074170853 
2356	 0.353958678188387 
2357	-26.2886528880055 
2358	-2.64572876066501 
2359	-2.81850464606709 
2360	-0.585692208009176 
2361	-2.30175805997483 
2362	-1.05886638864816 
2363	-1.58364356598546 
2364	-1.32320555311567 
2365	-1.65611288752306 
2366	-1.58540796348448 
2367	 64.0982605944466 
2368	 2.02345274112356 
2369	 1.20367233664638 
2370	 0.523197475406959 
2371	 0.610147615308931 
2372	 1.16120609232002 
2373	 1.91007179146766 
2374	 1.53059916963038 
2375	 2.80292342722626 
2376	 2.72098139214961 
2377	-7.45432731130256E-02 
2378	-0.389300627262496 
2379	-0.318524102609435 
2380	-0.231814522235987 
2381	-0.820363934391259 
2382	-4.56630013832381 
2383	 5.85686351074816 
2384	 2.13137937589788 
2385	 1.95910035564803 
2386	 3.61949612517109 
2387	 1.45921505564293 
2388	 2.99229153627592 
2389	-0.702396978663373 
2390	 0.8685006958244 
2391	 1.00404311167645 
2392	 2.00285197554526 
2393	-9.95968016892902 
2394	-6.38496538971245 
2395	-6.09525830302793 
2396	 1.99224784905423 
2397	 0.351676153952571 
2398	 0.168432727640223 
2399	 1.35970716589495 
2400	 5.20896129090355 
2401	-1.49009025035697 
2402	-2.05059723672925 
2403	 3.62867327083235 
2404	 3.54820057502743 
2405	 2.63019662859901 
2406	-8.21729051788293E-02 
2407	-4.18444773970365 
2408	 10.2195898614 
2409	-3.14117885904338 
2410	-1.76490333572649 
2411	-1.70036992769625 
2412	-0.137962894509013 
2413	-0.235167697535941 
2414	-0.257943337498035 
2415	-2.33454995521741E-02 
2416	-0.14921133882173 
2417	 0.678787932441095 
2418	 2.78593743415701 
2419	 3.2734282314034 
2420	 1.9625314452359 
2421	 1.01307050934981 
2422	 0.704089763432226 
2423	 0.585923784786483 
2424	 0.210477865037706 
2425	 0.107381089215366 
2426	-7.24699024617936E-02 
2427	 2.57969263263314 
2428	 1.28132880123911 
2429	 0.674982477634346 
2430	 0.475181237562811 
2431	 8.97381035345353E-02 
2432	-0.293969333034593 
2433	-0.464939860389146 
2434	-0.403634246941038 
2435	 0.723299561432824 
2436	-241.827954199827 
2437	-2.86744481908395 
2438	-1.1868916896102 
2439	-0.540096638209584 
2440	-0.36036046065764 
2441	-0.984640317671139 
2442	 6.0149378950229 
2443	 1.96008436680976 
2444	-4.68760109252193 
2445	-0.487274653561901 
2446	-1.09171299489278 
2447	-0.532398099498633 
2448	-0.658490687628223 
2449	-3.92702059070027 
2450	-6.55538886689523 
2451	-0.563937581822674 
2452	-2.01890580765697 
2453	 4.25602720416576E-02 
2454	 0.168195737081427 
2455	-1.59444108439999 
2456	-6.81312335979214 
2457	-0.72686472316174 
2458	-1.30768536771172 
2459	-2.19639949580085 
2460	-4.35284127019475 
2461	-7.53733363007883 
2462	-6.26281473041882 
2463	 9.2998684771918 
2464	 4.15831321802738 
2465	-10.0945703736503 
2466	 1.89897163141804 
2467	 4.47385367256503 
2468	 1.48848059887766 
2469	 0.270099929583275 
2470	 0.432323365583528 
2471	 0.786154659802261 
2472	 0.132209818690672 
2473	 0.611200931000741 
2474	 0.283715835689731 
2475	 0.813759521189463 
2476	 0.57152602665152 
2477	-0.156332849063282 
2478	 3.95924964201886E-02 
2479	 0.244048217680804 
2480	-0.674066085615651 
2481	-2.75815000070377 
2482	-0.59169232987222 
2483	-0.157650086699382 
2484	 0.046844911187908 
2485	 0.142374174830334 
2486	-0.290372054931355 
2487	-0.435567583862298 
2488	-0.983480289930766 
2489	 11.4773802130071 
2490	 2.03882772226596 
2491	 1.77575941099222 
2492	 2.11254047437624 
2493	 0.475520352702356 
2494	-0.349606972192219 
2495	-29.8850565602317 
2496	-5.87588396589951 
2497	-3.26655350625811 
2498	-1.21778285115605 
2499	-0.103387446150617 
2500	 1.23099773952828 
