Wavelength	rt0712west_far00004.asd
350	 0.103324505852424 
351	 0.105072519059292 
352	 0.105171883937559 
353	 0.10447195161567 
354	 0.104162253914143 
355	 0.10461061130068 
356	 0.105444320668641 
357	 0.105304158108555 
358	 0.103596620129715 
359	 0.104083618803546 
360	 0.104112146085324 
361	 0.104148286773999 
362	 0.106344558879243 
363	 0.105624189825767 
364	 0.104823255524044 
365	 0.105304294537006 
366	 0.104698051664935 
367	 0.104146071188711 
368	 0.104138397291233 
369	 0.10474413706916 
370	 0.105257752357826 
371	 0.105176123473046 
372	 0.10496401812809 
373	 0.105480751764355 
374	 0.105468683396317 
375	 0.10563470061873 
376	 0.106106878532792 
377	 0.105975699233487 
378	 0.107245547938698 
379	 0.108086222304326 
380	 0.107196198771468 
381	 0.1078245246194 
382	 0.10802224253271 
383	 0.107935515657623 
384	 0.108486414286795 
385	 0.108520020283506 
386	 0.107922329837285 
387	 0.107242179736872 
388	 0.107575017607923 
389	 0.108025416012057 
390	 0.109185065440725 
391	 0.110740598064354 
392	 0.109397347313899 
393	 0.108953534267462 
394	 0.10959432720677 
395	 0.110147829805493 
396	 0.110655534486965 
397	 0.110609265413747 
398	 0.11025773360828 
399	 0.110432374873269 
400	 0.110446748419664 
401	 0.110256400311205 
402	 0.110176565787727 
403	 0.111229142308392 
404	 0.11145751477985 
405	 0.111299847398255 
406	 0.1117924233296 
407	 0.11168585712086 
408	 0.111675246606204 
409	 0.111975244078181 
410	 0.112214036942297 
411	 0.112278333685109 
412	 0.112412108269818 
413	 0.112833529598382 
414	 0.113661275671657 
415	 0.113607094193967 
416	 0.113439133289046 
417	 0.114343787083032 
418	 0.11433943741685 
419	 0.114297498161645 
420	 0.114677461009021 
421	 0.115262086955542 
422	 0.115624839700793 
423	 0.11584307000238 
424	 0.116109885248811 
425	 0.116604006161607 
426	 0.117074572184548 
427	 0.117543084152926 
428	 0.118089438397032 
429	 0.118131919487882 
430	 0.118469084761489 
431	 0.119208702832414 
432	 0.119519291129116 
433	 0.119760285977846 
434	 0.120296309922971 
435	 0.121107190017727 
436	 0.120952495860942 
437	 0.121348507500255 
438	 0.122276866262007 
439	 0.122873901450425 
440	 0.12312602519255 
441	 0.123479042355082 
442	 0.12400400942137 
443	 0.124131899624768 
444	 0.124437026535651 
445	 0.125055543654137 
446	 0.125869003834911 
447	 0.126371829754137 
448	 0.126485713938848 
449	 0.126544019460785 
450	 0.127112638659067 
451	 0.127748819310698 
452	 0.12812621410871 
453	 0.128210031123948 
454	 0.128495628980714 
455	 0.128891553466632 
456	 0.129099766784769 
457	 0.128977197918918 
458	 0.129688946624092 
459	 0.130132277194088 
460	 0.130104218860887 
461	 0.130402784207376 
462	 0.130791880728178 
463	 0.13104589247632 
464	 0.13111763780682 
465	 0.131468202149176 
466	 0.131805501616763 
467	 0.131972334286751 
468	 0.131970627625323 
469	 0.132426629261627 
470	 0.132885999429431 
471	 0.13303070377309 
472	 0.132862583901557 
473	 0.133124995145011 
474	 0.133779860899823 
475	 0.134441113235951 
476	 0.134316149462923 
477	 0.134703155649498 
478	 0.135441723664161 
479	 0.135459625368879 
480	 0.135580877006562 
481	 0.136037420031702 
482	 0.136728792582606 
483	 0.137046445220139 
484	 0.137397403678132 
485	 0.137639639703634 
486	 0.137633925391251 
487	 0.138247189327071 
488	 0.139106650338747 
489	 0.139724767479424 
490	 0.139651600923991 
491	 0.140111269526175 
492	 0.140885690094409 
493	 0.141525405024912 
494	 0.141762139659694 
495	 0.142191727771598 
496	 0.142807732649399 
497	 0.143297422783796 
498	 0.143642807159357 
499	 0.144138863845626 
500	 0.144784092779201 
501	 0.145052007895315 
502	 0.145573588778919 
503	 0.146199514676549 
504	 0.146668733484697 
505	 0.147233769195074 
506	 0.148127451084069 
507	 0.149014612656771 
508	 0.149221307375772 
509	 0.14976788259717 
510	 0.150512867403981 
511	 0.151199125813062 
512	 0.151735352834363 
513	 0.15248791035025 
514	 0.153258770246813 
515	 0.153708342866937 
516	 0.154429631856927 
517	 0.155381632108211 
518	 0.156350070612367 
519	 0.157002629021625 
520	 0.157369705487352 
521	 0.157964372074188 
522	 0.159065877005274 
523	 0.159756342367453 
524	 0.160641448919724 
525	 0.161641905434914 
526	 0.162253975945886 
527	 0.163130319881976 
528	 0.163892189928311 
529	 0.164466027162512 
530	 0.165730919040146 
531	 0.166612250761476 
532	 0.167334360408851 
533	 0.168422006921146 
534	 0.169074030861177 
535	 0.169859668996995 
536	 0.170937647989156 
537	 0.171905812801553 
538	 0.172737785870618 
539	 0.173510765185779 
540	 0.174348190371608 
541	 0.175425568753006 
542	 0.176268275805042 
543	 0.176987839654737 
544	 0.17800800734082 
545	 0.178692167183771 
546	 0.179771207386898 
547	 0.181369662860703 
548	 0.182147112819001 
549	 0.182955372508289 
550	 0.183907471607947 
551	 0.184902189003131 
552	 0.18613370666369 
553	 0.186915334840457 
554	 0.18737062090733 
555	 0.188552800966276 
556	 0.189543884062619 
557	 0.190364420910036 
558	 0.191171465643533 
559	 0.19181831640544 
560	 0.192599367817944 
561	 0.193421465410906 
562	 0.19399397446795 
563	 0.194690092091043 
564	 0.195331094858229 
565	 0.195856684043297 
566	 0.196600618912283 
567	 0.19716504333497 
568	 0.197514155179572 
569	 0.19780726100505 
570	 0.198391350093978 
571	 0.199060453518991 
572	 0.199586766233644 
573	 0.199770558940893 
574	 0.200126529247987 
575	 0.200519273767882 
576	 0.200795618580944 
577	 0.201297693092634 
578	 0.201621595895449 
579	 0.201751183600402 
580	 0.201899376581521 
581	 0.201982584037977 
582	 0.202040496878762 
583	 0.201972596158739 
584	 0.201360159651688 
585	 0.200875233469998 
586	 0.200234956483784 
587	 0.198940230380486 
588	 0.197934646316911 
589	 0.196958855617785 
590	 0.196242518769635 
591	 0.196424622616624 
592	 0.196269259851854 
593	 0.195732000567608 
594	 0.195044201545913 
595	 0.194480218377123 
596	 0.193609553640609 
597	 0.192603222605134 
598	 0.191890564342609 
599	 0.19104534742165 
600	 0.190264988521761 
601	 0.189673954969362 
602	 0.189178290425011 
603	 0.188811698865824 
604	 0.188477278277028 
605	 0.188129060516449 
606	 0.188180300830581 
607	 0.188239548843174 
608	 0.188065538157296 
609	 0.187648375327191 
610	 0.18787916761542 
611	 0.18818450777765 
612	 0.187988294704651 
613	 0.187629473980348 
614	 0.187555958837752 
615	 0.18767180056793 
616	 0.187576652070264 
617	 0.187369863290586 
618	 0.187294485361657 
619	 0.187406015940399 
620	 0.187465472730312 
621	 0.186940258086594 
622	 0.18653659226105 
623	 0.186968941599874 
624	 0.186811537324069 
625	 0.186362510566226 
626	 0.185907718916258 
627	 0.185667801674807 
628	 0.185556185527996 
629	 0.185497935848551 
630	 0.18552566231558 
631	 0.186066445474382 
632	 0.1859636395725 
633	 0.185448175245506 
634	 0.185364012526777 
635	 0.185616973168748 
636	 0.185765550621516 
637	 0.185651947959025 
638	 0.185567437398188 
639	 0.185260137933855 
640	 0.18501367910915 
641	 0.185062278852811 
642	 0.184804743910768 
643	 0.18459548418763 
644	 0.184254379610184 
645	 0.183178638021353 
646	 0.182517771938939 
647	 0.182314342398466 
648	 0.182308873216558 
649	 0.182200060715661 
650	 0.182153389762906 
651	 0.182079526031105 
652	 0.181801173667138 
653	 0.18115003030939 
654	 0.180166061153634 
655	 0.179058312310103 
656	 0.17837523332368 
657	 0.1777518935269 
658	 0.177254165990368 
659	 0.17692826629934 
660	 0.176598982446278 
661	 0.175794414322797 
662	 0.174928087942768 
663	 0.174856698077531 
664	 0.174687627661959 
665	 0.174435337886228 
666	 0.174151424601315 
667	 0.173735228607458 
668	 0.173407045309292 
669	 0.173361522151595 
670	 0.173571970806705 
671	 0.173011789756369 
672	 0.172688280557584 
673	 0.172812972090178 
674	 0.172793503573652 
675	 0.173161471917369 
676	 0.173310405046048 
677	 0.172913965807951 
678	 0.172850859769614 
679	 0.17279232246124 
680	 0.172769385358928 
681	 0.1729228493882 
682	 0.173116767346332 
683	 0.173067908363998 
684	 0.172754243279533 
685	 0.172477240093424 
686	 0.172137021247071 
687	 0.171864705745945 
688	 0.171819944054041 
689	 0.172065118284792 
690	 0.171512097333614 
691	 0.170326923191045 
692	 0.169463543035166 
693	 0.168847483455295 
694	 0.168407591655895 
695	 0.168094742137615 
696	 0.167994828552954 
697	 0.166875405945702 
698	 0.164942993699076 
699	 0.163220786479739 
700	 0.162849670494149 
701	 0.162174393884575 
702	 0.16080055114697 
703	 0.159360741480298 
704	 0.158207697663347 
705	 0.156732632942987 
706	 0.154823636664297 
707	 0.153547056946585 
708	 0.151991082403787 
709	 0.150014933869818 
710	 0.147865440608124 
711	 0.145899894810913 
712	 0.143721855935227 
713	 0.141247606196476 
714	 0.138717208584697 
715	 0.135739617489515 
716	 0.131604284529848 
717	 0.12673832641126 
718	 0.124278656248764 
719	 0.121630113346226 
720	 0.119633998457517 
721	 0.118787055913135 
722	 0.116652509022546 
723	 0.113478893236674 
724	 0.110298034448977 
725	 0.107559010346762 
726	 0.10495867396914 
727	 0.102280382427708 
728	 9.95280000370753E-02 
729	 9.74236255825596E-02 
730	 9.44757903244139E-02 
731	 9.15525090788728E-02 
732	 8.96215497508641E-02 
733	 8.84092638414608E-02 
734	 8.70965915138768E-02 
735	 8.55543634906703E-02 
736	 8.45288926685719E-02 
737	 8.38566373205671E-02 
738	 0.083453075662527 
739	 8.32091552543987E-02 
740	 8.29002719533856E-02 
741	 0.082561531237701 
742	 8.24907831104558E-02 
743	 8.29106805698099E-02 
744	 8.25409368070781E-02 
745	 8.21228639988104E-02 
746	 8.20813531396319E-02 
747	 8.21634319437043E-02 
748	 8.21878325565048E-02 
749	 8.20619359563285E-02 
750	 8.18210410538894E-02 
751	 8.17465907047034E-02 
752	 8.19754319023702E-02 
753	 0.082143792474742 
754	 8.17300111057358E-02 
755	 8.12986849544483E-02 
756	 8.13296166187194E-02 
757	 8.16540411964103E-02 
758	 8.09651725151418E-02 
759	 8.08438659242536E-02 
760	 8.08194658282157E-02 
761	 7.92547282257914E-02 
762	 7.89840236431291E-02 
763	 7.93984636027127E-02 
764	 8.00581608152804E-02 
765	 8.07048671274547E-02 
766	 8.12888006332826E-02 
767	 8.14676076438356E-02 
768	 8.14706172022598E-02 
769	 8.19536552009482E-02 
770	 8.21627966367843E-02 
771	 0.082250078143836 
772	 8.24162859733834E-02 
773	 8.24818288686394E-02 
774	 8.28549908602269E-02 
775	 8.32032306359834E-02 
776	 8.30637916924362E-02 
777	 8.32625783470486E-02 
778	 8.35664518984915E-02 
779	 8.39204364580691E-02 
780	 8.44768813691883E-02 
781	 8.43274396620884E-02 
782	 8.42879711734912E-02 
783	 8.48363892520702E-02 
784	 8.48804105008167E-02 
785	 8.53692551176819E-02 
786	 8.59335138644554E-02 
787	 0.085879160405628 
788	 0.085804657662047 
789	 8.61881294935584E-02 
790	 8.69890735044965E-02 
791	 8.77202617277932E-02 
792	 8.81797168748181E-02 
793	 8.85329912715003E-02 
794	 8.88731013788979E-02 
795	 8.90292732347955E-02 
796	 8.92812723909081E-02 
797	 0.089571239909909 
798	 8.98035790583527E-02 
799	 9.00548804058764E-02 
800	 9.02146519392125E-02 
801	 0.090700174392064 
802	 9.19244281312676E-02 
803	 9.21531216051835E-02 
804	 9.22792144350298E-02 
805	 0.092556026126124 
806	 9.23665566122785E-02 
807	 9.22183027000438E-02 
808	 9.19837924260972E-02 
809	 9.15388005149094E-02 
810	 9.11675273080514E-02 
811	 9.04831106102405E-02 
812	 8.95830366158503E-02 
813	 0.088893330078789 
814	 8.89525124468671E-02 
815	 0.087992019483454 
816	 8.66064165345429E-02 
817	 8.70816032228435E-02 
818	 8.63893746680905E-02 
819	 8.64111146086327E-02 
820	 8.70489369888867E-02 
821	 8.56381410667433E-02 
822	 8.33970044962718E-02 
823	 8.14216141381309E-02 
824	 0.080353689662419 
825	 7.99906271651443E-02 
826	 7.80755441606394E-02 
827	 7.57261949994019E-02 
828	 7.51755002127011E-02 
829	 7.41485609723496E-02 
830	 7.27617418106413E-02 
831	 7.15190227967286E-02 
832	 7.10800663910656E-02 
833	 7.12545659651702E-02 
834	 7.13500936080561E-02 
835	 7.08569697389418E-02 
836	 6.95519010532074E-02 
837	 6.99805111330687E-02 
838	 7.06648223101406E-02 
839	 7.02257813236827E-02 
840	 6.95452699281274E-02 
841	 6.92066663803715E-02 
842	 6.90806642257968E-02 
843	 6.88363454809042E-02 
844	 6.86338128499238E-02 
845	 6.86586764815955E-02 
846	 6.89224661639797E-02 
847	 6.92249777037272E-02 
848	 6.86161336996682E-02 
849	 6.81901013793133E-02 
850	 6.82354925207802E-02 
851	 6.77375140467467E-02 
852	 6.77243042468987E-02 
853	 6.77407842871326E-02 
854	 6.74968183579636E-02 
855	 6.76954673183331E-02 
856	 6.75551432585851E-02 
857	 6.72795945707355E-02 
858	 6.72803401696675E-02 
859	 6.78015928552274E-02 
860	 6.75523722406321E-02 
861	 6.66234209589143E-02 
862	 6.58949038300293E-02 
863	 6.60691336611375E-02 
864	 6.67272689466389E-02 
865	 6.72058001463876E-02 
866	 6.68520762776978E-02 
867	 6.63429663132482E-02 
868	 6.65326508868555E-02 
869	 6.69027338295546E-02 
870	 6.53277922283428E-02 
871	 0.065500766278167 
872	 6.60051755721033E-02 
873	 6.55358736851957E-02 
874	 6.56371657357058E-02 
875	 0.065808012398582 
876	 6.54786997010524E-02 
877	 6.45392788665252E-02 
878	 6.46444787843812E-02 
879	 6.43909700176739E-02 
880	 6.38384211463979E-02 
881	 6.37407966606658E-02 
882	 6.42915217045988E-02 
883	 6.40271169927451E-02 
884	 6.36454777195365E-02 
885	 6.49876599948847E-02 
886	 6.40406069772035E-02 
887	 6.40173308058567E-02 
888	 6.51652423983085E-02 
889	 6.36807563099913E-02 
890	 6.33555730148362E-02 
891	 0.063108131449679 
892	 6.20562631666404E-02 
893	 0.061765868234249 
894	 6.33122684131258E-02 
895	 6.23255302002757E-02 
896	 5.69353331855618E-02 
897	 6.33798313219573E-02 
898	 6.43140040330678E-02 
899	 0.062687323939605 
900	 6.54368063367295E-02 
901	 6.14623996758987E-02 
902	 6.04335935842131E-02 
903	 6.10323410970972E-02 
904	 5.95620129498652E-02 
905	 6.13623956297772E-02 
906	 6.13026851735103E-02 
907	 5.96251190098945E-02 
908	 6.05861138872684E-02 
909	 5.85125869863771E-02 
910	 6.03351029518977E-02 
911	 6.44684596160983E-02 
912	 6.17106564185382E-02 
913	 5.97964315560628E-02 
914	 6.04417944548284E-02 
915	 6.26713612770948E-02 
916	 6.34761554627986E-02 
917	 6.10178309581488E-02 
918	 0.060758086045698 
919	 6.25328912117739E-02 
920	 5.93189968687563E-02 
921	 6.37600322857676E-02 
922	 6.83576959869103E-02 
923	 6.55465451115084E-02 
924	 5.56159952663706E-02 
925	 5.31821034403039E-02 
926	 6.07511811931968E-02 
927	 7.08673394437313E-02 
928	 5.58655832308266E-02 
929	 6.91020530795723E-02 
930	 9.81342993585932E-02 
931	 7.67647912969224E-02 
932	 6.95400249220217E-02 
933	 0.120634194432662 
934	 0.15690706148238 
935	 8.72803326532511E-02 
936	 6.74135610072657E-02 
937	 0.105784516278204 
938	 0.129306653478046 
939	 8.80405413023045E-02 
940	 7.40981479121219E-02 
941	 7.98625669320419E-02 
942	 8.66809829267503E-02 
943	 0.074260954377685 
944	 5.75147041106668E-02 
945	 6.40241961415289E-02 
946	 8.39808939313671E-02 
947	 8.64985923634201E-02 
948	 8.21745760029058E-02 
949	 0.084521442222312 
950	 8.63214116062671E-02 
951	 7.28337039976886E-02 
952	 5.50539218833263E-02 
953	 6.56447299415291E-02 
954	 0.080148532855019 
955	 5.83815154412862E-02 
956	 8.22949006087781E-02 
957	 6.84615056993689E-02 
958	 4.92245407699229E-02 
959	 0.101393535683458 
960	 8.44539562061951E-02 
961	 6.25052538413613E-02 
962	 6.59516705159077E-02 
963	 8.37722660524862E-02 
964	 6.53461212845216E-02 
965	 6.15395301207607E-02 
966	 7.13001342038446E-02 
967	 6.31816097401474E-02 
968	 5.88752126011548E-02 
969	 6.04447103391677E-02 
970	 6.54318239600936E-02 
971	 6.84724696897436E-02 
972	 6.05841908765407E-02 
973	 0.062815117204154 
974	 7.16512925668239E-02 
975	 0.061895268522304 
976	 6.71727815763426E-02 
977	 7.16045927010044E-02 
978	 6.54918809831935E-02 
979	 5.27757155959363E-02 
980	 6.08011358979645E-02 
981	 0.064884422051653 
982	 6.15671625040281E-02 
983	 6.44586459551094E-02 
984	 7.02928134317238E-02 
985	 6.63441722729324E-02 
986	 5.83855262481423E-02 
987	 6.27330816243793E-02 
988	 6.81070941053909E-02 
989	 6.10411943706597E-02 
990	 5.41038668951986E-02 
991	 7.00287359407575E-02 
992	 0.068185404829812 
993	 0.062832568630517 
994	 6.34893944438398E-02 
995	 0.070121861987026 
996	 6.70434142589613E-02 
997	 6.25976865129125E-02 
998	 6.48447622303418E-02 
999	 7.39448315323618E-02 
1000	 0.059579491032453 
1001	 6.19604027673678E-02 
1002	 0.06110517687045 
1003	 6.09846101228531E-02 
1004	 5.96573780484913E-02 
1005	 5.96404834881397E-02 
1006	 6.04677690949953E-02 
1007	 0.063389623217275 
1008	 6.56833309760093E-02 
1009	 6.70880197565688E-02 
1010	 6.58535771338831E-02 
1011	 6.18459416657275E-02 
1012	 5.72248494294515E-02 
1013	 5.42670972589427E-02 
1014	 5.33905909845692E-02 
1015	 5.49682176378981E-02 
1016	 5.64850953999298E-02 
1017	 6.06808866567424E-02 
1018	 6.18800266531248E-02 
1019	 6.23850562932046E-02 
1020	 6.36341616511256E-02 
1021	 6.44164900432106E-02 
1022	 6.40086461795132E-02 
1023	 6.43460793178035E-02 
1024	 6.30979493940623E-02 
1025	 6.22667375470514E-02 
1026	 6.08290089276879E-02 
1027	 5.95411328403519E-02 
1028	 5.93972018788348E-02 
1029	 5.76786016166919E-02 
1030	 5.25231980959883E-02 
1031	 5.29353964282267E-02 
1032	 5.63676746853516E-02 
1033	 5.81986654581421E-02 
1034	 6.45669746224225E-02 
1035	 6.57057564861939E-02 
1036	 6.13760624122863E-02 
1037	 0.060179051942844 
1038	 5.74674342253452E-02 
1039	 5.73892722479528E-02 
1040	 5.93805612012932E-02 
1041	 5.97548166106095E-02 
1042	 0.05953146025142 
1043	 5.77844204867629E-02 
1044	 0.058171678106538 
1045	 5.92379752216423E-02 
1046	 5.96337687433632E-02 
1047	 0.062224404338918 
1048	 6.16779069744446E-02 
1049	 5.73832146150283E-02 
1050	 5.62533572783887E-02 
1051	 5.41374577618689E-02 
1052	 5.43556191483118E-02 
1053	 5.86925761490807E-02 
1054	 6.07491351062194E-02 
1055	 6.36949432500126E-02 
1056	 6.51945713299313E-02 
1057	 6.55938859617827E-02 
1058	 0.064474627795936 
1059	 6.31238157442415E-02 
1060	 5.98649459928982E-02 
1061	 5.89583938234381E-02 
1062	 5.80110532211755E-02 
1063	 5.80336926831165E-02 
1064	 6.08415859187526E-02 
1065	 0.061042889170291 
1066	 5.94752399237033E-02 
1067	 5.95144013748789E-02 
1068	 5.96469720870645E-02 
1069	 5.94441215759803E-02 
1070	 6.08211832566874E-02 
1071	 6.06952898108197E-02 
1072	 5.82737730358665E-02 
1073	 5.71185148372562E-02 
1074	 5.60401273382201E-02 
1075	 5.49968917508285E-02 
1076	 5.41230993788667E-02 
1077	 5.28302167579393E-02 
1078	 5.35287414685448E-02 
1079	 5.54699698698443E-02 
1080	 5.66757581632798E-02 
1081	 6.01915247658884E-02 
1082	 0.061505595833211 
1083	 6.09848825903656E-02 
1084	 6.06314444040144E-02 
1085	 5.83767255198022E-02 
1086	 5.80550690969916E-02 
1087	 5.89614991402753E-02 
1088	 5.96479062368186E-02 
1089	 6.24282775106171E-02 
1090	 6.39618371248551E-02 
1091	 6.36667903135633E-02 
1092	 6.06155150260416E-02 
1093	 5.93077785532036E-02 
1094	 5.60742007989921E-02 
1095	 5.63841811198888E-02 
1096	 6.20469720940474E-02 
1097	 0.062557010107943 
1098	 0.061184096357856 
1099	 6.02856716162849E-02 
1100	 5.47694485127923E-02 
1101	 0.051923198888332 
1102	 5.16378087371971E-02 
1103	 5.29425529132595E-02 
1104	 5.86161394073218E-02 
1105	 6.01373385919292E-02 
1106	 5.91613333671661E-02 
1107	 5.61618148567744E-02 
1108	 5.14126282775752E-02 
1109	 4.76776041958029E-02 
1110	 4.84982166271845E-02 
1111	 6.40134331994106E-02 
1112	 6.63505403260423E-02 
1113	 5.85359305311168E-02 
1114	 5.61379156273267E-02 
1115	 4.63042618824035E-02 
1116	 0.038812088109579 
1117	 3.87320717377406E-02 
1118	 4.99493076854012E-02 
1119	 0.083956513477408 
1120	 9.53022792754188E-02 
1121	 0.11210333309343 
1122	 0.146149852995241 
1123	 0.080885670226647 
1124	 0.070415068378193 
1125	 0.202636009882698 
1126	 0.354810552724244 
1127	 0.365235520071422 
1128	 0.387184572330878 
1129	 0.317900750250795 
1130	 9.88320284376357E-02 
1131	 6.93159811898226E-02 
1132	 0.114257117809011 
1133	 8.85008771433774E-02 
1134	 6.45555061956328E-02 
1135	 7.00811951407891E-02 
1136	 0.047021805895813 
1137	 3.72131507916829E-02 
1138	 6.51908419313504E-02 
1139	 8.67580309628851E-02 
1140	 5.82335749263945E-02 
1141	 6.67347030111862E-02 
1142	 1.04922214178877E-04 
1143	-1.59569422668088E-02 
1144	 0.125030134834922 
1145	 0.190392311605912 
1146	 0.194901863199524 
1147	 0.178613907869632 
1148	 7.10561444980359E-02 
1149	 2.35404043615001E-02 
1150	 3.46979783504423E-02 
1151	 0.151888867082219 
1152	 0.150443401959057 
1153	 0.114597248234044 
1154	 9.92698698990447E-02 
1155	 6.43342842864414E-02 
1156	 7.32694325196566E-02 
1157	 8.23569673831346E-02 
1158	 7.32544231554067E-02 
1159	 6.90859487988643E-02 
1160	 6.26278338146502E-02 
1161	 5.39412600039664E-02 
1162	 0.052562186495148 
1163	 0.053913263384573 
1164	 5.17299614297879E-02 
1165	 4.96603032550889E-02 
1166	 5.64477625956651E-02 
1167	 6.28621278529898E-02 
1168	 6.09913858482369E-02 
1169	 5.44104209076955E-02 
1170	 4.77294765946099E-02 
1171	 4.65115036182685E-02 
1172	 4.61346989452783E-02 
1173	 4.75210100608936E-02 
1174	 0.053739729378409 
1175	 5.78498152588593E-02 
1176	 6.06161884994336E-02 
1177	 6.07052230146822E-02 
1178	 5.81794169132561E-02 
1179	 5.92012012493428E-02 
1180	 5.95606760037472E-02 
1181	 5.68571713576341E-02 
1182	 5.78959556550059E-02 
1183	 6.10022302905517E-02 
1184	 6.06908173389886E-02 
1185	 5.80504430827106E-02 
1186	 5.68565996863304E-02 
1187	 0.058513692452588 
1188	 5.48942642048807E-02 
1189	 5.11037771603364E-02 
1190	 5.57821783515509E-02 
1191	 5.85636709042036E-02 
1192	 5.84963874974795E-02 
1193	 5.89351014997081E-02 
1194	 6.24780399242608E-02 
1195	 6.17891626470998E-02 
1196	 5.82332391296838E-02 
1197	 6.03035041831608E-02 
1198	 6.03779078231349E-02 
1199	 5.46109117367528E-02 
1200	 0.053724018084472 
1201	 0.054294381174527 
1202	 5.69179259825989E-02 
1203	 6.09534308245402E-02 
1204	 5.77940305526942E-02 
1205	 5.43205717729623E-02 
1206	 5.59856057584464E-02 
1207	 5.57830938039334E-02 
1208	 5.28204488442378E-02 
1209	 5.29208825629514E-02 
1210	 5.33107334198811E-02 
1211	 5.26974458872762E-02 
1212	 5.53193674089351E-02 
1213	 5.68569491605334E-02 
1214	 5.75957914430633E-02 
1215	 5.49153667332725E-02 
1216	 5.50737477278373E-02 
1217	 5.77222482772706E-02 
1218	 5.84060832817806E-02 
1219	 5.80558673379075E-02 
1220	 5.95828641928439E-02 
1221	 5.80097816598772E-02 
1222	 5.29980128042402E-02 
1223	 5.30235243321135E-02 
1224	 5.48038072097501E-02 
1225	 0.05276904344897 
1226	 5.36531935679746E-02 
1227	 5.62216918500225E-02 
1228	 5.45528143766147E-02 
1229	 5.44045687358588E-02 
1230	 5.87971064719932E-02 
1231	 6.01703165659296E-02 
1232	 5.86986818717324E-02 
1233	 5.77878536539783E-02 
1234	 0.056571644101004 
1235	 5.58660295955964E-02 
1236	 5.50519834871167E-02 
1237	 0.054058554700581 
1238	 5.30588557009234E-02 
1239	 5.34114203522531E-02 
1240	 0.05333462892897 
1241	 5.52327292192687E-02 
1242	 5.73446860183331E-02 
1243	 5.62744456723711E-02 
1244	 5.44871735304359E-02 
1245	 5.57579012902076E-02 
1246	 5.79598138378477E-02 
1247	 5.72186406091023E-02 
1248	 5.75923775251123E-02 
1249	 0.057248538859825 
1250	 5.37585438430011E-02 
1251	 5.48667827528369E-02 
1252	 5.68195676212089E-02 
1253	 5.59409844693431E-02 
1254	 5.74931588065917E-02 
1255	 5.84974223743973E-02 
1256	 5.80657749487642E-02 
1257	 5.55914192636089E-02 
1258	 5.57363828964281E-02 
1259	 0.05732422904196 
1260	 5.71681870647934E-02 
1261	 0.058029442324148 
1262	 5.82650271888408E-02 
1263	 5.72562574305323E-02 
1264	 5.21740192661932E-02 
1265	 5.20653910470467E-02 
1266	 5.37271078133195E-02 
1267	 5.20946160191826E-02 
1268	 5.22514155676688E-02 
1269	 5.38842346329535E-02 
1270	 5.43125112803519E-02 
1271	 5.65184549095502E-02 
1272	 5.95373166008806E-02 
1273	 5.76388253594441E-02 
1274	 5.36781649318673E-02 
1275	 5.34041659285101E-02 
1276	 5.55250768647691E-02 
1277	 5.57058661816349E-02 
1278	 5.67263152719463E-02 
1279	 5.82099696710303E-02 
1280	 5.61725065414506E-02 
1281	 5.56425475624996E-02 
1282	 5.77676803101731E-02 
1283	 5.80129100577808E-02 
1284	 0.05604517850703 
1285	 5.60360651663507E-02 
1286	 5.86047800440855E-02 
1287	 5.73837649153429E-02 
1288	 5.23607228163682E-02 
1289	 5.14479303298394E-02 
1290	 5.03132896049477E-02 
1291	 5.01089273198659E-02 
1292	 5.27299148870168E-02 
1293	 5.46451139695842E-02 
1294	 5.32786528891439E-02 
1295	 5.35643081221039E-02 
1296	 5.36584017543903E-02 
1297	 5.33049945452001E-02 
1298	 5.46095746593283E-02 
1299	 5.48401108301517E-02 
1300	 5.40622407851642E-02 
1301	 5.40436631202152E-02 
1302	 5.61958980955457E-02 
1303	 5.48138182084312E-02 
1304	 5.02913420073412E-02 
1305	 4.97646994445096E-02 
1306	 4.83303317692383E-02 
1307	 4.17315766723636E-02 
1308	 0.039904202367875 
1309	 4.23348186678232E-02 
1310	 4.55589915238079E-02 
1311	 5.39504398469535E-02 
1312	 5.80484992214642E-02 
1313	 6.34658523028299E-02 
1314	 6.31997152211942E-02 
1315	 5.15706104010575E-02 
1316	 4.96985715514252E-02 
1317	 5.18452067706076E-02 
1318	 5.32298597857495E-02 
1319	 6.08057395614606E-02 
1320	 6.40775461341911E-02 
1321	 6.25534879458677E-02 
1322	 6.56737164973538E-02 
1323	 5.53633154623504E-02 
1324	 4.02100277798558E-02 
1325	 3.67378051568093E-02 
1326	 4.11753974345058E-02 
1327	 6.17570134926176E-02 
1328	 6.97784143504789E-02 
1329	 5.82986471916979E-02 
1330	 5.88005760921811E-02 
1331	 3.64534298770742E-02 
1332	-2.38628938039599E-03 
1333	 2.21336708181833E-03 
1334	-1.66334973810093E-04 
1335	-1.57843848553179E-02 
1336	-1.81348163199399E-03 
1337	 3.18846903773377E-03 
1338	-4.69168422652931E-02 
1339	-0.060853986040746 
1340	-1.44211862417504E-02 
1341	 2.71201376978585E-03 
1342	-0.009958896090016 
1343	 4.04721146485881E-04 
1344	 5.05473547583517E-02 
1345	 4.84014623124138E-02 
1346	-1.25028994628717E-02 
1347	-7.32973621692462E-03 
1348	 0.113878552247565 
1349	 4.77604348701254E-02 
1350	-0.26341071062816 
1351	-0.422948445020382 
1352	-0.564660217590779 
1353	-0.820087723985879 
1354	-1.00760917686526 
1355	-1.94432436356259 
1356	-4.64625023736874 
1357	-2.25628037368215 
1358	-11.8573437340786 
1359	 8.49901366045679 
1360	-3.17413638428953 
1361	-1.37749299142633 
1362	-0.878335244688931 
1363	 0.26858264010825 
1364	-0.543066270861321 
1365	-0.750364834474467 
1366	-1.94271254735108 
1367	-26.574529727776 
1368	 12.2883174825053 
1369	 0.625103406644243 
1370	 0.357207142329265 
1371	-0.735121569126039 
1372	-1.58721067736304 
1373	-5.22421232178016 
1374	-53.1409862186271 
1375	 3.67967929430968 
1376	 23.8432007781983 
1377	-4.32657340123548 
1378	-4.6943783375278 
1379	-1.12101929960166 
1380	-0.688911232279791 
1381	-2.29247653396965 
1382	-0.276226259476836 
1383	 0.303411624331091 
1384	 0.407284477134393 
1385	 0.744550672281214 
1386	 1.10954309232478 
1387	 8.20965793327448 
1388	 16.3551251383692 
1389	 0.585075709266029 
1390	 0.289907443376334 
1391	-2.47428618999212 
1392	-2.60576521968859 
1393	-2.61516512815393 
1394	 5.28156635993258 
1395	 0.335666230201952 
1396	 0.526570950973649 
1397	 0.549205228702047 
1398	-3.59099381850719E-02 
1399	 2.8754766306515 
1400	-0.882095500622127 
1401	 0.677528670628156 
1402	 1.87248223265128 
1403	 0.961243367836204 
1404	 1.33108269087418 
1405	 1.11356030620516 
1406	 4.06642901046301 
1407	 6.21228450555157 
1408	-2.32783984214131 
1409	-1.75731736813318 
1410	-2.2110992017772 
1411	-2.69040709477802 
1412	-2.73291449521965 
1413	-6.62459343826583 
1414	 3.62938909171821 
1415	 6.36157276255842 
1416	-7.28222233525275E-03 
1417	 0.216007363238254 
1418	-0.334593466334007 
1419	-0.292925117560602 
1420	-0.839526378966638 
1421	-1.18158280018593 
1422	-0.777508483145337 
1423	-0.236513190202754 
1424	-0.129782625687495 
1425	-0.566661461591838 
1426	 9.18144751247479 
1427	 1.79384594668779 
1428	 1.86578574674405E-02 
1429	-5.74411500833519E-02 
1430	-0.217007737591713 
1431	-0.265184246204705 
1432	 1.06211505094397 
1433	 1.68529469044398 
1434	 0.601621182746631 
1435	 0.627472571029806 
1436	 6.49073774596844 
1437	 6.56458430448687 
1438	-0.443013834522181 
1439	-1.6978906653999 
1440	-20.0849837086062 
1441	 19.4938025113376 
1442	 0.949686863761841 
1443	 1.85549909736438 
1444	 1.44182501344624 
1445	 0.110315843599525 
1446	-0.565295442361112 
1447	-1.07753287776688 
1448	-0.533010621201336 
1449	 0.104858450567141 
1450	-2.45049686755153 
1451	-0.298206916535952 
1452	 3.32123864129199 
1453	 1.44121365712715 
1454	 1.38800702099957 
1455	 222.56777826524 
1456	 3.19727689364184 
1457	 0.650446362774371 
1458	 0.416479674568329 
1459	 0.545143193493953 
1460	 0.266658795570693 
1461	-0.173000391597557 
1462	-0.338993175404711 
1463	-0.577293138774719 
1464	-0.402155115542618 
1465	-0.401598203577288 
1466	-0.919369733286146 
1467	-0.199448551923572 
1468	-0.393766820916208 
1469	 2.6789980714713 
1470	 1.54545982412858 
1471	-16.1623951003396 
1472	-6.19306701179181 
1473	 161.323670063751 
1474	-4.39833220911726 
1475	-1.31921844964954 
1476	-1.08831738122685 
1477	-0.441423003777873 
1478	-0.375147498640969 
1479	-1.96895530097203 
1480	 97.1282172368222 
1481	-86.0726860455463 
1482	 17.2645170616443 
1483	 11.4835178005246 
1484	-22.5938799278807 
1485	-2.16016191470576 
1486	-1.17568354618125 
1487	-0.281443102367439 
1488	-9.38433768128757E-02 
1489	-0.297387194918356 
1490	-0.619472605218309 
1491	-1.02020170764732 
1492	-0.778642933850236 
1493	-4.28266272212409E-02 
1494	-1.78893523834136E-02 
1495	 0.101170954152043 
1496	 0.104591831216428 
1497	-0.241575290321747 
1498	-0.327885620590682 
1499	-0.33618311438038 
1500	-0.246360099048093 
1501	-9.86078995036329E-02 
1502	-4.52226944077594E-02 
1503	 0.161274301995019 
1504	 0.184628632313597 
1505	-7.65270993981915E-03 
1506	-0.103873223083295 
1507	-8.11795566545089E-02 
1508	-5.51111880906992E-04 
1509	 5.81154315639496E-02 
1510	 8.58182499362099E-02 
1511	 9.57187315410138E-02 
1512	 3.88386757605114E-02 
1513	 1.93489862452231E-02 
1514	 4.16481714467051E-02 
1515	-7.34867521467867E-02 
1516	-9.67642539936079E-02 
1517	 2.98369464751415E-02 
1518	 4.84401455407584E-02 
1519	 5.70420214654883E-02 
1520	 9.34056929207634E-02 
1521	 0.028304862016369 
1522	 9.95626063247558E-03 
1523	 7.09723090756084E-02 
1524	 0.077340220115078 
1525	 6.15556052035646E-02 
1526	 6.44004426408427E-02 
1527	 9.75648237566643E-02 
1528	 8.56947493100181E-02 
1529	 5.39583697989791E-02 
1530	 8.39027497359742E-02 
1531	 7.08869929852896E-02 
1532	 5.36844772463901E-02 
1533	 7.82083617119762E-02 
1534	 6.05358587131141E-02 
1535	 0.039956964439821 
1536	 4.24136968167738E-02 
1537	 2.09169140550944E-02 
1538	 3.09945294016755E-02 
1539	 7.87047358190463E-02 
1540	 7.11064868284153E-02 
1541	 8.36467689608011E-02 
1542	 0.112636151182716 
1543	 0.063233333614713 
1544	 4.98153261931078E-02 
1545	 9.96966777292985E-02 
1546	 9.28611710238632E-02 
1547	 7.60979787774768E-02 
1548	 8.59472422774999E-02 
1549	 7.80677951563014E-02 
1550	 5.29674271999639E-02 
1551	 3.32145013672712E-02 
1552	 0.03307678328536 
1553	 3.35610240868639E-02 
1554	 1.68724534382504E-02 
1555	 2.19358893487482E-02 
1556	 5.16111452184683E-02 
1557	 5.20712584314873E-02 
1558	 3.72134794375572E-02 
1559	 3.95445416627359E-02 
1560	 3.31467188854438E-02 
1561	 1.82981293714213E-02 
1562	 0.018027427270319 
1563	 2.95915178938968E-02 
1564	 3.30381716394605E-02 
1565	 0.026340324755705 
1566	 3.07636167595998E-02 
1567	 5.83495336637288E-02 
1568	 6.91939096845355E-02 
1569	 0.048460513403257 
1570	 4.63704550910694E-02 
1571	 6.11513406034752E-02 
1572	 6.11240672130436E-02 
1573	 0.059432065998274 
1574	 6.90648063285484E-02 
1575	 6.72071336592822E-02 
1576	 4.50610129960184E-02 
1577	 3.42726964441428E-02 
1578	 0.053976221866451 
1579	 6.34782247579713E-02 
1580	 6.46129625517485E-02 
1581	 8.25266578045226E-02 
1582	 8.12280590946865E-02 
1583	 7.21761120007914E-02 
1584	 8.06832226109666E-02 
1585	 7.57110307413359E-02 
1586	 8.36467266988243E-02 
1587	 0.105353881753968 
1588	 7.92148497404873E-02 
1589	 3.75961261254824E-02 
1590	 3.02638774037334E-02 
1591	 3.27524059499621E-02 
1592	 0.023435364430698 
1593	 2.51632343939317E-02 
1594	 3.37825044185202E-02 
1595	 3.78060560021816E-02 
1596	 5.15413151687392E-02 
1597	 5.85845094254635E-02 
1598	 6.15917169727745E-02 
1599	 0.063870418964775 
1600	 4.88339708525537E-02 
1601	 3.83847080947109E-02 
1602	 3.33564514128959E-02 
1603	 1.70187558035551E-02 
1604	 0.015178909278235 
1605	 0.035746783040991 
1606	 5.32069338850488E-02 
1607	 5.78170143003317E-02 
1608	 4.90949073625855E-02 
1609	 4.19972288764116E-02 
1610	 5.75799615303416E-02 
1611	 7.27898287202311E-02 
1612	 7.11327927903338E-02 
1613	 7.46173614547549E-02 
1614	 7.00333788586055E-02 
1615	 5.21779438616226E-02 
1616	 5.31864999883346E-02 
1617	 6.65090228755008E-02 
1618	 0.066982147841931 
1619	 7.17068678139817E-02 
1620	 8.27798830386511E-02 
1621	 6.65328740796331E-02 
1622	 5.00465931365815E-02 
1623	 5.37484215765418E-02 
1624	 4.62193091747279E-02 
1625	 2.70394018111766E-02 
1626	 1.57043049926538E-02 
1627	 2.46355186133943E-02 
1628	 3.84445177536424E-02 
1629	 5.07532079980476E-02 
1630	 6.99192980076555E-02 
1631	 6.00054556535944E-02 
1632	 2.69179254600344E-02 
1633	 1.27377405629461E-02 
1634	 1.85226687894288E-02 
1635	 4.48241012576075E-02 
1636	 6.45857121974845E-02 
1637	 6.28796564074586E-02 
1638	 5.93962953586771E-02 
1639	 4.29007911815185E-02 
1640	 2.77503975629042E-02 
1641	 3.85498204703042E-02 
1642	 0.058580327488432 
1643	 6.26803388469958E-02 
1644	 5.47067308056836E-02 
1645	 6.56491030107239E-02 
1646	 6.75479758331629E-02 
1647	 6.06882530978339E-02 
1648	 7.14175118328742E-02 
1649	 5.97503279588088E-02 
1650	 4.63077310220719E-02 
1651	 6.26561171356252E-02 
1652	 0.065801001128659 
1653	 6.49061188254883E-02 
1654	 7.28049126239089E-02 
1655	 7.74700026288884E-02 
1656	 8.00396179652848E-02 
1657	 8.79268869639785E-02 
1658	 8.70903918536529E-02 
1659	 8.07316791734275E-02 
1660	 7.06566486416911E-02 
1661	 5.58128743952232E-02 
1662	 5.82403324327861E-02 
1663	 5.70080881351753E-02 
1664	 5.00796176743807E-02 
1665	 5.62019972078506E-02 
1666	 5.59653287566313E-02 
1667	 4.77009234457626E-02 
1668	 4.50112016368557E-02 
1669	 5.29591932717212E-02 
1670	 6.49513418381647E-02 
1671	 6.60753066555622E-02 
1672	 7.36691866894215E-02 
1673	 0.065064094440763 
1674	 4.83377640820039E-02 
1675	 4.65091679577017E-02 
1676	 4.60735514147704E-02 
1677	 4.52976401939106E-02 
1678	 4.82016604761317E-02 
1679	 5.31878708912085E-02 
1680	 5.19174672568859E-02 
1681	 4.80447285798287E-02 
1682	 4.89559356770464E-02 
1683	 5.21013675385871E-02 
1684	 5.08127960907631E-02 
1685	 4.39407011648748E-02 
1686	 4.91656626025599E-02 
1687	 0.055236486330544 
1688	 0.041760184324752 
1689	 4.82245014367783E-02 
1690	 6.52330247620489E-02 
1691	 5.95626531449193E-02 
1692	 7.88141916008468E-02 
1693	 9.65458143872593E-02 
1694	 7.14787663193291E-02 
1695	 0.063159849433131 
1696	 6.24259760615822E-02 
1697	 5.72035785527163E-02 
1698	 7.06265567715945E-02 
1699	 6.23850359604275E-02 
1700	 4.22961294439254E-02 
1701	 3.15861206615867E-02 
1702	 3.13206072392245E-02 
1703	 4.92345642435276E-02 
1704	 5.55209343577323E-02 
1705	 4.32697077577477E-02 
1706	 3.25239626252316E-02 
1707	 3.25005908832004E-02 
1708	 3.86424499616936E-02 
1709	 0.039856062770025 
1710	 5.05384123731937E-02 
1711	 5.82974974233539E-02 
1712	 3.67070963265824E-02 
1713	 3.20747573563958E-02 
1714	 3.96254539747352E-02 
1715	 5.22601864427998E-02 
1716	 7.33557375593335E-02 
1717	 5.62723547652894E-02 
1718	 4.60864009663715E-02 
1719	 4.17546792699087E-02 
1720	 2.51676641960141E-02 
1721	 4.46136702139838E-02 
1722	 4.67491143399534E-02 
1723	 7.26659884788277E-03 
1724	 0.018635104540531 
1725	 4.83985918885198E-02 
1726	 3.10312093753606E-02 
1727	 2.77773404424025E-02 
1728	 0.048922822612882 
1729	 3.62679511095481E-02 
1730	 2.93398094582599E-02 
1731	 4.45217556709424E-02 
1732	 2.41405018092741E-02 
1733	 3.56108512718788E-03 
1734	 0.03039231996794 
1735	 0.044701648596706 
1736	 0.038665203328705 
1737	 4.20446043415298E-02 
1738	 2.70187979766212E-02 
1739	 0.024399181597912 
1740	 7.49781997432626E-02 
1741	 0.088373347579365 
1742	 0.068838281534836 
1743	 0.093740016225152 
1744	 9.23656785882979E-02 
1745	 7.64946018043977E-02 
1746	 0.100329428914589 
1747	 0.101003943640332 
1748	 0.068131525929215 
1749	 0.07066084196596 
1750	 0.110070487455019 
1751	 0.105931135990413 
1752	 8.80692330029443E-02 
1753	 8.32080301394693E-02 
1754	 4.47780625390446E-02 
1755	 3.77496414541444E-02 
1756	 7.27250958451074E-02 
1757	 0.058590519498269 
1758	 6.11147988289483E-02 
1759	 8.88214656386884E-02 
1760	 7.67609026124602E-02 
1761	 4.66007114486073E-02 
1762	 7.55581088786374E-02 
1763	 0.104728194710861 
1764	 0.103062440879579 
1765	 0.122979029365352 
1766	 0.130032765350004 
1767	 8.43626799108384E-02 
1768	 4.86871202440249E-02 
1769	 5.27097073538752E-02 
1770	 0.048760247880795 
1771	 2.11243899503238E-03 
1772	-0.015451635743851 
1773	 6.96662906174693E-02 
1774	 6.27735694514893E-02 
1775	 0.146608515874425 
1776	 0.202089222648716 
1777	 0.163637427525004 
1778	 0.139007071907991 
1779	 0.108952542576096 
1780	 7.84586904559381E-02 
1781	 3.51235029271725E-03 
1782	 0.033948383895065 
1783	 0.235586278306254 
1784	 0.222885889826268 
1785	 5.03367646053893E-02 
1786	-3.09102933751128E-02 
1787	-0.305436204671661 
1788	-0.156578910538815 
1789	 0.305086768687917 
1790	 0.236070889959226 
1791	 0.256415799593105 
1792	-1.22491847578588E-02 
1793	-0.34537519803539 
1794	 0.51354784461527 
1795	 0.470720471542184 
1796	 1.80986799348208E-02 
1797	 0.299424338570353 
1798	 0.023535519510175 
1799	-2.50969086708118 
1800	-0.728743169088486 
1801	-0.494403023061007 
1802	-0.284046646470902 
1803	-0.402020353885773 
1804	-1.33326067238405 
1805	-1.92718877317796 
1806	-3.45788247620149 
1807	-44.4658066925727 
1808	-0.145941244742906 
1809	 0.381451751464142 
1810	-0.18873810658254 
1811	-0.382014155008439 
1812	-1.17107318706489 
1813	-1.68435207178156 
1814	 0.776847063628413 
1815	 0.415474088158772 
1816	 0.234311551410751 
1817	 0.630818476409005 
1818	 0.918495478040866 
1819	 0.934933678386482 
1820	-25.1766215542614 
1821	 5.31044102489892 
1822	 4.45234537087026 
1823	 1.42770276700205 
1824	 1.60387885380213 
1825	-1.32434456206453 
1826	-0.78994792318309 
1827	-0.264053238749489 
1828	-0.231314029158282 
1829	-6.44524955350475E-02 
1830	-0.103722698364441 
1831	 6.87961162265906 
1832	 15.218197638175 
1833	-5.78274002077381 
1834	-4.80770902658938 
1835	-1.45874710920196 
1836	 5.24987771970129 
1837	 0.280778121508634 
1838	 0.276522547006413 
1839	 0.678450136427711 
1840	-16.7856258383793 
1841	-2.32331260573052 
1842	-0.557887780054012 
1843	 0.261569176070468 
1844	 4.647651069453 
1845	 9.05882694294678 
1846	 3.39998971662051 
1847	 3.3216480629354 
1848	 4.46967000080355 
1849	 8.91484771420224 
1850	-0.388848518235798 
1851	 6.7810824101699 
1852	-1.96946471298395 
1853	-0.493926020852123 
1854	-0.43024332758209 
1855	-0.3919276032593 
1856	-0.454589568535556 
1857	-0.606343083317758 
1858	-0.698497292365649 
1859	-0.993336364334055 
1860	-0.875965846568079 
1861	-1.00377956665701 
1862	-1.04592430995455 
1863	-0.349521095379551 
1864	-0.265622413901524 
1865	-0.241147984253956 
1866	-0.301918920169093 
1867	-0.40320292590115 
1868	-2.23933296062925 
1869	 3.4383884871334 
1870	 0.41704587049111 
1871	 0.542776652799697 
1872	 0.981732105862965 
1873	 2.07483725642609 
1874	-4.67312671954394 
1875	-3.14640095037638 
1876	-2.56715209362041 
1877	-2.41455329384176 
1878	-2.21220052158398 
1879	-1.97549577616519 
1880	-1.91560808761604 
1881	-2.16074718321026 
1882	-2.65640802054494 
1883	-2.32770327466544 
1884	 0.908713831240197 
1885	-0.142954933231632 
1886	-1.41524811260013 
1887	 0.707056915966817 
1888	 0.232782408027343 
1889	 0.115582848221634 
1890	-0.145585444881618 
1891	-0.204483813032683 
1892	-0.291409248942468 
1893	-0.230883906720025 
1894	-0.172465312750223 
1895	-0.91268423960514 
1896	-0.472653944830552 
1897	-3.06386190917867E-02 
1898	-7.78784620328546E-02 
1899	-0.282166905098883 
1900	-0.314301160213775 
1901	-0.86534675103155 
1902	-1.0232088626281 
1903	-0.16892690944346 
1904	 0.59933615670801 
1905	 0.790887179311645 
1906	-2.913246274144 
1907	-0.308950622515211 
1908	 7.62929742167692E-02 
1909	 0.468623225057491 
1910	 1.65401591872374 
1911	 3.29964054278818 
1912	-3.39150556223159 
1913	-1.25705664242553 
1914	-0.284956534263007 
1915	 0.316253058308998 
1916	 0.528950651385314 
1917	 0.787242649176883 
1918	 6.88016179734887 
1919	 37.9151119678299 
1920	-12.9253466996 
1921	 7.35311920633752 
1922	 0.416979381361707 
1923	-0.348625115711247 
1924	-0.46460537646441 
1925	-0.606567037364629 
1926	-0.468414092513894 
1927	 0.425233129739043 
1928	 1.40275849039982 
1929	 2.51072110521249 
1930	 10.8316349950114 
1931	 2.87500875945669 
1932	 0.848841240468565 
1933	-0.16822374336553 
1934	 9.38565881455701E-02 
1935	 4.03872354724297 
1936	 1.58292232343615 
1937	 0.130422100303743 
1938	-0.1574966116123 
1939	-7.62795572349871E-02 
1940	-2.52343047992464E-02 
1941	-0.130171199488532 
1942	 0.480248551983494 
1943	 1.04971960204529 
1944	 0.53728498309855 
1945	 0.384624903780203 
1946	 0.975298834483682 
1947	-8.35389627554507E-02 
1948	-0.351096203731381 
1949	-0.303574817426386 
1950	-1.37424353811869 
1951	 1.43632328073467 
1952	 0.490652459970267 
1953	 0.135701709043353 
1954	 7.72952084315198E-02 
1955	-0.311252970454701 
1956	-0.600438905832502 
1957	-0.321475307807333 
1958	-0.752977876660316 
1959	 1.20113699699275 
1960	 0.444990941384903 
1961	 0.34740925487652 
1962	-0.333671302835879 
1963	-1.47593317064503 
1964	-5.93410598507617 
1965	-5.0964480569542 
1966	-5.78506486920394 
1967	-13.4780067870836 
1968	 1.08521231441606 
1969	-2.02539932611609 
1970	-9.53453231247048 
1971	 10.7967133465745 
1972	 5.22735826724808 
1973	 2.63118180786919 
1974	 2.66121250183727 
1975	 4.21862524283016 
1976	 0.64782500321345 
1977	 2.1429149530204 
1978	 0.305465631166482 
1979	 2.52939783672778E-03 
1980	 0.167286913217151 
1981	 0.575799497508488 
1982	-0.351064533411105 
1983	-0.445072461572389 
1984	-1.73865493826788 
1985	-1.96730669220936 
1986	-2.16520017760052 
1987	-1.99562383085521 
1988	-1.61002722152572 
1989	-0.814323712913557 
1990	-0.380907671171546 
1991	-0.4006520538575 
1992	-0.437637244554254 
1993	-0.541834785565664 
1994	-0.630081226810636 
1995	-1.05023398391988 
1996	-2.1115575193722 
1997	 87.8209724726404 
1998	 0.783190168593424 
1999	 1.37157091595461 
2000	 1.69025893234961 
2001	 0.310026193692762 
2002	 0.308756508635513 
2003	-9.67460416359479E-02 
2004	-0.986972064421471 
2005	 1.59149209246499 
2006	-61.2693578048299 
2007	-2.10505628400188 
2008	-11.8076020801599 
2009	 5.14456161939738 
2010	-0.444445932900796 
2011	-0.445530456628763 
2012	 1.06286179220377 
2013	-3.1244533803245 
2014	-1.19671907067671 
2015	-1.04269145959408 
2016	-0.542332115133269 
2017	-0.358864817484804 
2018	 1.71792501922847E-02 
2019	 0.587841961078851 
2020	 1.27241116596403 
2021	-0.438470157571158 
2022	-5.80060149577357E-02 
2023	-0.797830229497392 
2024	-0.930012413225874 
2025	-0.466700202459715 
2026	-0.74982335386092 
2027	-4.115706220095 
2028	 2.50367669437319 
2029	 1.55704433352242 
2030	 2.9719075187385 
2031	 273.315002983121 
2032	-2.37790007207462 
2033	-0.439357154901712 
2034	-4.54185891335989E-02 
2035	-0.425558910950957 
2036	-4.64075846468443E-02 
2037	-0.482115262829937 
2038	-0.761880141540089 
2039	-0.904317605152829 
2040	-0.701199374969133 
2041	-0.614564890257598 
2042	-0.993510100253757 
2043	-0.607611066506688 
2044	-0.108083635685971 
2045	 0.213523119134298 
2046	 0.305502163323742 
2047	 0.509483232220802 
2048	 1.07539303894522 
2049	-1.05699486483921 
2050	-1.47944435706163 
2051	 6.2679936950856 
2052	 0.729752081715206 
2053	 0.261584657851352 
2054	 0.204260546063808 
2055	-0.111064671586786 
2056	-0.418221667275217 
2057	-1.86214741352314 
2058	-2.44250274981017 
2059	-1.78378711268046 
2060	-1.77408130723811 
2061	-1.16859446040784 
2062	-1.36328672613131 
2063	-1.72290194731053 
2064	-0.961407395000282 
2065	-0.450827087296605 
2066	-0.177573919610466 
2067	-0.323971163867989 
2068	-8.14667252620904E-02 
2069	 0.248343552503024 
2070	 0.187783484339076 
2071	 0.064269877618016 
2072	 0.219121667705747 
2073	 0.342290506191139 
2074	 1.22503935624573 
2075	 1.81478193863461 
2076	 1.897518619275 
2077	 1.42035646212596 
2078	 0.399263493816415 
2079	 0.304082223389752 
2080	 0.173460521047442 
2081	-1.81877788615938E-02 
2082	 0.074413068035035 
2083	-0.037828036703937 
2084	-0.10719833914667 
2085	 6.88850981815499E-02 
2086	 9.71974975002107E-02 
2087	-0.350178557831166 
2088	-0.691180013104058 
2089	 8.61651516437341 
2090	 1.99235441912024 
2091	 2.17634021472893 
2092	 2.99244179441326 
2093	-11.0896670297821 
2094	-3.48179819184653 
2095	-1.18039729772774 
2096	-0.995140121356582 
2097	-1.09262591498951 
2098	-0.971994788975637 
2099	-0.843198254580176 
2100	-3.4650020217964 
2101	-0.639200104378483 
2102	 0.524577279742643 
2103	 0.201622942341852 
2104	 3.29651261869588E-02 
2105	-7.62980749118752E-02 
2106	-8.79275222758505E-02 
2107	-4.23956868177888E-04 
2108	 0.112743062025622 
2109	 0.241184374218335 
2110	 0.201704315090765 
2111	-0.1509749349838 
2112	-0.589766221835549 
2113	-0.34623339080504 
2114	 9.71333874673782E-02 
2115	 4.32191555667621E-02 
2116	 9.54045014230405E-02 
2117	 0.142796249218791 
2118	-3.76165800611395E-02 
2119	-5.48916102308934E-02 
2120	 0.144093972434265 
2121	 0.224442798686214 
2122	 6.41328584614611E-02 
2123	 3.40135752989481E-02 
2124	-0.098827225969876 
2125	-0.31187817498367 
2126	-0.297302821729448 
2127	-3.94719314712241E-02 
2128	 0.281442974355335 
2129	 0.448266997907719 
2130	 0.344453960859448 
2131	 0.309984013229744 
2132	 0.203787216977601 
2133	 9.09551752119631E-03 
2134	-2.73515444973776E-02 
2135	 5.68708921624388E-02 
2136	 7.33716208550016E-02 
2137	 0.187196605416843 
2138	 0.212496773431143 
2139	 0.120628456808426 
2140	 0.118031452976413 
2141	 0.15160206607025 
2142	 0.149426553637984 
2143	 0.196199448115719 
2144	 0.242119350166883 
2145	 0.12025443737056 
2146	-0.058607981019291 
2147	-0.277618331657305 
2148	-0.454460992173842 
2149	-0.301572507482096 
2150	-0.217435123356914 
2151	-0.256009599542662 
2152	-0.237402002986733 
2153	-0.283415313626119 
2154	-0.378271230588375 
2155	-0.291935270761329 
2156	-0.142868953781287 
2157	-0.116280047591741 
2158	-0.28105577338368 
2159	-0.203876780133629 
2160	-8.79042843843541E-02 
2161	-5.15793886691177E-02 
2162	 3.64942430477155E-02 
2163	 0.100968825736112 
2164	 0.172658437625842 
2165	 0.157186843418663 
2166	 0.103772517798506 
2167	 6.70887372873257E-02 
2168	-7.11471402868475E-02 
2169	-0.11413499965046 
2170	-7.97973122111239E-02 
2171	-0.124372786129407 
2172	-7.1275395500393E-03 
2173	 1.15625448124694E-03 
2174	-4.32608063805207E-02 
2175	-6.57788819841061E-02 
2176	-0.147092845917604 
2177	-0.256814529532633 
2178	-0.448138409284472 
2179	-0.429938052432158 
2180	-0.412534017575231 
2181	-0.326410596212507 
2182	-4.79281896178434E-02 
2183	-9.79570364298002E-03 
2184	-3.01344536896712E-02 
2185	-1.43419412119602E-02 
2186	 5.91053767537262E-02 
2187	 0.254480777788959 
2188	 0.306330171030815 
2189	 0.357479512977809 
2190	 0.373869127831781 
2191	 0.267114954700825 
2192	 0.208247408581358 
2193	 0.166084004630918 
2194	 0.159618350114999 
2195	 9.85754959199203E-02 
2196	 0.10013487368919 
2197	 0.245360610368003 
2198	 0.308024909219273 
2199	 0.339123322684045 
2200	 0.413723342852685 
2201	 0.423891948394276 
2202	 0.319296028306765 
2203	 0.387610589097387 
2204	 0.400993070889629 
2205	 0.307715917582101 
2206	 0.319166698491748 
2207	 0.180707641526498 
2208	 0.119262145149304 
2209	 0.11343442636156 
2210	 4.80948304005021E-02 
2211	-6.19039213060571E-02 
2212	-0.110266445097145 
2213	-7.79967720884528E-02 
2214	-7.58686259443021E-02 
2215	-3.13513565621251E-02 
2216	-5.13956271470277E-02 
2217	-7.92476533605111E-02 
2218	-0.184598480499664 
2219	-0.194427621041402 
2220	-0.166675923302394 
2221	-0.155625056180968 
2222	-0.103106697669906 
2223	-0.10385209289004 
2224	-0.163181907568491 
2225	-0.158432199117539 
2226	-0.15509091249505 
2227	-0.14399589381718 
2228	-1.29970263983173E-02 
2229	 3.03101339145841E-02 
2230	-2.34320278806367E-02 
2231	-3.43787678229189E-02 
2232	-0.133878009019895 
2233	-0.147553081723631 
2234	-7.74162266405037E-02 
2235	 7.50031691566455E-03 
2236	-1.75182701537415E-02 
2237	-7.75562657772974E-02 
2238	-0.240736637956824 
2239	-0.373076983174541 
2240	-0.411165981440004 
2241	-0.419851341797405 
2242	-0.312825299114294 
2243	-0.257239366023419 
2244	-0.257990043020217 
2245	-0.206769980938132 
2246	-0.181326006233222 
2247	-0.129449063187568 
2248	 1.38039185037493E-02 
2249	 5.61357497786421E-02 
2250	 8.26565999399701E-02 
2251	 0.103345388795396 
2252	-0.249188477456233 
2253	-0.341699665083453 
2254	-0.236561833720295 
2255	-0.419940490716742 
2256	-0.278711394953424 
2257	-3.07671086995466E-02 
2258	-0.164310769417886 
2259	-0.165879391081849 
2260	-0.215691392382188 
2261	-0.326186200544987 
2262	-0.444006851033717 
2263	-0.642350149935516 
2264	-0.683949476070505 
2265	-0.877979775787383 
2266	-0.977849052285715 
2267	-0.370164959392635 
2268	-0.223304102499056 
2269	-0.576888818199456 
2270	-0.342087602650467 
2271	-0.151323710822573 
2272	-3.70647577299128E-02 
2273	 0.325963442238556 
2274	 0.357329107028227 
2275	 0.218668152293876 
2276	 5.67378885700376E-02 
2277	-0.245883603001951 
2278	-0.340107649802001 
2279	-0.386223756179357 
2280	-0.449989997734926 
2281	-0.391191925165526 
2282	-0.577456892662306 
2283	-0.573577891773047 
2284	-0.67629325117817 
2285	-1.11126197401839 
2286	-1.40803765975808 
2287	 0.184361772520641 
2288	 25.4317029388365 
2289	-0.198296540411014 
2290	-0.315970973095211 
2291	-0.716559561736663 
2292	-1.43734644999678 
2293	-7.38445948022589 
2294	-24.4554922928139 
2295	-28.6335112610128 
2296	-3.90088295677147 
2297	-1.50263243554931 
2298	-0.455001159042874 
2299	-0.232810091161871 
2300	-0.336664120679431 
2301	-0.513216115516193 
2302	-0.999424219999431 
2303	-1.85654066952782 
2304	-1.82391878867421 
2305	-1.16361185143808 
2306	-0.669420927292288 
2307	-0.351523472163713 
2308	-0.293179052135778 
2309	-0.512016613287449 
2310	-1.02923759650633 
2311	-1.22032758364131 
2312	-1.26838695837254 
2313	-0.937045626022058 
2314	-0.555763195938107 
2315	-0.394554960053505 
2316	-0.547752295813599 
2317	-1.09348465690367 
2318	-1.59415157176008 
2319	-2.57284222749428 
2320	-3.61185396061239 
2321	-2.93149320022297 
2322	-2.10250184118228 
2323	-0.839982080492463 
2324	-0.127720355113662 
2325	 6.97203120852364E-02 
2326	-0.283881837320122 
2327	-1.12238125362567 
2328	-1.24280193245061 
2329	-0.689395068942264 
2330	-0.339096150803878 
2331	-0.119869714040329 
2332	-4.23203577279101E-02 
2333	 0.133793931988832 
2334	 0.650901201795274 
2335	 0.875730849446468 
2336	 0.787242552188028 
2337	 0.389857122004113 
2338	 0.213827257350984 
2339	 0.178797151556941 
2340	 0.379988588676262 
2341	 0.465090387639618 
2342	 0.424019255670743 
2343	-7.23797092950317E-02 
2344	-2.30193796319845 
2345	-18.1708253122527 
2346	 3.27302053514282 
2347	 2.85181943260423 
2348	 4.5646359532127 
2349	 6.67381131819646 
2350	-7.49498280514279 
2351	-4.75948307364522 
2352	 2.65101009904986 
2353	 1.06559009643468 
2354	 0.319706268208779 
2355	 0.170574110993552 
2356	 0.464065601400388 
2357	-10.4317686552787 
2358	-1.0438595840457 
2359	-0.596785330898187 
2360	-0.247389178126758 
2361	 0.630788173456725 
2362	-0.493968616545111 
2363	-0.300484881243075 
2364	-0.23354100449249 
2365	-0.618943754658174 
2366	 0.168592443585024 
2367	-5.60104484596373 
2368	 1.01781202578035 
2369	 0.355496423069395 
2370	 3.55997599876756E-02 
2371	-0.131543080477704 
2372	-0.600762550694597 
2373	-0.591516579193203 
2374	 0.681423591279871 
2375	 1.43072838655404 
2376	 0.655704870950104 
2377	-3.17593563313834 
2378	 3.06333262254393 
2379	 1.71014246027764 
2380	 1.24600501266809 
2381	 1.24145574995132 
2382	 4.4065300058235 
2383	-11.8236086246572 
2384	-3.9104969514221 
2385	-2.67173860193538 
2386	-8.63918619054642 
2387	-3.34703820127805 
2388	-8.25483376628182 
2389	 5.63338430368128 
2390	 5.71398033287604 
2391	 1.95368583076845 
2392	 2.2828774344164 
2393	-11.2259132425614 
2394	-4.4229406678687 
2395	-3.8645670135745 
2396	 4.0570605111402 
2397	 1.18314829632627 
2398	 2.2351318641423 
2399	 6.59444631637427 
2400	 9.76696903518857 
2401	-1.88003446099699 
2402	-2.53638616654366 
2403	 4.07348831076337 
2404	 6.64303780411636 
2405	 7.78736667748972 
2406	 3.32841702389654 
2407	 9.39923131593138 
2408	-15.6369609473236 
2409	 2.7769815773523 
2410	 1.17362234305561 
2411	 1.59242326847377 
2412	 1.125063762598 
2413	 0.9864672095343 
2414	 1.1088766600336 
2415	 0.998353905461672 
2416	 0.863502135778921 
2417	 0.736110812337113 
2418	 1.50541224843057 
2419	 3.93758501369882 
2420	 6.56668801394218 
2421	-2.93172267902134 
2422	-1.20601910210661 
2423	-1.02476706080635 
2424	-0.632706135011533 
2425	-0.576516094028641 
2426	 0.725437727875791 
2427	-2.23639044443981 
2428	-0.495737068611017 
2429	-0.541913693149452 
2430	-0.358657649703584 
2431	-0.208338428456235 
2432	-0.536359862061517 
2433	-0.490580989866134 
2434	 0.46526800247426 
2435	 0.326769390656228 
2436	-18.9019062566135 
2437	 0.993590827109978 
2438	 1.26781802153819 
2439	 0.950929975064709 
2440	 0.821995107966677 
2441	 0.651490358247455 
2442	 0.802952886094517 
2443	 0.863559624522151 
2444	-0.160335848863385 
2445	 1.05894511727185 
2446	 0.456273739053899 
2447	-2.24770079882326E-02 
2448	-5.54948821722251E-02 
2449	-0.938376482215367 
2450	-0.823219993059111 
2451	-2.36657796603657 
2452	 7.46573311936013 
2453	 1.0125016902117 
2454	 0.15422056813134 
2455	-0.521981644992397 
2456	-9.16897434958107 
2457	 0.768258695200604 
2458	 3.14853029157739E-02 
2459	 0.294571944614871 
2460	 0.682953412495243 
2461	 2.37846421384915 
2462	 37.5585805630092 
2463	-1.55486081822556 
2464	-1.14106214133396 
2465	-4.91714383082792 
2466	-1.62459724701102 
2467	-4.11884121079111 
2468	-1.20686950832871 
2469	-0.857080128275469 
2470	-0.886483260406818 
2471	-0.956273687759839 
2472	-3.18618648438562 
2473	 1.08293504173153 
2474	-0.212996493102631 
2475	 0.178007557259846 
2476	 0.103179953384798 
2477	 0.408948822657912 
2478	 0.723075028155308 
2479	 1.05553422855189 
2480	 2.53050180253378 
2481	 4.55432642516775 
2482	 1.60403402390549 
2483	 1.14268766815487 
2484	 0.467579349739949 
2485	 0.271972104441245 
2486	 0.573191521834085 
2487	 0.648283880340204 
2488	 1.05846033718816 
2489	-6.06559008429883 
2490	-0.473583540318512 
2491	-0.175605993520569 
2492	-1.69810143697098E-02 
2493	-0.487837419049102 
2494	-1.44628928489435 
2495	-40.1679447434548 
2496	-7.87359526195956 
2497	-5.17891041434557 
2498	-3.82581296674661 
2499	-2.49064964959584 
2500	-5.3617393112764 
