Wavelength	rt0712EAST_CLOSE200008.asd
350	 4.99724034855652E-02 
351	 5.05433885850416E-02 
352	 0.050471763645039 
353	 5.06503500953936E-02 
354	 5.13600067329671E-02 
355	 5.11349538178624E-02 
356	 0.051247834857869 
357	 5.15656384801176E-02 
358	 5.15646662249689E-02 
359	 5.10345274971409E-02 
360	 5.06939744044875E-02 
361	 5.08893820924741E-02 
362	 0.051529210789704 
363	 5.11884984497278E-02 
364	 5.11306209783731E-02 
365	 0.051767729320754 
366	 5.17224058287673E-02 
367	 5.17392063812342E-02 
368	 5.21140503758451E-02 
369	 5.26464581232203E-02 
370	 5.16998614191223E-02 
371	 5.18707117630686E-02 
372	 5.24677022947065E-02 
373	 5.13021201878116E-02 
374	 5.17569320266607E-02 
375	 5.24537684527421E-02 
376	 5.27060949698565E-02 
377	 5.34606018360918E-02 
378	 5.32172342599727E-02 
379	 5.23238664486798E-02 
380	 5.18263774769868E-02 
381	 5.35304774214647E-02 
382	 5.39801458438799E-02 
383	 5.34183263346217E-02 
384	 0.053655111178017 
385	 0.052966694094163 
386	 5.31529932756281E-02 
387	 5.43496192794727E-02 
388	 5.46338801398056E-02 
389	 5.56647808436769E-02 
390	 5.61267552155338E-02 
391	 5.52746612117725E-02 
392	 5.49453843726335E-02 
393	 5.52942592732234E-02 
394	 5.59195002813601E-02 
395	 5.62283457306411E-02 
396	 5.60876636861452E-02 
397	 5.59838946630795E-02 
398	 5.61255826820319E-02 
399	 5.64239077984608E-02 
400	 5.64383060328649E-02 
401	 5.64305104027615E-02 
402	 5.65668954522493E-02 
403	 5.65478014113094E-02 
404	 5.64571432360007E-02 
405	 5.64908193455431E-02 
406	 5.67753071020102E-02 
407	 5.67592745681259E-02 
408	 5.69305095137671E-02 
409	 0.057354017065761 
410	 5.76264584695739E-02 
411	 5.76872971303733E-02 
412	 5.75806598159936E-02 
413	 5.74484793783945E-02 
414	 5.75854271019282E-02 
415	 5.79045395457592E-02 
416	 5.80835992574131E-02 
417	 5.78725118232412E-02 
418	 0.058080104794016 
419	 5.82976389236006E-02 
420	 5.84029791587175E-02 
421	 5.86684035109322E-02 
422	 5.87464487309358E-02 
423	 5.90474183756305E-02 
424	 5.96898568306197E-02 
425	 5.95235840564797E-02 
426	 5.94959792281231E-02 
427	 5.97223236555065E-02 
428	 5.99335063205138E-02 
429	 6.03051628285958E-02 
430	 6.06195145386675E-02 
431	 0.060781400471895 
432	 6.08827229847528E-02 
433	 6.10683647513706E-02 
434	 6.13788945980738E-02 
435	 6.17447162699897E-02 
436	 6.18711341624758E-02 
437	 6.19672994986305E-02 
438	 0.062162328921885 
439	 6.25250150372521E-02 
440	 6.30764730240246E-02 
441	 6.34240907119362E-02 
442	 6.34765425151064E-02 
443	 6.36298940842376E-02 
444	 6.40747398043428E-02 
445	 6.45750495820788E-02 
446	 6.48614061433013E-02 
447	 0.065064736814053 
448	 6.53615293860671E-02 
449	 6.56597047790411E-02 
450	 6.57104510053498E-02 
451	 6.59413210954182E-02 
452	 0.066345096598561 
453	 6.67057547949772E-02 
454	 6.64719682929105E-02 
455	 0.066630502199691 
456	 6.70318575827194E-02 
457	 6.71901027274322E-02 
458	 6.73019840245175E-02 
459	 6.74243324346654E-02 
460	 6.74936151962345E-02 
461	 6.73592668803958E-02 
462	 6.77093291357635E-02 
463	 6.81269911520246E-02 
464	 6.82394616643952E-02 
465	 6.84344108821048E-02 
466	 6.86316677861975E-02 
467	 6.87699041755383E-02 
468	 6.88434457322428E-02 
469	 6.92437084879794E-02 
470	 0.069551189820722 
471	 0.069625807856625 
472	 6.97993938275279E-02 
473	 6.99511462721045E-02 
474	 7.02557799869017E-02 
475	 7.07782876294067E-02 
476	 7.09317649097059E-02 
477	 7.13242689037841E-02 
478	 7.18172063627598E-02 
479	 7.18432342794893E-02 
480	 7.22269647003111E-02 
481	 7.25889238368776E-02 
482	 7.27522008039458E-02 
483	 7.32962345274304E-02 
484	 7.36541197469098E-02 
485	 7.39457203592294E-02 
486	 7.44428978592315E-02 
487	 7.47901332601965E-02 
488	 7.49968761111396E-02 
489	 7.52869392836511E-02 
490	 7.60236876032038E-02 
491	 7.63657948636765E-02 
492	 7.66601104056487E-02 
493	 7.72478938270741E-02 
494	 7.78196748125176E-02 
495	 0.078232182778658 
496	 0.078632435986184 
497	 7.92675596350781E-02 
498	 7.97779441913611E-02 
499	 8.01652371054221E-02 
500	 8.05579476822094E-02 
501	 8.12232802799168E-02 
502	 8.16541795162093E-02 
503	 8.21890568054655E-02 
504	 0.083130483407691 
505	 8.35738266443832E-02 
506	 8.41487474137983E-02 
507	 8.49082221041233E-02 
508	 8.54510129993493E-02 
509	 8.61597045771905E-02 
510	 8.67947931552328E-02 
511	 0.087264469796859 
512	 8.80829592186636E-02 
513	 0.08863624429136 
514	 8.91630022097529E-02 
515	 9.01087377935327E-02 
516	 9.05331659554925E-02 
517	 9.12568524520071E-02 
518	 9.23345556053868E-02 
519	 9.27198560467666E-02 
520	 9.33709629879268E-02 
521	 9.42169882538195E-02 
522	 0.095016376268052 
523	 9.57981264812742E-02 
524	 9.65153617197378E-02 
525	 9.72398781097148E-02 
526	 9.81123288226465E-02 
527	 9.89972015258191E-02 
528	 9.97648991694709E-02 
529	 0.100453846912406 
530	 0.101453323659206 
531	 0.10230273496149 
532	 0.103039100468869 
533	 0.103883387534762 
534	 0.104966048646855 
535	 0.105959520161229 
536	 0.106789873143064 
537	 0.107694393117184 
538	 0.108548239268433 
539	 0.109501593115534 
540	 0.110642545357175 
541	 0.111670617077761 
542	 0.112647463725225 
543	 0.113596125250788 
544	 0.114529120839443 
545	 0.115543254082205 
546	 0.116554156309818 
547	 0.117521171815655 
548	 0.11853790317943 
549	 0.11952092227331 
550	 0.120487067448102 
551	 0.121486351282645 
552	 0.122557066853243 
553	 0.123474003253234 
554	 0.12429573939943 
555	 0.125398379966546 
556	 0.126337230594955 
557	 0.127200101142841 
558	 0.128125163877592 
559	 0.129002626553782 
560	 0.129919315857189 
561	 0.130731330847637 
562	 0.131236624945103 
563	 0.13218146388332 
564	 0.133006140065577 
565	 0.133378500525963 
566	 0.13371615686305 
567	 0.134286998752547 
568	 0.134921604235766 
569	 0.135329445834906 
570	 0.135760287687404 
571	 0.136153785118064 
572	 0.13652842028085 
573	 0.1369952742834 
574	 0.137384223844567 
575	 0.13766034498026 
576	 0.13785146565145 
577	 0.138057738429177 
578	 0.138375577234741 
579	 0.138630575458085 
580	 0.138553225458645 
581	 0.138683010906645 
582	 0.138848198809549 
583	 0.138863116713009 
584	 0.13867819510474 
585	 0.138274835900449 
586	 0.137817007478423 
587	 0.137477140901881 
588	 0.136937151302771 
589	 0.136560405257104 
590	 0.136370186886916 
591	 0.135945679983522 
592	 0.135790567495326 
593	 0.135656129293794 
594	 0.135252749836738 
595	 0.134562848121941 
596	 0.134119199028486 
597	 0.133816875629809 
598	 0.1332294624405 
599	 0.132498765077862 
600	 0.131752638847263 
601	 0.131172534092611 
602	 0.131051831591951 
603	 0.130835516585092 
604	 0.130579860837869 
605	 0.130518848363707 
606	 0.130711928939168 
607	 0.130724759208346 
608	 0.130504440108029 
609	 0.130412303439591 
610	 0.130364989496692 
611	 0.130267751763593 
612	 0.130109638413331 
613	 0.130170599054715 
614	 0.130086583860192 
615	 0.129902040535536 
616	 0.129877653576159 
617	 0.129945324364954 
618	 0.129751835881973 
619	 0.129366357732496 
620	 0.129607709906071 
621	 0.129452087905879 
622	 0.129195928834859 
623	 0.12935948830781 
624	 0.129339971986427 
625	 0.129110220489337 
626	 0.128763486187003 
627	 0.128503786650225 
628	 0.128510470912104 
629	 0.128596983272541 
630	 0.128572604288548 
631	 0.128427991838115 
632	 0.128377730534708 
633	 0.12847310758741 
634	 0.128627425770753 
635	 0.128419545382994 
636	 0.128303651196495 
637	 0.128462623529943 
638	 0.128587859116425 
639	 0.128457540776832 
640	 0.128368800805158 
641	 0.128578368151791 
642	 0.128478544337518 
643	 0.128394057248429 
644	 0.128258924777992 
645	 0.127693531523931 
646	 0.127224111083615 
647	 0.127112016736734 
648	 0.127307743357962 
649	 0.127249165192156 
650	 0.126979768197387 
651	 0.126625291300164 
652	 0.126309376995027 
653	 0.125615550540297 
654	 0.124983777882838 
655	 0.124474603991672 
656	 0.12361997641349 
657	 0.122636623794255 
658	 0.121641908295841 
659	 0.120716820232771 
660	 0.12008049072416 
661	 0.119223015827798 
662	 0.118244338892033 
663	 0.117578806586154 
664	 0.116649410723617 
665	 0.115851258437848 
666	 0.115360267780828 
667	 0.114763512201992 
668	 0.114432951975132 
669	 0.114256342088864 
670	 0.114036884962347 
671	 0.113983062784305 
672	 0.113997490414146 
673	 0.114037114283583 
674	 0.114131664122156 
675	 0.11443541160182 
676	 0.114956031463171 
677	 0.115607478397554 
678	 0.116137907067087 
679	 0.116843050797102 
680	 0.117535735130562 
681	 0.117966381736614 
682	 0.119125018831918 
683	 0.120170146312558 
684	 0.120724843897513 
685	 0.121291563604044 
686	 0.122196481959169 
687	 0.123176623127405 
688	 0.123801249122289 
689	 0.124280120673009 
690	 0.124622442178626 
691	 0.124859573650057 
692	 0.125001816444231 
693	 0.12483701893656 
694	 0.124748777389168 
695	 0.124772205355665 
696	 0.12428408310132 
697	 0.123661389089879 
698	 0.122959141630605 
699	 0.122226970477296 
700	 0.121424941145764 
701	 0.120571552428024 
702	 0.119744574657097 
703	 0.118971596622786 
704	 0.118041396039143 
705	 0.116822644878857 
706	 0.115472198287794 
707	 0.114657686894511 
708	 0.112983596227164 
709	 0.111043039395398 
710	 0.109843292439128 
711	 0.108127560780208 
712	 0.106207584295293 
713	 0.104250125977951 
714	 0.10213388010361 
715	 0.100043915373905 
716	 9.76336074560156E-02 
717	 9.50033256205722E-02 
718	 9.33757618283333E-02 
719	 9.08015266449292E-02 
720	 8.83749767410768E-02 
721	 8.68628181439243E-02 
722	 8.50668037198652E-02 
723	 8.29517112333632E-02 
724	 8.08300912871325E-02 
725	 7.83852742542119E-02 
726	 7.61096783973592E-02 
727	 7.39020848512654E-02 
728	 7.15104371889074E-02 
729	 6.86277556407776E-02 
730	 6.57849338738982E-02 
731	 0.063400026258853 
732	 6.13591561783722E-02 
733	 5.96556512197328E-02 
734	 5.81451262713849E-02 
735	 0.056889320664466 
736	 5.61475205270558E-02 
737	 5.53050275621387E-02 
738	 5.44968014031397E-02 
739	 5.39736204661419E-02 
740	 5.37548812486949E-02 
741	 5.36977755740176E-02 
742	 5.36300518464462E-02 
743	 5.34084272227108E-02 
744	 5.31615452658368E-02 
745	 5.31544077877315E-02 
746	 5.32953941616022E-02 
747	 5.30151392359732E-02 
748	 5.30812176998499E-02 
749	 5.32467716143906E-02 
750	 5.31402519635189E-02 
751	 5.28293080136544E-02 
752	 5.28614977984298E-02 
753	 0.053029736983311 
754	 5.28039290274916E-02 
755	 5.28096440633168E-02 
756	 5.27643440160572E-02 
757	 5.25866985274661E-02 
758	 5.26320001437181E-02 
759	 5.25866303886401E-02 
760	 5.25132091262733E-02 
761	 5.26847275126023E-02 
762	 5.27622252834203E-02 
763	 5.24939048956132E-02 
764	 5.23132226179892E-02 
765	 5.25856078638596E-02 
766	 5.31139674179916E-02 
767	 5.33909731268706E-02 
768	 5.34265240236681E-02 
769	 5.36123484998796E-02 
770	 5.37171693406498E-02 
771	 5.37540669777188E-02 
772	 5.38428113786895E-02 
773	 5.43111785323182E-02 
774	 5.44504243855101E-02 
775	 5.44817511565085E-02 
776	 5.49070513405106E-02 
777	 0.055184314778242 
778	 5.54367532185834E-02 
779	 5.57230737918308E-02 
780	 5.59989189409841E-02 
781	 5.63464487401205E-02 
782	 0.056705324002666 
783	 5.70176214863885E-02 
784	 5.72716857349103E-02 
785	 5.77420953873818E-02 
786	 5.82570153792758E-02 
787	 5.85230258685857E-02 
788	 5.86643824978961E-02 
789	 5.91449478248632E-02 
790	 5.97400955986912E-02 
791	 5.97969083731723E-02 
792	 6.04233795155406E-02 
793	 0.061003435914179 
794	 6.12461308220344E-02 
795	 6.16993486376821E-02 
796	 6.21233773862513E-02 
797	 6.23986706304788E-02 
798	 6.25625218319608E-02 
799	 6.29305632675612E-02 
800	 6.35865702773454E-02 
801	 0.064130639504444 
802	 6.40630826509285E-02 
803	 0.06424725675429 
804	 6.46915145549983E-02 
805	 6.50783605084858E-02 
806	 0.064892512372381 
807	 6.49702327822778E-02 
808	 6.50240924987024E-02 
809	 6.47652117584276E-02 
810	 6.45980307278422E-02 
811	 6.39755769218178E-02 
812	 6.33289519477878E-02 
813	 6.33626113118576E-02 
814	 6.26799847038291E-02 
815	 6.23307887232132E-02 
816	 6.22985121148394E-02 
817	 6.15686202730729E-02 
818	 0.060406298557552 
819	 5.98401859438235E-02 
820	 5.97304425899851E-02 
821	 5.87097116634939E-02 
822	 5.78306337483503E-02 
823	 5.67037895915762E-02 
824	 5.51108576099622E-02 
825	 5.36744526695898E-02 
826	 5.23109044547559E-02 
827	 0.050612743577321 
828	 4.85564927800493E-02 
829	 4.82160997009954E-02 
830	 4.70288196238988E-02 
831	 4.49535195608857E-02 
832	 4.38684544573082E-02 
833	 4.35828125440722E-02 
834	 4.36592324713905E-02 
835	 0.043465210992384 
836	 4.22555040503831E-02 
837	 4.20801713644237E-02 
838	 4.21854220902335E-02 
839	 4.17326473735937E-02 
840	 4.11747259184221E-02 
841	 0.04085370919464 
842	 0.04079037377286 
843	 4.08391590757842E-02 
844	 0.040872530832333 
845	 4.05414413635678E-02 
846	 4.00550995553633E-02 
847	 3.99266541403396E-02 
848	 3.97151290441359E-02 
849	 3.97238784057636E-02 
850	 3.98817614984523E-02 
851	 3.95851134724459E-02 
852	 3.93216505883406E-02 
853	 3.89705588838762E-02 
854	 3.86987342353037E-02 
855	 3.95440242413121E-02 
856	 3.90148049428219E-02 
857	 3.81377101002015E-02 
858	 3.82788121958298E-02 
859	 3.84194949801683E-02 
860	 3.80028701834544E-02 
861	 3.76422553409642E-02 
862	 3.82309100305687E-02 
863	 3.84823757210866E-02 
864	 0.038059213727928 
865	 3.73917133069478E-02 
866	 3.74213515525904E-02 
867	 3.72128572754462E-02 
868	 3.70842988398215E-02 
869	 3.72219656206848E-02 
870	 3.74144591699052E-02 
871	 0.036734791389233 
872	 0.036033850362726 
873	 3.60778539099184E-02 
874	 3.65981411833793E-02 
875	 3.57746704646944E-02 
876	 3.50857104354248E-02 
877	 3.59703069381982E-02 
878	 0.035672546540974 
879	 0.035093926389734 
880	 0.034889577221261 
881	 3.52821193182367E-02 
882	 3.49242731123764E-02 
883	 3.45852708708686E-02 
884	 3.44589334666398E-02 
885	 3.42296569073088E-02 
886	 3.39306148689271E-02 
887	 3.40861822411727E-02 
888	 0.034458222419486 
889	 0.033983702336437 
890	 3.36814463642335E-02 
891	 3.39117458315321E-02 
892	 3.42623125258829E-02 
893	 3.29515847429804E-02 
894	 3.35936651389529E-02 
895	 3.42660442048438E-02 
896	 3.23906098704881E-02 
897	 3.07959532583381E-02 
898	 3.08670936580463E-02 
899	 3.27806333721921E-02 
900	 3.48918305122867E-02 
901	 3.30210270443524E-02 
902	 3.21792708724438E-02 
903	 3.22451988425069E-02 
904	 3.17526647336543E-02 
905	 3.31158103018179E-02 
906	 3.27770956466686E-02 
907	 3.14212343260964E-02 
908	 3.25751653169572E-02 
909	 0.030984628419523 
910	 3.11652989000001E-02 
911	 3.29646183280021E-02 
912	 3.18630140560949E-02 
913	 0.034123443110863 
914	 3.29609361936223E-02 
915	 0.028673293661655 
916	 0.030296128520325 
917	 3.20206122175813E-02 
918	 3.12780724490848E-02 
919	 2.91755169143004E-02 
920	 3.02223477480934E-02 
921	 3.05735268359812E-02 
922	 3.00542645698044E-02 
923	 2.91281186666848E-02 
924	 2.81761612144615E-02 
925	 3.10341506257606E-02 
926	 3.20606020968012E-02 
927	 2.65765950334332E-02 
928	 0.03101818642049 
929	 3.46704770924016E-02 
930	 2.91223661436805E-02 
931	 1.29987380149287E-02 
932	 2.99314818150038E-02 
933	 4.98465063824357E-02 
934	 3.68868911977141E-02 
935	-7.57427693887565E-03 
936	-1.8895352356666E-03 
937	 2.54131290911002E-02 
938	 4.13046266669178E-02 
939	 3.14492550720541E-02 
940	 0.046145393022338 
941	 4.49237031850132E-02 
942	 3.06798224554101E-02 
943	 2.63246215108999E-02 
944	 3.33074509911567E-02 
945	 1.53578031299463E-02 
946	-5.38336922286561E-03 
947	 1.54473699050309E-02 
948	 1.92368029974854E-02 
949	 2.00517176447411E-02 
950	 2.73730531894966E-02 
951	 4.13527311361553E-02 
952	 4.60471470378175E-02 
953	 2.39321103713542E-02 
954	-4.48151058719588E-04 
955	 1.40107271325605E-02 
956	 3.06985861371569E-02 
957	 4.37888547303336E-02 
958	 4.51691239323416E-02 
959	 3.04036635202557E-02 
960	 0.036987711491231 
961	 3.48762531854461E-02 
962	 2.54948041460226E-02 
963	 2.86217941562987E-02 
964	 3.01681999342234E-02 
965	 3.27248583276021E-02 
966	 3.46067528571603E-02 
967	 3.20245401457924E-02 
968	 3.07163889659342E-02 
969	 2.96980233947575E-02 
970	 2.80947540996742E-02 
971	 2.56805942497028E-02 
972	 2.25037556924659E-02 
973	 2.39519447240823E-02 
974	 3.07888601119479E-02 
975	 3.69555560601919E-02 
976	 2.60312586252038E-02 
977	 0.021695941019434 
978	 2.71003590056703E-02 
979	 2.58140194555108E-02 
980	 2.57079307325809E-02 
981	 2.56081142735012E-02 
982	 2.67110208338813E-02 
983	 3.12309992561021E-02 
984	 3.32596936495133E-02 
985	 2.99738190061456E-02 
986	 2.66366614171974E-02 
987	 3.14302754497263E-02 
988	 3.31008770808309E-02 
989	 2.92057329406889E-02 
990	 2.39429429145356E-02 
991	 2.47619554139656E-02 
992	 3.01436054584216E-02 
993	 3.16711347109584E-02 
994	 0.028822974440475 
995	 2.73102663692035E-02 
996	 3.08408392542438E-02 
997	 2.99547079075991E-02 
998	 2.65799753886072E-02 
999	 2.82195200032023E-02 
1000	 2.77136329654239E-02 
1001	 0.028478476659328 
1002	 2.78757080277025E-02 
1003	 2.71382532293637E-02 
1004	 2.66356457813749E-02 
1005	 2.61577837207953E-02 
1006	 2.56463913603923E-02 
1007	 2.44675678902496E-02 
1008	 2.36270536384381E-02 
1009	 2.41260298100402E-02 
1010	 2.54488617148048E-02 
1011	 2.64812126951802E-02 
1012	 0.02758493886499 
1013	 0.028490616262161 
1014	 2.79778606077448E-02 
1015	 2.50866890138847E-02 
1016	 2.45609023295839E-02 
1017	 0.023937311908795 
1018	 2.40572900733743E-02 
1019	 2.59237196090664E-02 
1020	 2.69297824393078E-02 
1021	 2.80090661824254E-02 
1022	 2.86637621326047E-02 
1023	 0.029128085760898 
1024	 2.91329054476973E-02 
1025	 2.89588714214338E-02 
1026	 2.95442131660284E-02 
1027	 2.90722709296903E-02 
1028	 0.027923127014028 
1029	 2.79298565049335E-02 
1030	 2.78647678269837E-02 
1031	 2.76927966815203E-02 
1032	 2.87240536470225E-02 
1033	 0.028428662568839 
1034	 2.66425898422287E-02 
1035	 2.59866401531672E-02 
1036	 2.52344834150695E-02 
1037	 2.51728192874254E-02 
1038	 0.026236931529643 
1039	 2.66026946267183E-02 
1040	 2.70606785638821E-02 
1041	 2.73374851628178E-02 
1042	 2.77635324847086E-02 
1043	 2.80925850872117E-02 
1044	 2.81891304017049E-02 
1045	 2.85241885621738E-02 
1046	 2.84209815887223E-02 
1047	 2.77474818246444E-02 
1048	 2.73274244136461E-02 
1049	 2.64289417960755E-02 
1050	 0.026369813297001 
1051	 2.66998859168491E-02 
1052	 2.70816328963271E-02 
1053	 2.85975945411187E-02 
1054	 2.91677280307139E-02 
1055	 2.92159829534717E-02 
1056	 2.91960828555579E-02 
1057	 2.89310908704417E-02 
1058	 2.79049496336499E-02 
1059	 2.79124285581529E-02 
1060	 2.83048593410043E-02 
1061	 2.84925287934664E-02 
1062	 2.90197861110983E-02 
1063	 2.94580135797489E-02 
1064	 3.02568984736275E-02 
1065	 3.00308653900717E-02 
1066	 2.93463234710536E-02 
1067	 2.87464245065606E-02 
1068	 0.026405750532213 
1069	 2.58799810498528E-02 
1070	 2.76101310425815E-02 
1071	 2.77011237384738E-02 
1072	 2.78805103428665E-02 
1073	 2.73374127750312E-02 
1074	 2.71942383390373E-02 
1075	 2.57809567763527E-02 
1076	 2.57385301218871E-02 
1077	 2.72295265275551E-02 
1078	 2.73164387495235E-02 
1079	 2.66737093285481E-02 
1080	 2.66605160460882E-02 
1081	 2.65889676684666E-02 
1082	 2.65106006447308E-02 
1083	 2.64537844821418E-02 
1084	 2.68647660799648E-02 
1085	 2.76442165826258E-02 
1086	 2.79753914005614E-02 
1087	 2.91061572015854E-02 
1088	 2.95328162567711E-02 
1089	 2.93712597767249E-02 
1090	 2.83897815275786E-02 
1091	 2.74590353802973E-02 
1092	 2.55336037914781E-02 
1093	 2.50581859058742E-02 
1094	 2.51317976414084E-02 
1095	 2.50956271544258E-02 
1096	 2.62408899285751E-02 
1097	 2.64888205286161E-02 
1098	 2.53758824993913E-02 
1099	 0.025562175803783 
1100	 2.85988053363506E-02 
1101	 2.79712564485902E-02 
1102	 2.39172620363692E-02 
1103	 2.21393468033067E-02 
1104	 1.77473144066396E-02 
1105	 1.45726353493679E-02 
1106	 0.018962578441542 
1107	 0.025642719518375 
1108	 2.96204450205338E-02 
1109	 2.92305686487043E-02 
1110	 3.02401966746565E-02 
1111	 2.72163172901945E-02 
1112	 2.77647348263701E-02 
1113	 3.20079001952269E-02 
1114	 3.29418036930476E-02 
1115	 3.19023418282331E-02 
1116	 2.75253859624626E-02 
1117	 1.31680218756165E-02 
1118	 9.52214098835498E-03 
1119	 1.41440142593161E-02 
1120	 1.53864487350779E-02 
1121	 3.17956246019369E-02 
1122	 0.053387506246943 
1123	 6.78620851412723E-02 
1124	 3.65215254295017E-02 
1125	-1.82884960327138E-02 
1126	-3.12555322000511E-02 
1127	-1.94678839420839E-02 
1128	 1.61107720864402E-02 
1129	 1.79155350965764E-02 
1130	 1.12934254032005E-02 
1131	 2.64383790997884E-02 
1132	 5.19190104522659E-02 
1133	 4.27463893771252E-02 
1134	 3.41416143755092E-02 
1135	 3.14591295208147E-02 
1136	 1.94580745319243E-03 
1137	-1.42042448411836E-02 
1138	-3.34020037373452E-02 
1139	 7.3292703614227E-04 
1140	 3.21268887079065E-02 
1141	 0.011371880640716 
1142	 1.84388501749174E-02 
1143	 3.54346963483224E-02 
1144	 1.02316688644211E-02 
1145	 1.24087037384729E-02 
1146	 2.29692232537102E-02 
1147	 7.0051405509219E-03 
1148	 1.92047434243459E-02 
1149	 2.95493744655171E-02 
1150	 2.77294112082876E-02 
1151	 2.42706451523066E-02 
1152	 2.46078810983942E-02 
1153	 1.66593848579546E-02 
1154	 1.84814544750894E-02 
1155	 2.82978148180341E-02 
1156	 2.80711932186802E-02 
1157	 2.19206279202496E-02 
1158	 1.84299770528944E-02 
1159	 2.08699025368804E-02 
1160	 2.47808820909713E-02 
1161	 2.62634016543081E-02 
1162	 2.68293822014875E-02 
1163	 2.70888947764449E-02 
1164	 2.65485635595056E-02 
1165	 2.75702470443718E-02 
1166	 2.87749312554267E-02 
1167	 2.76031897876421E-02 
1168	 2.66754789861373E-02 
1169	 2.65603734711291E-02 
1170	 2.66700477683413E-02 
1171	 2.71243805861847E-02 
1172	 2.83210621104296E-02 
1173	 2.74974053845732E-02 
1174	 2.53156988931405E-02 
1175	 2.56471979736582E-02 
1176	 2.56502464997649E-02 
1177	 2.50061899284047E-02 
1178	 0.028581626605339 
1179	 2.97671038725415E-02 
1180	 0.027304230620435 
1181	 2.80049905065728E-02 
1182	 2.69633412977497E-02 
1183	 2.63747290973555E-02 
1184	 2.97865317624386E-02 
1185	 2.96104333138845E-02 
1186	 2.86537688428757E-02 
1187	 2.94302597949181E-02 
1188	 2.79965971751497E-02 
1189	 2.71726508585513E-02 
1190	 2.78132499107672E-02 
1191	 2.72817272523424E-02 
1192	 0.026989030179982 
1193	 2.69311214230252E-02 
1194	 2.76395427923096E-02 
1195	 2.68086585413932E-02 
1196	 2.60553305977782E-02 
1197	 2.72852544872321E-02 
1198	 2.77067100787396E-02 
1199	 2.76649792890702E-02 
1200	 2.89634581596871E-02 
1201	 2.84171779233213E-02 
1202	 2.78824581180415E-02 
1203	 2.80191496094684E-02 
1204	 2.66248055658871E-02 
1205	 2.63121651400012E-02 
1206	 0.026000823417857 
1207	 2.53341465034512E-02 
1208	 2.57468645888178E-02 
1209	 2.51205233174291E-02 
1210	 2.43948261957011E-02 
1211	 2.50750954057705E-02 
1212	 2.57003671556669E-02 
1213	 2.67199975203394E-02 
1214	 2.69895135284495E-02 
1215	 0.027086519869052 
1216	 2.58812757735171E-02 
1217	 2.47192590305709E-02 
1218	 2.39099963268771E-02 
1219	 2.44360751151917E-02 
1220	 2.57070569832068E-02 
1221	 2.68833379160802E-02 
1222	 2.72726682833953E-02 
1223	 2.63431969620715E-02 
1224	 2.57796896004118E-02 
1225	 2.56453038488508E-02 
1226	 2.58536917131983E-02 
1227	 2.64473358844582E-02 
1228	 2.66593054496577E-02 
1229	 2.70338803911539E-02 
1230	 2.75405252135434E-02 
1231	 2.75573266050323E-02 
1232	 2.72460228847528E-02 
1233	 2.69299994693088E-02 
1234	 2.67039136203778E-02 
1235	 2.64218846361757E-02 
1236	 2.62297195865916E-02 
1237	 2.63826444960059E-02 
1238	 2.67691374126826E-02 
1239	 2.65221617735093E-02 
1240	 2.65566109137652E-02 
1241	 2.70563519580115E-02 
1242	 2.72540027166143E-02 
1243	 2.72612212308082E-02 
1244	 2.76065576510942E-02 
1245	 0.027832656029249 
1246	 2.68392005727968E-02 
1247	 2.53922891195366E-02 
1248	 0.02556045313811 
1249	 2.63893876685449E-02 
1250	 2.60073656614794E-02 
1251	 2.60319974849382E-02 
1252	 0.026235817402956 
1253	 2.56039920654757E-02 
1254	 2.59121764090508E-02 
1255	 2.70230114000944E-02 
1256	 2.72108120803205E-02 
1257	 2.61370597522303E-02 
1258	 0.025766351293433 
1259	 2.55353892157109E-02 
1260	 2.55732407832878E-02 
1261	 2.59588201698411E-02 
1262	 2.58837722710578E-02 
1263	 2.56074575824765E-02 
1264	 2.57966571168271E-02 
1265	 2.54419229563227E-02 
1266	 2.56726839059709E-02 
1267	 0.026066083509732 
1268	 2.52499586352183E-02 
1269	 2.48999270397918E-02 
1270	 2.54841508717041E-02 
1271	 2.52816473713162E-02 
1272	 0.024929588460595 
1273	 0.025394906708663 
1274	 2.52231822049904E-02 
1275	 2.46038330087392E-02 
1276	 2.55472398306477E-02 
1277	 2.66648365325172E-02 
1278	 2.60889226880363E-02 
1279	 2.59750653056583E-02 
1280	 0.026823114366685 
1281	 0.027063136153402 
1282	 2.64788676758644E-02 
1283	 2.61986812271092E-02 
1284	 2.59444728235264E-02 
1285	 2.62832311397217E-02 
1286	 2.72267813711779E-02 
1287	 2.72632386716374E-02 
1288	 0.027234611226731 
1289	 2.72877204619237E-02 
1290	 2.64286096077671E-02 
1291	 2.60471949664157E-02 
1292	 2.59504815869549E-02 
1293	 2.52993563710197E-02 
1294	 2.50721793822351E-02 
1295	 2.51140002733701E-02 
1296	 2.58160758235228E-02 
1297	 2.70929587886606E-02 
1298	 2.71966555478283E-02 
1299	 2.68420425172977E-02 
1300	 2.69283658288674E-02 
1301	 2.72101077457874E-02 
1302	 2.71411582488997E-02 
1303	 2.67057142434511E-02 
1304	 2.64013064025655E-02 
1305	 2.65706651465104E-02 
1306	 2.62217876575216E-02 
1307	 2.54876762297595E-02 
1308	 2.52228080449029E-02 
1309	 2.45246763019112E-02 
1310	 2.45191641361735E-02 
1311	 2.58729156921908E-02 
1312	 2.66696572391201E-02 
1313	 2.80777906822645E-02 
1314	 2.73478896178738E-02 
1315	 0.024319392951622 
1316	 0.023935056584201 
1317	 2.33687924103297E-02 
1318	 2.29299549461879E-02 
1319	 0.025555867000681 
1320	 2.55654699396682E-02 
1321	 2.12613453246811E-02 
1322	 2.14519506164766E-02 
1323	 2.33977178119168E-02 
1324	 2.41401184978209E-02 
1325	 2.70860710501911E-02 
1326	 3.21458671253813E-02 
1327	 3.08073512626849E-02 
1328	 2.59944437222567E-02 
1329	 3.20866610078217E-02 
1330	 0.036566664821634 
1331	 0.03022872969523 
1332	 3.06434725134844E-02 
1333	 2.96278604658932E-02 
1334	 1.44859905691948E-02 
1335	 9.0297312707481E-03 
1336	 2.10123248827304E-02 
1337	 2.30214385304019E-02 
1338	 1.54682526170476E-02 
1339	 1.47719723294644E-02 
1340	 2.16560870837134E-02 
1341	 2.01991446254828E-02 
1342	 1.39476578128838E-02 
1343	 1.09834819575566E-02 
1344	 4.0554246942048E-03 
1345	-7.09927403896517E-03 
1346	-2.22340941959974E-02 
1347	-3.54726110930823E-02 
1348	-6.84053509468283E-02 
1349	-9.05397396308502E-02 
1350	-6.57090410245646E-02 
1351	-6.55208416225861E-02 
1352	-0.056882908890571 
1353	-5.46125547890798E-02 
1354	-5.03531100461584E-02 
1355	-0.121585443187989 
1356	-0.206068735268821 
1357	-0.309440164572118 
1358	-0.417153369347093 
1359	-0.419944795850134 
1360	-0.410133425741734 
1361	-0.416419505712259 
1362	-0.650088321710449 
1363	-1.55940700292887 
1364	-0.838822125981729 
1365	-0.242348236689031 
1366	-0.113910220386731 
1367	-0.312207256184043 
1368	-0.323621438087413 
1369	-0.55808100791348 
1370	-0.993035873785371 
1371	-3.05744399562318 
1372	-3.24854571208747 
1373	-4.77188910059461 
1374	 16.2061899319327 
1375	 1.18340826800993 
1376	 0.907763694250591 
1377	-2.27329717623089E-03 
1378	-0.255514737936976 
1379	-0.9064508783509 
1380	-0.994430227951952 
1381	-1.6298335395262 
1382	-1.60851992585955 
1383	-0.63273905975519 
1384	-0.489328748900527 
1385	-0.452591306901375 
1386	-0.356553708883249 
1387	 0.541570336711278 
1388	 0.437700333325598 
1389	-0.48962362341938 
1390	-0.542310964524221 
1391	-0.768820737753036 
1392	-0.523448844716542 
1393	-0.228054063556535 
1394	-9.19444025680367E-02 
1395	-0.833609960459237 
1396	-0.963227816943963 
1397	-1.21656409753786 
1398	 156.06443885609 
1399	-0.57280624248077 
1400	 0.297023762578037 
1401	 0.766124202811975 
1402	-90.7390664816367 
1403	-4.84680877596456 
1404	-13.8799925476373 
1405	-116.893791491326 
1406	 0.12990660354152 
1407	 0.208349269445418 
1408	 0.567721426833495 
1409	-6.96802634570536 
1410	 1.42806311413954 
1411	 2.74648231391424 
1412	-2.00799756500262 
1413	-2.3408196323672 
1414	-0.443526579081708 
1415	 0.328354148521999 
1416	-1.94095322271101 
1417	-4.33510837644971 
1418	 1.49897450273446 
1419	 1.41257134287999 
1420	 3.17016754837181 
1421	 2.45718090639974 
1422	 0.598814501707425 
1423	 0.487687295453289 
1424	 0.8699852182228 
1425	 0.47025095563138 
1426	 0.174208637636898 
1427	 0.343619896034204 
1428	 0.510179675308468 
1429	 0.26834760999202 
1430	-0.178688026367875 
1431	-0.160124344159238 
1432	 4.71086177837606E-02 
1433	-4.41796277838258E-02 
1434	 5.39654752747565E-02 
1435	 0.101340296633973 
1436	-3.76784932362392E-02 
1437	-0.531794229199754 
1438	-0.858148154004652 
1439	-0.652354014755864 
1440	-0.635497647921369 
1441	-0.431676720480774 
1442	 0.100529925865483 
1443	 0.164329459763165 
1444	 5.42365334134747E-03 
1445	-0.137959028827086 
1446	-0.270179326411237 
1447	-0.270068388520196 
1448	-0.186787041187573 
1449	-0.132057135278003 
1450	-3.93747367678249E-02 
1451	 3.12099081151869E-02 
1452	 1.87574846947724E-02 
1453	 8.22305971534788E-02 
1454	 0.100753881348683 
1455	 7.32284768861625E-02 
1456	 7.94452284851725E-02 
1457	 0.120153305619279 
1458	 0.113047173292046 
1459	 8.13136809183606E-02 
1460	 8.16860965531404E-02 
1461	 6.79446542285117E-02 
1462	 5.94716964839461E-02 
1463	 0.109144994800264 
1464	 9.30829768641849E-02 
1465	 1.13742952199251E-02 
1466	-2.15966544481076E-02 
1467	-0.088533916549822 
1468	-0.107824982953657 
1469	-0.061813916831043 
1470	-0.036220081670449 
1471	 9.74886595126055E-03 
1472	 2.84172642763901E-02 
1473	 2.09141117328119E-02 
1474	 3.59705782043916E-02 
1475	 7.19685825492893E-02 
1476	 6.20205354578077E-02 
1477	 8.5856315879632E-03 
1478	 7.02023896804045E-03 
1479	 2.53436023299722E-02 
1480	 9.30500718143109E-03 
1481	-7.75090630550339E-03 
1482	 1.02713721435888E-02 
1483	 2.65209465551149E-02 
1484	 0.028197970819915 
1485	 5.31747050172919E-02 
1486	 6.13042480729303E-02 
1487	 0.043593954374272 
1488	 0.036479050326154 
1489	 4.13676113648846E-02 
1490	 3.65727362231748E-02 
1491	 2.25936292766552E-02 
1492	 1.99957696343335E-02 
1493	 1.94337244333669E-02 
1494	 1.98470010976014E-02 
1495	 2.56762116406993E-02 
1496	 2.72647870165953E-02 
1497	 2.56220357480259E-02 
1498	 2.69043014700163E-02 
1499	 3.07486832351607E-02 
1500	 3.02182563108363E-02 
1501	 2.84837629972818E-02 
1502	 2.76190337833529E-02 
1503	 2.64054614611151E-02 
1504	 2.31106826523751E-02 
1505	 1.74967248885517E-02 
1506	 1.42053675230831E-02 
1507	 1.57307032350772E-02 
1508	 1.76649247451013E-02 
1509	 2.20296941169621E-02 
1510	 2.27261549246999E-02 
1511	 2.33740230278936E-02 
1512	 2.76065868027279E-02 
1513	 2.84228726785814E-02 
1514	 2.86876822144439E-02 
1515	 2.72213490811616E-02 
1516	 2.11227834212131E-02 
1517	 2.25504093810752E-02 
1518	 2.76048845830974E-02 
1519	 2.31724275601298E-02 
1520	 2.19284037693104E-02 
1521	 2.61976414647216E-02 
1522	 2.42625497590571E-02 
1523	 2.37675629808704E-02 
1524	 2.56790322108455E-02 
1525	 1.90940379103047E-02 
1526	 1.38107072506506E-02 
1527	 1.69904854268077E-02 
1528	 2.08863652006104E-02 
1529	 2.33328564933686E-02 
1530	 2.50756872861941E-02 
1531	 2.55807746939053E-02 
1532	 2.32430700249067E-02 
1533	 2.24615231434593E-02 
1534	 2.31180990296362E-02 
1535	 2.22603174199464E-02 
1536	 2.29005948767938E-02 
1537	 2.53257681304576E-02 
1538	 2.70175531193201E-02 
1539	 2.67200256555988E-02 
1540	 2.78429638838861E-02 
1541	 0.027366794434032 
1542	 2.55709379026791E-02 
1543	 2.39436560949297E-02 
1544	 2.10528950427935E-02 
1545	 0.020203335597184 
1546	 1.88991519940218E-02 
1547	 2.00245575475071E-02 
1548	 2.31126466723224E-02 
1549	 2.27158759089754E-02 
1550	 2.12394520702625E-02 
1551	 2.03326292727822E-02 
1552	 2.12844847992888E-02 
1553	 2.29245008132592E-02 
1554	 2.32859699471321E-02 
1555	 2.49340457327412E-02 
1556	 2.67879511880399E-02 
1557	 2.62318641804229E-02 
1558	 2.49969128400343E-02 
1559	 2.29914595864492E-02 
1560	 1.99590135403922E-02 
1561	 1.79481579904573E-02 
1562	 0.019290121807207 
1563	 0.021326586759696 
1564	 1.95229705629636E-02 
1565	 1.90570026948444E-02 
1566	 2.18711505022831E-02 
1567	 2.05440575258686E-02 
1568	 1.90378427185118E-02 
1569	 2.02151888332174E-02 
1570	 0.018538250197523 
1571	 1.78326674692763E-02 
1572	 0.020542844120011 
1573	 2.28541845725585E-02 
1574	 2.31118443576289E-02 
1575	 2.17456759487994E-02 
1576	 2.13068505459086E-02 
1577	 2.28013365060608E-02 
1578	 2.33573115025637E-02 
1579	 2.35062728187608E-02 
1580	 2.38502970564229E-02 
1581	 2.26550531254176E-02 
1582	 0.020663740346836 
1583	 1.91688601045338E-02 
1584	 2.07681031397353E-02 
1585	 2.30117299713045E-02 
1586	 2.30270533849572E-02 
1587	 2.27031178970773E-02 
1588	 2.18765907470955E-02 
1589	 2.19404912116845E-02 
1590	 0.022566692200815 
1591	 0.023458886909695 
1592	 2.43760657676458E-02 
1593	 2.48892322712294E-02 
1594	 2.63716201836453E-02 
1595	 2.58894406640362E-02 
1596	 0.025616041722601 
1597	 2.64918978454057E-02 
1598	 2.40453603904903E-02 
1599	 2.15729972484249E-02 
1600	 2.08588639795885E-02 
1601	 1.90162285423078E-02 
1602	 0.017385518405337 
1603	 1.94669598323394E-02 
1604	 2.34910169044574E-02 
1605	 2.43566888879447E-02 
1606	 2.33583967630611E-02 
1607	 2.40850306640083E-02 
1608	 2.44552955869107E-02 
1609	 2.42225410628668E-02 
1610	 2.43927343442233E-02 
1611	 2.27634930028735E-02 
1612	 2.20269912484734E-02 
1613	 2.33899480550218E-02 
1614	 2.38916252963484E-02 
1615	 2.50676680364816E-02 
1616	 2.56959697053022E-02 
1617	 2.37578251279671E-02 
1618	 2.27749533963895E-02 
1619	 0.022655953733129 
1620	 2.19475502221333E-02 
1621	 2.23157851151777E-02 
1622	 2.38724633113203E-02 
1623	 2.48432328540844E-02 
1624	 2.33994251590283E-02 
1625	 2.24772656767382E-02 
1626	 2.34023555581389E-02 
1627	 2.22714934913103E-02 
1628	 2.12423211977015E-02 
1629	 2.22888021802396E-02 
1630	 2.16562093025879E-02 
1631	 2.03168483539013E-02 
1632	 1.99273497379414E-02 
1633	 1.78539215996833E-02 
1634	 1.65407064956116E-02 
1635	 1.78001007532726E-02 
1636	 1.89762412385965E-02 
1637	 0.021200948864782 
1638	 2.29764760508604E-02 
1639	 2.33875919311796E-02 
1640	 2.38908944364125E-02 
1641	 2.22791798204125E-02 
1642	 0.021222925657046 
1643	 2.25659654904724E-02 
1644	 0.023236763935297 
1645	 2.36076349259317E-02 
1646	 0.023070539602115 
1647	 1.96290841297866E-02 
1648	 1.71615008062204E-02 
1649	 1.73648306292307E-02 
1650	 1.90007169824841E-02 
1651	 2.16449241026369E-02 
1652	 0.021348525122062 
1653	 1.99212126927624E-02 
1654	 1.94185527304845E-02 
1655	 0.017005833378963 
1656	 1.78863821196197E-02 
1657	 2.22351090261192E-02 
1658	 2.25086110254055E-02 
1659	 0.021662595993766 
1660	 2.24857935155335E-02 
1661	 2.18958498608766E-02 
1662	 2.26509887736303E-02 
1663	 2.61556828117459E-02 
1664	 2.71578104610166E-02 
1665	 2.63479697541028E-02 
1666	 2.59015056681649E-02 
1667	 2.53591267773204E-02 
1668	 0.023948027989276 
1669	 2.42587957570038E-02 
1670	 2.72149989329086E-02 
1671	 0.02772707768307 
1672	 2.55467148649542E-02 
1673	 0.02570427297857 
1674	 2.69698090671418E-02 
1675	 2.49367247529424E-02 
1676	 2.51649482334242E-02 
1677	 2.60252728629733E-02 
1678	 2.14423677078828E-02 
1679	 1.89840724551329E-02 
1680	 2.09416867026191E-02 
1681	 2.13454972839843E-02 
1682	 1.98344557248217E-02 
1683	 2.07064831053263E-02 
1684	 2.39478563213427E-02 
1685	 2.44721796122047E-02 
1686	 0.023080029253943 
1687	 2.13850319057087E-02 
1688	 1.87825756282242E-02 
1689	 2.11259082020361E-02 
1690	 2.67880676682849E-02 
1691	 2.85833801658036E-02 
1692	 2.88185374986728E-02 
1693	 2.65736784816578E-02 
1694	 0.022018191723169 
1695	 2.27760151975736E-02 
1696	 2.49354941657349E-02 
1697	 2.39381322160403E-02 
1698	 2.54528044630276E-02 
1699	 2.64696460024764E-02 
1700	 2.54484112647169E-02 
1701	 0.025834641964131 
1702	 0.025378165530619 
1703	 2.53562662229368E-02 
1704	 2.60395587854946E-02 
1705	 2.49616195455303E-02 
1706	 2.61642914331065E-02 
1707	 2.95720858647502E-02 
1708	 2.94893183012402E-02 
1709	 2.66230991726156E-02 
1710	 2.42695911909759E-02 
1711	 2.23125511808429E-02 
1712	 0.020741700216029 
1713	 2.24916297083123E-02 
1714	 2.29825177697959E-02 
1715	 2.27275743096618E-02 
1716	 2.52275282318112E-02 
1717	 2.43494430983713E-02 
1718	 2.01206253632655E-02 
1719	 1.97899505399359E-02 
1720	 2.02799821263599E-02 
1721	 2.07613206270502E-02 
1722	 2.27323506466276E-02 
1723	 2.06734428880464E-02 
1724	 1.92448888358101E-02 
1725	 2.12193589858588E-02 
1726	 0.022754083718239 
1727	 2.47546817090433E-02 
1728	 0.027201803684959 
1729	 0.024540378554306 
1730	 1.99989275239914E-02 
1731	 2.15592857635112E-02 
1732	 2.45536692476302E-02 
1733	 2.96126916398631E-02 
1734	 3.60158184832411E-02 
1735	 3.56821937332508E-02 
1736	 3.00866341007238E-02 
1737	 2.45774529048534E-02 
1738	 2.56045820339953E-02 
1739	 2.85312353814296E-02 
1740	 0.031827867082307 
1741	 3.45399426455858E-02 
1742	 2.99308293755808E-02 
1743	 2.75421208123835E-02 
1744	 2.52436510340265E-02 
1745	 2.09260693053149E-02 
1746	 0.021902889006494 
1747	 2.12127750327219E-02 
1748	 2.27183990545155E-02 
1749	 2.21246349903165E-02 
1750	 1.67036539584918E-02 
1751	 1.63513240141444E-02 
1752	 1.85203565979541E-02 
1753	 2.02998134958084E-02 
1754	 2.77785725562828E-02 
1755	 2.88534821322224E-02 
1756	 2.21826750039954E-02 
1757	 0.01871823398299 
1758	 2.05418145217193E-02 
1759	 2.34347641747144E-02 
1760	 2.88133692776138E-02 
1761	 3.46667972223267E-02 
1762	 3.36622856335068E-02 
1763	 2.67963567261816E-02 
1764	 2.70265350607661E-02 
1765	 2.80918567943943E-02 
1766	 2.46895102314726E-02 
1767	 2.77626775284242E-02 
1768	 3.21770238572186E-02 
1769	 3.10985310194118E-02 
1770	 3.52073900250655E-02 
1771	 3.48084414814297E-02 
1772	 2.84338054343494E-02 
1773	 2.70709388301086E-02 
1774	 2.34430875976508E-02 
1775	 3.21531648685556E-02 
1776	 3.52783399466797E-02 
1777	 3.54263815355484E-02 
1778	 3.40217418690047E-02 
1779	 2.72171093941342E-02 
1780	 0.024800246249163 
1781	 2.00410704620229E-02 
1782	 2.22594928636253E-02 
1783	 3.75452391065003E-02 
1784	 3.98667974855555E-02 
1785	 4.06833409689805E-02 
1786	 0.032981507390268 
1787	 2.27512640475898E-03 
1788	-1.05488692892305E-02 
1789	-2.05426765714501E-02 
1790	-3.53669745217594E-03 
1791	 0.043220340717737 
1792	 5.07291722690358E-02 
1793	 2.11197361150796E-02 
1794	-2.12444276298649E-02 
1795	-0.124583217953091 
1796	-8.27512837335295E-02 
1797	 9.71955749266607E-02 
1798	 0.172357911556927 
1799	 0.341426394993284 
1800	-5.31972305408945E-03 
1801	-0.129643616486333 
1802	-2.95088332745215E-02 
1803	-7.24713633273439E-02 
1804	 3.61297630566887E-02 
1805	 1.19598523868452E-02 
1806	-0.451640713218433 
1807	-0.714310846918542 
1808	-0.882234730641028 
1809	-0.851726174145281 
1810	-0.151393842064969 
1811	-0.129528974564601 
1812	-0.281264349282229 
1813	-0.158787996308076 
1814	-0.623000230873731 
1815	-0.520429363291138 
1816	-5.91310886898501E-02 
1817	-0.225029873281808 
1818	 0.141072314472005 
1819	 0.228890936042335 
1820	 3.18872034672302E-02 
1821	-0.759182498610735 
1822	-1.63366984026013 
1823	-0.836803641540889 
1824	-0.391256592065772 
1825	 0.587740448811059 
1826	 0.773654605042431 
1827	 1.42100568815865 
1828	 1.20012564314652 
1829	-0.882147174717089 
1830	-1.27603735818514 
1831	-0.760816907531732 
1832	-1.53901919525799 
1833	 1.17401127711037 
1834	 2.31128499277489 
1835	 0.69160262448413 
1836	 1.72773511935547 
1837	 0.730650154562698 
1838	 1.17794831588222 
1839	 3.88676668026506 
1840	 35.4953023858142 
1841	-1.35718611930859 
1842	-0.688362666695586 
1843	-0.719712030809485 
1844	-0.273742161055194 
1845	-0.855729962519602 
1846	 5.07837664027991 
1847	 4.92990986034964 
1848	-5.98699584064494 
1849	-3.00425190045132 
1850	-8.19281317758888 
1851	-12.0582832398407 
1852	-2.49820004122511 
1853	-1.44250477481855 
1854	-0.97721278243091 
1855	-0.122173610065804 
1856	-0.080308450438064 
1857	-0.351581948694358 
1858	-0.453588847842458 
1859	-0.694539767039567 
1860	-0.834573018307458 
1861	-0.643158008856807 
1862	-0.921286160649433 
1863	-0.887429247454827 
1864	 1.38055440364867 
1865	 3.82194012601729 
1866	 5.89217810523174 
1867	 1.29715710515483 
1868	-0.134102743308887 
1869	-0.207024930200496 
1870	 8.68719232446536 
1871	 1.88761622200217 
1872	 0.669547897213509 
1873	-0.147720981272612 
1874	-0.399666700970417 
1875	-0.456337410149548 
1876	-0.391941182735155 
1877	 0.269853557245134 
1878	 0.954821663443856 
1879	 1.63148415941384 
1880	 1.78508790204236 
1881	 1.36169281303411 
1882	 0.715575913702544 
1883	 0.625677564419441 
1884	 1.25169979866365 
1885	 2.39058604840358 
1886	 19.9195429138172 
1887	-0.641741290680508 
1888	-1.4293130005691 
1889	-1.17018858134108 
1890	-0.623468755443151 
1891	-0.73235044121615 
1892	-0.735273829221436 
1893	-2.34901315231604 
1894	-10.5625686140819 
1895	-17.228826591477 
1896	-9.63284896065454 
1897	-2.88889755666658 
1898	-1.90935224107385 
1899	-3.89718071158361 
1900	-12.7994634739324 
1901	 3.77569136785217 
1902	 2.37791945279847 
1903	 1.07578474496373 
1904	 1.35762247385874 
1905	 2.36049752059463E-02 
1906	 0.431962606954699 
1907	 0.142625716464326 
1908	 0.512845216883201 
1909	 0.982510730745636 
1910	-9.62897502974965E-02 
1911	 5.68022536637997 
1912	-7.79851997656472 
1913	-38.928108752849 
1914	-0.217941152983367 
1915	-1.52599303032624 
1916	-4.27722167925015 
1917	-4.60572404587822 
1918	-4.42607729018154 
1919	 0.610215209154097 
1920	-0.507862236214243 
1921	-0.752522385757576 
1922	-0.131163860781758 
1923	 0.316641047441806 
1924	 0.433567213820695 
1925	 0.216562097259886 
1926	-0.130017108019616 
1927	-0.95557282567536 
1928	-2.11937975901016 
1929	-14.6233473680645 
1930	 2.73544218470621 
1931	 0.861051112121703 
1932	 0.374583770354779 
1933	 1.00382871899163 
1934	 1.58523818197005 
1935	 2.20088733552846 
1936	-1.09928853472601 
1937	-1.36580566798155 
1938	-1.03996250605228 
1939	-0.941834551606335 
1940	-0.785490676795563 
1941	-0.166997134160277 
1942	 0.239844597404754 
1943	 0.271292288088831 
1944	 0.478262789360309 
1945	-0.462335550216761 
1946	-1.38301184039065 
1947	 31.524418062286 
1948	-0.131553505647655 
1949	 0.173734142782979 
1950	 1.48023639080314E-02 
1951	 0.157220740634056 
1952	 0.179569801011056 
1953	-0.100292333352875 
1954	-0.456812443095884 
1955	-1.44476305691286 
1956	 1.42488641707056E-02 
1957	 0.373962993818564 
1958	 0.262537309200556 
1959	 0.536174492464183 
1960	 0.347097799507977 
1961	 2.09241320765289E-02 
1962	 1.35644211506376E-02 
1963	 3.30830629239296E-03 
1964	-0.220922989366913 
1965	 0.120457844345259 
1966	 0.309230361141901 
1967	 0.749385686990563 
1968	 0.188885891967214 
1969	 2.41383350285985E-02 
1970	-0.223049978977272 
1971	-0.323522923037077 
1972	-0.243010046240014 
1973	-0.342915033947154 
1974	-0.24442506098422 
1975	-7.47223814456537E-02 
1976	-9.67943780139892E-02 
1977	 0.038880904191883 
1978	 0.16914084883123 
1979	 0.128685629230192 
1980	-8.55633455276029E-02 
1981	-0.128434601492038 
1982	-0.124593348616532 
1983	-0.223068978856013 
1984	-0.147582610337071 
1985	-5.80423936451511E-02 
1986	-0.136932570011687 
1987	-0.15727987820316 
1988	 5.83701079030113E-02 
1989	 0.161955032018413 
1990	 0.201002819579013 
1991	 0.174223605103658 
1992	 0.107734741652422 
1993	 8.60906006424235E-02 
1994	 5.89409284606692E-02 
1995	 2.36111050535003E-02 
1996	 0.134486738288344 
1997	 0.316671033760495 
1998	 0.263448054254588 
1999	 0.287158877509665 
2000	 0.477830106283524 
2001	 0.224424003143873 
2002	-7.90713524940218E-02 
2003	-0.321663900289284 
2004	-0.492695899093103 
2005	-0.184811214585183 
2006	 0.232323548149066 
2007	 0.248902430364881 
2008	 0.193495675943442 
2009	 0.185155908249169 
2010	-0.431296207036014 
2011	-0.816983402388296 
2012	-0.691634316557231 
2013	-0.309946433670424 
2014	-0.37721607876922 
2015	-0.504315755061921 
2016	-0.386976683664886 
2017	-0.18265577552651 
2018	 2.34693605273471E-02 
2019	 0.20174644867646 
2020	 0.202829189770614 
2021	 0.146999678148995 
2022	 0.043912965942302 
2023	 7.24947260522369E-03 
2024	-1.81236991410492E-02 
2025	-5.83781374523545E-02 
2026	-5.47027381093697E-02 
2027	-0.013343082559716 
2028	-4.05255134027742E-03 
2029	 1.77028682174962E-02 
2030	 9.30458232455906E-03 
2031	-2.33843719099988E-03 
2032	-0.011384786547546 
2033	-5.12503161277833E-02 
2034	-2.51433248608595E-02 
2035	-2.09885318788241E-02 
2036	-3.60595914961977E-02 
2037	 8.43028793417153E-03 
2038	 1.59629107054768E-02 
2039	 1.42060621167039E-02 
2040	 2.25973863897565E-02 
2041	 2.21384259438726E-02 
2042	-1.49505556506531E-02 
2043	-0.019792775587182 
2044	 6.63173106012412E-03 
2045	-8.30821840114774E-03 
2046	-4.24769120410773E-02 
2047	-7.75562312247851E-02 
2048	-0.135214085675046 
2049	-0.154736673640827 
2050	-0.14204554820418 
2051	-0.146722547802771 
2052	-8.94000890521569E-02 
2053	-3.27442069429368E-02 
2054	-0.010054981897432 
2055	 1.11514057716582E-02 
2056	 1.35556318214724E-02 
2057	-3.70049875950546E-02 
2058	-4.70439839669128E-02 
2059	-4.69616014365735E-02 
2060	-4.15369901431043E-02 
2061	-8.96701631970901E-03 
2062	-3.94734855623381E-02 
2063	-5.43879023921306E-02 
2064	-3.72859919182461E-02 
2065	-8.05417266775676E-03 
2066	 2.86297760078161E-02 
2067	 0.052076554425059 
2068	 6.34988326759285E-02 
2069	 4.45590862412052E-02 
2070	 1.59190650990853E-02 
2071	 1.06514510607318E-02 
2072	 3.55030447095936E-02 
2073	 4.59836880899962E-02 
2074	 7.45492745065021E-02 
2075	 8.68232402873906E-02 
2076	 7.77760286853535E-02 
2077	 7.03048698850201E-02 
2078	 6.57493492371458E-02 
2079	 5.91034891172652E-02 
2080	 4.69257741282432E-02 
2081	 4.49384215331595E-02 
2082	 3.19414478258421E-02 
2083	 0.01619393692103 
2084	-1.02497601611882E-02 
2085	-3.00534454392814E-02 
2086	-0.036058332476891 
2087	-4.68013518590418E-02 
2088	-5.48557425179533E-02 
2089	-5.54339972414843E-02 
2090	-0.046136925381902 
2091	-3.37505592004397E-02 
2092	-3.29855512591617E-02 
2093	-4.20884356812629E-02 
2094	-2.97653142467039E-02 
2095	-0.012294636518977 
2096	-9.00823780980518E-03 
2097	 7.25534626045292E-03 
2098	 1.51973652355554E-02 
2099	-5.87912098064069E-04 
2100	 4.04536835055103E-03 
2101	 2.22927164604459E-02 
2102	 2.75123677723277E-02 
2103	 2.73063582523508E-02 
2104	 2.20304738135224E-02 
2105	 1.41336325986945E-02 
2106	 2.21628782948113E-02 
2107	 3.67949584550183E-02 
2108	 3.78011278341039E-02 
2109	 3.79212568672366E-02 
2110	 0.045493974525523 
2111	 4.87088524378558E-02 
2112	 0.045083184842201 
2113	 4.30138772704802E-02 
2114	 4.23829211755708E-02 
2115	 3.77628609237497E-02 
2116	 3.59953165433497E-02 
2117	 2.05117925540363E-02 
2118	-1.27984025081655E-02 
2119	-2.30601288586946E-02 
2120	-3.68323640588527E-02 
2121	-0.038732169491831 
2122	-0.013572051405065 
2123	-4.39243642423569E-03 
2124	-2.76062436993916E-03 
2125	 3.32350856465182E-03 
2126	 1.85098766023018E-02 
2127	 2.58497819225342E-02 
2128	 3.09833417239848E-02 
2129	 3.29093331053056E-02 
2130	 1.12091834686886E-02 
2131	 4.36360008474689E-03 
2132	 2.13038850209372E-03 
2133	 2.11908769684009E-03 
2134	 6.68946001731656E-03 
2135	 2.58734159427979E-02 
2136	 2.80509401047893E-02 
2137	 2.40412441223685E-02 
2138	 2.16148971776039E-02 
2139	 9.45678039799401E-03 
2140	 3.93914263771711E-03 
2141	 1.8140841473437E-03 
2142	 8.82484460437622E-04 
2143	-1.13680918393942E-03 
2144	 8.15999163670167E-03 
2145	 1.72844784002002E-02 
2146	 0.020295495633284 
2147	 2.50140018356265E-02 
2148	 2.78020214793163E-02 
2149	 2.19295503999038E-02 
2150	 2.36625047197413E-02 
2151	 2.11107355841463E-02 
2152	 1.15703486477232E-02 
2153	 1.74817091890198E-02 
2154	 2.56069975603704E-02 
2155	 1.92701997408878E-02 
2156	 2.50934597714802E-02 
2157	 2.97019694641735E-02 
2158	 2.88189649732008E-02 
2159	 2.79623410892387E-02 
2160	 3.69103723124005E-02 
2161	 3.25413438418357E-02 
2162	 1.08572003240698E-02 
2163	 2.58643663733249E-03 
2164	-1.00091680524582E-03 
2165	-8.15960655093773E-03 
2166	-1.18636809409907E-02 
2167	-0.01325567905901 
2168	-2.52854277416061E-02 
2169	-1.72662873889544E-02 
2170	 7.04419286494098E-03 
2171	 2.70195437582243E-02 
2172	 0.048513518409991 
2173	 5.81234123696134E-02 
2174	 0.049565808732045 
2175	 0.04619121622837 
2176	 5.20335156231587E-02 
2177	 4.81870771095137E-02 
2178	 4.73738491590803E-02 
2179	 4.60391024141405E-02 
2180	 3.26341663315286E-02 
2181	 0.027305880072335 
2182	 2.46292271352549E-02 
2183	 2.83065323903232E-02 
2184	 4.61111622175558E-02 
2185	 5.09161783026735E-02 
2186	 4.83128617685834E-02 
2187	 2.78760875139876E-02 
2188	 3.71003879958233E-02 
2189	 6.34413117615357E-02 
2190	 6.37772713482091E-02 
2191	 7.97275695266125E-02 
2192	 8.25986849833991E-02 
2193	 0.039214712872235 
2194	 2.24733054661666E-02 
2195	 2.90233360455761E-02 
2196	 0.025987336746526 
2197	 2.29440750180521E-02 
2198	 2.16854067616682E-02 
2199	 0.024470020608334 
2200	 0.01555492122355 
2201	 2.87817428203262E-02 
2202	 2.93867256883631E-02 
2203	 2.41557730150552E-02 
2204	 1.24859983470798E-02 
2205	 8.69391687551494E-03 
2206	 2.44030590741426E-02 
2207	 0.042027658527068 
2208	 5.23460997735922E-02 
2209	 4.30064635870684E-02 
2210	 2.50845762673599E-02 
2211	 2.12867504544692E-02 
2212	 3.25411693468923E-02 
2213	 2.69178908882778E-02 
2214	 1.16442320451164E-02 
2215	-4.80615614066436E-03 
2216	-2.09567681732933E-02 
2217	-0.018267217939522 
2218	 2.13124373027699E-03 
2219	 1.13773697362357E-02 
2220	 4.12828559107147E-02 
2221	 4.90258540133146E-02 
2222	 3.30919433946393E-02 
2223	 3.49364415172165E-02 
2224	 3.94204582149697E-02 
2225	 2.74957042699703E-02 
2226	 1.52199017721883E-02 
2227	 7.33904677977286E-03 
2228	-1.63565325386485E-02 
2229	-2.61083111592836E-02 
2230	-2.08872408695338E-02 
2231	-1.31891351688873E-02 
2232	-5.21090723274791E-03 
2233	 2.33796789811239E-03 
2234	 2.44910709847779E-02 
2235	 2.72267576408832E-02 
2236	 1.09875264309877E-02 
2237	 1.08074602659135E-02 
2238	-1.30105593655272E-02 
2239	-3.03425739282249E-02 
2240	-2.28163303778135E-02 
2241	-2.59357373783918E-02 
2242	-2.48740704792407E-02 
2243	-2.52721303849212E-02 
2244	-4.56827222094391E-02 
2245	-5.26116526851337E-02 
2246	-1.45493974254248E-02 
2247	 7.9286733329285E-03 
2248	 2.30862601679519E-02 
2249	 4.91566633424364E-02 
2250	 4.33943953420359E-02 
2251	 2.88043099370363E-02 
2252	 1.87191949037203E-02 
2253	 7.75531280662772E-03 
2254	-7.46227433004881E-03 
2255	-2.20154144378889E-02 
2256	-0.024584763057883 
2257	-1.60836823914581E-02 
2258	 8.31587728772559E-04 
2259	 8.66724546606259E-03 
2260	 1.14531323493569E-02 
2261	 1.91500851827321E-02 
2262	 1.06905004254396E-02 
2263	-3.30902573720401E-02 
2264	-3.03775276583407E-02 
2265	-1.22884524482515E-02 
2266	-5.38192465336209E-03 
2267	 3.55060634992904E-02 
2268	 5.66147111664196E-02 
2269	 0.058521337715409 
2270	 5.85281881598215E-02 
2271	 4.66778181666801E-02 
2272	 3.87572634563177E-02 
2273	 0.033396588179217 
2274	 2.05697270077739E-02 
2275	 6.16511239701571E-03 
2276	-1.05912466309443E-02 
2277	-6.26700576471853E-02 
2278	-6.62279707160378E-02 
2279	-2.21805996324113E-02 
2280	-1.09008613463211E-02 
2281	 7.02127626806686E-03 
2282	 2.54135830442285E-02 
2283	 0.014487957070589 
2284	-1.45747275714737E-02 
2285	-1.07188170062582E-02 
2286	-1.29671030513009E-02 
2287	-3.35336162415942E-02 
2288	-3.99618284686624E-02 
2289	-8.01977688642371E-02 
2290	-0.089524550805525 
2291	-4.85555669899818E-02 
2292	-4.27337451468577E-02 
2293	 1.92841947436365E-02 
2294	 8.15694661233146E-02 
2295	 6.34063284359394E-02 
2296	 6.78421210594316E-02 
2297	 8.28711776033886E-02 
2298	 7.67519362231146E-02 
2299	 9.98009905992467E-02 
2300	 0.142421973276614 
2301	 0.127046978178773 
2302	 0.139489647195055 
2303	 0.168941126718062 
2304	 0.135398952216781 
2305	 0.106227430076359 
2306	 1.45823371248675E-02 
2307	-8.42296047410366E-02 
2308	-9.40114877842846E-02 
2309	-0.040998969611722 
2310	 3.94896148914981E-02 
2311	 8.94566975184342E-02 
2312	 0.101048033662938 
2313	 0.103843309561258 
2314	 9.61504840766943E-02 
2315	 0.126179814078921 
2316	 0.144180567275337 
2317	 0.04701296207434 
2318	-4.71991622382931E-02 
2319	-8.37314728639524E-02 
2320	-0.150804942798149 
2321	-7.75229992358119E-02 
2322	 1.00814213459968E-02 
2323	-7.62176290092325E-03 
2324	 6.58126724391865E-02 
2325	 6.07683295453586E-02 
2326	-7.82947361388523E-03 
2327	-1.66140395732021E-02 
2328	-0.110162463251246 
2329	-0.119579324310218 
2330	-6.97302589687592E-02 
2331	-8.47606068797923E-02 
2332	-0.093525242434628 
2333	-0.110709949044935 
2334	-0.187241726266306 
2335	-0.231302703350767 
2336	-0.152284062008814 
2337	-5.80141371345115E-02 
2338	-4.19181816587436E-02 
2339	 2.84514170272156E-02 
2340	-0.05855031339685 
2341	-0.241796015252259 
2342	-0.308033304969615 
2343	-0.257527809815491 
2344	-0.228192296686499 
2345	-0.157996992681528 
2346	-1.75344972023788E-02 
2347	 0.039474135939495 
2348	 0.128178718119652 
2349	 0.152613998218958 
2350	 0.129480141433861 
2351	 0.130400418662112 
2352	-1.51380308570152E-02 
2353	-0.143973449362378 
2354	-0.210495963793245 
2355	-0.398286918516734 
2356	-0.435586746144265 
2357	-0.224677447715795 
2358	-9.26553478191569E-02 
2359	 7.22964376268421E-02 
2360	 0.150022804454806 
2361	 2.82250076395802E-03 
2362	-9.70055140689357E-02 
2363	-0.161766115279237 
2364	-0.304550842306361 
2365	-0.183818798869017 
2366	-0.126482275017002 
2367	-0.123330196689783 
2368	-4.25265151778114E-02 
2369	-0.179664450131021 
2370	-0.372263712827691 
2371	-0.536407172033185 
2372	-0.902138975836734 
2373	-1.01354801133577 
2374	-1.0352699923828 
2375	-1.40441145207376 
2376	-1.15648107767816 
2377	-1.7857972921223 
2378	-1.7152998731034 
2379	-1.38165981116626 
2380	-1.87483028518274 
2381	-1.43698547641382 
2382	-2.00305298992601E-02 
2383	 0.388178631176206 
2384	 0.480719577181497 
2385	 1.01481323398508 
2386	 0.326957351221959 
2387	 1.41198427746173 
2388	 4.53857148984841 
2389	 17.5045702580628 
2390	 12.9650427641269 
2391	 2.4597909745914 
2392	 1.64521684779375 
2393	-16.9658516913491 
2394	 2.00945894516912 
2395	 318.157845603796 
2396	 2.90974992298582 
2397	-0.385947893857207 
2398	-33.665534068578 
2399	 7.9753683840295 
2400	-33.2413330710216 
2401	 9.34036884862143 
2402	 2.3473466834904 
2403	 2.55748045718455 
2404	 6.11195876990121 
2405	 2.12492417885822 
2406	 2.54704053856949 
2407	-1.18520622126549 
2408	-0.922891784299439 
2409	-0.986995897211455 
2410	-0.89527995085753 
2411	-0.858492165627119 
2412	-0.886549052543944 
2413	 0.286355992310607 
2414	 0.69079898361962 
2415	 1.07015791170332 
2416	-8.39870723335384 
2417	-3.43866591920716 
2418	-1.20348441269616 
2419	-1.35419004866779 
2420	-0.993046241873014 
2421	-0.574654544876906 
2422	-0.914552384370999 
2423	-3.31818453376172 
2424	 0.466803151185625 
2425	 3.50561681078343E-03 
2426	-1.59343715617287 
2427	-6.62251201895791E-02 
2428	-0.481229025929475 
2429	-0.302352037944051 
2430	-0.124877606327594 
2431	-0.78586439558291 
2432	-0.516060484565886 
2433	-1.25644530688206 
2434	-0.495054001945169 
2435	-0.125883780861569 
2436	-2.59801795607917E-02 
2437	 2.54016555515492E-02 
2438	-1.24785067242322 
2439	 0.480516948249686 
2440	 0.272830872312594 
2441	-0.153804301497308 
2442	-2.58106392891762 
2443	-0.257867963472939 
2444	-0.648686115744228 
2445	-3.77662059545323 
2446	 3.70146774782864 
2447	 3.77827019505745 
2448	-3.66326887176122 
2449	-1.5231497292552 
2450	-1.21865813030821 
2451	-0.989194130874081 
2452	-5.20294636813205 
2453	 0.864504656917289 
2454	 0.62885961990197 
2455	 0.284072320074612 
2456	 5.70579689210977E-02 
2457	 0.233224590357907 
2458	 0.025264467547114 
2459	-0.175462723020742 
2460	 0.273344167449831 
2461	 0.1937598532425 
2462	 0.126934514698645 
2463	 0.441424887457782 
2464	-0.533283693019225 
2465	 0.175017044446863 
2466	 0.529649461139388 
2467	 0.283058427881893 
2468	 2.13120096969402 
2469	-34.549302205517 
2470	-7.24496859377038E-02 
2471	-0.24451503647112 
2472	-0.455859458653114 
2473	-0.316661099793072 
2474	-0.705672446072219 
2475	-2.41332655513778 
2476	-0.878431513779756 
2477	 1.44902232193154E-02 
2478	-1.72464305671441E-02 
2479	-0.56567582438429 
2480	-1.38570786606654 
2481	-1.87606315374158 
2482	-2.8252565784481 
2483	-1.84982498597422 
2484	-1.27294027628616 
2485	-6.44550939988899 
2486	 2.94579794955805 
2487	 3.54904729006896 
2488	 0.229627742962456 
2489	 3.48687392862377 
2490	-3.11149713761756 
2491	-6.90009059092839 
2492	 2.32919334315214 
2493	 1.54856551923398 
2494	 1.23009216727376 
2495	 1.71597642915431 
2496	 0.812501112729479 
2497	 0.38667823744627 
2498	 0.797891261094409 
2499	 0.635583369235517 
2500	 0.689750418750816 
