Wavelength	rt0712EAST_CLOSE200003.asd
350	 5.45061892811785E-02 
351	 5.57812156650784E-02 
352	 5.49042090551424E-02 
353	 0.054633668897034 
354	 5.61699121336961E-02 
355	 5.56970397595635E-02 
356	 5.56530798112738E-02 
357	 5.58537509939028E-02 
358	 5.55210316923133E-02 
359	 5.47860521230743E-02 
360	 5.51819771857376E-02 
361	 5.61890043019909E-02 
362	 5.60422494797355E-02 
363	 5.57638828746432E-02 
364	 5.58132884992152E-02 
365	 0.056221393591533 
366	 5.65245460961043E-02 
367	 5.57189370602596E-02 
368	 5.53241423852762E-02 
369	 0.056466252780471 
370	 5.63833574586178E-02 
371	 5.64447269265739E-02 
372	 5.66616334973381E-02 
373	 5.63559714280575E-02 
374	 5.63843051576519E-02 
375	 5.66684194746014E-02 
376	 5.69303864932863E-02 
377	 5.67841862123808E-02 
378	 5.68071399577719E-02 
379	 5.67057963390579E-02 
380	 5.64764630728634E-02 
381	 5.77846891772259E-02 
382	 5.82040248746442E-02 
383	 0.057822072244322 
384	 5.78723123170243E-02 
385	 5.77764458146649E-02 
386	 0.057917660899155 
387	 5.85180878555868E-02 
388	 5.95146144733692E-02 
389	 6.03402727160061E-02 
390	 6.01237396053504E-02 
391	 5.89305213380055E-02 
392	 5.89841547552701E-02 
393	 5.94733576083973E-02 
394	 5.98269823095496E-02 
395	 5.97631024884506E-02 
396	 6.00293694454964E-02 
397	 6.01532369599728E-02 
398	 6.02706265073265E-02 
399	 6.10168347949127E-02 
400	 6.11491159788289E-02 
401	 6.08734390953164E-02 
402	 6.06345439635623E-02 
403	 6.08848278975314E-02 
404	 6.10467240364188E-02 
405	 6.10595125726278E-02 
406	 6.10626838351552E-02 
407	 6.10589510472305E-02 
408	 6.14263103604172E-02 
409	 6.19468221051875E-02 
410	 6.18634140812098E-02 
411	 0.061847108125281 
412	 6.19088031709612E-02 
413	 6.19811933032132E-02 
414	 6.21235447523298E-02 
415	 6.22348508010412E-02 
416	 6.23713981515397E-02 
417	 6.26012626865473E-02 
418	 6.26543646110551E-02 
419	 6.25988429646873E-02 
420	 0.062671028498945 
421	 6.32244695759874E-02 
422	 6.32777116107782E-02 
423	 0.063440895236161 
424	 6.40923793006314E-02 
425	 6.39929124298939E-02 
426	 6.38770365123213E-02 
427	 6.40462573833092E-02 
428	 6.45118023523767E-02 
429	 6.48740607596831E-02 
430	 6.51143960063818E-02 
431	 0.065267271720937 
432	 6.53804373338808E-02 
433	 6.55917316663185E-02 
434	 6.60032390943775E-02 
435	 6.65169742917619E-02 
436	 6.64726742420302E-02 
437	 6.65700647455282E-02 
438	 6.69314161121592E-02 
439	 6.73332305430882E-02 
440	 6.76448531141114E-02 
441	 6.79920671221594E-02 
442	 6.83682483340133E-02 
443	 6.85219076065516E-02 
444	 6.87787238753769E-02 
445	 6.90691893572825E-02 
446	 6.92947822135723E-02 
447	 6.96999332816807E-02 
448	 7.01160503711664E-02 
449	 7.04275819392447E-02 
450	 7.05894589641506E-02 
451	 7.07994989307584E-02 
452	 7.11362669174784E-02 
453	 7.14449049240517E-02 
454	 7.10722944340371E-02 
455	 7.12806547989774E-02 
456	 7.18346812611148E-02 
457	 7.20566510662592E-02 
458	 7.22109632927848E-02 
459	 7.22624304585744E-02 
460	 7.21986247026754E-02 
461	 0.07205988821569 
462	 7.23749797563349E-02 
463	 7.28304709432302E-02 
464	 7.30843089869866E-02 
465	 7.32109111329794E-02 
466	 7.33784106506065E-02 
467	 7.35201822195959E-02 
468	 0.07351603450701 
469	 7.38034441358489E-02 
470	 7.41443043328142E-02 
471	 7.44311605975243E-02 
472	 7.48219576748981E-02 
473	 0.07475034078968 
474	 7.48825597769317E-02 
475	 7.56965786821127E-02 
476	 7.57853433678203E-02 
477	 7.61212845728802E-02 
478	 7.66702000312019E-02 
479	 7.67679392100105E-02 
480	 7.70609600036242E-02 
481	 7.75018337310244E-02 
482	 7.79068713195315E-02 
483	 7.79701264888551E-02 
484	 7.83795558890151E-02 
485	 0.079010485564745 
486	 7.94568904044679E-02 
487	 7.96711322623997E-02 
488	 7.99198187744769E-02 
489	 8.03397230861194E-02 
490	 8.09029706075663E-02 
491	 8.11206927404272E-02 
492	 8.14878796522966E-02 
493	 8.23004512759551E-02 
494	 8.27764122127573E-02 
495	 8.33350143226198E-02 
496	 8.39138832571609E-02 
497	 8.42662970462844E-02 
498	 8.47220026079841E-02 
499	 8.52082401422054E-02 
500	 8.57069347695751E-02 
501	 8.63533623530648E-02 
502	 8.69212808213606E-02 
503	 8.75348724124453E-02 
504	 8.82990827667969E-02 
505	 8.87922684909829E-02 
506	 8.93589632657186E-02 
507	 9.00367896471112E-02 
508	 0.090620906196367 
509	 9.13046952870674E-02 
510	 9.19489073942105E-02 
511	 9.24919529133361E-02 
512	 9.31853044765309E-02 
513	 9.38006082843112E-02 
514	 9.44888577513023E-02 
515	 9.54419782689673E-02 
516	 0.095937977311882 
517	 0.096655189335418 
518	 9.76298984029161E-02 
519	 9.79807512743935E-02 
520	 9.87379614081764E-02 
521	 9.96996410979667E-02 
522	 0.100509739386026 
523	 0.101317285252812 
524	 0.102014147631819 
525	 0.102723777995712 
526	 0.103693615124867 
527	 0.104513033875398 
528	 0.105360003129588 
529	 0.106310121724237 
530	 0.107059073105509 
531	 0.107919742648345 
532	 0.108798006245148 
533	 0.109547618312862 
534	 0.110695090155839 
535	 0.111724723820663 
536	 0.112561299885664 
537	 0.113687691618998 
538	 0.11459932825794 
539	 0.115523839722398 
540	 0.116677069434792 
541	 0.117634746849111 
542	 0.118645268815919 
543	 0.119723017556443 
544	 0.12074802772733 
545	 0.121793702947092 
546	 0.122833716507709 
547	 0.123839787361984 
548	 0.124791641716789 
549	 0.12586317053804 
550	 0.126958109556438 
551	 0.127929128904252 
552	 0.128953011180568 
553	 0.129926246546601 
554	 0.130875847254903 
555	 0.131980319666486 
556	 0.132986746251831 
557	 0.133927055482525 
558	 0.134869915273122 
559	 0.13579089590805 
560	 0.136756527945096 
561	 0.137634994307648 
562	 0.138233906291565 
563	 0.139051412568167 
564	 0.139822700210932 
565	 0.140370682584646 
566	 0.14087618105005 
567	 0.14143392619435 
568	 0.142037605493124 
569	 0.142622358150309 
570	 0.143152209148888 
571	 0.143469255694397 
572	 0.143686413060877 
573	 0.144193611630943 
574	 0.144732210738109 
575	 0.145158985100239 
576	 0.145400199114385 
577	 0.145499318340344 
578	 0.145737727574562 
579	 0.146055773500323 
580	 0.146198485879958 
581	 0.146300929073529 
582	 0.146327036235939 
583	 0.146254074767778 
584	 0.146118189428553 
585	 0.14585918324339 
586	 0.145490975999496 
587	 0.145049219237371 
588	 0.14452064500805 
589	 0.144175954624711 
590	 0.1440379625469 
591	 0.143804194145253 
592	 0.143535950086558 
593	 0.143233322512885 
594	 0.142899820350981 
595	 0.142559778093741 
596	 0.142065354864567 
597	 0.141429501607186 
598	 0.140757283680253 
599	 0.140033180217515 
600	 0.139381061684085 
601	 0.138908940342457 
602	 0.138700612897053 
603	 0.13833072896329 
604	 0.13803737565797 
605	 0.138144348995978 
606	 0.138228176416367 
607	 0.13825740948643 
608	 0.138184741816411 
609	 0.137946887447956 
610	 0.137933680311261 
611	 0.137900567158692 
612	 0.137666900867371 
613	 0.137666193731214 
614	 0.137616037913168 
615	 0.137553411982204 
616	 0.137641736320746 
617	 0.137497989743639 
618	 0.137231399422577 
619	 0.13701582814463 
620	 0.137051931610306 
621	 0.137008800216089 
622	 0.13690583877777 
623	 0.13685669988141 
624	 0.136839977209673 
625	 0.136691189843445 
626	 0.136445219525776 
627	 0.136332517036891 
628	 0.136199613935605 
629	 0.136066350952749 
630	 0.135986189974053 
631	 0.136042204030842 
632	 0.136021396661963 
633	 0.13605941039089 
634	 0.136352119724958 
635	 0.136180990874952 
636	 0.136031268367664 
637	 0.13618314191593 
638	 0.136479647745441 
639	 0.136341920876624 
640	 0.136063358790319 
641	 0.136067159535619 
642	 0.136094078363026 
643	 0.13614725822275 
644	 0.136104383443871 
645	 0.135737177658648 
646	 0.135090768611114 
647	 0.1348701040211 
648	 0.135284262336465 
649	 0.135136463702202 
650	 0.134745131557868 
651	 0.134394125333125 
652	 0.134258253416515 
653	 0.133523061995161 
654	 0.13269650523734 
655	 0.132031057251289 
656	 0.131374508457355 
657	 0.130491376947955 
658	 0.129542827255585 
659	 0.128686172954923 
660	 0.127953005424315 
661	 0.127146065342051 
662	 0.126190719992318 
663	 0.125149841515951 
664	 0.124383906082224 
665	 0.123763473041659 
666	 0.123154862318761 
667	 0.122543065092535 
668	 0.122265187578893 
669	 0.122061211751404 
670	 0.121646233699423 
671	 0.121687174844196 
672	 0.121690023473178 
673	 0.12167256092196 
674	 0.122139089845934 
675	 0.122503320454809 
676	 0.122800109703543 
677	 0.123193716656463 
678	 0.123873289571202 
679	 0.124534825693396 
680	 0.125147096081221 
681	 0.125847334479471 
682	 0.126982848999957 
683	 0.128031499530829 
684	 0.128753055227558 
685	 0.129450021890326 
686	 0.130484429391389 
687	 0.131420712800127 
688	 0.131767906737212 
689	 0.132088301759326 
690	 0.132381823367917 
691	 0.132646492890868 
692	 0.13285275769188 
693	 0.132891911218022 
694	 0.132887410161833 
695	 0.132825496965396 
696	 0.132414026994913 
697	 0.131707110350986 
698	 0.130873490120478 
699	 0.130173685269594 
700	 0.129440829509757 
701	 0.128602028658253 
702	 0.127675275661071 
703	 0.126670895195393 
704	 0.125516442476021 
705	 0.124302080018411 
706	 0.123152307563067 
707	 0.122117899556864 
708	 0.120413973516384 
709	 0.118534551810148 
710	 0.117199393811076 
711	 0.115295037301585 
712	 0.113394591965668 
713	 0.11159217003933 
714	 0.109340266318983 
715	 0.107442531648232 
716	 0.105418907915953 
717	 0.102915777333499 
718	 0.100929959398754 
719	 0.098141606424813 
720	 9.56228655152813E-02 
721	 9.38539029597887E-02 
722	 9.18068441436519E-02 
723	 8.95321946895627E-02 
724	 8.73859327497713E-02 
725	 8.48613672756995E-02 
726	 8.24031672058419E-02 
727	 8.01819605644946E-02 
728	 7.80183322473263E-02 
729	 7.48915306681322E-02 
730	 7.20867910726978E-02 
731	 6.97159297954546E-02 
732	 0.067191947164687 
733	 6.53972462442607E-02 
734	 6.37962219438623E-02 
735	 6.23426229064335E-02 
736	 0.061615718200397 
737	 6.07529113991304E-02 
738	 5.99101425391529E-02 
739	 5.93734224280631E-02 
740	 5.90534070757805E-02 
741	 5.89143132335191E-02 
742	 0.058777207033186 
743	 5.84846015750245E-02 
744	 5.86292895195309E-02 
745	 5.86550935897101E-02 
746	 5.84262561664843E-02 
747	 5.85025432378225E-02 
748	 5.85379019493191E-02 
749	 5.83950558906286E-02 
750	 5.81134321547083E-02 
751	 5.81252904546427E-02 
752	 5.81073565161987E-02 
753	 5.80223177441874E-02 
754	 5.80031326117363E-02 
755	 5.81977242818078E-02 
756	 5.80572371069932E-02 
757	 5.76226355635944E-02 
758	 5.80156165691516E-02 
759	 5.83891440235004E-02 
760	 0.058228163324416 
761	 5.77966346721269E-02 
762	 5.80291794050146E-02 
763	 5.82190354578421E-02 
764	 5.80663922239267E-02 
765	 5.77431964390256E-02 
766	 5.82954869737712E-02 
767	 5.85925183965445E-02 
768	 5.85665945197261E-02 
769	 5.89930193634777E-02 
770	 5.90938496994909E-02 
771	 5.91116894068564E-02 
772	 5.93108192449631E-02 
773	 5.94703928265159E-02 
774	 5.95756339817955E-02 
775	 5.97549124170123E-02 
776	 6.01457729719753E-02 
777	 6.05122428574435E-02 
778	 6.07977407965185E-02 
779	 6.10803701274476E-02 
780	 6.15423519311104E-02 
781	 6.19254709361878E-02 
782	 6.21558912040857E-02 
783	 6.23210953071653E-02 
784	 0.062814707914768 
785	 6.30327069218131E-02 
786	 0.063357950248851 
787	 0.064251273596819 
788	 6.43745077672787E-02 
789	 6.47157826763976E-02 
790	 6.53619967034586E-02 
791	 6.56356796073978E-02 
792	 6.61178527957654E-02 
793	 6.65844827208487E-02 
794	 6.69181259887808E-02 
795	 0.067290114086686 
796	 6.78128393299371E-02 
797	 0.068154074721285 
798	 6.81727971264859E-02 
799	 0.068695380336516 
800	 6.92473701739421E-02 
801	 6.97416775298206E-02 
802	 7.02411656387945E-02 
803	 7.00422631204344E-02 
804	 7.02447616443636E-02 
805	 7.08942003782145E-02 
806	 7.08552420672694E-02 
807	 7.06224863476696E-02 
808	 7.04115506749824E-02 
809	 7.03263439627444E-02 
810	 7.02971554684923E-02 
811	 6.97161939391626E-02 
812	 6.91714090006196E-02 
813	 6.96428408553745E-02 
814	 6.98027499821293E-02 
815	 0.069000588569378 
816	 6.78348046292631E-02 
817	 6.76026091954107E-02 
818	 6.66691833545339E-02 
819	 6.58173102410173E-02 
820	 6.52268287158511E-02 
821	 6.42702844450589E-02 
822	 6.32446406619981E-02 
823	 6.21510333951139E-02 
824	 6.09256040697372E-02 
825	 5.93160791799642E-02 
826	 5.75729366942963E-02 
827	 5.57663601660956E-02 
828	 5.41478639377037E-02 
829	 5.32657998346569E-02 
830	 5.19399140970008E-02 
831	 5.01803551524411E-02 
832	 0.048971268184133 
833	 0.04873496054015 
834	 4.85787361167819E-02 
835	 4.79740932815947E-02 
836	 4.70415195248064E-02 
837	 4.65599609328215E-02 
838	 4.65211018507785E-02 
839	 0.04658344318468 
840	 4.60760118635347E-02 
841	 4.55812024684742E-02 
842	 4.53428639042062E-02 
843	 4.54291169664367E-02 
844	 0.045803252670922 
845	 4.55793191645333E-02 
846	 4.49257657280174E-02 
847	 4.46797425576237E-02 
848	 4.46262004692162E-02 
849	 4.45774867036431E-02 
850	 4.43059939877841E-02 
851	 4.36063920060535E-02 
852	 4.35367733259936E-02 
853	 4.38244502339554E-02 
854	 4.40164154561788E-02 
855	 0.043997767020386 
856	 4.35713282780075E-02 
857	 4.32162306850374E-02 
858	 4.32872094847141E-02 
859	 4.30646046258805E-02 
860	 4.27701309626843E-02 
861	 4.27560414771334E-02 
862	 4.32273417011384E-02 
863	 4.32317596554528E-02 
864	 4.27424861931911E-02 
865	 4.21668869587689E-02 
866	 4.21451151094632E-02 
867	 4.20359772605125E-02 
868	 4.18868338572261E-02 
869	 4.16846058703425E-02 
870	 4.12350472002986E-02 
871	 4.09994637553989E-02 
872	 4.09662015771965E-02 
873	 4.09550749853813E-02 
874	 4.06663927362689E-02 
875	 4.05711902278525E-02 
876	 4.01934883348794E-02 
877	 3.93897346260423E-02 
878	 4.03626221186761E-02 
879	 4.03758266378936E-02 
880	 3.94093056339134E-02 
881	 3.88240703729007E-02 
882	 3.90528612261737E-02 
883	 3.95195085736059E-02 
884	 3.95778425368014E-02 
885	 0.038828000235409 
886	 0.038629711776172 
887	 3.90347880314291E-02 
888	 3.93339319149336E-02 
889	 0.038333609730052 
890	 3.83279546287023E-02 
891	 0.038616809679228 
892	 3.82928337997503E-02 
893	 3.72122217374055E-02 
894	 0.037899780789965 
895	 3.85617296787348E-02 
896	 3.70076549024743E-02 
897	 3.58184233068393E-02 
898	 3.70696017558159E-02 
899	 0.039437170580499 
900	 4.02044369789722E-02 
901	 3.77600545211924E-02 
902	 3.74295236908316E-02 
903	 3.78303994675519E-02 
904	 0.036467618907797 
905	 3.88124764550779E-02 
906	 3.87068262027303E-02 
907	 3.62128672674794E-02 
908	 0.036266042283112 
909	 3.56244926389418E-02 
910	 3.64615862799661E-02 
911	 3.76920645408451E-02 
912	 3.57525703836401E-02 
913	 3.71309443670478E-02 
914	 3.72550644717779E-02 
915	 3.51530094018832E-02 
916	 3.53220047309062E-02 
917	 3.64854840170363E-02 
918	 3.62698660767922E-02 
919	 3.51134380965384E-02 
920	 3.66395394551267E-02 
921	 3.57513239139228E-02 
922	 3.42424218280395E-02 
923	 3.40602039607892E-02 
924	 3.46866971652119E-02 
925	 3.55779312384768E-02 
926	 3.58568237927072E-02 
927	 3.54045513748157E-02 
928	 3.82433901650811E-02 
929	 3.29300320581955E-02 
930	 2.32881952040418E-02 
931	 2.60792555074883E-02 
932	 3.45829558151122E-02 
933	 3.68934002456044E-02 
934	 2.09977454041674E-02 
935	-3.9992447584358E-04 
936	 4.33007465904249E-02 
937	 4.90581150088893E-02 
938	 3.60185657604624E-02 
939	 4.26196776860221E-02 
940	 3.50885382798393E-02 
941	 0.039500640421276 
942	 3.98055909033035E-02 
943	 1.00470903098001E-02 
944	 2.10956819697332E-02 
945	 1.96180838447079E-02 
946	 1.60159607474853E-02 
947	 4.57303185323576E-02 
948	 3.88371990070309E-02 
949	 2.43487114851483E-02 
950	 2.45096037895237E-02 
951	 4.30729758929265E-02 
952	 4.03211183617483E-02 
953	 2.93665431059691E-02 
954	 2.53769381320418E-02 
955	 3.62801089428061E-02 
956	 3.78946717913392E-02 
957	 3.48158418883857E-02 
958	 0.031383175883158 
959	 2.94618918133739E-02 
960	 2.88085237097011E-02 
961	 3.62235654444656E-02 
962	 4.33060312858539E-02 
963	 3.78103578516598E-02 
964	 3.98805043915373E-02 
965	 3.78682116868282E-02 
966	 3.22848046085755E-02 
967	 3.15514876951029E-02 
968	 3.40868273986338E-02 
969	 3.53021301847054E-02 
970	 3.52036633201616E-02 
971	 3.67137232064899E-02 
972	 0.031293039571716 
973	 2.98755167420918E-02 
974	 3.57792520816743E-02 
975	 4.08861667501411E-02 
976	 3.06569667794249E-02 
977	 2.92979702432028E-02 
978	 3.65277571533835E-02 
979	 3.20750134509073E-02 
980	 3.55323585613022E-02 
981	 0.035620405105553 
982	 3.36758486518288E-02 
983	 3.93462742811648E-02 
984	 3.67693264108813E-02 
985	 3.41445742988236E-02 
986	 0.034121967577995 
987	 3.38215248383448E-02 
988	 3.52831971319242E-02 
989	 3.18913359800332E-02 
990	 2.76056156725119E-02 
991	 3.21885837818616E-02 
992	 3.71819361373391E-02 
993	 3.73194397229777E-02 
994	 3.33232801156378E-02 
995	 3.03665525893901E-02 
996	 3.27891512618952E-02 
997	 3.22103103340127E-02 
998	 3.03505569467582E-02 
999	 3.28746164846645E-02 
1000	 2.66886028459643E-02 
1001	 3.10912136084375E-02 
1002	 3.30807316861048E-02 
1003	 3.33035167661054E-02 
1004	 3.32232152928258E-02 
1005	 3.30549945137565E-02 
1006	 3.15352949381538E-02 
1007	 3.13605273881992E-02 
1008	 3.31472240155749E-02 
1009	 3.41532133394668E-02 
1010	 3.55180102896315E-02 
1011	 3.65327599810305E-02 
1012	 3.56424514878404E-02 
1013	 3.42529568292914E-02 
1014	 3.30905382144011E-02 
1015	 3.09358439384226E-02 
1016	 3.05532311991673E-02 
1017	 3.09109122908888E-02 
1018	 3.13479258330882E-02 
1019	 3.33334512873596E-02 
1020	 3.42071362584656E-02 
1021	 3.48449304658015E-02 
1022	 3.49074333667593E-02 
1023	 3.45309880203494E-02 
1024	 3.44158274006232E-02 
1025	 3.47622479989752E-02 
1026	 3.46947627817006E-02 
1027	 3.44160369665804E-02 
1028	 3.38661586033719E-02 
1029	 3.41753053512261E-02 
1030	 3.44644125649422E-02 
1031	 3.48228610721597E-02 
1032	 3.65654489317592E-02 
1033	 3.65762381097387E-02 
1034	 3.51129594178635E-02 
1035	 3.47272516018458E-02 
1036	 0.033743394128216 
1037	 3.36018438909805E-02 
1038	 3.45436603574455E-02 
1039	 0.035426106891073 
1040	 3.51098598831627E-02 
1041	 3.48600136390036E-02 
1042	 3.47682569825622E-02 
1043	 3.38587072982493E-02 
1044	 3.40780755905861E-02 
1045	 3.54898788209572E-02 
1046	 3.58687263305863E-02 
1047	 3.64800615921722E-02 
1048	 3.61434046634286E-02 
1049	 3.43628036321804E-02 
1050	 3.39486048931935E-02 
1051	 3.38749674996174E-02 
1052	 3.35227604721658E-02 
1053	 3.32040109401386E-02 
1054	 0.033633337987957 
1055	 3.50990144264464E-02 
1056	 3.51972555416905E-02 
1057	 3.49950305546352E-02 
1058	 3.52563130305171E-02 
1059	 3.48810589091261E-02 
1060	 3.25946566702328E-02 
1061	 3.22218729446957E-02 
1062	 3.32004132726417E-02 
1063	 3.33218598616917E-02 
1064	 3.34834153979975E-02 
1065	 3.35668125223442E-02 
1066	 3.36428252408583E-02 
1067	 3.33792427165371E-02 
1068	 3.21847308057542E-02 
1069	 3.23188561330553E-02 
1070	 3.26962167989556E-02 
1071	 3.34620597587988E-02 
1072	 3.64392450867823E-02 
1073	 3.81786171271921E-02 
1074	 3.80166777083261E-02 
1075	 3.64966366757504E-02 
1076	 3.56762426259965E-02 
1077	 0.03252314521825 
1078	 0.032258224613053 
1079	 3.40536344707521E-02 
1080	 3.47336581806819E-02 
1081	 3.66868701061748E-02 
1082	 3.70278577391714E-02 
1083	 0.036139021032439 
1084	 0.035726677161647 
1085	 3.37533526616535E-02 
1086	 3.33199626477416E-02 
1087	 3.49999445458734E-02 
1088	 3.50749277744096E-02 
1089	 3.46434313535917E-02 
1090	 3.49037465156287E-02 
1091	 3.45153574999704E-02 
1092	 3.24363519040533E-02 
1093	 3.20549314086065E-02 
1094	 3.28682591964365E-02 
1095	 0.033231946912378 
1096	 0.034370585496065 
1097	 0.03404918496556 
1098	 3.16142360301121E-02 
1099	 3.17884760452536E-02 
1100	 3.27305206748289E-02 
1101	 3.39102571437081E-02 
1102	 0.039592840185725 
1103	 0.04137794470051 
1104	 4.17348279548658E-02 
1105	 3.76486828553197E-02 
1106	 3.20337849078302E-02 
1107	 3.31272930679677E-02 
1108	 3.41045812560959E-02 
1109	 3.31369332696227E-02 
1110	 3.28214527601785E-02 
1111	 3.11724190179026E-02 
1112	 3.03034115260399E-02 
1113	 3.28188393695424E-02 
1114	 3.27124589833388E-02 
1115	 3.04371363993043E-02 
1116	 2.97533659635902E-02 
1117	 2.06945778697774E-02 
1118	 1.91091238855082E-02 
1119	 0.039217108759999 
1120	 0.049078838252759 
1121	 6.35998036209614E-02 
1122	 0.073496545024707 
1123	 3.37257309707697E-02 
1124	 2.09472721207288E-02 
1125	 6.60382616739763E-02 
1126	 6.84622919222289E-02 
1127	 7.03467453787772E-02 
1128	 6.54223589531999E-02 
1129	 5.18544275702472E-02 
1130	-7.95078517110274E-03 
1131	-1.27149503817209E-03 
1132	 4.60567447716195E-02 
1133	 5.39613854294561E-02 
1134	 5.23877320560377E-02 
1135	 0.057812889704273 
1136	 6.36754804179873E-02 
1137	 6.27753271567178E-02 
1138	 5.96615705462955E-02 
1139	 0.068332961958893 
1140	 6.23274282356157E-02 
1141	 3.45719833886949E-02 
1142	 3.01335017335293E-02 
1143	 4.89559399976817E-02 
1144	 5.83770711734548E-02 
1145	 5.70719526554932E-02 
1146	 5.27153137623731E-02 
1147	 4.15217579243371E-02 
1148	 3.67725303778886E-02 
1149	 3.60095403262573E-02 
1150	 3.45035939301523E-02 
1151	 3.56997297206929E-02 
1152	 3.46382186168545E-02 
1153	 3.03077171985921E-02 
1154	 2.92977397237372E-02 
1155	 3.09311935284998E-02 
1156	 2.86733508753505E-02 
1157	 2.49953228717464E-02 
1158	 2.75550430324099E-02 
1159	 3.35652090757517E-02 
1160	 3.48166029253459E-02 
1161	 3.53805818894899E-02 
1162	 3.62080183051722E-02 
1163	 3.32005863934801E-02 
1164	 3.32981517000139E-02 
1165	 3.48895341543865E-02 
1166	 3.32360353383666E-02 
1167	 3.50968477419127E-02 
1168	 3.63601029170061E-02 
1169	 3.27327073492048E-02 
1170	 3.29502530486986E-02 
1171	 3.38785586288565E-02 
1172	 3.49268165148952E-02 
1173	 3.41865505653062E-02 
1174	 3.40144281333345E-02 
1175	 3.45405030925951E-02 
1176	 3.35074435014125E-02 
1177	 3.33893049050362E-02 
1178	 3.44167777768534E-02 
1179	 0.034128791014767 
1180	 3.31444524666002E-02 
1181	 3.17105322048667E-02 
1182	 3.17777675461788E-02 
1183	 3.41007987056032E-02 
1184	 3.45440613624524E-02 
1185	 3.42082604945439E-02 
1186	 3.42629849389121E-02 
1187	 3.33993300666408E-02 
1188	 3.45689160500518E-02 
1189	 0.035970138174522 
1190	 3.53548738565389E-02 
1191	 3.64378310000671E-02 
1192	 3.64169604025133E-02 
1193	 3.52828194216749E-02 
1194	 3.33301334064015E-02 
1195	 3.39804244156308E-02 
1196	 3.38044907165259E-02 
1197	 3.32549044937716E-02 
1198	 3.48376633087669E-02 
1199	 3.60372766805074E-02 
1200	 3.45101098203099E-02 
1201	 3.35878743749483E-02 
1202	 3.46722432601433E-02 
1203	 3.44223837455916E-02 
1204	 3.48730674693565E-02 
1205	 3.67567335195074E-02 
1206	 3.60528441327269E-02 
1207	 3.48923880099816E-02 
1208	 3.45140669101928E-02 
1209	 3.32804606351402E-02 
1210	 3.31944221840016E-02 
1211	 3.40468182731109E-02 
1212	 3.40495363928746E-02 
1213	 0.033959719285077 
1214	 3.41334213572593E-02 
1215	 0.034311622980616 
1216	 3.33016709275958E-02 
1217	 0.03220199687634 
1218	 3.25503144561988E-02 
1219	 3.24771235256772E-02 
1220	 3.22776512309372E-02 
1221	 3.34764471183776E-02 
1222	 3.46295265355003E-02 
1223	 3.49909982033885E-02 
1224	 3.49745998405513E-02 
1225	 3.42871176640926E-02 
1226	 3.35549193134963E-02 
1227	 3.33890591424551E-02 
1228	 3.33483349328519E-02 
1229	 0.033546907388828 
1230	 3.37157722871188E-02 
1231	 3.33255249935366E-02 
1232	 3.31299114200648E-02 
1233	 3.34046901209654E-02 
1234	 3.35555107341178E-02 
1235	 3.35098660572779E-02 
1236	 3.28010809572254E-02 
1237	 3.26716990845224E-02 
1238	 3.27841716288287E-02 
1239	 3.30786844800071E-02 
1240	 3.27273030539695E-02 
1241	 0.032859566709885 
1242	 3.29153906320496E-02 
1243	 3.21428245925026E-02 
1244	 3.20284955837841E-02 
1245	 3.26890395640119E-02 
1246	 3.28401461804769E-02 
1247	 3.22827942882151E-02 
1248	 3.22604336641735E-02 
1249	 0.033030313411635 
1250	 3.26087790978455E-02 
1251	 3.21595651184034E-02 
1252	 3.26955518824249E-02 
1253	 3.20408764954074E-02 
1254	 3.11053432976414E-02 
1255	 3.10376311991286E-02 
1256	 3.12358610797728E-02 
1257	 3.13962363577673E-02 
1258	 3.16726613951871E-02 
1259	 3.31080331781193E-02 
1260	 3.35917030940963E-02 
1261	 3.30741972666659E-02 
1262	 3.30209540049876E-02 
1263	 3.29326478288159E-02 
1264	 3.27593942424104E-02 
1265	 3.33612559655768E-02 
1266	 3.33620223714272E-02 
1267	 3.22183431572931E-02 
1268	 3.28307409409009E-02 
1269	 0.033758905898423 
1270	 0.033526184754549 
1271	 3.31836996251499E-02 
1272	 3.26327235995897E-02 
1273	 3.20857662674357E-02 
1274	 3.14402797080198E-02 
1275	 0.031603933188747 
1276	 3.27972377337349E-02 
1277	 3.24927429080185E-02 
1278	 0.031592674392352 
1279	 3.24248560108614E-02 
1280	 3.30945007535947E-02 
1281	 3.28472639525332E-02 
1282	 3.19643109868059E-02 
1283	 3.22520408433014E-02 
1284	 3.23633540857352E-02 
1285	 3.20248898507402E-02 
1286	 3.23968063327989E-02 
1287	 3.28891622793539E-02 
1288	 3.26825001540025E-02 
1289	 3.27850309662478E-02 
1290	 3.38563502545663E-02 
1291	 3.43522424020216E-02 
1292	 3.32176269903879E-02 
1293	 3.20149527821849E-02 
1294	 3.18820522044034E-02 
1295	 3.16876635849279E-02 
1296	 3.29887305842807E-02 
1297	 3.41279425635286E-02 
1298	 3.37817707052817E-02 
1299	 0.0353266112058 
1300	 3.59256534186159E-02 
1301	 3.47282598196934E-02 
1302	 3.56039904374215E-02 
1303	 3.64894859841629E-02 
1304	 3.53922629592882E-02 
1305	 3.47606983462669E-02 
1306	 3.40352760077977E-02 
1307	 0.031133456414908 
1308	 3.14256033206442E-02 
1309	 3.44945043054384E-02 
1310	 3.54569815500977E-02 
1311	 3.76933167127801E-02 
1312	 3.83947876504146E-02 
1313	 3.64053780318888E-02 
1314	 3.69155802073812E-02 
1315	 3.98712811073728E-02 
1316	 3.94630461732951E-02 
1317	 3.55366338731539E-02 
1318	 3.58532400687193E-02 
1319	 3.78606413383647E-02 
1320	 3.78528273886223E-02 
1321	 3.94055790364643E-02 
1322	 4.21319238881827E-02 
1323	 0.041087383175382 
1324	 3.88385939170317E-02 
1325	 3.76148720894557E-02 
1326	 3.70266580003917E-02 
1327	 3.90581409816934E-02 
1328	 3.73014201451548E-02 
1329	 3.43710869511327E-02 
1330	 3.85245287645335E-02 
1331	 4.49807665692308E-02 
1332	 5.09747749045261E-02 
1333	 5.64933517197509E-02 
1334	 6.26440006944657E-02 
1335	 6.55175218151215E-02 
1336	 5.51179844238256E-02 
1337	 5.35301838646043E-02 
1338	 5.80842014522046E-02 
1339	 5.99836116474372E-02 
1340	 6.13655067481037E-02 
1341	 6.30301788391408E-02 
1342	 6.82245935155193E-02 
1343	 6.89815321661807E-02 
1344	 5.36190927451608E-02 
1345	 5.69715989003362E-02 
1346	 8.98479972558927E-02 
1347	 0.103843943563152 
1348	 0.115935698462638 
1349	 0.160282842475658 
1350	 0.216256256025177 
1351	 0.267031340585136 
1352	 0.320598138609959 
1353	 0.432810427168811 
1354	 0.605228773438546 
1355	 0.619888108769907 
1356	 0.484573269149179 
1357	 0.547587497182879 
1358	 6.87674963322699E-02 
1359	-0.148888688564007 
1360	 2.07822498397369E-03 
1361	-0.183178703906291 
1362	-0.288519231345041 
1363	-0.839668639951138 
1364	-0.548089634526639 
1365	 3.15451529123939E-02 
1366	 0.132334903608115 
1367	-9.00370464827203E-02 
1368	 4.57828116301906E-02 
1369	 0.510080127590697 
1370	 0.822818930791875 
1371	 2.94092753413195 
1372	 4.08577050431992 
1373	 3.0601805350784 
1374	-11.5191532648188 
1375	 1.48479140958485 
1376	 1.13610890595416 
1377	 1.57989455784004 
1378	 1.71675379474919 
1379	 1.47484335865269 
1380	 0.87782836390373 
1381	-0.255934869799825 
1382	-0.332769147068543 
1383	 0.495861593990331 
1384	 0.646809559820972 
1385	 0.934235004590193 
1386	 1.02994601021004 
1387	 0.71545166950171 
1388	 0.602570175753664 
1389	 1.41677307152358 
1390	 1.6750337548612 
1391	 2.06987331424092 
1392	 0.697488822021166 
1393	 0.604488265672396 
1394	 0.897687862361623 
1395	 1.19634020983589 
1396	 1.70962711672095 
1397	 3.72817565796087 
1398	-247.348582541771 
1399	 1.28005293928937 
1400	 1.13211784242892 
1401	 2.43119712776392 
1402	-167.981066283802 
1403	-6.87255100879602 
1404	-18.5972874407775 
1405	-202.955283881869 
1406	 0.623925739550174 
1407	 0.261858621603224 
1408	-0.228657045106506 
1409	 0.406279401848817 
1410	-1.60448553032404 
1411	-7.933370970906 
1412	 4.09581720811113 
1413	 3.9730172596804 
1414	 2.33518772754506 
1415	 2.04552793539891 
1416	 3.60209680838429 
1417	 7.48106915241905 
1418	 8.38923899417098 
1419	 3.52144500798221 
1420	 2.45682031226712 
1421	 1.25280299199343 
1422	 0.541269096257047 
1423	 0.569828080927945 
1424	 0.424539184028004 
1425	 0.229843196555332 
1426	 1.40242008511201 
1427	 1.8942975443588 
1428	 1.42722009105216 
1429	 1.04349242556831 
1430	 0.339704371674272 
1431	 0.326633090199056 
1432	 0.610781203814838 
1433	 0.473939040683636 
1434	 0.590256628085625 
1435	 0.778605257650992 
1436	 0.514288540057988 
1437	 0.13976743495247 
1438	 0.146792927566523 
1439	 0.408069852446354 
1440	 0.225494402271418 
1441	-0.169950186898119 
1442	 0.013121954187358 
1443	 0.098238513243561 
1444	 0.104487638490951 
1445	 0.158622156758218 
1446	 0.165974971250361 
1447	 0.174929444456016 
1448	 0.274075633968613 
1449	 0.262042807734582 
1450	 0.181085674051931 
1451	 0.188250832915153 
1452	 0.195103315407438 
1453	 0.233999926710766 
1454	 0.205874899607471 
1455	 0.175043631652034 
1456	 0.185297663628442 
1457	 0.184624121534691 
1458	 0.151035623590896 
1459	 0.130210061879003 
1460	 0.145228091971226 
1461	 0.12628825545428 
1462	 0.124380193274794 
1463	 0.209535729425301 
1464	 0.218528439016575 
1465	 0.13782812292689 
1466	 0.128397515936816 
1467	 0.158068210051065 
1468	 0.140460054321729 
1469	 9.67145101736724E-02 
1470	 7.99946485232642E-02 
1471	 3.75849249748734E-02 
1472	 4.55988430025354E-02 
1473	 0.121634589865174 
1474	 0.124921294389862 
1475	 8.14862530350484E-02 
1476	 0.101703977622365 
1477	 0.157340004518403 
1478	 0.164812672481846 
1479	 0.197971215529837 
1480	 0.191395879635981 
1481	 0.122900171381782 
1482	 9.97586489484297E-02 
1483	 0.109581403177615 
1484	 8.90913789380076E-02 
1485	 4.56452432053868E-02 
1486	 4.26306949013763E-02 
1487	 5.29269106539262E-02 
1488	 5.30310647541392E-02 
1489	 6.58191480578094E-02 
1490	 6.76444969722513E-02 
1491	 6.47868209439349E-02 
1492	 5.33167310642551E-02 
1493	 2.73363576051886E-02 
1494	 2.60791956287543E-02 
1495	 3.74477345989196E-02 
1496	 3.15749912269009E-02 
1497	 2.44670276504554E-02 
1498	 2.75212227684072E-02 
1499	 2.51802989979065E-02 
1500	 2.20489133846395E-02 
1501	 2.84177084009126E-02 
1502	 3.29538862656582E-02 
1503	 3.13517961580775E-02 
1504	 2.96852438377347E-02 
1505	 2.98511104123474E-02 
1506	 3.32192593412548E-02 
1507	 3.22227598426856E-02 
1508	 3.42016225351219E-02 
1509	 4.14382067784712E-02 
1510	 3.85992936632517E-02 
1511	 3.39259217199957E-02 
1512	 3.55551638421322E-02 
1513	 3.07073508978818E-02 
1514	 2.87383323370145E-02 
1515	 3.31041024013642E-02 
1516	 2.99405404233451E-02 
1517	 0.029669921559163 
1518	 3.55336296261111E-02 
1519	 3.75521575122691E-02 
1520	 3.80064149302857E-02 
1521	 4.00454266205454E-02 
1522	 4.07965173287309E-02 
1523	 3.58102768774377E-02 
1524	 3.09504114195582E-02 
1525	 3.00081591798806E-02 
1526	 2.93493514444422E-02 
1527	 3.16898078205574E-02 
1528	 0.033831719984347 
1529	 2.93097737528035E-02 
1530	 2.56620450636067E-02 
1531	 2.56576936177672E-02 
1532	 2.51850131490158E-02 
1533	 0.027160987088802 
1534	 2.90680686281853E-02 
1535	 2.68480320542597E-02 
1536	 2.41306698585287E-02 
1537	 2.46841663873108E-02 
1538	 2.56203919627634E-02 
1539	 2.40117537940305E-02 
1540	 2.46731578347437E-02 
1541	 2.76188703547638E-02 
1542	 2.78891311081448E-02 
1543	 2.74270532634891E-02 
1544	 2.68620342902934E-02 
1545	 2.59874038543795E-02 
1546	 2.67399832713162E-02 
1547	 2.70201576961312E-02 
1548	 2.75911246126013E-02 
1549	 2.76630145241614E-02 
1550	 2.50564035720744E-02 
1551	 2.57389537135489E-02 
1552	 2.93829250542997E-02 
1553	 2.97613158278889E-02 
1554	 2.81785102120199E-02 
1555	 2.84693931022134E-02 
1556	 2.91883193656054E-02 
1557	 2.88878615184055E-02 
1558	 3.00157838427708E-02 
1559	 2.98054757260279E-02 
1560	 2.78829929631666E-02 
1561	 2.76138083152999E-02 
1562	 2.67772524047014E-02 
1563	 2.67612504075169E-02 
1564	 2.89933384472191E-02 
1565	 2.93005772855437E-02 
1566	 2.88656488282424E-02 
1567	 2.98206620939361E-02 
1568	 0.028473218100774 
1569	 2.63656828890414E-02 
1570	 2.60518903936904E-02 
1571	 2.65087477434572E-02 
1572	 2.69429967977633E-02 
1573	 2.64875625177469E-02 
1574	 2.72175641875688E-02 
1575	 2.83542268484624E-02 
1576	 2.83354789679483E-02 
1577	 2.68970410436394E-02 
1578	 2.50725356446454E-02 
1579	 0.025858205590326 
1580	 2.71812830798711E-02 
1581	 2.68720163865787E-02 
1582	 0.027017279577826 
1583	 2.79245971210678E-02 
1584	 2.74634826033479E-02 
1585	 0.027495536157498 
1586	 2.86748079856258E-02 
1587	 2.78561698517346E-02 
1588	 2.43596405688396E-02 
1589	 2.17491472587775E-02 
1590	 0.02399329884133 
1591	 2.77557866258321E-02 
1592	 2.77519412442533E-02 
1593	 2.54566839325195E-02 
1594	 2.56824151137205E-02 
1595	 0.028247046672279 
1596	 0.029664512677695 
1597	 3.04473310244496E-02 
1598	 0.031584504577477 
1599	 0.029243176004694 
1600	 2.62100444039588E-02 
1601	 2.85045027166515E-02 
1602	 3.14288046576902E-02 
1603	 3.06298629783567E-02 
1604	 2.91581143335283E-02 
1605	 2.97558092229209E-02 
1606	 3.01301181321179E-02 
1607	 2.78594502624235E-02 
1608	 2.59701247166117E-02 
1609	 2.57217455913446E-02 
1610	 2.53372097583617E-02 
1611	 2.46687486257782E-02 
1612	 2.37258151923225E-02 
1613	 2.53693151056626E-02 
1614	 2.64110389563265E-02 
1615	 2.48521319936839E-02 
1616	 2.72553006721066E-02 
1617	 2.83537227795524E-02 
1618	 2.47954249319146E-02 
1619	 2.38637487022485E-02 
1620	 2.61020977366566E-02 
1621	 2.75497057722241E-02 
1622	 2.60294233041078E-02 
1623	 2.61790791853056E-02 
1624	 2.79928593266647E-02 
1625	 2.65506476746441E-02 
1626	 2.57714199193126E-02 
1627	 2.64004074612332E-02 
1628	 0.026048841158193 
1629	 2.52322062724647E-02 
1630	 2.57839051124976E-02 
1631	 2.74355581726733E-02 
1632	 2.76071447588997E-02 
1633	 2.78789643703616E-02 
1634	 2.88908659161902E-02 
1635	 2.91670632748719E-02 
1636	 2.89255247510178E-02 
1637	 2.85261834013763E-02 
1638	 2.83103558013769E-02 
1639	 2.73188359945179E-02 
1640	 2.68881672823984E-02 
1641	 2.87052108953341E-02 
1642	 2.90601324710404E-02 
1643	 2.89183128308811E-02 
1644	 3.01295001645286E-02 
1645	 2.93146800613866E-02 
1646	 2.78104074968561E-02 
1647	 2.91786916837278E-02 
1648	 3.03981122494742E-02 
1649	 2.98674009257454E-02 
1650	 3.00825881665423E-02 
1651	 2.86363354000394E-02 
1652	 2.65420893244065E-02 
1653	 2.78243659367313E-02 
1654	 2.71128866140188E-02 
1655	 2.45775679125884E-02 
1656	 2.43197825750503E-02 
1657	 0.024731308701866 
1658	 2.49581355450676E-02 
1659	 2.82676981039171E-02 
1660	 2.88272618730915E-02 
1661	 2.57593313934159E-02 
1662	 2.58014127825571E-02 
1663	 2.65447621977323E-02 
1664	 2.66106637955881E-02 
1665	 2.78858103103079E-02 
1666	 2.86737506170647E-02 
1667	 0.028640658293198 
1668	 2.94938146479305E-02 
1669	 2.89112857199619E-02 
1670	 2.64427085925329E-02 
1671	 2.81482257730867E-02 
1672	 3.01447979112259E-02 
1673	 3.13792728185986E-02 
1674	 3.37462625122468E-02 
1675	 3.18921231038923E-02 
1676	 2.87195644154279E-02 
1677	 2.83931449482049E-02 
1678	 2.91354669699078E-02 
1679	 2.96965619353993E-02 
1680	 2.94015388073109E-02 
1681	 2.97930570951464E-02 
1682	 3.04384159114545E-02 
1683	 2.99967611883688E-02 
1684	 3.01205156984829E-02 
1685	 2.97441584557525E-02 
1686	 2.85856685441219E-02 
1687	 2.95528200551162E-02 
1688	 0.03114119736978 
1689	 2.99671630493631E-02 
1690	 2.75003188680918E-02 
1691	 2.59703331172111E-02 
1692	 2.62782221300975E-02 
1693	 2.76404291602795E-02 
1694	 2.81234294714323E-02 
1695	 2.78647831706999E-02 
1696	 2.69005162791868E-02 
1697	 2.76777647138464E-02 
1698	 3.09243304162619E-02 
1699	 0.031837599807281 
1700	 3.02615249773827E-02 
1701	 0.031373585597277 
1702	 3.16962831200653E-02 
1703	 2.91416362733721E-02 
1704	 2.97280491550449E-02 
1705	 3.04239347022448E-02 
1706	 3.03679121968886E-02 
1707	 2.97509608680503E-02 
1708	 2.77826651915742E-02 
1709	 2.76952489685133E-02 
1710	 2.69900012891461E-02 
1711	 2.98232153447311E-02 
1712	 3.47705236749144E-02 
1713	 2.95124354867725E-02 
1714	 2.93666926967646E-02 
1715	 3.22513415691063E-02 
1716	 3.19318809416848E-02 
1717	 3.27852846270168E-02 
1718	 3.21444672494784E-02 
1719	 3.03791889364008E-02 
1720	 3.23309882301144E-02 
1721	 3.42952909134478E-02 
1722	 0.03338092029553 
1723	 3.21895656860283E-02 
1724	 3.02754873373032E-02 
1725	 2.82852812732577E-02 
1726	 2.97668304144896E-02 
1727	 3.12097282137328E-02 
1728	 2.93907321687605E-02 
1729	 2.63412753618421E-02 
1730	 2.41663640425375E-02 
1731	 2.31045023331478E-02 
1732	 2.79179313170006E-02 
1733	 3.45136967020101E-02 
1734	 3.29705877596197E-02 
1735	 3.37864612690332E-02 
1736	 3.66317326931163E-02 
1737	 3.62264835273511E-02 
1738	 3.94358384901184E-02 
1739	 3.90326680464123E-02 
1740	 3.12229538255279E-02 
1741	 0.025140389301325 
1742	 2.52799478457876E-02 
1743	 2.75608918522086E-02 
1744	 2.96178762159567E-02 
1745	 0.031375423182559 
1746	 3.24626806612285E-02 
1747	 3.30836005492936E-02 
1748	 3.72882033953701E-02 
1749	 3.77251864393059E-02 
1750	 3.11756744401207E-02 
1751	 2.88360541469668E-02 
1752	 2.69375893994306E-02 
1753	 2.56783505127016E-02 
1754	 2.90201244808183E-02 
1755	 3.10417109895457E-02 
1756	 2.98883557183381E-02 
1757	 3.81263453742067E-02 
1758	 4.02312169971921E-02 
1759	 3.60371592359017E-02 
1760	 3.89014461212864E-02 
1761	 3.69407267437434E-02 
1762	 3.54196679398679E-02 
1763	 4.39929909134988E-02 
1764	 4.44604237148927E-02 
1765	 3.42098175949343E-02 
1766	 3.13979260265285E-02 
1767	 3.44918860616881E-02 
1768	 3.37539673771674E-02 
1769	 3.74490687026742E-02 
1770	 4.33006450270101E-02 
1771	 4.15401906976946E-02 
1772	 3.94705864169276E-02 
1773	 0.042201916552954 
1774	 4.47479975100023E-02 
1775	 3.82223680476742E-02 
1776	 3.66930450102319E-02 
1777	 4.02363898041477E-02 
1778	 0.037508796288969 
1779	 0.029895556563883 
1780	 0.030375683677187 
1781	 3.68320068206647E-02 
1782	 3.67809871526539E-02 
1783	 4.10067857451054E-02 
1784	 3.78835912539274E-02 
1785	 1.17965120034143E-02 
1786	 1.76685971759159E-02 
1787	 4.93609796204537E-02 
1788	 5.12629753699541E-02 
1789	 6.48406519215217E-02 
1790	 2.51095423232985E-02 
1791	-1.56339194633507E-02 
1792	 1.19661430285145E-02 
1793	 3.02269348103329E-02 
1794	 7.11227522309609E-02 
1795	 0.128829182263092 
1796	 0.152463552856561 
1797	 0.186354227552748 
1798	 0.239651484779481 
1799	 0.276707385172325 
1800	 0.230273100426663 
1801	 0.214751805585964 
1802	 0.132629349627884 
1803	 0.108802198941413 
1804	 0.141942222788214 
1805	 0.198272146962116 
1806	 0.521921773592591 
1807	 0.652779007375307 
1808	 0.550633920744912 
1809	 0.389972489462382 
1810	-0.858957243906385 
1811	-0.936902049227985 
1812	 0.654334586568596 
1813	 0.695292771984313 
1814	 0.852720211488748 
1815	 0.845900544341369 
1816	 0.293156680607184 
1817	 0.347190667391985 
1818	 0.384803539774268 
1819	 0.380673524229192 
1820	 0.479174058786397 
1821	 0.669857434122148 
1822	 0.89240064970394 
1823	-0.605537369604455 
1824	-0.881688884749173 
1825	 0.68186469228498 
1826	 0.920553001213547 
1827	 1.99747591961266 
1828	 2.25901751580427 
1829	 0.503922029209633 
1830	 0.27569602475219 
1831	 5.00049925102837 
1832	 6.81989702361753 
1833	-3.00234142459831E-02 
1834	-2.0955212008162 
1835	 20.0416057008598 
1836	 10.1726960252332 
1837	 1.55519420252055 
1838	 0.726120783500653 
1839	-1.44794128831094 
1840	-22.9177415142334 
1841	 1.59359542623696 
1842	 0.592957629252557 
1843	 0.524048527553143 
1844	-0.25633123362129 
1845	-7.36930221588386E-02 
1846	-2.80409307674992 
1847	-2.59115902542177 
1848	 2.988356072776 
1849	 0.914413043885313 
1850	 1.16176039685964 
1851	 3.98464739620051 
1852	 0.935981565502917 
1853	 0.877672755286802 
1854	 0.759350731543696 
1855	 0.419474117351402 
1856	 0.307054430791361 
1857	 0.285100052733086 
1858	 0.23683016631362 
1859	 0.157539505385351 
1860	-7.89313620771546E-02 
1861	-0.135173356337231 
1862	-7.85920753153412E-02 
1863	-0.73498539854846 
1864	-1.68647077049649 
1865	-4.47891682626473 
1866	 21.8426076351576 
1867	 7.80485521702197 
1868	 8.14526821638126 
1869	 18.9709766625624 
1870	-3.44151165499185 
1871	 0.802746348676399 
1872	 0.329941137795126 
1873	 0.614526441980444 
1874	 0.594562654770628 
1875	 0.198118032306941 
1876	 0.215167119951337 
1877	 1.15656158582752 
1878	 1.10509140112349 
1879	 0.666984720365004 
1880	 0.353234303859706 
1881	-0.369227965201667 
1882	-0.385048274948647 
1883	-0.572412021357893 
1884	-0.643558972304572 
1885	 0.580948169157008 
1886	-4.7167070552158 
1887	 5.70278529554137E-02 
1888	-0.263594742873043 
1889	-0.74543990816247 
1890	-0.837977203597457 
1891	-0.805670033369825 
1892	-0.761125212015808 
1893	-1.79685646463059 
1894	-3.96403779321488 
1895	 5.82599678509124E-02 
1896	 0.858032510467282 
1897	-0.129116113972083 
1898	 4.92588281447441E-02 
1899	-0.481891878656005 
1900	-4.80611749527402 
1901	 3.24801628044812 
1902	 3.64402068621327 
1903	 4.87191056452012 
1904	 10.0723432747719 
1905	-4.23571676861027 
1906	-2.30102612237151 
1907	-1.71311856954528 
1908	-1.75840158503714 
1909	-1.88378482714384 
1910	-3.3264684874652 
1911	 8.92623185214048 
1912	-3.97003365935662 
1913	-7.87449829860806 
1914	-0.43751588752605 
1915	-0.971957052416413 
1916	-2.35958947948383 
1917	-1.63107325979457 
1918	-0.709645602265093 
1919	 0.6158062802943 
1920	-0.137777590483845 
1921	-0.734234993982404 
1922	-0.670156858771453 
1923	-1.0214415148471 
1924	-1.27700755238094 
1925	-0.739649390153037 
1926	-0.699725807272655 
1927	-0.531608741058404 
1928	-1.48791356044987 
1929	-16.4144801013472 
1930	 2.66642579624047 
1931	 1.34904215595032 
1932	 0.718877927721323 
1933	 0.155573721412503 
1934	-0.242411063436457 
1935	-0.559716560590653 
1936	-5.94927931546397 
1937	-1.50487780889921 
1938	 0.309392401968834 
1939	 0.285708836071967 
1940	 2.41220739927831E-02 
1941	-0.153493105614889 
1942	-0.252071452830862 
1943	-0.757675569906313 
1944	-1.11176610050614 
1945	-0.57587502462047 
1946	-0.346103531825912 
1947	 19.8497025455293 
1948	 0.572656433633993 
1949	 0.524707486800374 
1950	 0.414165400245622 
1951	 5.10888798560278E-02 
1952	-0.353293501525011 
1953	-6.12715776041232 
1954	 5.24369194559832 
1955	 3.63545975604248 
1956	 1.40021021822809 
1957	 0.498368084983711 
1958	-7.84205265467774E-02 
1959	-1.01279957806213E-02 
1960	-0.344828462016795 
1961	-0.636241255763746 
1962	-0.626047525771978 
1963	-0.809979842346524 
1964	-1.30937281008066 
1965	-1.08960678943016 
1966	-0.99513462749775 
1967	-1.03925988437027 
1968	-1.1339698476378 
1969	-0.453530420363656 
1970	-5.39445436057505E-02 
1971	 0.107039618616557 
1972	 3.14589899998308E-02 
1973	-7.61861248241698E-02 
1974	-0.253117696454209 
1975	-0.391119571837182 
1976	-0.27281490763325 
1977	-0.214567586400455 
1978	-0.122065086414995 
1979	-7.25648814248737E-02 
1980	-6.37651569077566E-02 
1981	-0.01868581192182 
1982	 0.150220351742275 
1983	 4.93575502595317E-02 
1984	-3.80443176297785E-03 
1985	-6.55435038780293E-02 
1986	-0.20158388429819 
1987	-0.233823417391708 
1988	-0.223831042686029 
1989	-0.136392399236271 
1990	 2.97721410637322E-03 
1991	 2.46885438807498E-02 
1992	 6.44725767566623E-02 
1993	 0.128373167813504 
1994	 0.146571770049877 
1995	 0.122246391504215 
1996	 0.118750317979126 
1997	 0.140034970148303 
1998	 0.210112801289341 
1999	 0.336753711301494 
2000	 0.619697379494839 
2001	 0.71105559002277 
2002	 0.529368183199093 
2003	 0.387922492439454 
2004	 5.00255165439084E-02 
2005	-6.68592295304706E-02 
2006	 7.65552006403479E-02 
2007	 0.240112160287774 
2008	 0.481461764581134 
2009	 0.793260303082744 
2010	 1.88705574808461 
2011	 2.04944336766904 
2012	 2.21207739589402 
2013	 0.906053432775068 
2014	 0.338995994264329 
2015	 0.148809832688463 
2016	 0.208817275949403 
2017	 0.164204795048723 
2018	 0.186148292758879 
2019	 0.16843365531059 
2020	 6.8613588981771E-03 
2021	-4.20030924889351E-02 
2022	-0.197311159288608 
2023	-0.340082995267744 
2024	-0.310733731646197 
2025	-0.246177180918349 
2026	-0.168169394911808 
2027	-1.21397300630703E-02 
2028	 8.30401654638165E-02 
2029	 0.115357635059685 
2030	 0.100701360440283 
2031	 5.73669731944321E-02 
2032	 0.054426516141112 
2033	 5.27948742010241E-02 
2034	 0.036872927274323 
2035	 4.58765134579003E-02 
2036	 7.82132450465166E-02 
2037	 8.17236056220034E-02 
2038	 6.57985825196015E-02 
2039	 0.065556231645958 
2040	 6.62126471432658E-02 
2041	 5.51348552037025E-02 
2042	 0.051214331905793 
2043	 4.39193068316614E-02 
2044	 3.08789862367548E-02 
2045	 3.46993444862822E-03 
2046	-3.87735006997501E-02 
2047	-3.99783897457323E-02 
2048	-1.56789096806624E-02 
2049	-2.80323631036394E-02 
2050	 1.83703369079146E-02 
2051	 4.97151250262819E-02 
2052	 2.67868374395233E-03 
2053	 1.14950541904213E-02 
2054	-3.02664060487979E-02 
2055	-9.69710427802265E-02 
2056	-8.73764011886728E-02 
2057	-1.58979939668738E-02 
2058	 1.96851672657074E-02 
2059	 0.120966513309118 
2060	 0.14670227310157 
2061	 0.12749862422752 
2062	 0.062641865187009 
2063	 4.05638855743891E-02 
2064	 3.48156207966782E-02 
2065	 1.85904328537656E-02 
2066	 3.51628656630641E-02 
2067	 2.46080017445654E-02 
2068	 3.76921368737325E-02 
2069	 8.01955782434945E-02 
2070	 6.72718755557259E-02 
2071	 5.54019080578125E-02 
2072	 6.31461635320031E-02 
2073	 6.48848715977434E-02 
2074	 6.41896845961778E-02 
2075	 6.83772863922727E-02 
2076	 7.86015508989048E-02 
2077	 7.19436662671689E-02 
2078	 5.05110010631882E-02 
2079	 4.65408527054709E-02 
2080	 5.68612919740926E-02 
2081	 4.22797173217118E-02 
2082	 1.75589957872639E-02 
2083	 1.22389441671903E-02 
2084	-3.10526588901333E-03 
2085	 1.80141542510259E-02 
2086	 5.88019217322933E-02 
2087	 5.99383332402375E-02 
2088	 5.06264777732282E-02 
2089	 3.80168777921805E-02 
2090	 1.59624508381913E-02 
2091	-5.61916072713965E-03 
2092	-1.02519389161174E-02 
2093	-4.59520013845032E-03 
2094	-2.6510004076041E-03 
2095	 1.69189090819837E-02 
2096	 2.64519438864137E-02 
2097	 1.01083886622097E-02 
2098	 1.75709301292024E-02 
2099	 0.038393090647403 
2100	 6.09882826800103E-02 
2101	 7.10129004907446E-02 
2102	 9.26089640791275E-02 
2103	 9.72383142893871E-02 
2104	 0.08447695398612 
2105	 4.69462514027495E-02 
2106	 2.00424271290124E-02 
2107	 6.59650554765765E-03 
2108	-1.51402635868325E-02 
2109	-1.09512944407922E-02 
2110	 5.53687503800757E-03 
2111	 2.18108669006622E-02 
2112	 3.49689060521296E-02 
2113	 4.37323432757115E-02 
2114	 5.85204855004093E-02 
2115	 6.11268210195975E-02 
2116	 5.34842198529778E-02 
2117	 4.55839821500583E-02 
2118	 2.78667039397026E-02 
2119	 1.84223109495869E-02 
2120	 1.19341918060531E-02 
2121	-1.49373307133989E-03 
2122	-6.75891935648345E-03 
2123	-6.39701945741178E-04 
2124	-5.9379023727288E-03 
2125	-1.05343481136101E-02 
2126	 4.00050230037607E-03 
2127	 1.30480592035489E-02 
2128	 9.25372820149026E-03 
2129	 1.37380759964621E-02 
2130	 2.19440804177283E-02 
2131	 1.92696025490735E-02 
2132	 2.48321529837897E-02 
2133	 3.39543969347347E-02 
2134	 3.42177075767029E-02 
2135	 0.01621397781867 
2136	 1.82103464777834E-02 
2137	 3.11673039525416E-02 
2138	 3.67352946446856E-02 
2139	 4.61369423616976E-02 
2140	 4.86297041571786E-02 
2141	 0.043350350151085 
2142	 0.043153602290923 
2143	 4.35774232854871E-02 
2144	 0.044234810253778 
2145	 4.70851769687358E-02 
2146	 0.047656941939635 
2147	 3.88730155180159E-02 
2148	 3.72632108476256E-02 
2149	 3.55526750537832E-02 
2150	 3.33143446957331E-02 
2151	 3.66876049732156E-02 
2152	 2.79886799089674E-02 
2153	 3.15002157312337E-02 
2154	 3.74226151707131E-02 
2155	 3.55031135194754E-02 
2156	 4.45054402704311E-02 
2157	 4.03627874074559E-02 
2158	 1.71323805881444E-02 
2159	 1.34957586601967E-02 
2160	 1.58777291217581E-02 
2161	 1.67440870116925E-02 
2162	 2.77712407875372E-02 
2163	 2.76207425469088E-02 
2164	 1.61653518524833E-02 
2165	 0.01970526917035 
2166	 0.03286951677505 
2167	 3.65263464064185E-02 
2168	 4.31047313142633E-02 
2169	 4.40073442998974E-02 
2170	 3.21828217526083E-02 
2171	 2.73663243616343E-02 
2172	 2.94782152932984E-02 
2173	 0.029410684980879 
2174	 0.018256461351737 
2175	 1.84354688775019E-02 
2176	 2.79286059656377E-02 
2177	 2.50445685363154E-02 
2178	 3.77779478446397E-02 
2179	 3.13758155632063E-02 
2180	 1.64068503901558E-02 
2181	 2.89953831859511E-02 
2182	 2.34629279362507E-02 
2183	 1.97098725853018E-02 
2184	 1.92856536794967E-02 
2185	 6.83551941260173E-03 
2186	 7.2355228279411E-03 
2187	 2.38987549962709E-02 
2188	 2.28168325688169E-02 
2189	 1.44727508555009E-02 
2190	 1.52193367173706E-02 
2191	 1.21997732640269E-02 
2192	 7.51496065853916E-03 
2193	 8.03531151794931E-03 
2194	 4.8053514297079E-03 
2195	-1.14964220768747E-02 
2196	-1.22832068320139E-02 
2197	 0.012315922840729 
2198	 2.08963056725416E-02 
2199	 3.20164550432724E-02 
2200	 1.49824873467597E-02 
2201	 0.013358751652982 
2202	-1.35047157223166E-02 
2203	-2.01474519267846E-02 
2204	-5.15122507037781E-04 
2205	-6.56649893487629E-03 
2206	 1.18838595923696E-02 
2207	 1.98761101786569E-02 
2208	 1.08481119955951E-02 
2209	 2.97563048842547E-02 
2210	 3.63565731188964E-02 
2211	 1.88607362300156E-02 
2212	 1.29162330476694E-02 
2213	 1.5719431928636E-03 
2214	-2.63873147847687E-02 
2215	-0.013437645472921 
2216	 2.60704878745808E-03 
2217	 4.95808397282395E-03 
2218	 1.05880608415881E-02 
2219	 5.35408731162585E-03 
2220	-2.42241914689281E-02 
2221	-0.029921483841713 
2222	-3.15065289327041E-02 
2223	-2.57220437969837E-02 
2224	 5.9832294467263E-03 
2225	 0.010010366755167 
2226	-5.27397347852113E-03 
2227	-6.56222515987605E-03 
2228	-1.22163296957179E-02 
2229	-1.20224769724001E-02 
2230	-2.88529607303514E-03 
2231	 1.05286781971799E-02 
2232	 2.33251704673944E-02 
2233	 0.03322682120646 
2234	 4.36831918343771E-02 
2235	 8.23876325950959E-02 
2236	 0.078329548978952 
2237	 5.71684152695215E-02 
2238	 5.85781432822376E-02 
2239	 2.81780525851258E-02 
2240	 3.32622855323586E-03 
2241	 3.63828307134568E-02 
2242	 4.16568105256009E-02 
2243	 5.25434820549345E-02 
2244	 7.77563694289341E-02 
2245	 4.98743830884106E-02 
2246	 5.27427300147251E-02 
2247	 7.69685222732032E-02 
2248	 6.86445043509086E-02 
2249	 0.075188902641426 
2250	 8.92198098092006E-02 
2251	 6.10027592624047E-02 
2252	 2.13630840707831E-02 
2253	 9.90727477292329E-03 
2254	-1.09983239209274E-02 
2255	-2.96805289203539E-02 
2256	-2.46686204211429E-02 
2257	-1.73033863851612E-02 
2258	 1.60431508281549E-02 
2259	 3.05380865219939E-02 
2260	 3.30541047469298E-02 
2261	 4.14128827507075E-02 
2262	 0.050551032406886 
2263	 0.031815958336592 
2264	 2.32658785880686E-02 
2265	 2.85356716962794E-02 
2266	 2.06491581141119E-02 
2267	-1.01784398818987E-02 
2268	-1.35516738197767E-02 
2269	 5.7838621256088E-03 
2270	 1.54267816899367E-02 
2271	 2.41849150437912E-02 
2272	 3.01382648632767E-02 
2273	 3.30745875197213E-02 
2274	 3.78111772645997E-02 
2275	 5.97508851477292E-02 
2276	 6.48934951193182E-02 
2277	 0.059810891617787 
2278	 5.60300768041199E-02 
2279	 2.52056730832986E-02 
2280	 9.36582426230353E-03 
2281	-1.24516853148507E-03 
2282	 6.50092104783263E-03 
2283	 1.65529689252345E-02 
2284	 5.46318437720862E-02 
2285	 0.104154965907632 
2286	 0.11358065371937 
2287	 0.126188311245581 
2288	 0.116711099892342 
2289	 0.037723057700524 
2290	-6.94749132905118E-03 
2291	-3.89196290275187E-02 
2292	-4.92590634124173E-02 
2293	-5.85157135884247E-03 
2294	 5.11310743989763E-02 
2295	 4.54839300085953E-02 
2296	 2.92576506944855E-02 
2297	 2.69579180433769E-02 
2298	-1.92130393889976E-02 
2299	-5.50149072663557E-03 
2300	-1.13650222324309E-02 
2301	-6.76819165539788E-02 
2302	-7.62067792117225E-02 
2303	-5.46525178774626E-02 
2304	-6.59833189551835E-02 
2305	-7.63699822569962E-02 
2306	-6.93915327441177E-02 
2307	-0.120363143984825 
2308	-0.122429576811757 
2309	-6.07627927583464E-02 
2310	-1.96746076929846E-02 
2311	 0.04224180531123 
2312	 5.00385632636136E-02 
2313	 1.46628045161007E-02 
2314	 4.24049860059184E-02 
2315	-7.83161729592381E-03 
2316	-4.80750627416289E-02 
2317	 9.36874511141729E-03 
2318	 5.96920677335829E-02 
2319	 0.109463059898816 
2320	 0.171712167567245 
2321	 0.189234245641753 
2322	 0.139128510640819 
2323	 7.66114705404028E-02 
2324	-4.37379191181808E-02 
2325	-0.237884932418877 
2326	-0.459215873558146 
2327	-0.467139536570446 
2328	-0.379048688681427 
2329	-0.342030001925494 
2330	-0.140528966983019 
2331	-2.67969759671329E-02 
2332	 4.06968293603677E-02 
2333	 0.124952686774238 
2334	 0.156225452093658 
2335	 0.141654009062899 
2336	 3.05937764564919E-02 
2337	-5.87593594233062E-02 
2338	-8.85367767856603E-02 
2339	-0.119444218222477 
2340	-0.129998671697836 
2341	-0.161188927090676 
2342	-0.127638768440681 
2343	-0.24800009194433 
2344	-0.450026289373082 
2345	-0.488025042022138 
2346	-0.596350072367729 
2347	-0.582325851410624 
2348	-0.354484744174536 
2349	-0.235606803619714 
2350	-0.124838732759869 
2351	 6.35835367781153E-03 
2352	 1.09969393782366E-03 
2353	-0.031390396343107 
2354	 4.27598833629608E-03 
2355	-9.45325224051154E-02 
2356	-0.242627944569002 
2357	-0.209848803259889 
2358	-0.274258792704399 
2359	-0.192885286900672 
2360	-6.75464677985129E-02 
2361	-0.205652907566902 
2362	 6.51147211165328E-03 
2363	 0.102988027039389 
2364	 0.109000705328537 
2365	 0.395263605957152 
2366	 0.365428360651661 
2367	 0.190902333008231 
2368	 0.178132644568535 
2369	 0.16893733130054 
2370	 0.246087949063504 
2371	 0.296217407267739 
2372	 0.304675304903185 
2373	 0.127619325048931 
2374	 0.136437348516509 
2375	 0.915847919213498 
2376	 1.59076600530737 
2377	 1.45187750567974 
2378	 0.895146687373914 
2379	 0.566712652804882 
2380	 0.889302229509427 
2381	 1.47340961641279 
2382	 1.98714448908398 
2383	 3.50074516767027 
2384	 3.67415795366765 
2385	 4.98765383160946 
2386	-0.576749187227079 
2387	 7.94217612852078E-02 
2388	 0.5761100998373 
2389	 0.666775866305001 
2390	-1.54154675075335 
2391	-0.744595780204146 
2392	-1.14356279105762 
2393	 86.4680091926179 
2394	 1.49432618756532 
2395	 272.993910500247 
2396	 4.52411137665013 
2397	 0.742927824680354 
2398	-0.17259117458444 
2399	 3.31267541796592 
2400	-8.74353756518012E-02 
2401	-0.118470375305354 
2402	 1.56048465353473 
2403	 1.84446679031506 
2404	 3.18168543930325 
2405	 1.89293154178112 
2406	 1.54503292863517 
2407	 0.286857214693393 
2408	 2.11596515457443 
2409	 1.74645930971856 
2410	 1.16680531104846 
2411	 1.50562737497275 
2412	 1.5466682819744 
2413	 0.238101732654324 
2414	-0.627833388465551 
2415	-1.78730554544293 
2416	 9.65421756015411 
2417	 4.93757116741079 
2418	 2.72298737650411 
2419	 2.9346453730616 
2420	 1.99788998032478 
2421	 0.969924921705169 
2422	 0.710595868864321 
2423	 1.2663615518622 
2424	-0.72467166310692 
2425	-0.465010615417578 
2426	 4.52157860822359 
2427	 2.08141941468738 
2428	 4.58696229879022 
2429	 4.23042595598217 
2430	-7.43475399109126 
2431	 5.19614056594039 
2432	 1.4098992982994 
2433	 2.31533887375155 
2434	 1.90849957514009 
2435	 0.914388004948161 
2436	 0.751142711362257 
2437	 0.902411245302141 
2438	 0.981851697538226 
2439	 0.081273880144896 
2440	 0.115583003872288 
2441	 0.489392073958626 
2442	 2.0278190698444 
2443	-0.300995709783024 
2444	-0.120710192652243 
2445	-2.00663237770292 
2446	 2.41494518118055 
2447	 8.08132036550135 
2448	-8.3277474185692 
2449	-1.41735542386289 
2450	-0.729166012045458 
2451	-2.58208053600287E-02 
2452	 4.3869896318431 
2453	-1.64091350973058 
2454	-0.824664369481987 
2455	-0.402635391895951 
2456	-0.232083503044356 
2457	-0.368158982764288 
2458	-0.45500511200314 
2459	-0.566275244994148 
2460	-0.996398240313616 
2461	-0.785675873207537 
2462	-0.73492875082503 
2463	-0.798200420406565 
2464	 0.185285683149721 
2465	-0.718186896219251 
2466	-0.791966277646147 
2467	-0.395218599092924 
2468	-1.6596419116878 
2469	 26.4792806000091 
2470	 0.359334238666361 
2471	 0.310447457344319 
2472	 0.693990111280167 
2473	 0.513055930187841 
2474	 0.15014009386984 
2475	 1.10862025893648 
2476	 0.665767791306748 
2477	-0.213303616599897 
2478	 0.284574043059698 
2479	 0.502650163278696 
2480	-1.35110183739491E-02 
2481	-0.76144876513396 
2482	-1.03044963738554 
2483	-0.964333651411249 
2484	-0.386461311935339 
2485	 7.78219810846831 
2486	-6.09322175030521 
2487	-22.6099071137679 
2488	-0.725455814024667 
2489	-0.585471309631334 
2490	 4.86570365201315 
2491	 1.46036319870368 
2492	 1.50678685862131 
2493	 0.169238855481121 
2494	 1.50849160159196 
2495	-1.76848635103878 
2496	-1.18295736012616 
2497	-0.489073241225078 
2498	 0.75745372999381 
2499	 0.615657929217903 
2500	 0.444767360202617 
