Wavelength	rt0712west_close00001.asd
350	 7.86746137425951E-02 
351	 0.080648616594258 
352	 0.080254356418938 
353	 7.91444940444672E-02 
354	 7.91058285873679E-02 
355	 8.00388458304203E-02 
356	 8.11472798149915E-02 
357	 8.09211309742403E-02 
358	 7.88845211115159E-02 
359	 7.94118643147426E-02 
360	 7.98503282415579E-02 
361	 8.00268393546023E-02 
362	 8.13156546475189E-02 
363	 8.06984380693845E-02 
364	 0.080686099621787 
365	 0.081820438992218 
366	 8.06390508785865E-02 
367	 8.05210534902634E-02 
368	 8.07130242363954E-02 
369	 0.080281736835559 
370	 0.081949205628176 
371	 8.14704109333441E-02 
372	 7.97567245065029E-02 
373	 8.04750716197999E-02 
374	 0.08185394423244 
375	 8.20864120457822E-02 
376	 0.081215700887714 
377	 8.17614994081049E-02 
378	 8.22500923482695E-02 
379	 8.21703372749908E-02 
380	 8.17694200268514E-02 
381	 0.083013952547798 
382	 8.31028413811045E-02 
383	 8.27623458295084E-02 
384	 8.39631590517568E-02 
385	 8.41649595695369E-02 
386	 0.084139203921277 
387	 8.44469195341926E-02 
388	 8.50566311470717E-02 
389	 0.084723394792474 
390	 8.49165624215825E-02 
391	 8.61833141516898E-02 
392	 8.54812476809696E-02 
393	 8.56772456411126E-02 
394	 8.60711714635671E-02 
395	 8.53148343602411E-02 
396	 8.62975219514464E-02 
397	 8.64273611744407E-02 
398	 8.58039491691374E-02 
399	 8.68819243464925E-02 
400	 8.69019437802177E-02 
401	 8.66694084328518E-02 
402	 8.70209138317392E-02 
403	 8.77309598042333E-02 
404	 8.74897236001268E-02 
405	 8.69838030914901E-02 
406	 8.74089365167386E-02 
407	 8.80825136787562E-02 
408	 8.81868700735137E-02 
409	 8.79959335874651E-02 
410	 8.87444188045183E-02 
411	 8.87350413686738E-02 
412	 8.86890793111604E-02 
413	 8.91770872179745E-02 
414	 8.93570427941182E-02 
415	 8.93864921792965E-02 
416	 8.95300547694164E-02 
417	 9.00019850534434E-02 
418	 9.03499497764031E-02 
419	 9.06046753192702E-02 
420	 9.08543297419192E-02 
421	 9.12015716795106E-02 
422	 9.14846701603035E-02 
423	 9.17750649794915E-02 
424	 9.21563787623138E-02 
425	 9.25955581073606E-02 
426	 9.32764981081199E-02 
427	 9.38548338008434E-02 
428	 9.38798129713028E-02 
429	 9.40110257847284E-02 
430	 9.46766896440262E-02 
431	 9.55152576086811E-02 
432	 9.53253698528516E-02 
433	 0.09578066533444 
434	 9.65140562523041E-02 
435	 9.68894366829761E-02 
436	 9.68298734211489E-02 
437	 9.71991769351416E-02 
438	 9.78860506277935E-02 
439	 9.82688043361146E-02 
440	 9.85452316195763E-02 
441	 9.90316745847184E-02 
442	 9.96806386840753E-02 
443	 0.099890523922047 
444	 0.100213766037868 
445	 0.100657634840134 
446	 0.101113608360904 
447	 0.101701080266366 
448	 0.101864592853411 
449	 0.101837809260391 
450	 0.102362414481665 
451	 0.102705023528764 
452	 0.102820059665332 
453	 0.102893982135057 
454	 0.103374707611512 
455	 0.103979652609065 
456	 0.104295510781529 
457	 0.104091967573868 
458	 0.104344155790526 
459	 0.104557985496525 
460	 0.104599174541882 
461	 0.10477157805386 
462	 0.105215421423991 
463	 0.105564900195698 
464	 0.105563804101309 
465	 0.105498504399263 
466	 0.105718065129012 
467	 0.10610177348027 
468	 0.106313599724186 
469	 0.106519945301948 
470	 0.106655891726437 
471	 0.106729640045651 
472	 0.106867383967127 
473	 0.106875128637815 
474	 0.107167243741839 
475	 0.107913922406236 
476	 0.107829476509238 
477	 0.108129518639189 
478	 0.108699633437176 
479	 0.108607729311248 
480	 0.10875069786565 
481	 0.109358143828325 
482	 0.110163670354912 
483	 0.110049628539085 
484	 0.110221516233845 
485	 0.110706594126328 
486	 0.11114234445246 
487	 0.111636047534485 
488	 0.11208498506606 
489	 0.112409206791939 
490	 0.112581285582178 
491	 0.113179145374528 
492	 0.113873161581601 
493	 0.114315033088018 
494	 0.114588177189156 
495	 0.115086428830436 
496	 0.115755821690234 
497	 0.116293573659745 
498	 0.116495732867352 
499	 0.116981719343305 
500	 0.117780085904018 
501	 0.117845368676603 
502	 0.118410417592505 
503	 0.11910460908613 
504	 0.11937494225383 
505	 0.119954325101825 
506	 0.120708484710848 
507	 0.121466105875329 
508	 0.122066428976252 
509	 0.122609631421897 
510	 0.123207856915974 
511	 0.12388851745913 
512	 0.124440289190674 
513	 0.12553436744263 
514	 0.126579719582814 
515	 0.126699540247824 
516	 0.127339200412029 
517	 0.128218577942608 
518	 0.129059243744026 
519	 0.129791986917645 
520	 0.130523916075055 
521	 0.13123769571301 
522	 0.131936147708752 
523	 0.132782525126249 
524	 0.133670145682548 
525	 0.134463627031006 
526	 0.135073571170117 
527	 0.136126616445095 
528	 0.137138990218712 
529	 0.137876557301649 
530	 0.138958038962511 
531	 0.139606977582116 
532	 0.140214101396383 
533	 0.141406983155262 
534	 0.142456744890057 
535	 0.143360373238087 
536	 0.14422306324319 
537	 0.14520496539004 
538	 0.145933207819655 
539	 0.146722900207923 
540	 0.147822148846295 
541	 0.148670039393025 
542	 0.14960801502705 
543	 0.150565698607994 
544	 0.151280313222312 
545	 0.152271889827953 
546	 0.153626974943122 
547	 0.155070547767507 
548	 0.155735868306454 
549	 0.156671329189797 
550	 0.157822062134752 
551	 0.158831594758356 
552	 0.160053494404688 
553	 0.161007083378584 
554	 0.161694240523076 
555	 0.16268827981521 
556	 0.163510259989423 
557	 0.164415137120878 
558	 0.165557490049474 
559	 0.166222148074742 
560	 0.166915541805537 
561	 0.167766493950086 
562	 0.168648788037445 
563	 0.169423698353711 
564	 0.170048969401899 
565	 0.17057019545631 
566	 0.171174223830219 
567	 0.171650186201519 
568	 0.172184268861606 
569	 0.172983239754805 
570	 0.173463812602828 
571	 0.174009846658589 
572	 0.174648375949731 
573	 0.174964774643345 
574	 0.175454035792357 
575	 0.176133060900704 
576	 0.176846536989179 
577	 0.177303222126436 
578	 0.177647900731729 
579	 0.178072820041355 
580	 0.178716470762849 
581	 0.178934612111165 
582	 0.179121072433583 
583	 0.179396238957908 
584	 0.179129985566112 
585	 0.17886115468791 
586	 0.178257215710527 
587	 0.176849505377426 
588	 0.175832859965191 
589	 0.175147340491128 
590	 0.174844306656796 
591	 0.175087499589844 
592	 0.17563401863851 
593	 0.175924012570839 
594	 0.175604574815722 
595	 0.175032965740059 
596	 0.174753274411704 
597	 0.174705517429651 
598	 0.17454703743169 
599	 0.174725534239242 
600	 0.174640728227219 
601	 0.174133065941152 
602	 0.173907261906918 
603	 0.17383573250671 
604	 0.173918269104594 
605	 0.174101971426867 
606	 0.173982684131531 
607	 0.173879836106988 
608	 0.173936323672992 
609	 0.174067101524514 
610	 0.17403878843811 
611	 0.174102445306279 
612	 0.17434991309738 
613	 0.174041535546235 
614	 0.174051589448447 
615	 0.174255744744554 
616	 0.174053286205369 
617	 0.17414181694498 
618	 0.174063278136834 
619	 0.173801285297445 
620	 0.174293767202306 
621	 0.174077053261024 
622	 0.173623353464541 
623	 0.173744618194402 
624	 0.173532788378442 
625	 0.173297516916842 
626	 0.172920602363032 
627	 0.171919912726618 
628	 0.172181222650583 
629	 0.172705218621184 
630	 0.172620761837154 
631	 0.172938006273916 
632	 0.173080005341164 
633	 0.172988977478361 
634	 0.17287208552924 
635	 0.172953887168311 
636	 0.173170859636786 
637	 0.173356802121877 
638	 0.173251591779625 
639	 0.1730796464179 
640	 0.173165805398521 
641	 0.173553534867959 
642	 0.173080581033414 
643	 0.17259255271851 
644	 0.172126292268257 
645	 0.171043576573848 
646	 0.170323325119577 
647	 0.170042073232512 
648	 0.170071246240792 
649	 0.17036866608863 
650	 0.17045609394028 
651	 0.170427936675464 
652	 0.170490156670275 
653	 0.169997015056083 
654	 0.169441431429396 
655	 0.169038550147992 
656	 0.16856918206281 
657	 0.168218451546746 
658	 0.168052844798059 
659	 0.168037489741657 
660	 0.167919186721035 
661	 0.168024096520309 
662	 0.167959176220532 
663	 0.167083410984591 
664	 0.166999541611739 
665	 0.167160155113812 
666	 0.167039707320618 
667	 0.166625868434599 
668	 0.166524724544934 
669	 0.166643320138355 
670	 0.166667608436683 
671	 0.166523771499657 
672	 0.166383594046922 
673	 0.166294694706331 
674	 0.166194298326797 
675	 0.166554176790487 
676	 0.166804900393091 
677	 0.166619934010052 
678	 0.166798526317223 
679	 0.166842085806138 
680	 0.166724900036426 
681	 0.166667914298206 
682	 0.167065125488326 
683	 0.167165086289894 
684	 0.166713466363359 
685	 0.166181329838914 
686	 0.165426591258758 
687	 0.165030561987742 
688	 0.165315119801623 
689	 0.16503852836449 
690	 0.164659459476925 
691	 0.164076770272541 
692	 0.162894816855818 
693	 0.161803782176957 
694	 0.161830657547197 
695	 0.162712720935124 
696	 0.162790679776137 
697	 0.161966413876268 
698	 0.160341505472786 
699	 0.158591669978762 
700	 0.158470688250927 
701	 0.158292004765129 
702	 0.157532558807119 
703	 0.156719376064473 
704	 0.155868204579504 
705	 0.154675323110362 
706	 0.15326685088723 
707	 0.15266743844188 
708	 0.151581124777801 
709	 0.150156424506396 
710	 0.148945708924494 
711	 0.147415501954582 
712	 0.145564026651831 
713	 0.143368018794761 
714	 0.140681659074141 
715	 0.137257441862676 
716	 0.13247882951578 
717	 0.127178754709565 
718	 0.125113371836714 
719	 0.123748538321453 
720	 0.122940065585711 
721	 0.122832284972577 
722	 0.120744100390684 
723	 0.116733046686344 
724	 0.112678579597998 
725	 0.111356987632599 
726	 0.109184781094443 
727	 0.106388841584716 
728	 0.103771977540609 
729	 0.101386643101631 
730	 0.098308158716109 
731	 0.095719748993627 
732	 9.44069251016721E-02 
733	 0.092572102922876 
734	 9.07743813992962E-02 
735	 8.91946885198013E-02 
736	 8.74638399038723E-02 
737	 8.70063899111422E-02 
738	 0.086677813369033 
739	 8.57501203821895E-02 
740	 8.62006569039757E-02 
741	 8.60340737367885E-02 
742	 0.085638074527573 
743	 8.62378813566946E-02 
744	 8.60574860273231E-02 
745	 8.54628173098866E-02 
746	 8.51011782307544E-02 
747	 8.56977715967797E-02 
748	 8.56612386860958E-02 
749	 8.54242747039292E-02 
750	 8.56097251634557E-02 
751	 8.56762624325309E-02 
752	 8.55507113470094E-02 
753	 0.085346584537662 
754	 8.52520640970184E-02 
755	 8.50694689977178E-02 
756	 8.48947176254133E-02 
757	 8.47466971178612E-02 
758	 8.44276850349722E-02 
759	 8.32655874416656E-02 
760	 8.09806205665558E-02 
761	 8.03353902897105E-02 
762	 8.15815421524563E-02 
763	 8.16960198598163E-02 
764	 8.22316604301369E-02 
765	 8.44225037558676E-02 
766	 8.48685303435893E-02 
767	 8.50276808831882E-02 
768	 0.085460376363242 
769	 8.60615108142402E-02 
770	 8.62108465866849E-02 
771	 8.63510090575288E-02 
772	 8.68350171317871E-02 
773	 0.08720715945062 
774	 8.75803567365983E-02 
775	 8.78571389600192E-02 
776	 8.79599856419184E-02 
777	 8.84007749236065E-02 
778	 8.87556771579424E-02 
779	 8.89785103565906E-02 
780	 8.94525559778556E-02 
781	 8.99511326428082E-02 
782	 9.01963132667328E-02 
783	 9.02001541156415E-02 
784	 9.06690922240218E-02 
785	 9.12035063656744E-02 
786	 9.15472453185739E-02 
787	 9.15816182480597E-02 
788	 9.17268253842064E-02 
789	 9.19624161221586E-02 
790	 9.26601325931896E-02 
791	 9.42601176058579E-02 
792	 9.48450750445258E-02 
793	 0.094979432443553 
794	 9.52123341346256E-02 
795	 9.55044800319086E-02 
796	 9.62295423597677E-02 
797	 0.096851335138641 
798	 9.69547469975729E-02 
799	 9.72942104385197E-02 
800	 9.74565689702416E-02 
801	 9.77374193968873E-02 
802	 9.86275819503906E-02 
803	 9.88949560727976E-02 
804	 9.90621843039505E-02 
805	 0.099380032686546 
806	 0.099644730209277 
807	 9.93528133369466E-02 
808	 9.86812599080957E-02 
809	 9.79703266799778E-02 
810	 9.75784103650767E-02 
811	 9.70540058161612E-02 
812	 0.096087278614968 
813	 9.44934920675135E-02 
814	 9.26478384190711E-02 
815	 9.15010038508212E-02 
816	 9.13184660486633E-02 
817	 9.14390626260421E-02 
818	 9.15974143401127E-02 
819	 0.090874717541982 
820	 8.95800267388155E-02 
821	 8.93274038247246E-02 
822	 8.80958118564177E-02 
823	 8.58292891911693E-02 
824	 8.36343807131356E-02 
825	 8.32083984396985E-02 
826	 0.080890868669632 
827	 0.077593267369141 
828	 7.60173840997443E-02 
829	 7.48462681684005E-02 
830	 7.26191980050026E-02 
831	 6.99925862086102E-02 
832	 6.89843502657696E-02 
833	 6.90408736664174E-02 
834	 6.88312319546396E-02 
835	 6.81081824402202E-02 
836	 6.79194875957245E-02 
837	 6.72717878005437E-02 
838	 6.69256449622545E-02 
839	 6.71203593890696E-02 
840	 6.59182892078061E-02 
841	 6.54025969308812E-02 
842	 6.56655339900004E-02 
843	 6.58842410037399E-02 
844	 6.46109085767335E-02 
845	 6.40787130789923E-02 
846	 6.45015028872753E-02 
847	 6.46473039920179E-02 
848	 6.40336676825767E-02 
849	 6.33102649215709E-02 
850	 6.30186833091438E-02 
851	 6.32492419560801E-02 
852	 6.25391056856321E-02 
853	 6.18197472214029E-02 
854	 0.061844613959388 
855	 0.061856884551963 
856	 6.17573927922891E-02 
857	 6.15261146338942E-02 
858	 6.11981810025637E-02 
859	 6.08084526322296E-02 
860	 6.06129102151565E-02 
861	 6.03503704780847E-02 
862	 5.97038167370624E-02 
863	 5.97259931236761E-02 
864	 5.97147424726297E-02 
865	 5.94529883218543E-02 
866	 5.92407547732525E-02 
867	 5.86348515476206E-02 
868	 5.84761609556125E-02 
869	 5.87097468205614E-02 
870	 5.79953742918966E-02 
871	 5.78244926275931E-02 
872	 5.72886233050465E-02 
873	 5.61118002499751E-02 
874	 5.66028865178662E-02 
875	 5.64534506305161E-02 
876	 5.60121794476443E-02 
877	 5.60015508302909E-02 
878	 5.52574562001337E-02 
879	 5.45752225139811E-02 
880	 0.053841910597676 
881	 5.27586295189696E-02 
882	 5.25759800732341E-02 
883	 5.28695744990985E-02 
884	 5.33538397227128E-02 
885	 5.37922560158315E-02 
886	 5.29117411490325E-02 
887	 5.16289898648578E-02 
888	 5.09119321572689E-02 
889	 0.05131640654896 
890	 5.13654482431142E-02 
891	 5.03802879605317E-02 
892	 4.88650675550672E-02 
893	 4.96339258534852E-02 
894	 4.83364795505334E-02 
895	 4.66972485375714E-02 
896	 4.70599796448683E-02 
897	 4.43160810694735E-02 
898	 4.74229951726243E-02 
899	 0.050075398102434 
900	 4.54086540514792E-02 
901	 4.53823323221318E-02 
902	 4.47464605684641E-02 
903	 4.49809816434482E-02 
904	 4.83561225894744E-02 
905	 4.92728315359936E-02 
906	 4.57812519348407E-02 
907	 4.11792593733841E-02 
908	 4.24833109371269E-02 
909	 4.25307423964149E-02 
910	 4.20286728332655E-02 
911	 4.27553015361941E-02 
912	 4.57770436718168E-02 
913	 4.27727163570649E-02 
914	 4.17534281231982E-02 
915	 4.44040850094532E-02 
916	 4.32131890654851E-02 
917	 4.13452054307559E-02 
918	 0.041016397859824 
919	 4.13183696668397E-02 
920	 3.83390878770163E-02 
921	 4.11782178481091E-02 
922	 4.40760304087415E-02 
923	 4.16585146817958E-02 
924	 0.035404949795907 
925	 3.62542779504083E-02 
926	 4.17623575113874E-02 
927	 4.46703756145467E-02 
928	 0.043343823513403 
929	 0.051968792444378 
930	 5.62417697839397E-02 
931	 2.73506323704692E-02 
932	 0.057779153248125 
933	 4.67036583538909E-02 
934	 2.62191055478972E-02 
935	 8.05995508329438E-02 
936	 6.00280480817477E-02 
937	 6.11953015305539E-02 
938	 6.14126511830396E-02 
939	 0.028418695207107 
940	 0.056931297127091 
941	 6.85191947698987E-02 
942	 5.36090327571317E-02 
943	 3.96457468260677E-02 
944	 3.54317985088757E-02 
945	 1.71225589231386E-02 
946	 6.2005706243142E-03 
947	 3.23551917780847E-02 
948	 3.89780948279403E-02 
949	 5.61104170850742E-02 
950	 5.39411959362205E-02 
951	 2.72391185969148E-03 
952	 0.045708118857003 
953	 6.66809892774802E-02 
954	 5.20880955428971E-02 
955	 5.57275474347484E-02 
956	 3.52390057462952E-02 
957	 2.40426712602111E-02 
958	 3.51849789383497E-02 
959	 5.84065789955887E-02 
960	 6.03826716449817E-02 
961	 4.06326781569534E-02 
962	 2.68732594672628E-02 
963	 4.59749030570998E-02 
964	 4.06387640076723E-02 
965	 0.028602278017445 
966	 2.69515452551728E-02 
967	 4.10788467453745E-02 
968	 4.09787502411687E-02 
969	 4.03388025532907E-02 
970	 4.06496986796192E-02 
971	 3.30513969093862E-02 
972	 2.95543833489557E-02 
973	 3.60729359847283E-02 
974	 4.30004653513831E-02 
975	 3.27673663544187E-02 
976	 3.99855366354579E-02 
977	 4.58787546192731E-02 
978	 4.18763352928399E-02 
979	 3.43796350445399E-02 
980	 3.62494098827581E-02 
981	 3.98038984938132E-02 
982	 3.96378278173728E-02 
983	 3.59545270231347E-02 
984	 4.43883649841364E-02 
985	 4.31153810279843E-02 
986	 0.034694097492215 
987	 3.82882687664911E-02 
988	 4.29462487170414E-02 
989	 3.91566108930757E-02 
990	 3.30464592951462E-02 
991	 3.86028554720115E-02 
992	 4.26183331031994E-02 
993	 3.92890233488659E-02 
994	 3.68703109419962E-02 
995	 4.68770742247019E-02 
996	 4.49642614198142E-02 
997	 0.042486255974396 
998	 4.24914587732977E-02 
999	 4.16777965126934E-02 
1000	 0.041571085723164 
1001	 4.41897639659624E-02 
1002	 3.95599367938828E-02 
1003	 3.82538331938341E-02 
1004	 3.54955116584045E-02 
1005	 3.34399971069527E-02 
1006	 0.032078350702843 
1007	 3.35657633010039E-02 
1008	 3.51604647984462E-02 
1009	 3.69005979537659E-02 
1010	 3.76759923892485E-02 
1011	 3.57742748248196E-02 
1012	 3.35141983142343E-02 
1013	 3.21241365544617E-02 
1014	 3.14243645614616E-02 
1015	 3.23571396524226E-02 
1016	 3.41349206419307E-02 
1017	 3.68186077092126E-02 
1018	 3.83478160598431E-02 
1019	 0.041333927668021 
1020	 4.24607243654977E-02 
1021	 4.25525944774165E-02 
1022	 4.10274962036894E-02 
1023	 3.87276375516259E-02 
1024	 3.91469807946212E-02 
1025	 3.89048462401895E-02 
1026	 3.89375679074388E-02 
1027	 3.82829937743215E-02 
1028	 3.69496791038141E-02 
1029	 3.71644446696621E-02 
1030	 3.82399731656472E-02 
1031	 0.037787881148054 
1032	 3.85901434744489E-02 
1033	 0.037521894919825 
1034	 3.21925282343108E-02 
1035	 3.12978641383081E-02 
1036	 3.28425865616758E-02 
1037	 3.33208267235949E-02 
1038	 3.61055594073947E-02 
1039	 0.03697429235805 
1040	 3.69880166850141E-02 
1041	 0.036554120544693 
1042	 3.61121965523008E-02 
1043	 3.58256095647164E-02 
1044	 3.54308376787281E-02 
1045	 0.033483691860267 
1046	 3.40489855986681E-02 
1047	 3.72032391043243E-02 
1048	 3.74682314175968E-02 
1049	 3.72269815902508E-02 
1050	 0.037551299146492 
1051	 3.60357379396007E-02 
1052	 0.035699826958332 
1053	 3.80422783487825E-02 
1054	 3.81254058421886E-02 
1055	 3.55961861133266E-02 
1056	 3.50115754089808E-02 
1057	 3.48728824234461E-02 
1058	 3.44573539138594E-02 
1059	 3.49094324456162E-02 
1060	 3.80489014050258E-02 
1061	 3.76483596163164E-02 
1062	 3.46805667274482E-02 
1063	 3.41858865227077E-02 
1064	 3.22793382765737E-02 
1065	 3.30778844525709E-02 
1066	 3.91576430953185E-02 
1067	 4.00817514447768E-02 
1068	 0.039051785035775 
1069	 3.84185049204235E-02 
1070	 3.35797824727247E-02 
1071	 3.18701678813528E-02 
1072	 3.19629092346499E-02 
1073	 3.41729377615503E-02 
1074	 3.36505696382527E-02 
1075	 3.23347121332518E-02 
1076	 3.33508262575606E-02 
1077	 3.46425100934179E-02 
1078	 3.49515684304214E-02 
1079	 3.76970828376737E-02 
1080	 3.75596673622758E-02 
1081	 3.35728720429555E-02 
1082	 3.18841721171836E-02 
1083	 3.13350297024121E-02 
1084	 3.00628273912862E-02 
1085	 2.63309523239666E-02 
1086	 2.64617590975071E-02 
1087	 0.029845571783846 
1088	 3.12204528778292E-02 
1089	 3.52769284441673E-02 
1090	 3.83051673453278E-02 
1091	 3.86088470237419E-02 
1092	 0.034635939974437 
1093	 0.03410183125496 
1094	 3.41873102542654E-02 
1095	 3.38199953950586E-02 
1096	 0.033372044845362 
1097	 3.31086003844476E-02 
1098	 0.033445020865997 
1099	 3.20382794746965E-02 
1100	 0.029903827279712 
1101	 2.88771441034876E-02 
1102	 2.47777419247725E-02 
1103	 2.24412654008388E-02 
1104	 2.15851251478497E-02 
1105	 2.36735199774955E-02 
1106	 2.79429042990855E-02 
1107	 3.40621464843998E-02 
1108	 3.46029784695805E-02 
1109	 3.65954004255536E-02 
1110	 3.94108596485162E-02 
1111	 3.85660319091099E-02 
1112	 3.56120167313364E-02 
1113	 0.0342487562737 
1114	 3.61195540866184E-02 
1115	 3.04453329944525E-02 
1116	 2.95076461671246E-02 
1117	 4.94952667411577E-02 
1118	 5.15496989777148E-02 
1119	 1.95515242108394E-02 
1120	 1.32432964172692E-02 
1121	 0.020537230807158 
1122	 0.042117118214894 
1123	 0.108165433389132 
1124	 0.141411034991977 
1125	 3.80777443653505E-02 
1126	 0.027814835618495 
1127	 1.74756576078246E-02 
1128	-2.77434314494579E-02 
1129	-4.28735474187563E-02 
1130	-5.24846968746555E-02 
1131	-4.96801185609274E-02 
1132	-3.75724476537558E-02 
1133	-2.41677446562843E-02 
1134	 3.40226212202217E-02 
1135	 4.76186171301705E-02 
1136	 9.69083845285122E-03 
1137	 1.47491448752358E-02 
1138	 4.29563963806369E-02 
1139	 3.21665388486169E-02 
1140	 1.96699858988422E-02 
1141	 1.21240961368943E-02 
1142	-0.086597103492656 
1143	-0.194908648478096 
1144	-0.14498539293384 
1145	-9.80862839067952E-02 
1146	-5.69556662257166E-02 
1147	 2.69102354109832E-02 
1148	 1.62953429840695E-02 
1149	-4.95372442965573E-02 
1150	-0.041531864839128 
1151	-8.16406356525957E-03 
1152	 3.70102801277568E-03 
1153	 3.50593689769293E-02 
1154	 4.75364566008835E-02 
1155	 5.37954417234748E-02 
1156	 3.25196545484078E-02 
1157	 3.08078150576716E-02 
1158	 3.96322151725584E-02 
1159	 0.03889927127701 
1160	 4.35164528113102E-02 
1161	 5.24718498975824E-02 
1162	 4.81365565716047E-02 
1163	 4.11095093735108E-02 
1164	 3.81748477667962E-02 
1165	 3.24901643586862E-02 
1166	 2.93171693845005E-02 
1167	 3.47450184133639E-02 
1168	 3.73064666567199E-02 
1169	 3.82458710160669E-02 
1170	 3.98591166438785E-02 
1171	 3.88159361234812E-02 
1172	 3.32930540021951E-02 
1173	 3.34025191417347E-02 
1174	 3.65075287373324E-02 
1175	 0.033175318688699 
1176	 3.46806225303456E-02 
1177	 0.03694823709533 
1178	 0.0356475543727 
1179	 3.54218003734086E-02 
1180	 3.35180609354246E-02 
1181	 3.11730742760545E-02 
1182	 3.17162971830794E-02 
1183	 3.32712435439652E-02 
1184	 3.61082645740335E-02 
1185	 0.036616582941546 
1186	 3.20628971380386E-02 
1187	 2.74193062155648E-02 
1188	 2.88225646690919E-02 
1189	 3.59093928062848E-02 
1190	 4.09378942055729E-02 
1191	 4.20959741742092E-02 
1192	 4.11670968969114E-02 
1193	 3.67848035438952E-02 
1194	 2.90425172653323E-02 
1195	 2.75161988061861E-02 
1196	 3.17598280642351E-02 
1197	 3.55033226246629E-02 
1198	 0.03664534322462 
1199	 3.63541231085492E-02 
1200	 3.82468279583172E-02 
1201	 4.15529804072784E-02 
1202	 4.04908435286176E-02 
1203	 3.86431422566084E-02 
1204	 3.80947656484343E-02 
1205	 3.49384476644147E-02 
1206	 3.52578162011161E-02 
1207	 3.93195598440661E-02 
1208	 3.89784408858912E-02 
1209	 3.80768287611028E-02 
1210	 4.20590649085622E-02 
1211	 4.17867933420693E-02 
1212	 3.65094992546063E-02 
1213	 3.62378615412045E-02 
1214	 3.57682743766665E-02 
1215	 3.46360762284385E-02 
1216	 0.032448792069674 
1217	 0.035942542230753 
1218	 3.90715334859133E-02 
1219	 0.036610406962928 
1220	 3.61829062569768E-02 
1221	 3.94854444560998E-02 
1222	 3.85452090311338E-02 
1223	 0.038975994845378 
1224	 4.18771589343205E-02 
1225	 3.96892477078501E-02 
1226	 3.81750629832917E-02 
1227	 4.04694040512285E-02 
1228	 4.24015772343999E-02 
1229	 0.042826404998382 
1230	 4.36318440343543E-02 
1231	 4.22497623313185E-02 
1232	 3.69555181724467E-02 
1233	 3.50728241369648E-02 
1234	 3.56259282541897E-02 
1235	 3.48949628824722E-02 
1236	 3.46766060544322E-02 
1237	 3.53894967028871E-02 
1238	 0.037058458582617 
1239	 3.54545129978029E-02 
1240	 3.43167527342011E-02 
1241	 3.42024142906029E-02 
1242	 3.57665441528597E-02 
1243	 0.038364499917328 
1244	 4.00705484903701E-02 
1245	 4.18690083694425E-02 
1246	 4.19577598331538E-02 
1247	 0.03940477229323 
1248	 3.82791138835421E-02 
1249	 3.93047132060823E-02 
1250	 0.037047558334766 
1251	 3.33063286508586E-02 
1252	 3.37482077375051E-02 
1253	 3.60645884585519E-02 
1254	 3.84599913323976E-02 
1255	 3.94359325490621E-02 
1256	 4.05983613049203E-02 
1257	 0.039398070742129 
1258	 3.96655177546388E-02 
1259	 4.30138013177266E-02 
1260	 4.35419895321766E-02 
1261	 4.03540465788656E-02 
1262	 4.07260272223806E-02 
1263	 4.27152435536807E-02 
1264	 4.16042772541855E-02 
1265	 4.02073970210298E-02 
1266	 3.95261428807647E-02 
1267	 3.59709757705095E-02 
1268	 3.48173529206242E-02 
1269	 0.038061379585768 
1270	 4.07781510830185E-02 
1271	 4.09400468959012E-02 
1272	 3.79922007179495E-02 
1273	 3.26126883554501E-02 
1274	 2.90749308371055E-02 
1275	 2.94442273785675E-02 
1276	 3.14079064080213E-02 
1277	 3.51139118674175E-02 
1278	 3.76028412137134E-02 
1279	 3.69927302813886E-02 
1280	 3.86661258781952E-02 
1281	 0.038095417165255 
1282	 3.53085048940896E-02 
1283	 3.56518863100111E-02 
1284	 3.77533150045886E-02 
1285	 3.62103937930128E-02 
1286	 0.033985116598815 
1287	 3.55240615099667E-02 
1288	 3.76637236457257E-02 
1289	 3.59759538863259E-02 
1290	 3.51123754249921E-02 
1291	 3.48093338522584E-02 
1292	 3.01159515688258E-02 
1293	 2.53844002583913E-02 
1294	 2.78394188472358E-02 
1295	 3.08664739822066E-02 
1296	 3.19429856908517E-02 
1297	 3.40536877814572E-02 
1298	 3.28842023240364E-02 
1299	 3.23540333205367E-02 
1300	 3.32281560411368E-02 
1301	 3.24379360398503E-02 
1302	 3.34184369951604E-02 
1303	 3.46609306657902E-02 
1304	 3.54489848166767E-02 
1305	 3.38275788779894E-02 
1306	 3.24485615474233E-02 
1307	 3.19459361658634E-02 
1308	 3.17621593207854E-02 
1309	 2.74961288881183E-02 
1310	 2.72403468245532E-02 
1311	 3.27316139460144E-02 
1312	 3.12941740831461E-02 
1313	 2.59979995693001E-02 
1314	 2.87297958529841E-02 
1315	 3.24584675195921E-02 
1316	 3.35525623272156E-02 
1317	 4.30995630347548E-02 
1318	 4.70446846375975E-02 
1319	 0.036919124648939 
1320	 3.55881952227581E-02 
1321	 4.03629226288783E-02 
1322	 4.88088505906422E-02 
1323	 3.85443004618533E-02 
1324	 3.54927149479192E-02 
1325	 3.31988030668993E-02 
1326	 2.09143387238326E-02 
1327	 2.07998239670719E-02 
1328	 2.52188028890285E-02 
1329	 0.025013817283174 
1330	 1.09824185801002E-02 
1331	-1.09153959027393E-02 
1332	-5.14822418216742E-03 
1333	 1.03607596102906E-02 
1334	-1.36599020447654E-02 
1335	-1.29737485164608E-02 
1336	 1.92531812525653E-02 
1337	 2.39269571534824E-02 
1338	 1.40865671513572E-02 
1339	 1.59301031195232E-02 
1340	-7.21627795817444E-03 
1341	 5.14099800129698E-03 
1342	 6.80287725017611E-02 
1343	 8.47734121031181E-02 
1344	 9.92618468806626E-02 
1345	 0.121639415360032 
1346	 0.123554535083687 
1347	 0.087065973732081 
1348	-2.83297089689335E-02 
1349	-0.113499450989971 
1350	-0.392921492126889 
1351	-0.519937281088984 
1352	 0.101444068802798 
1353	 0.337394724659079 
1354	 0.616637978027614 
1355	 1.1303185937011 
1356	-1.54545173323142 
1357	-1.60386696795277 
1358	-2.63437576936591 
1359	 1.7289898874904 
1360	-1.20111301781932 
1361	-0.785974296570411 
1362	-0.993050801562873 
1363	-1.30770947466159 
1364	 9.53353211737139E-02 
1365	 0.689137449235207 
1366	 3.59903181874286 
1367	 46.5743104431535 
1368	-21.8115666630057 
1369	-1.31028762026104 
1370	-0.812678185781985 
1371	 1.26213659867201 
1372	 4.92388296478013 
1373	 2.04259128899181 
1374	 18.1827975245369 
1375	-0.161191350939942 
1376	-2.0602338121373 
1377	 0.700144940819986 
1378	 0.117234929592433 
1379	-0.330031099295675 
1380	-0.215896177261796 
1381	-3.10509319592725 
1382	-4.02095500740029 
1383	 0.406415975985876 
1384	 0.377960832805658 
1385	-0.6031817122684 
1386	-0.580888112439044 
1387	 2.31144071408228 
1388	 6.20075541216208 
1389	 0.829872963373964 
1390	 2.03253768972383 
1391	 12.1170240592785 
1392	 2.8082200361471 
1393	 0.13370171528162 
1394	-1.0155007673102 
1395	-0.277498092195509 
1396	 0.43585727307211 
1397	 0.50242757627334 
1398	-0.893580936584317 
1399	-9.39210866878479 
1400	 1.09707907651853 
1401	-0.45064411081821 
1402	-0.825890713229155 
1403	-0.405148428068193 
1404	-0.937995328304458 
1405	-1.36210069821512 
1406	-1.34910803640321 
1407	-3.97773855302656 
1408	 2.65778146819041 
1409	 1.41369800426848 
1410	 0.249480255202277 
1411	 0.313435198783774 
1412	-0.950048571326711 
1413	-3.36684301030197 
1414	-0.377893463229546 
1415	-2.11132207779397 
1416	 0.261223084608058 
1417	-0.14964278653287 
1418	 0.223550793621087 
1419	 0.350994015919456 
1420	 0.455111845576483 
1421	 0.557351457453759 
1422	 1.6112255839899 
1423	 2.67306273673357 
1424	-0.143232384294348 
1425	 4.57206533618659E-03 
1426	 6.08222198140943 
1427	 1.32454087316637 
1428	 0.443069685408391 
1429	 0.393465990331015 
1430	 0.182789366339694 
1431	-8.63985595756411E-02 
1432	 0.302078819254709 
1433	 0.111046322858154 
1434	-0.622994161212824 
1435	-0.662216645886255 
1436	 6.23676485966302E-02 
1437	 0.775983945054718 
1438	 0.21536256861873 
1439	 0.671140437651227 
1440	 15.3062671496427 
1441	-9.05028549006981 
1442	-0.9708298341082 
1443	-0.308841994916895 
1444	 1.00400585207437 
1445	 0.678396183594833 
1446	 0.480943040687783 
1447	 0.639402849926683 
1448	 0.73210034891682 
1449	-0.751081763831521 
1450	 3.0737422366603 
1451	-0.097138814408727 
1452	-0.587161725115102 
1453	-1.04116830226235 
1454	-1.09956770841447 
1455	-26.8258792127598 
1456	 9.81233636762873E-02 
1457	-0.127056623147806 
1458	-9.10501996593032E-02 
1459	 0.166051746325499 
1460	 9.77963142635791E-02 
1461	-7.18504402166784E-02 
1462	-0.06859825451714 
1463	-0.214582298221833 
1464	 0.218806681721709 
1465	 1.28449991004038 
1466	 4.09356683889113 
1467	 0.822582305950993 
1468	 0.847078577643797 
1469	-3.16165771507526 
1470	-1.68311574927101 
1471	 18.0067617814207 
1472	 5.56833322138425 
1473	-105.013935241967 
1474	 2.25164258231253 
1475	 0.43060819227485 
1476	 0.236840867863584 
1477	-0.124752096456015 
1478	-0.197407954882842 
1479	-0.197057693095767 
1480	 19.3961968401777 
1481	 24.903208467424 
1482	-7.14281580901373 
1483	-2.27909048422976 
1484	-4.59755620304108 
1485	-3.03681790006671 
1486	-1.57193703749395 
1487	-0.162692748863143 
1488	-0.207559735701954 
1489	-0.808172511977452 
1490	-0.342506293896989 
1491	-0.288759061085602 
1492	-0.473370396996555 
1493	-0.258928414863691 
1494	-8.32199659062717E-02 
1495	-0.269403527658585 
1496	-0.214934624863211 
1497	 0.191274890745292 
1498	 0.277100635962354 
1499	 0.251325956054658 
1500	 0.225551503545044 
1501	 0.150068519392447 
1502	 0.117410811379759 
1503	 6.83592703586342E-02 
1504	 6.09616700957622E-02 
1505	 0.120674592755561 
1506	 0.136495572092411 
1507	 1.11081484862799E-04 
1508	-6.50967912547217E-02 
1509	-1.18185423778109E-02 
1510	 4.78821503565715E-02 
1511	 7.30988761853721E-02 
1512	 8.61852162259469E-02 
1513	 3.26221395289204E-02 
1514	-2.32817768377651E-02 
1515	 0.061778975761435 
1516	 0.130999170909109 
1517	 9.89079141324853E-02 
1518	 0.102912339302732 
1519	 0.142621971236637 
1520	 0.15189978647762 
1521	 0.146895250582409 
1522	 8.35819403800949E-02 
1523	 2.64034879088109E-02 
1524	 6.30223084444628E-02 
1525	 0.119568247236009 
1526	 0.148352031024722 
1527	 0.144732989121106 
1528	 7.95426167042412E-02 
1529	 5.09646248913073E-02 
1530	 6.68002448763414E-02 
1531	 0.054380497562926 
1532	 6.53608562224452E-02 
1533	 7.16358578812844E-02 
1534	 5.36439158871967E-02 
1535	 6.32607119820033E-02 
1536	 7.65991236098541E-02 
1537	 6.90307322429607E-02 
1538	 5.06824224196877E-02 
1539	 4.54937865225898E-02 
1540	 0.040850460475886 
1541	 3.63986154815597E-02 
1542	 4.84815761816562E-02 
1543	 4.85956198736312E-02 
1544	 4.03133241801268E-02 
1545	 0.028577602731581 
1546	 3.88477894530806E-02 
1547	 7.38241379375916E-02 
1548	 7.78974581934727E-02 
1549	 7.55624067353262E-02 
1550	 8.50078074374396E-02 
1551	 6.88062120502544E-02 
1552	 4.77355785058341E-02 
1553	 6.14537553219903E-02 
1554	 6.94900930345551E-02 
1555	 5.86709479627173E-02 
1556	 6.65591011220931E-02 
1557	 6.46862554417726E-02 
1558	 3.55571740840063E-02 
1559	 1.04229591592558E-02 
1560	 1.69536984294134E-02 
1561	 1.61290515268477E-02 
1562	 1.29887155482783E-02 
1563	 4.10433078680554E-02 
1564	 3.95082323471708E-02 
1565	 2.35089179774655E-02 
1566	 3.10390915418736E-02 
1567	 0.032631233593349 
1568	 3.01006045843943E-02 
1569	 3.95432732139917E-02 
1570	 5.07240997305023E-02 
1571	 4.32131179802227E-02 
1572	 3.65234383028516E-02 
1573	 5.21440327623153E-02 
1574	 5.48240533962347E-02 
1575	 3.72929487382968E-02 
1576	 5.01660996345102E-02 
1577	 5.17405494788153E-02 
1578	 3.94936559805321E-02 
1579	 0.072682671378816 
1580	 7.42289740021568E-02 
1581	 4.49786132999761E-02 
1582	 5.52073876899685E-02 
1583	 5.50586311162862E-02 
1584	 3.66217268518663E-02 
1585	 0.04109168138977 
1586	 0.037393497114194 
1587	 0.033048370350443 
1588	 3.83419911917436E-02 
1589	 3.31171154664672E-02 
1590	 4.20416535508689E-02 
1591	 4.96584693365355E-02 
1592	 3.67395332562042E-02 
1593	 0.045505819706968 
1594	 5.92703675604114E-02 
1595	 0.044148868346656 
1596	 3.25826215242198E-02 
1597	 3.77396581541332E-02 
1598	 2.68079369089913E-02 
1599	 0.010320854691453 
1600	 2.78173378931715E-02 
1601	 4.79841755874546E-02 
1602	 4.73179644424323E-02 
1603	 6.19674111509496E-02 
1604	 0.075786662484566 
1605	 6.65272098275356E-02 
1606	 6.08285911555069E-02 
1607	 6.67615147202433E-02 
1608	 6.60693501746759E-02 
1609	 6.18338579071483E-02 
1610	 6.79834073071661E-02 
1611	 6.30827723776862E-02 
1612	 4.96856208454479E-02 
1613	 0.053390520782708 
1614	 4.96940332420492E-02 
1615	 3.56967538128994E-02 
1616	 3.98742569039987E-02 
1617	 3.76472271676196E-02 
1618	 2.64515475127606E-02 
1619	 3.46217411337362E-02 
1620	 4.28695066105693E-02 
1621	 4.17617203751443E-02 
1622	 3.89524298231625E-02 
1623	 4.11819279329444E-02 
1624	 4.58017861849915E-02 
1625	 3.74914421915149E-02 
1626	 3.21583310124289E-02 
1627	 3.15199001077706E-02 
1628	 2.82096524381962E-02 
1629	 2.48291649149312E-02 
1630	 2.71161379207989E-02 
1631	 3.39271806253709E-02 
1632	 2.11881779114183E-02 
1633	 2.16968611191581E-03 
1634	-2.25085282573408E-03 
1635	-8.58362857680631E-04 
1636	 5.80410958135857E-03 
1637	 2.71859093607377E-02 
1638	 5.08390322530889E-02 
1639	 5.36477518863933E-02 
1640	 5.34077751163497E-02 
1641	 5.73646558377531E-02 
1642	 5.18229408934317E-02 
1643	 0.045486478471541 
1644	 3.50229786587144E-02 
1645	 3.05198444176087E-02 
1646	 3.77839340079428E-02 
1647	 4.41869927958894E-02 
1648	 4.71241208917138E-02 
1649	 3.93139674740144E-02 
1650	 2.78842103750169E-02 
1651	 2.34571057982302E-02 
1652	 0.01986889329023 
1653	 2.01329184433905E-02 
1654	 2.72677778830828E-02 
1655	 4.30578293279311E-02 
1656	 4.61375321692826E-02 
1657	 4.38429445734693E-02 
1658	 4.82975754501766E-02 
1659	 5.90944997646183E-02 
1660	 5.94143915556344E-02 
1661	 6.22709121999423E-02 
1662	 4.83379534752042E-02 
1663	-2.05622370749282E-03 
1664	-5.28102250932642E-03 
1665	 2.13375536864934E-02 
1666	 2.55879464696678E-02 
1667	 4.03862167758573E-02 
1668	 2.45027311830337E-02 
1669	 1.42726048778255E-02 
1670	 1.14624235865471E-02 
1671	 1.87020887509488E-02 
1672	 4.09273216369322E-02 
1673	 3.89395305936751E-02 
1674	 0.017679339680601 
1675	 1.59343358326072E-02 
1676	 1.41205074466762E-02 
1677	 5.32243677762853E-03 
1678	 1.40712931514241E-02 
1679	 2.17896686910692E-02 
1680	 1.38290632730431E-02 
1681	 1.59237898818517E-02 
1682	 2.88997540485148E-02 
1683	 3.80094579984484E-02 
1684	 4.49338056448613E-02 
1685	 4.48181661793816E-02 
1686	 2.93003674911866E-02 
1687	 1.60180403075927E-02 
1688	 2.40326001545261E-02 
1689	 2.68730131937084E-02 
1690	 0.023402020565108 
1691	 2.79965334869557E-02 
1692	 3.07644422624157E-02 
1693	 3.92484333154584E-02 
1694	 5.96122789625386E-02 
1695	 6.97224494242649E-02 
1696	 5.43988933168002E-02 
1697	 4.29381510700942E-02 
1698	 4.43458199379338E-02 
1699	 5.41300397318584E-02 
1700	 5.83648720611204E-02 
1701	 3.55369550691393E-02 
1702	 1.88558417179908E-02 
1703	 2.13991138734532E-02 
1704	 1.96526706557346E-02 
1705	 2.18542265001604E-02 
1706	 1.84311685389046E-02 
1707	-3.95514775873801E-03 
1708	-1.57389734212772E-02 
1709	 8.77837958524457E-03 
1710	 3.60476331641966E-02 
1711	 3.21453246427132E-02 
1712	 2.85432197975106E-02 
1713	 2.44209239138993E-02 
1714	 0.023665375123981 
1715	 4.37734675466589E-02 
1716	 4.85937684223778E-02 
1717	 4.80182093632571E-02 
1718	 4.42000630736494E-02 
1719	 2.39809061678678E-02 
1720	 2.00134017308843E-02 
1721	 3.34619519629525E-02 
1722	 4.63205532029833E-02 
1723	 6.13655598011919E-02 
1724	 6.35984066175882E-02 
1725	 4.98955282704877E-02 
1726	 4.69556610589525E-02 
1727	 5.77196457230001E-02 
1728	 6.88043619993297E-02 
1729	 8.77371558525105E-02 
1730	 8.33161918529073E-02 
1731	 5.27618873895158E-02 
1732	 0.060467172327114 
1733	 6.62130042392296E-02 
1734	 4.80149487078147E-02 
1735	 8.00132980592551E-02 
1736	 8.77042028134625E-02 
1737	 4.41511434376655E-02 
1738	 5.28153755669364E-02 
1739	 6.56944659716683E-02 
1740	 4.49711990020532E-02 
1741	 5.37056413660169E-02 
1742	 7.64117364726181E-02 
1743	 7.13316215935818E-02 
1744	 3.22560785050204E-02 
1745	 4.64963503627091E-03 
1746	 3.59113844168509E-02 
1747	 2.36407729003413E-02 
1748	 0.036269054566823 
1749	 5.71693513895454E-02 
1750	 0.019910115842208 
1751	 6.55680408098508E-03 
1752	 4.85508722606448E-02 
1753	 6.09239421506152E-02 
1754	 4.67226109531135E-02 
1755	 5.94979852265151E-02 
1756	 9.60137247202319E-02 
1757	 4.50685142732114E-02 
1758	 8.43300145624868E-03 
1759	 1.28165903840154E-02 
1760	 5.14353802159092E-02 
1761	 0.068633709708159 
1762	 9.83368851606252E-02 
1763	 7.52383953315578E-02 
1764	 1.56235843169123E-02 
1765	 4.56536893404724E-02 
1766	 0.04011394749887 
1767	 0.025595936942093 
1768	 0.100430367163888 
1769	 9.25913619705386E-02 
1770	 7.67428848950577E-02 
1771	 9.32872881458383E-02 
1772	-2.45023357148004E-02 
1773	-7.60158235128315E-02 
1774	-2.34133003012652E-02 
1775	-5.32424437902701E-02 
1776	-1.73396735763162E-02 
1777	 4.27951864315204E-02 
1778	 6.63320988641214E-02 
1779	 0.196223693906647 
1780	 0.250093433678078 
1781	 0.145632534679436 
1782	 0.09289543143326 
1783	 2.58103868467754E-02 
1784	 9.98149082466868E-03 
1785	 4.36477193396046E-02 
1786	 9.24275050313385E-02 
1787	 0.216798595279242 
1788	 0.203554550677189 
1789	 5.64534667532077E-02 
1790	-1.49094506645315E-02 
1791	 0.184969842069046 
1792	 0.345911695327572 
1793	 0.546723204677725 
1794	 0.75338389546386 
1795	 0.170846014795284 
1796	-0.382210184514224 
1797	-0.144843242348958 
1798	 0.482235367279315 
1799	 5.11738184110397 
1800	 0.8357882266909 
1801	 0.359540614762024 
1802	-0.486086515035741 
1803	-0.377095376251769 
1804	 1.06809558912893 
1805	 3.30730174917173 
1806	 24.3865559663107 
1807	 301.027783271234 
1808	 0.378355425679089 
1809	-7.57221062711883E-02 
1810	-0.222973808298669 
1811	 0.153736098945416 
1812	 0.358255684806883 
1813	 0.201391838307385 
1814	 0.242519988335254 
1815	 0.284592093780476 
1816	 0.785582291828064 
1817	 0.349292194539728 
1818	 0.350822063267999 
1819	 2.36018765164575 
1820	-12.0376773263998 
1821	 3.26556845479498 
1822	 2.95735844876295 
1823	 1.28963079602482 
1824	 1.7275678012653 
1825	-0.819388458770667 
1826	-0.693507355432552 
1827	-1.07036659570334 
1828	-2.44917920810942 
1829	 2.35210531264178 
1830	 1.63622069667297 
1831	 1.18889655262271 
1832	 3.6025526198723 
1833	-2.82669583005642 
1834	-2.47205747127897 
1835	-2.52039626113052 
1836	 2.17037892572874 
1837	-1.75983586179683 
1838	-2.11956383081259 
1839	-3.1982725736165 
1840	 67.7057205160192 
1841	 4.55192025926868 
1842	 0.966729623273673 
1843	 0.501430364995504 
1844	 2.21898637181667 
1845	 4.17780136422 
1846	 2.91344071800734 
1847	 3.27980513242438 
1848	 8.1566945951383 
1849	 18.9976725741467 
1850	 1.31312871976535 
1851	 1.12838570300045 
1852	-0.537912717356275 
1853	-0.303603870871596 
1854	-5.93153885847201E-02 
1855	 0.771407717268122 
1856	 0.765201314077634 
1857	 0.676611397345178 
1858	 0.594976924708718 
1859	 0.227930325390881 
1860	-0.117514436646132 
1861	-0.131858179469574 
1862	-0.485663617807486 
1863	-0.327968858680743 
1864	-0.497431585736292 
1865	-0.51693217307346 
1866	-0.429846986987516 
1867	-0.515633768309959 
1868	-1.28211158013786 
1869	 1.36032717295292 
1870	 0.790262240478614 
1871	 0.894866585944219 
1872	-0.279131228173089 
1873	-1.94366145961853 
1874	 4.62661730812511 
1875	 3.52022293397001 
1876	 2.79770655343926 
1877	 1.78522306462796 
1878	 1.53958638797734 
1879	 1.3192644831405 
1880	 1.62846005743371 
1881	 2.93992048544839 
1882	 4.42057227298184 
1883	 9.02336508996726 
1884	-7.00295848397607 
1885	-4.53792203597604 
1886	-4.66323411839754 
1887	 3.39603651484637 
1888	 0.865879297473675 
1889	 0.605488645037903 
1890	 0.545832385639629 
1891	 0.627489920597573 
1892	 1.1182365968874 
1893	 3.04827630601249 
1894	 6.27564158711198 
1895	-4.41654976960254 
1896	-1.01378649810805 
1897	-0.343538449247031 
1898	 0.104890844463666 
1899	 0.303549294549613 
1900	 0.434582267945584 
1901	 0.490882339607332 
1902	 0.672809157172289 
1903	 0.394631708855379 
1904	 0.501215186566119 
1905	 0.508588988132516 
1906	 1.01008382538206 
1907	 0.483167264190338 
1908	 0.440331318109391 
1909	 0.777837112942325 
1910	 1.29318354527763 
1911	 1.91932683647731 
1912	-2.08901960431084 
1913	-0.737090304395297 
1914	 0.10218742327025 
1915	 0.200945659300077 
1916	-0.425373379230361 
1917	-0.549025300136203 
1918	-3.29727133249597 
1919	-22.7658233082886 
1920	 2.99628734784074 
1921	-0.42630277519127 
1922	 0.303445835843548 
1923	 0.641908722508614 
1924	 0.387347558101606 
1925	-2.25073746390182E-03 
1926	-0.16570802037846 
1927	-0.504759375333088 
1928	-0.437679116261502 
1929	-0.916268705581421 
1930	-8.01511652029189 
1931	-2.50684851413588 
1932	-1.6878591230549 
1933	-1.60520886782964 
1934	-1.23440549670419 
1935	 1.6074636743151 
1936	-0.535027444847671 
1937	-0.629768322410828 
1938	-0.213759183378457 
1939	 0.111228726241498 
1940	 1.11639842459632 
1941	 2.11828416937573 
1942	 2.31805881884387 
1943	 1.88373298141844 
1944	 2.00098052370551 
1945	 1.92049464931132 
1946	 1.62298566372157 
1947	 0.801839036284108 
1948	 0.439513773273899 
1949	 0.12918607603031 
1950	-0.853098592179979 
1951	-1.13027660165987E-02 
1952	-0.216991383981042 
1953	 0.107886748812753 
1954	 0.149528223858491 
1955	-0.506077029363496 
1956	-0.81670263325714 
1957	-0.612615311711892 
1958	-0.309248539763279 
1959	-0.311897772148703 
1960	-0.395926168836044 
1961	-0.709975964335781 
1962	 0.160814146635081 
1963	 1.23202256920385 
1964	 2.50802880553137 
1965	 1.11373972005778 
1966	 1.63994554450037 
1967	 7.61024173939772 
1968	-1.88221543822116 
1969	-1.20055275109845 
1970	-6.22413491746939 
1971	 9.011193725413 
1972	 3.17982444815591 
1973	 1.84127684151404 
1974	 3.07032892798354 
1975	 6.19826550567195 
1976	 0.53420519537602 
1977	 2.37652413007602 
1978	 2.53274846218984 
1979	 1.91207819759664 
1980	 1.64080127822695 
1981	 12.4438275544125 
1982	 0.948190692856554 
1983	-0.392210804962213 
1984	-1.63410605844717 
1985	-1.35866028376059 
1986	-0.930929768538879 
1987	-0.857417130378234 
1988	-0.943964276316342 
1989	-0.669050559883089 
1990	-0.53287154311432 
1991	-0.497544422109595 
1992	-0.345595572707664 
1993	-0.181947552802359 
1994	-0.104441052860865 
1995	 2.04313075808921E-02 
1996	-0.210145250757135 
1997	 22.0423340767204 
1998	 0.4791027971066 
1999	 0.275561644977675 
2000	 0.587639594222926 
2001	 0.699516064036457 
2002	 0.581190565107199 
2003	 0.739981780882876 
2004	 0.227605123872287 
2005	-17.4306983391665 
2006	 26.9327325043108 
2007	 2.23104708992984 
2008	 46.6278144019368 
2009	-17.663865185268 
2010	-1.72511077163683 
2011	-1.47849753277867 
2012	-0.612819257397121 
2013	-1.22351032080554 
2014	-0.223534836197643 
2015	 8.56050369436151E-02 
2016	 0.249272617005906 
2017	 0.483301123528595 
2018	 0.356080513058391 
2019	 0.465767151530839 
2020	 4.84992047903221 
2021	-4.7038803649044 
2022	 9.21577642867645 
2023	 1.67116991543307 
2024	 1.39659202803749 
2025	 0.666227208060711 
2026	 0.367552083021711 
2027	-8.55047926137749E-02 
2028	 0.290461798117122 
2029	 0.166254796791116 
2030	 8.58626088881977E-02 
2031	-73.4938510515712 
2032	 1.6511789073483 
2033	 0.785458823415624 
2034	 1.07336511871663 
2035	 2.73947101453759 
2036	 6.71412025246016 
2037	 3.82075138508849 
2038	 2.30888900499202 
2039	 1.28963870606872 
2040	-0.165456369460864 
2041	-0.475624035953562 
2042	-0.7756972652613 
2043	-0.592984236430202 
2044	-0.237137828069893 
2045	-4.93081851006478E-02 
2046	 0.128783205787291 
2047	 0.424181810618716 
2048	 0.990582969046139 
2049	-1.94503079339393 
2050	-1.36910508962688 
2051	 3.15979235880787 
2052	 2.33545555367593 
2053	 0.858120462016946 
2054	 0.659237308926478 
2055	 0.723882894187594 
2056	 0.930215207566033 
2057	 1.9832867784788 
2058	 1.88874138095114 
2059	 1.39180610836436 
2060	 1.7059037376765 
2061	 1.72691622574728 
2062	 1.21936135791379 
2063	 2.36310861426271 
2064	 2.41448420975941 
2065	 1.45191710809083 
2066	 0.869008035883596 
2067	 0.445863394822485 
2068	 0.381812042156323 
2069	 0.435266220893098 
2070	 0.607045493083374 
2071	 0.93554029512241 
2072	 0.650746843476108 
2073	 0.593690113716043 
2074	 0.362432622072858 
2075	-0.16691790784556 
2076	-0.526281556873647 
2077	-0.344002031492934 
2078	 0.135324814920387 
2079	 8.98546740350038E-02 
2080	-0.136802113071893 
2081	-5.89084484506534E-02 
2082	-0.70646849379878 
2083	-7.48032826535248 
2084	 0.599948788099168 
2085	 0.545113269424746 
2086	 0.488284982455612 
2087	 0.676604619398668 
2088	 1.11845166125314 
2089	-9.60853603635019 
2090	-1.05336351352412 
2091	-1.38902565731798 
2092	-1.39781202515367 
2093	 0.301151893681215 
2094	 1.27189630031122E-03 
2095	 0.154701893415781 
2096	 7.08511803119416E-02 
2097	 9.46027076859538E-02 
2098	 7.31687307693121E-02 
2099	-0.344932937127671 
2100	-1.82131681378653 
2101	-0.723799383081098 
2102	 0.400613841752951 
2103	 0.869027747627989 
2104	 0.559164848454372 
2105	 0.554063478364819 
2106	 0.60595226674222 
2107	 0.625957978407899 
2108	 0.797172329246396 
2109	 0.938888057730535 
2110	 0.845170163365779 
2111	 0.980639803608334 
2112	 1.30940135618919 
2113	 1.02098782416154 
2114	 0.753022054448597 
2115	 0.591698906596068 
2116	 0.161325962605223 
2117	 0.139245928753862 
2118	 0.239932750164757 
2119	 0.256829923941549 
2120	 0.425526243315439 
2121	 0.480168844129693 
2122	 0.311021716323102 
2123	 0.222836844720301 
2124	 0.109527363846984 
2125	 0.255574114454255 
2126	 0.370773734352514 
2127	 0.230506604474583 
2128	 7.01610120198121E-02 
2129	-0.202125541745024 
2130	-0.272589897332629 
2131	-0.228804666647838 
2132	-0.120342260420254 
2133	 9.03033838997879E-02 
2134	 0.27359651337584 
2135	 0.490867134315345 
2136	 0.518383275665818 
2137	 0.539775768960964 
2138	 0.454697301883941 
2139	 7.83071857050246E-02 
2140	-4.82844625670928E-02 
2141	-6.20008426256656E-02 
2142	-4.77761279221618E-02 
2143	 6.33687477562608E-02 
2144	 0.244909484535213 
2145	 0.474975433506988 
2146	 0.445673646968438 
2147	 0.32598408349918 
2148	 0.312415619887157 
2149	 0.394169258250127 
2150	 0.456242355284121 
2151	 0.55779584237681 
2152	 0.596450631462256 
2153	 0.477684475744543 
2154	 0.325884686233941 
2155	 0.299551236517378 
2156	 0.298268499651315 
2157	 0.211064734937378 
2158	 0.174895979837627 
2159	 0.171381823204958 
2160	 0.107960159303726 
2161	 0.10256134219443 
2162	 0.228121213333982 
2163	 0.227354897545979 
2164	 0.124393679686607 
2165	 0.131421936496432 
2166	 0.136375571226256 
2167	 0.150286904034417 
2168	 0.201237769907488 
2169	 0.256807610163502 
2170	 0.334412327061002 
2171	 0.516450812955926 
2172	 0.493612440848748 
2173	 0.361097682447771 
2174	 0.177685654041014 
2175	 1.15311651322237E-02 
2176	 4.80226846955576E-02 
2177	 0.199096617084247 
2178	 0.332842294845322 
2179	 0.427850167512935 
2180	 0.404750219279631 
2181	 0.416460890791265 
2182	 0.421852396732861 
2183	 0.236657880637372 
2184	 0.186561843618056 
2185	 0.157285857799479 
2186	 0.150032104546554 
2187	 0.174201712173445 
2188	 0.153870641280111 
2189	 0.177742319318266 
2190	 0.101877337028408 
2191	-0.104525759713648 
2192	-0.189116233687183 
2193	-0.291152563076261 
2194	-0.351541604471664 
2195	-0.407200287932602 
2196	-0.350120338719554 
2197	-0.104455204385821 
2198	 2.42390448856407E-02 
2199	 0.262093481215134 
2200	 0.512251498516968 
2201	 0.259405995162215 
2202	-3.84335426632828E-02 
2203	-0.191352679262781 
2204	-0.289377282687511 
2205	-0.208784550750878 
2206	-5.80129947726036E-02 
2207	 7.54045311748995E-02 
2208	 0.170052492332964 
2209	 0.307162899017869 
2210	 0.334491941520668 
2211	 0.357868646427018 
2212	 0.263121484953338 
2213	 7.46406994911756E-02 
2214	-1.74661868241632E-02 
2215	-0.181327988329241 
2216	-0.168413088835236 
2217	-0.170366232048669 
2218	-0.195308068081145 
2219	-0.152765953853333 
2220	-0.03611340753415 
2221	 8.79353791717223E-03 
2222	 0.108848436482628 
2223	 0.125829588679352 
2224	 0.034382315498909 
2225	 1.65243075207044E-02 
2226	-5.60039473356864E-02 
2227	-2.30232392924464E-02 
2228	 0.251194255191219 
2229	 0.327439460537757 
2230	 0.290581884315481 
2231	 0.295327621477283 
2232	 0.13260283961111 
2233	 7.27228676532731E-02 
2234	 0.184755304473136 
2235	 0.133073626854033 
2236	-9.07171954683774E-02 
2237	-0.170061649478795 
2238	-0.324370445467301 
2239	-0.474239264348604 
2240	-0.333172058733599 
2241	-0.317757378112763 
2242	-0.391308928959598 
2243	-0.250812159153966 
2244	-0.156297061654303 
2245	-0.157942148991745 
2246	 0.003927512718984 
2247	 0.173380847317994 
2248	 0.115243009182767 
2249	 0.165431304120779 
2250	 0.144146617260599 
2251	-0.182067144090547 
2252	-0.164872759282541 
2253	-7.53408882896552E-02 
2254	-0.11469042736542 
2255	 0.110134758170556 
2256	 0.17563573601901 
2257	 0.312117078745487 
2258	 0.463305629069381 
2259	 0.358836120177895 
2260	 0.2973095866589 
2261	 9.28195631648737E-02 
2262	 4.37166186785532E-02 
2263	 8.32463205286991E-02 
2264	 0.120669693292345 
2265	 0.320042909528416 
2266	 0.385208725926518 
2267	 0.218277904583229 
2268	 4.73329488682429E-02 
2269	-0.284958484486995 
2270	-0.21431784917593 
2271	 4.58567424966739E-02 
2272	 0.170578070126754 
2273	 0.413400775386867 
2274	 0.453336493097722 
2275	 0.465813857320825 
2276	 0.477137087212523 
2277	 0.365577491175214 
2278	 0.326210188754599 
2279	 0.273320444570441 
2280	 0.156443212864136 
2281	-3.72662650680256E-02 
2282	-3.47850129399634E-02 
2283	 0.112579034671392 
2284	 0.239581850954572 
2285	 0.408176983240925 
2286	 0.750924621766028 
2287	-0.905213660846504 
2288	 136.638892303251 
2289	 1.08832432788306 
2290	 1.70560708306603 
2291	 1.06914651443207 
2292	 1.44847360548948 
2293	 4.66977577422713 
2294	 14.1899045766466 
2295	 17.4357844345042 
2296	 1.6583453063611 
2297	 1.7167954602966 
2298	 1.29981750692557 
2299	 0.837755654477743 
2300	 1.149305610914 
2301	 0.977225367018599 
2302	 0.649523231614748 
2303	 1.34825824448248 
2304	 1.22159749644422 
2305	 0.979643228231528 
2306	 0.760056946553202 
2307	 0.159943627352084 
2308	-8.61257861245052E-04 
2309	 0.122619317375671 
2310	 0.223750543370446 
2311	 0.410398240196096 
2312	 0.460172657847412 
2313	 0.158279801844322 
2314	-2.56787757934131E-02 
2315	 0.110601760093114 
2316	 0.310481543959393 
2317	 0.388353944879622 
2318	 0.753145371512963 
2319	 1.55801317763317 
2320	 1.26625121404101 
2321	 0.395585903915286 
2322	 0.540853404859078 
2323	-0.446939622794744 
2324	-0.193279829158752 
2325	 0.294356385160119 
2326	 1.00515327098889E-02 
2327	 8.01899471030769E-02 
2328	 9.02673392717987E-02 
2329	-0.303616681056593 
2330	-0.109626951845093 
2331	 2.73829874475035E-02 
2332	 1.41013666537195E-02 
2333	 0.139805474786143 
2334	 0.528888151684261 
2335	 0.342123935362564 
2336	-2.71438558696446E-02 
2337	-0.276738124420991 
2338	 0.395030101473193 
2339	 1.53794695544912 
2340	 1.97595421895648 
2341	 1.4139078445263 
2342	 1.04752022463837 
2343	 1.13094731693386 
2344	 0.936615271305113 
2345	 12.0023233320139 
2346	-1.67769991196489 
2347	-1.10544444310069 
2348	-4.12550775330541 
2349	-5.74676312291895 
2350	 4.59051714481727 
2351	 4.06422741601654 
2352	-3.08240606809917 
2353	-1.21503522099838 
2354	-1.21924815552528 
2355	-1.32534129639556 
2356	-0.268897978314385 
2357	-6.14650256315317 
2358	-0.394310316214505 
2359	 0.840122942241824 
2360	 1.78891654488591 
2361	-11.9649209065824 
2362	-1.75789447495684 
2363	-1.13122277205049 
2364	-0.952616617988334 
2365	-1.46294778114669 
2366	-0.961476659766736 
2367	 52.0521916069487 
2368	 1.21338787545709 
2369	 0.412043662714318 
2370	 0.39769671181046 
2371	 0.329041687316967 
2372	 0.340740167503233 
2373	 0.307794082247783 
2374	-0.385151948082652 
2375	-1.55123603686785 
2376	-3.95644850282411 
2377	-2.18325896267503 
2378	 0.685431088346171 
2379	 0.029795435736946 
2380	 0.055646929883827 
2381	 1.01805178787159 
2382	 6.2239576968365 
2383	-9.52755885317563 
2384	-2.54146416192635 
2385	-0.168311935274923 
2386	 2.98610286379099 
2387	 0.160858721499347 
2388	-1.6067056470371 
2389	 0.449637206494022 
2390	-1.59238744542103 
2391	-1.42990998521521 
2392	-2.10920537181573 
2393	 4.17828800939392 
2394	 1.84496410601007 
2395	 2.89992959756301 
2396	 0.147103664566343 
2397	 1.26313208089226E-02 
2398	-0.238963509645381 
2399	-1.39492500469554 
2400	-5.07307303787273 
2401	 1.87996953600791 
2402	 2.88762936665139 
2403	-3.43692249238202 
2404	-3.19128699669818 
2405	-4.47474848947361 
2406	-1.49839991648533 
2407	-3.22490584387168 
2408	 7.29913965353708 
2409	-0.932759307108678 
2410	-0.223765212452232 
2411	-1.11184723842619 
2412	-1.02515133139981 
2413	-0.676876558791797 
2414	-0.599548461660013 
2415	-0.301667107212787 
2416	 6.18557818444433E-02 
2417	 0.835816104840588 
2418	 2.05222927967632 
2419	 3.99698422064466 
2420	 6.04824593360715 
2421	-0.93072067435853 
2422	-0.441304653095825 
2423	-1.07795339181376 
2424	-1.43449340076699 
2425	-0.968589255375835 
2426	 3.09226227489141E-02 
2427	-3.53136486252783 
2428	-1.45167867563376 
2429	-0.479248653164227 
2430	-0.21291847666537 
2431	-8.53393572660369E-02 
2432	-0.293152126643528 
2433	-0.888647816048052 
2434	-0.258003060174727 
2435	 0.2669360896767 
2436	-100.023611012451 
2437	-2.71827018850991 
2438	-1.06606212888169 
2439	-0.758455733710911 
2440	-1.48690855589362 
2441	-2.61677111873113 
2442	 12.2732170127646 
2443	 1.9510308804667 
2444	-4.75563053024988 
2445	-1.73046921983757 
2446	-0.71860735742604 
2447	-1.12471172227726 
2448	-1.54387896044862 
2449	-4.544233848621 
2450	-8.96713439077676 
2451	 1.16380295640017 
2452	-1.91974109356834 
2453	-0.76387822700641 
2454	-1.6602836241722 
2455	-1.48182999752457 
2456	 0.2960219546188 
2457	-0.608666814174617 
2458	-0.849281264539507 
2459	-1.26093918388517 
2460	-1.08470493454964 
2461	-2.83805127010626 
2462	-33.2231891203506 
2463	 1.4624968441967 
2464	 1.15441743708125 
2465	 5.87047367971337 
2466	 2.20385818434343 
2467	 6.58844113074794 
2468	 3.18077676038762 
2469	 1.34865532240205 
2470	 0.879739201797645 
2471	 0.598498315081737 
2472	 0.176331557150998 
2473	 4.79500423094259E-02 
2474	-0.762300847856882 
2475	-0.492839863666651 
2476	 0.606899822582599 
2477	 0.601647430592146 
2478	 0.890623957609476 
2479	 0.134363758387464 
2480	-2.65839230395111 
2481	-7.55639278415653 
2482	-4.30582504120637 
2483	-2.98101332838126 
2484	-1.62013571596788 
2485	-0.671571807260066 
2486	-0.560197873231701 
2487	-0.675053656485306 
2488	-0.923787000099412 
2489	 7.06607369696062 
2490	 1.84664348432195 
2491	 1.26978811894484 
2492	 0.999540590876643 
2493	 0.866344225706754 
2494	 8.45092836941787E-02 
2495	-20.7417525047824 
2496	-4.09760563923343 
2497	-3.60761267213863 
2498	-2.40955648232902 
2499	 0.144731694513311 
2500	 3.04388254168922 
