Wavelength	rt0712EAST_CLOSE200000.asd
350	 4.77393326035786E-02 
351	 0.048511219714756 
352	 4.79113254670105E-02 
353	 4.80210175881938E-02 
354	 4.96475061548548E-02 
355	 4.94423857204967E-02 
356	 4.89319506597514E-02 
357	 4.89315004721468E-02 
358	 4.95562247556315E-02 
359	 4.88478137821094E-02 
360	 4.84732835254825E-02 
361	 4.87616899216264E-02 
362	 4.90317579765038E-02 
363	 4.92183404221053E-02 
364	 4.96284895106613E-02 
365	 5.00113951062882E-02 
366	 4.91817529908489E-02 
367	 4.90146988239063E-02 
368	 4.93991771344718E-02 
369	 4.98112686525735E-02 
370	 5.04957802011272E-02 
371	 5.01775792237828E-02 
372	 4.92702423744854E-02 
373	 4.91741291344926E-02 
374	 5.00974266665157E-02 
375	 5.05499255389436E-02 
376	 5.01947707225104E-02 
377	 5.05024492166369E-02 
378	 5.07333829405847E-02 
379	 5.03823349675905E-02 
380	 4.96826039909349E-02 
381	 5.10145024009394E-02 
382	 5.17918666270435E-02 
383	 5.15596455533425E-02 
384	 5.10297149268929E-02 
385	 5.05489548697121E-02 
386	 5.07672401259266E-02 
387	 5.18144968204677E-02 
388	 5.31993609088949E-02 
389	 0.053466251554023 
390	 5.29014199588851E-02 
391	 5.22966786511478E-02 
392	 5.25922364154268E-02 
393	 5.33903349840171E-02 
394	 5.36354671809298E-02 
395	 0.052654849715474 
396	 5.27453916102101E-02 
397	 5.33195047492026E-02 
398	 5.37149913090205E-02 
399	 5.34657957506113E-02 
400	 5.36457520595513E-02 
401	 5.38789450025265E-02 
402	 5.37789167031892E-02 
403	 5.33515025949873E-02 
404	 5.36730308853784E-02 
405	 5.42076278697397E-02 
406	 5.40139821149175E-02 
407	 5.36371301746123E-02 
408	 5.40330140981593E-02 
409	 5.48902554431492E-02 
410	 0.054745793403789 
411	 5.48579529180457E-02 
412	 5.49230556963989E-02 
413	 5.47144673949136E-02 
414	 5.48779631557412E-02 
415	 5.50181571219326E-02 
416	 5.52285695013399E-02 
417	 5.56419098244573E-02 
418	 5.53730432693896E-02 
419	 0.055257643679498 
420	 0.055566644452695 
421	 0.055832197229436 
422	 5.58601450475446E-02 
423	 5.60538385284201E-02 
424	 0.056552352208733 
425	 5.63509980213094E-02 
426	 5.63181671466363E-02 
427	 5.66660906760372E-02 
428	 5.71831746835257E-02 
429	 5.72167596139934E-02 
430	 5.73450151778648E-02 
431	 5.77165205007899E-02 
432	 5.78409634177314E-02 
433	 5.78035252006894E-02 
434	 5.80464471160567E-02 
435	 5.87120415154333E-02 
436	 5.88620657740443E-02 
437	 5.87968219157842E-02 
438	 5.88793230518073E-02 
439	 5.94043419494892E-02 
440	 0.059732114182704 
441	 0.060051838087288 
442	 0.060414807693116 
443	 0.060521366434 
444	 6.08667337369799E-02 
445	 6.12023866696948E-02 
446	 6.12800075109987E-02 
447	 6.16993799886192E-02 
448	 6.20892650439085E-02 
449	 6.22893618236494E-02 
450	 6.23403482250674E-02 
451	 6.25117415222206E-02 
452	 6.28154239653547E-02 
453	 6.31004057955222E-02 
454	 6.29374103259605E-02 
455	 6.30945060905582E-02 
456	 6.33945669853266E-02 
457	 6.34566992773566E-02 
458	 6.38783850285413E-02 
459	 6.40564703991804E-02 
460	 6.38371729973597E-02 
461	 0.063601442594037 
462	 0.064054549126378 
463	 6.45385623850497E-02 
464	 6.45136855937048E-02 
465	 6.45419888891918E-02 
466	 6.47894226685431E-02 
467	 6.51524288989353E-02 
468	 0.065387054870351 
469	 0.065521109658454 
470	 6.56042575275616E-02 
471	 6.57386759833115E-02 
472	 6.60873858449671E-02 
473	 6.61334392700062E-02 
474	 6.63290427173818E-02 
475	 0.067007493804193 
476	 6.71182754268547E-02 
477	 0.067406261690157 
478	 6.78422510087157E-02 
479	 6.79206533685656E-02 
480	 6.82350873526794E-02 
481	 6.86365682142757E-02 
482	 6.89526628869456E-02 
483	 6.91468375342659E-02 
484	 6.95077041508141E-02 
485	 7.00529073690033E-02 
486	 0.070605249595419 
487	 7.06231554292348E-02 
488	 7.08216199178249E-02 
489	 0.071371948982648 
490	 7.18573953320863E-02 
491	 7.22208394716907E-02 
492	 7.26330546114203E-02 
493	 7.31836701575888E-02 
494	 7.35900408898684E-02 
495	 7.41221168252964E-02 
496	 7.46872744941921E-02 
497	 7.50521359892084E-02 
498	 7.54602573246708E-02 
499	 7.59924290126587E-02 
500	 7.66215008290792E-02 
501	 7.71922326991083E-02 
502	 7.74192926343146E-02 
503	 7.77905877761306E-02 
504	 7.87105575606286E-02 
505	 7.92779326820544E-02 
506	 7.98671322901653E-02 
507	 8.05275263997214E-02 
508	 8.10514111483421E-02 
509	 8.17531242535187E-02 
510	 0.082333740386077 
511	 8.26980477425743E-02 
512	 8.34747593992378E-02 
513	 8.40808418344992E-02 
514	 8.46095998374991E-02 
515	 8.53711629157474E-02 
516	 8.59925896521565E-02 
517	 8.68435959993145E-02 
518	 8.78095908202029E-02 
519	 8.81357325108746E-02 
520	 8.87957247107176E-02 
521	 8.96291693075232E-02 
522	 9.03382813947989E-02 
523	 9.11171066091828E-02 
524	 9.18319115044568E-02 
525	 9.25488748561516E-02 
526	 9.34522047939735E-02 
527	 9.42883265585387E-02 
528	 9.50724069795736E-02 
529	 9.58568986844987E-02 
530	 9.66910239732188E-02 
531	 9.75456163588012E-02 
532	 9.83921648380807E-02 
533	 9.92286863099622E-02 
534	 0.100256061634415 
535	 0.101085247454799 
536	 0.101769689636274 
537	 0.102886405014458 
538	 0.103968365372076 
539	 0.104959294454399 
540	 0.105914097434553 
541	 0.106926073943754 
542	 0.107891123930299 
543	 0.108797938931619 
544	 0.109718847248109 
545	 0.110887445021508 
546	 0.112019054793216 
547	 0.112953348129284 
548	 0.113883256546592 
549	 0.114876239571743 
550	 0.115889246876254 
551	 0.116861436459834 
552	 0.11793479107071 
553	 0.118905836134103 
554	 0.119796325557541 
555	 0.120888535300352 
556	 0.121896524041102 
557	 0.122809809576684 
558	 0.123682932697458 
559	 0.124579165395388 
560	 0.125521646831256 
561	 0.126375531561582 
562	 0.126966427164518 
563	 0.127743246738302 
564	 0.128546544943685 
565	 0.129177131832664 
566	 0.12948148755673 
567	 0.130087320471074 
568	 0.130768281145873 
569	 0.131098019369458 
570	 0.131632483737806 
571	 0.132117685611018 
572	 0.13244824936447 
573	 0.132729143737128 
574	 0.133217555776041 
575	 0.133588157268239 
576	 0.133626099881477 
577	 0.133927535948642 
578	 0.134232411574494 
579	 0.13441427154239 
580	 0.134456573311157 
581	 0.134572186368613 
582	 0.134688177712686 
583	 0.134714108707584 
584	 0.134600506903021 
585	 0.134262427311742 
586	 0.133708254587362 
587	 0.133032575049788 
588	 0.132578574905843 
589	 0.132473404902247 
590	 0.132436122747165 
591	 0.131846407514935 
592	 0.13165519033321 
593	 0.13153443334257 
594	 0.13112143353595 
595	 0.130733304674697 
596	 0.130208958326687 
597	 0.129573020917048 
598	 0.128938761411868 
599	 0.128192860892657 
600	 0.127494445859928 
601	 0.126967947233598 
602	 0.126639529363284 
603	 0.126388289212112 
604	 0.126229866266643 
605	 0.126203347554688 
606	 0.126239442843095 
607	 0.126113115244157 
608	 0.125920888101928 
609	 0.126071845896431 
610	 0.126022508284102 
611	 0.125845523681912 
612	 0.125712280920774 
613	 0.125690178645976 
614	 0.125568091116239 
615	 0.125387706203201 
616	 0.125323286857317 
617	 0.125303316558892 
618	 0.125136568990846 
619	 0.124906683456621 
620	 0.125187548459198 
621	 0.12506514393641 
622	 0.124762841781581 
623	 0.124744050016129 
624	 0.124654722446811 
625	 0.124577682147956 
626	 0.124427193549178 
627	 0.123980671601742 
628	 0.123946579647657 
629	 0.12404786946818 
630	 0.124002056444368 
631	 0.124083442998234 
632	 0.123943455132784 
633	 0.123811250460756 
634	 0.124062297493596 
635	 0.123913333820608 
636	 0.12385869589071 
637	 0.124088696832804 
638	 0.124207748683275 
639	 0.123922756787996 
640	 0.123718192118385 
641	 0.124019994353825 
642	 0.123989255995786 
643	 0.123930013849444 
644	 0.123807077888839 
645	 0.123310114477712 
646	 0.122914973439219 
647	 0.122827125166611 
648	 0.122963302467821 
649	 0.122762244586251 
650	 0.12244244127614 
651	 0.122193622088213 
652	 0.122091473084691 
653	 0.121355782414872 
654	 0.120539901485992 
655	 0.119881841504503 
656	 0.119137981532097 
657	 0.118135926403326 
658	 0.117072309562125 
659	 0.116159619101238 
660	 0.115635406755724 
661	 0.114767799722552 
662	 0.113637939407696 
663	 0.112815550612535 
664	 0.112007733117175 
665	 0.111238574344744 
666	 0.110551662034263 
667	 0.109968800243424 
668	 0.109744355002364 
669	 0.10961348956101 
670	 0.109283051207855 
671	 0.10924886561353 
672	 0.109305529550565 
673	 0.109396123687361 
674	 0.109628510860366 
675	 0.1099363592356 
676	 0.110333526662742 
677	 0.110834568564484 
678	 0.111409223388829 
679	 0.112134471506945 
680	 0.112864221148471 
681	 0.113454354890701 
682	 0.114562688405428 
683	 0.115606683382462 
684	 0.116332722173072 
685	 0.117144974156647 
686	 0.118007630091971 
687	 0.118882402718604 
688	 0.119598965765629 
689	 0.11979746392639 
690	 0.120161660001283 
691	 0.120587770053158 
692	 0.120506807848363 
693	 0.120496038544944 
694	 0.120495810563756 
695	 0.120340326277499 
696	 0.11985330682663 
697	 0.119104556384576 
698	 0.118246119285947 
699	 0.117524201871428 
700	 0.116819650039377 
701	 0.115961981189617 
702	 0.115017324916464 
703	 0.114141669921339 
704	 0.113206724195766 
705	 0.111992143120897 
706	 0.110562072120552 
707	 0.10951019645863 
708	 0.10785612160798 
709	 0.10610204416724 
710	 0.104971589180433 
711	 0.103034679396656 
712	 0.100978053404993 
713	 9.90736129458236E-02 
714	 0.096994491232204 
715	 9.51286164145768E-02 
716	 9.31103436267504E-02 
717	 9.07549262774264E-02 
718	 8.85274901176238E-02 
719	 8.59142666851067E-02 
720	 8.36043607738327E-02 
721	 8.16607437170633E-02 
722	 8.00956803177516E-02 
723	 0.078182816723703 
724	 7.60190806254174E-02 
725	 0.074088297836501 
726	 7.18204427021357E-02 
727	 6.92488667153176E-02 
728	 6.65512187008584E-02 
729	 6.39060052555538E-02 
730	 6.14499725441598E-02 
731	 5.92299698031838E-02 
732	 5.70373547222207E-02 
733	 5.54797455261953E-02 
734	 5.39789120981237E-02 
735	 5.25856463982345E-02 
736	 5.21554889308399E-02 
737	 5.11335171303542E-02 
738	 5.01962361417145E-02 
739	 5.00110764484843E-02 
740	 4.97195971357427E-02 
741	 4.95241190863963E-02 
742	 4.93904629420437E-02 
743	 0.049212810759841 
744	 4.92725287331598E-02 
745	 4.92633948705985E-02 
746	 4.90818826335667E-02 
747	 4.89626537679578E-02 
748	 4.89797659001898E-02 
749	 0.0489780578404 
750	 4.88471811082693E-02 
751	 4.88355490934146E-02 
752	 0.048878503746315 
753	 0.048887870983574 
754	 4.87997289342293E-02 
755	 4.88913009156982E-02 
756	 0.048741839506001 
757	 4.83114566440527E-02 
758	 4.82045625404544E-02 
759	 4.85759480478822E-02 
760	 4.87139124224401E-02 
761	 4.78437396258479E-02 
762	 4.87206533104873E-02 
763	 4.87690932904535E-02 
764	 4.83771206889386E-02 
765	 4.85723011769509E-02 
766	 4.90884207404914E-02 
767	 4.92775225265925E-02 
768	 0.049140105597845 
769	 4.91762391970574E-02 
770	 4.96513953703454E-02 
771	 4.99511005006524E-02 
772	 4.97648089814233E-02 
773	 0.050109448401668 
774	 5.02747741656754E-02 
775	 5.02897681224616E-02 
776	 5.04872225345561E-02 
777	 5.09675449812115E-02 
778	 5.12831222857278E-02 
779	 5.13904812981005E-02 
780	 5.16916440584767E-02 
781	 5.22202717074226E-02 
782	 5.26175900193271E-02 
783	 5.26998111532063E-02 
784	 5.28277555145558E-02 
785	 5.31866767842531E-02 
786	 5.35848993213064E-02 
787	 5.37795793832795E-02 
788	 5.42509329557505E-02 
789	 5.47191157386621E-02 
790	 5.50559314456973E-02 
791	 5.53455860056191E-02 
792	 0.055930556876168 
793	 5.64105493837748E-02 
794	 5.66062397326539E-02 
795	 5.67940700736425E-02 
796	 5.74140134626809E-02 
797	 5.79439304734562E-02 
798	 5.79586892716362E-02 
799	 5.82102595236179E-02 
800	 0.058699629208401 
801	 5.92074937757824E-02 
802	 5.94288378766506E-02 
803	 5.95293297194364E-02 
804	 5.96736264512702E-02 
805	 5.98828034839636E-02 
806	 6.00278969414262E-02 
807	 5.99220313530789E-02 
808	 5.98165274209321E-02 
809	 0.059849093505888 
810	 5.95727130046391E-02 
811	 5.89031005918632E-02 
812	 5.84865915957485E-02 
813	 5.90563668468189E-02 
814	 5.86377527697463E-02 
815	 5.81358372907128E-02 
816	 5.77038782363772E-02 
817	 5.67736248754232E-02 
818	 0.056233566200221 
819	 5.56247303032935E-02 
820	 5.49731478403312E-02 
821	 5.50970733539152E-02 
822	 0.05360393902655 
823	 5.20757659231976E-02 
824	 5.16531881416205E-02 
825	 4.98936426152853E-02 
826	 4.82775798739554E-02 
827	 4.66607654401594E-02 
828	 4.47349694691784E-02 
829	 4.38186413187271E-02 
830	 4.28849945415688E-02 
831	 4.17385318834523E-02 
832	 4.09242565287492E-02 
833	 4.05965645472826E-02 
834	 4.06016373902149E-02 
835	 4.04340082866524E-02 
836	 0.039279543575423 
837	 3.85359484346983E-02 
838	 3.84303377325866E-02 
839	 3.86277201328118E-02 
840	 3.80990826513386E-02 
841	 3.78799086116392E-02 
842	 3.78240013946785E-02 
843	 3.75563656254897E-02 
844	 3.77218032183897E-02 
845	 3.76562581450354E-02 
846	 3.73039771667849E-02 
847	 3.70618396075727E-02 
848	 3.71724128275436E-02 
849	 3.72291329429784E-02 
850	 3.70310069506145E-02 
851	 3.67604109626488E-02 
852	 3.66494559720507E-02 
853	 3.65908995122664E-02 
854	 3.65071844904246E-02 
855	 3.65777805689634E-02 
856	 3.61819588620977E-02 
857	 3.57365229264181E-02 
858	 0.035726269405957 
859	 3.58540596178773E-02 
860	 3.57383831219869E-02 
861	 3.56162197532774E-02 
862	 3.58989029988094E-02 
863	 3.59998576532986E-02 
864	 0.03566278097394 
865	 3.51382246893948E-02 
866	 3.50564170893503E-02 
867	 3.51199586053865E-02 
868	 3.48286056551872E-02 
869	 0.034258281924091 
870	 3.42190129758374E-02 
871	 0.034378929472463 
872	 0.034128786669978 
873	 3.34476548862649E-02 
874	 3.37800604451512E-02 
875	 3.34803662299155E-02 
876	 3.29862546320159E-02 
877	 3.30836109139603E-02 
878	 3.33359643825105E-02 
879	 3.30419974600403E-02 
880	 3.24892800781475E-02 
881	 3.24550773414829E-02 
882	 3.34219878681911E-02 
883	 3.31025929528306E-02 
884	 3.19661245120299E-02 
885	 3.23390716123556E-02 
886	 3.21834061558353E-02 
887	 3.21730365226816E-02 
888	 3.23592868560579E-02 
889	 3.18688664210533E-02 
890	 3.22195922667054E-02 
891	 3.24751037389304E-02 
892	 3.21828592127578E-02 
893	 3.28662885192228E-02 
894	 3.24742632806482E-02 
895	 3.23820829029566E-02 
896	 3.35177747415848E-02 
897	 3.07666369678983E-02 
898	 0.029267528320269 
899	 3.03918451453188E-02 
900	 3.23369475672659E-02 
901	 3.00442468198537E-02 
902	 2.99198259845655E-02 
903	 3.08501489959251E-02 
904	 3.00419097252231E-02 
905	 3.11655903537839E-02 
906	 3.16923000838589E-02 
907	 3.09645710407773E-02 
908	 3.01971655072851E-02 
909	 3.10568761921366E-02 
910	 3.12040576434963E-02 
911	 3.03242177603784E-02 
912	 3.02003858685336E-02 
913	 2.93477247930943E-02 
914	 2.91607326868546E-02 
915	 0.029882613758066 
916	 3.00522902597764E-02 
917	 2.91848606805318E-02 
918	 2.89940904927169E-02 
919	 3.01603065429739E-02 
920	 0.031824295208839 
921	 3.32264618414022E-02 
922	 0.031557010065273 
923	 2.70496337675249E-02 
924	 2.76462288493799E-02 
925	 2.94946784217903E-02 
926	 3.06300085530561E-02 
927	 2.99881521525479E-02 
928	 2.91186523010251E-02 
929	 2.24304027695516E-02 
930	 1.51494177499592E-02 
931	 1.94736136835707E-02 
932	 1.39380652027779E-02 
933	 1.89004613089729E-02 
934	 2.28351702283554E-02 
935	 6.76305028156299E-03 
936	 7.09284191131595E-03 
937	 2.64585295077845E-02 
938	 3.40123236649783E-02 
939	 1.22799580378343E-02 
940	 2.86619684143492E-02 
941	 3.20757284609046E-02 
942	 2.42515981634983E-02 
943	 2.93826183907022E-02 
944	 2.96661443790676E-02 
945	 2.32548813582862E-02 
946	 0.01377160623739 
947	 1.02093686703398E-02 
948	 2.57299962974462E-02 
949	 2.41781174425754E-02 
950	 2.29499375044268E-02 
951	 0.053797628710632 
952	 3.30516641768476E-02 
953	 7.72661819563604E-03 
954	 1.14874980916584E-02 
955	 4.58172894506087E-02 
956	 2.76851530064633E-02 
957	 2.33204820151041E-02 
958	 3.63684471665092E-02 
959	 3.09552618635682E-02 
960	 2.65128772469935E-02 
961	 2.77023993742382E-02 
962	 3.07218786832496E-02 
963	 0.029952379094796 
964	 3.44654516146543E-02 
965	 3.19473668763883E-02 
966	 2.53111169674359E-02 
967	 0.025559915642518 
968	 2.54866179639198E-02 
969	 2.87374460691938E-02 
970	 0.030582151836996 
971	 2.18743165666181E-02 
972	 1.89355790026647E-02 
973	 2.45731182286136E-02 
974	 3.14758952863185E-02 
975	 2.70769810678598E-02 
976	 2.02775755113952E-02 
977	 1.98730082801078E-02 
978	 2.51934173418888E-02 
979	 2.81807077316051E-02 
980	 2.93000374843615E-02 
981	 2.79095291340738E-02 
982	 2.78809786946023E-02 
983	 3.37878003665698E-02 
984	 3.30428375985042E-02 
985	 0.029082489932073 
986	 2.67052270844032E-02 
987	 2.87921885227747E-02 
988	 2.74303505262985E-02 
989	 2.43722088411282E-02 
990	 2.34369946616466E-02 
991	 2.76836176166333E-02 
992	 3.07248943538276E-02 
993	 3.11972305925467E-02 
994	 2.76255294054534E-02 
995	 2.11284429056123E-02 
996	 0.028245968875909 
997	 0.029092712001524 
998	 2.36724103276898E-02 
999	 2.40940096078368E-02 
1000	 2.57137138410122E-02 
1001	 2.95697779096478E-02 
1002	 2.96230974201242E-02 
1003	 2.98282796345804E-02 
1004	 2.94584322958213E-02 
1005	 0.028900738605024 
1006	 2.80652564748749E-02 
1007	 2.80252383189152E-02 
1008	 2.85334650211427E-02 
1009	 2.71353522471721E-02 
1010	 2.66057346858971E-02 
1011	 2.80976179599506E-02 
1012	 2.79944316327705E-02 
1013	 2.75742317387098E-02 
1014	 2.76761852350335E-02 
1015	 2.82475444362087E-02 
1016	 2.78674557561793E-02 
1017	 2.69399492493654E-02 
1018	 2.69407214965424E-02 
1019	 0.026880099909509 
1020	 2.69591234759841E-02 
1021	 2.78405576448934E-02 
1022	 2.84247221419229E-02 
1023	 2.83072510608408E-02 
1024	 2.81304268339385E-02 
1025	 2.86773373235213E-02 
1026	 2.89889340636428E-02 
1027	 2.91849940741417E-02 
1028	 0.029355458871513 
1029	 2.97446010190254E-02 
1030	 0.029994201884635 
1031	 3.03238764855203E-02 
1032	 3.15306655043464E-02 
1033	 3.13103670933217E-02 
1034	 2.97962579808231E-02 
1035	 2.94518278543374E-02 
1036	 2.90114326891464E-02 
1037	 0.028623045408348 
1038	 2.91111145329554E-02 
1039	 2.90939543398738E-02 
1040	 2.83345206160103E-02 
1041	 2.75167938566154E-02 
1042	 2.75886161524327E-02 
1043	 0.028166534909505 
1044	 2.84364120102895E-02 
1045	 2.89687709277242E-02 
1046	 2.97144294101302E-02 
1047	 3.08445582360641E-02 
1048	 3.11740505140492E-02 
1049	 3.19729506474923E-02 
1050	 3.16903178092423E-02 
1051	 2.95305085380349E-02 
1052	 2.85835351809405E-02 
1053	 2.72092272712702E-02 
1054	 2.69194455950285E-02 
1055	 2.81835140802048E-02 
1056	 0.028775007425821 
1057	 2.94072244571982E-02 
1058	 3.06927031476689E-02 
1059	 3.09426481255005E-02 
1060	 3.06427069009612E-02 
1061	 3.00496861045238E-02 
1062	 0.028580584032629 
1063	 2.80450718252654E-02 
1064	 2.72543569150206E-02 
1065	 2.70969202832202E-02 
1066	 2.79511705307516E-02 
1067	 2.83826209701669E-02 
1068	 2.91003176471071E-02 
1069	 2.93617497422426E-02 
1070	 2.90637945764863E-02 
1071	 2.92095002477447E-02 
1072	 2.89430952371044E-02 
1073	 2.94391023821779E-02 
1074	 2.99102140988401E-02 
1075	 3.11456577945386E-02 
1076	 3.14430314756665E-02 
1077	 3.15746844846778E-02 
1078	 3.13003165642718E-02 
1079	 3.01792682647896E-02 
1080	 2.96832116861791E-02 
1081	 2.93856904782611E-02 
1082	 2.88392901526257E-02 
1083	 2.79264702592556E-02 
1084	 2.78447380090191E-02 
1085	 2.83785653760487E-02 
1086	 2.81617369051628E-02 
1087	 2.79099680979096E-02 
1088	 2.81301809269949E-02 
1089	 2.79344901346439E-02 
1090	 0.027978002706125 
1091	 2.81696298006928E-02 
1092	 2.96694373073523E-02 
1093	 0.029300682537413 
1094	 2.70820247024224E-02 
1095	 2.72436021628766E-02 
1096	 2.78524465473972E-02 
1097	 2.83510018466331E-02 
1098	 3.13068552338508E-02 
1099	 3.14081089993415E-02 
1100	 2.86437285318833E-02 
1101	 2.83769905325195E-02 
1102	 2.74633078107506E-02 
1103	 2.78834958433987E-02 
1104	 0.032944864762444 
1105	 3.36412548862175E-02 
1106	 3.14438800288934E-02 
1107	 3.10097724530902E-02 
1108	 2.70884942663851E-02 
1109	 2.43195952015027E-02 
1110	 2.32327713491244E-02 
1111	 2.40729651789366E-02 
1112	 2.58699298494941E-02 
1113	 3.35174770673891E-02 
1114	 3.48550968947986E-02 
1115	 3.32798513964737E-02 
1116	 3.45633745256734E-02 
1117	 2.86023730482894E-02 
1118	 2.48257123349155E-02 
1119	 3.25332481328687E-02 
1120	 3.18483204691853E-02 
1121	 2.24755726517315E-02 
1122	 2.08683183455209E-03 
1123	-4.60551814714138E-02 
1124	-0.065224609451102 
1125	-6.18056827878731E-02 
1126	-3.81388675188152E-02 
1127	 5.05085817377091E-02 
1128	 9.43163233828679E-02 
1129	 7.83273279756443E-02 
1130	-2.54783407307694E-04 
1131	-6.97726885790228E-04 
1132	-6.42485365457189E-03 
1133	-8.85670383110549E-03 
1134	 0.0269009355857 
1135	 3.13672505023945E-02 
1136	 1.00881733526732E-02 
1137	 4.20687276566934E-03 
1138	 8.20656935670172E-03 
1139	-2.6994489150747E-03 
1140	 4.52879112052695E-03 
1141	-6.08653784112633E-03 
1142	-2.64141099252634E-02 
1143	-5.93583544399794E-03 
1144	-6.33798696715402E-03 
1145	-4.36075591384889E-02 
1146	-4.87785925611871E-02 
1147	-2.88992400623655E-02 
1148	-1.67320275246272E-02 
1149	 1.19041467954189E-03 
1150	 1.31531962771558E-02 
1151	 1.64495869609893E-02 
1152	 1.79802912022748E-02 
1153	 2.07783703902227E-02 
1154	 2.28984167696114E-02 
1155	 2.39914838216407E-02 
1156	 2.42937556209634E-02 
1157	 2.35254572623678E-02 
1158	 2.51520413999838E-02 
1159	 2.88500299830519E-02 
1160	 2.58141803326951E-02 
1161	 2.71350714131708E-02 
1162	 3.36039788472805E-02 
1163	 3.33679857391657E-02 
1164	 3.09388836601165E-02 
1165	 2.88242381749738E-02 
1166	 2.62778968265933E-02 
1167	 2.65414284408427E-02 
1168	 0.028318335417386 
1169	 2.99441922531339E-02 
1170	 2.93464324389169E-02 
1171	 2.82359654320671E-02 
1172	 2.48854950061569E-02 
1173	 0.025148109289568 
1174	 2.68349048552142E-02 
1175	 2.71246001990459E-02 
1176	 2.86893918190342E-02 
1177	 2.96925889718886E-02 
1178	 0.026819147674676 
1179	 2.48262454467572E-02 
1180	 2.58717060732836E-02 
1181	 2.69571908336004E-02 
1182	 2.75496196899301E-02 
1183	 2.87222772161965E-02 
1184	 2.99323516181781E-02 
1185	 2.93246730479458E-02 
1186	 2.78080794299714E-02 
1187	 0.028300393902328 
1188	 2.96227376159537E-02 
1189	 2.94671316426988E-02 
1190	 3.06390282678803E-02 
1191	 3.16369301779917E-02 
1192	 3.09981533154976E-02 
1193	 2.71809067132993E-02 
1194	 2.63868803402741E-02 
1195	 2.81437116019284E-02 
1196	 2.69168547703841E-02 
1197	 2.62538687578162E-02 
1198	 2.71512109734579E-02 
1199	 2.63544613967725E-02 
1200	 2.63875304100769E-02 
1201	 2.80491904708535E-02 
1202	 2.74667613642988E-02 
1203	 2.62432235495553E-02 
1204	 0.027267252267283 
1205	 2.90193193437648E-02 
1206	 2.99744875496649E-02 
1207	 2.99630513610974E-02 
1208	 2.96519036004349E-02 
1209	 2.92359666196236E-02 
1210	 2.90874098708972E-02 
1211	 2.95155324712365E-02 
1212	 2.91279208224316E-02 
1213	 2.82328572641307E-02 
1214	 2.80494577708622E-02 
1215	 2.81552773090245E-02 
1216	 2.79596385906376E-02 
1217	 2.78288825115016E-02 
1218	 2.87634533883265E-02 
1219	 2.86886549885067E-02 
1220	 2.79795788257537E-02 
1221	 0.028360477830505 
1222	 2.82508712861438E-02 
1223	 2.83782141055972E-02 
1224	 0.028348144774845 
1225	 2.74813682837825E-02 
1226	 2.74932624958471E-02 
1227	 2.72872947191883E-02 
1228	 2.70132598055428E-02 
1229	 2.72821403818131E-02 
1230	 2.69827816031676E-02 
1231	 2.71094531988789E-02 
1232	 2.76849422213173E-02 
1233	 2.81188876731189E-02 
1234	 2.83324536204267E-02 
1235	 0.02837180099455 
1236	 2.78033215979341E-02 
1237	 2.76418291856339E-02 
1238	 2.76580108825382E-02 
1239	 2.74338663521143E-02 
1240	 2.75926236263922E-02 
1241	 2.78965351302006E-02 
1242	 2.69702905178617E-02 
1243	 2.60650010728379E-02 
1244	 2.59888151618678E-02 
1245	 2.60534754721511E-02 
1246	 2.67613229971361E-02 
1247	 0.027413556133637 
1248	 2.69338966936311E-02 
1249	 2.65868642872864E-02 
1250	 2.70331664733411E-02 
1251	 2.75050363528805E-02 
1252	 2.85247117156323E-02 
1253	 2.90084309148914E-02 
1254	 2.78878137253322E-02 
1255	 2.74287121522951E-02 
1256	 2.74606967597059E-02 
1257	 2.77267131357526E-02 
1258	 2.74631050897988E-02 
1259	 2.78964706172811E-02 
1260	 2.80029596254702E-02 
1261	 2.71787791434776E-02 
1262	 2.65357373200828E-02 
1263	 2.61733071119616E-02 
1264	 2.56012502808539E-02 
1265	 2.43782160997451E-02 
1266	 2.50041709792379E-02 
1267	 2.63221839171935E-02 
1268	 2.58013043638405E-02 
1269	 2.60270207980824E-02 
1270	 2.73519893052691E-02 
1271	 2.75180251316058E-02 
1272	 2.84461473025382E-02 
1273	 2.88025112389912E-02 
1274	 0.027601227266383 
1275	 2.78551618533533E-02 
1276	 2.84866983905662E-02 
1277	 2.86013602656067E-02 
1278	 2.87946330449144E-02 
1279	 2.79696082088958E-02 
1280	 2.69579665089735E-02 
1281	 2.70112123197196E-02 
1282	 2.82593770899157E-02 
1283	 2.84450599014045E-02 
1284	 2.87422533717959E-02 
1285	 2.90516816557224E-02 
1286	 2.88875721897373E-02 
1287	 2.84455212409978E-02 
1288	 2.76818118618721E-02 
1289	 0.027706949212751 
1290	 2.76588394494231E-02 
1291	 2.80686441262164E-02 
1292	 2.78181843463887E-02 
1293	 2.73502252595658E-02 
1294	 2.78728738790144E-02 
1295	 2.78452591098884E-02 
1296	 2.73972318832325E-02 
1297	 2.91291831732454E-02 
1298	 2.99609183160165E-02 
1299	 2.84310075909441E-02 
1300	 2.92027968937988E-02 
1301	 0.031333615778067 
1302	 3.12381975462553E-02 
1303	 3.03051538483209E-02 
1304	 3.02984922541608E-02 
1305	 3.01776837365208E-02 
1306	 3.02360457028114E-02 
1307	 3.01985709720783E-02 
1308	 3.10672760438822E-02 
1309	 3.42640676616346E-02 
1310	 3.40497475813566E-02 
1311	 3.13067014429963E-02 
1312	 3.05055556416105E-02 
1313	 0.027470338760409 
1314	 2.69190430914866E-02 
1315	 3.06000076240878E-02 
1316	 3.21173187493507E-02 
1317	 3.37828595544401E-02 
1318	 3.38899257534804E-02 
1319	 3.00149427663383E-02 
1320	 3.05201160144097E-02 
1321	 3.44263095726451E-02 
1322	 3.61726194435823E-02 
1323	 3.50201459007588E-02 
1324	 3.64001582228646E-02 
1325	 3.75505704716445E-02 
1326	 0.034302838482972 
1327	 0.030706684017976 
1328	 3.24824595256882E-02 
1329	 3.33173799888723E-02 
1330	 3.15806758965049E-02 
1331	 3.50923054935791E-02 
1332	 3.44389818605471E-02 
1333	 2.79452661100286E-02 
1334	 3.11301636894013E-02 
1335	 3.28979930754592E-02 
1336	 4.01956833486904E-02 
1337	 4.33727393201625E-02 
1338	 4.66746498955812E-02 
1339	 4.54381354394506E-02 
1340	 3.89809034247117E-02 
1341	 0.038325882843381 
1342	 0.039172637187498 
1343	 3.15226719614335E-02 
1344	 1.18181376053038E-02 
1345	 8.67964731452926E-03 
1346	 1.51476246503984E-02 
1347	 0.013830351487596 
1348	 5.02183607549913E-02 
1349	 0.07143293643729 
1350	-2.81095216008875E-03 
1351	-2.74581231296656E-02 
1352	 9.34053282054504E-02 
1353	 0.110033443260171 
1354	 2.77253311138653E-02 
1355	 6.9697298340653E-04 
1356	 0.24032944084063 
1357	 0.32028863449785 
1358	 0.296557492697222 
1359	 0.697281251573576 
1360	 0.769043672679507 
1361	 0.505764255408799 
1362	 0.980907363576057 
1363	 2.28733624093095 
1364	 1.01774847487483 
1365	 0.460046337487366 
1366	 0.371042503469937 
1367	 0.637364192153673 
1368	 0.609360971042145 
1369	 0.368801986921013 
1370	 0.598623927358909 
1371	 2.90270413083543 
1372	 3.8608657483769 
1373	 7.28281965317247 
1374	-45.4260468162053 
1375	 3.93778486380236 
1376	 2.0566464365629 
1377	 1.95172655793336 
1378	 2.35740410342542 
1379	 2.05889199442152 
1380	 1.25961264145084 
1381	 2.52800142374021 
1382	 2.09253545588138 
1383	 0.306869099352516 
1384	 0.202246503896679 
1385	 0.227137543513915 
1386	 0.327103110097486 
1387	 2.48232169589959 
1388	 2.94886245174241 
1389	 1.26795479941558 
1390	 1.6624452541878 
1391	 2.98190075898749 
1392	 0.702307276458213 
1393	 0.11231930670485 
1394	 0.213222351730461 
1395	 0.819526773149385 
1396	 0.991328769160383 
1397	 1.35278836082717 
1398	-96.9572618043 
1399	 0.903353484040028 
1400	 0.100020661136302 
1401	 1.37657702743011 
1402	-344.827231213882 
1403	-8.19917257081774 
1404	-3.48068936867581 
1405	-0.498724637834726 
1406	 0.45204696331747 
1407	 0.164851240446194 
1408	-0.507445223252939 
1409	 4.02281609431517 
1410	-1.44396228298722 
1411	-6.25315270611109 
1412	 3.8885841899148 
1413	 4.28084441024816 
1414	 4.92645323910427 
1415	 3.34743406842505 
1416	 8.80339721956873E-02 
1417	-1.03929831497658 
1418	 7.95232820448172 
1419	 3.02533923107992 
1420	 3.35562880524899 
1421	 2.80872252730339 
1422	 0.970255191180969 
1423	 0.91115027812113 
1424	 2.90107713833237 
1425	 3.2516547765055 
1426	 2.74141146098839 
1427	 1.83190763897966 
1428	 0.451407740949736 
1429	 0.374432856161317 
1430	 0.538227117785966 
1431	 0.471873013700666 
1432	 0.435122173948413 
1433	 0.460372981528467 
1434	 0.346001714192632 
1435	 0.116315951597447 
1436	-5.88408334612502E-02 
1437	 9.46623502325106E-02 
1438	 2.38803820764098E-02 
1439	-0.254695257377129 
1440	 0.223831258186816 
1441	 0.474618787127933 
1442	 0.153729384902981 
1443	 0.268635447759384 
1444	 0.251473894517266 
1445	 0.120690362068087 
1446	 4.19000121211779E-02 
1447	 4.88841522094168E-02 
1448	 8.19109316087179E-02 
1449	 7.56972397862403E-02 
1450	 0.114745875161129 
1451	 0.189053971915683 
1452	 0.129540562069961 
1453	 0.115525706359785 
1454	 0.117435441076126 
1455	 0.129166669117187 
1456	 9.62628147387224E-02 
1457	 4.02020839251926E-02 
1458	 4.90040286074972E-02 
1459	 7.64992907650839E-02 
1460	 5.86191926698094E-02 
1461	 5.30554689063488E-02 
1462	 7.31650758440883E-02 
1463	 4.82150691990439E-02 
1464	 4.10449523199828E-02 
1465	 0.117013412840614 
1466	 0.14288105389464 
1467	 0.115470868162417 
1468	 0.103658899342279 
1469	 9.91595265737597E-02 
1470	 0.112539501075124 
1471	 0.114769891006661 
1472	 0.113195778784975 
1473	 0.169708814311828 
1474	 0.156421390668238 
1475	 8.71668099885015E-02 
1476	 5.57548405104534E-02 
1477	-3.29693393546764E-04 
1478	-4.2411215914276E-04 
1479	 5.47186042437245E-02 
1480	 6.01093850924816E-02 
1481	 5.80256557538664E-02 
1482	 5.91460890997383E-02 
1483	 5.45271230655201E-02 
1484	 3.64610997190269E-02 
1485	 1.14758684928525E-02 
1486	 1.05350059492507E-02 
1487	 6.8054701321485E-03 
1488	 5.64135463956614E-03 
1489	 2.60780835309207E-02 
1490	 2.79502621837628E-02 
1491	 1.49095425468613E-02 
1492	 1.19690857657851E-02 
1493	 6.97124200395747E-03 
1494	 8.83852552750455E-03 
1495	 1.93531016625507E-02 
1496	 0.019628744616081 
1497	 1.79747081277447E-02 
1498	 1.84502127585573E-02 
1499	 1.37429771974907E-02 
1500	 1.24875569945669E-02 
1501	 1.65658432290726E-02 
1502	 1.68220624052898E-02 
1503	 1.38208052540923E-02 
1504	 1.42626970588513E-02 
1505	 1.51922367847122E-02 
1506	 1.68084213198901E-02 
1507	 2.07534035169697E-02 
1508	 2.25337393382706E-02 
1509	 2.20218881658097E-02 
1510	 2.04621045342401E-02 
1511	 1.83264104269895E-02 
1512	 2.02127834349951E-02 
1513	 0.023281242195222 
1514	 2.33627325167674E-02 
1515	 2.07235851338772E-02 
1516	 2.05644098405812E-02 
1517	 2.51290072819669E-02 
1518	 2.50041774361398E-02 
1519	 2.24993894762385E-02 
1520	 2.53828529605709E-02 
1521	 2.81631107042084E-02 
1522	 0.02600795826161 
1523	 2.22417841194114E-02 
1524	 2.01529318234073E-02 
1525	 2.04293308312895E-02 
1526	 2.17434506071532E-02 
1527	 2.26167215069031E-02 
1528	 2.22433872820399E-02 
1529	 2.02697265261659E-02 
1530	 1.73904195690902E-02 
1531	 1.79774437651065E-02 
1532	 2.48074766396134E-02 
1533	 2.84589910134107E-02 
1534	 2.63980174619814E-02 
1535	 2.56335605452268E-02 
1536	 2.50105624594053E-02 
1537	 2.46390868228874E-02 
1538	 2.59329658558508E-02 
1539	 2.43892398043846E-02 
1540	 2.01557682549487E-02 
1541	 0.018269273174005 
1542	 1.87922093169825E-02 
1543	 0.019772695541803 
1544	 1.99240543358409E-02 
1545	 1.91116027945786E-02 
1546	 0.018675746234625 
1547	 1.81159724921595E-02 
1548	 1.91303588482762E-02 
1549	 2.18297845037014E-02 
1550	 2.13146879200335E-02 
1551	 1.94991909037274E-02 
1552	 1.98086508445492E-02 
1553	 1.71374116849779E-02 
1554	 1.38227000533928E-02 
1555	 1.57332782236084E-02 
1556	 1.78849544830772E-02 
1557	 1.92537186664886E-02 
1558	 2.00099278899436E-02 
1559	 1.91097853891112E-02 
1560	 1.88188560054957E-02 
1561	 1.95829088477955E-02 
1562	 2.05813392094571E-02 
1563	 2.00198096866351E-02 
1564	 1.91725335741303E-02 
1565	 1.94119847872357E-02 
1566	 1.91955497642371E-02 
1567	 1.93723824489539E-02 
1568	 2.16132766179932E-02 
1569	 2.22632799095151E-02 
1570	 0.021576678858746 
1571	 2.31698506288388E-02 
1572	 2.41034419803765E-02 
1573	 0.02402332470241 
1574	 2.45791183001312E-02 
1575	 2.41642434134326E-02 
1576	 2.28821199737875E-02 
1577	 1.99089435059877E-02 
1578	 1.78035684768676E-02 
1579	 2.04754483309473E-02 
1580	 1.98613180248898E-02 
1581	 1.67072028372985E-02 
1582	 1.93680856723642E-02 
1583	 2.21592644703642E-02 
1584	 2.23589423507477E-02 
1585	 2.20986691644221E-02 
1586	 2.14847652654361E-02 
1587	 2.04096974676391E-02 
1588	 1.86405872285265E-02 
1589	 1.98900662199374E-02 
1590	 2.20705790789175E-02 
1591	 0.020182078413687 
1592	 0.018458140118879 
1593	 1.95705235762033E-02 
1594	 1.99573496023983E-02 
1595	 1.96545065834026E-02 
1596	 1.96794057074131E-02 
1597	 1.87122473727108E-02 
1598	 1.80975354957899E-02 
1599	 1.94118690605085E-02 
1600	 2.05645423973688E-02 
1601	 1.92892126187688E-02 
1602	 0.018361546772096 
1603	 1.89801559217513E-02 
1604	 1.80575863827653E-02 
1605	 1.82042189757316E-02 
1606	 2.04481367714371E-02 
1607	 1.90562413455531E-02 
1608	 1.69890296378443E-02 
1609	 1.86829442073459E-02 
1610	 1.94686941368336E-02 
1611	 0.020132484297496 
1612	 2.16387436454405E-02 
1613	 2.00233013720761E-02 
1614	 1.92418289787048E-02 
1615	 2.03873778775547E-02 
1616	 1.93442141905094E-02 
1617	 1.95013880505334E-02 
1618	 1.95221160546909E-02 
1619	 0.016668973734596 
1620	 1.62816254613942E-02 
1621	 1.85608187151725E-02 
1622	 1.97254978797751E-02 
1623	 1.99401055424333E-02 
1624	 1.99449082497011E-02 
1625	 1.95152190588947E-02 
1626	 1.94107179171288E-02 
1627	 0.020125891422266 
1628	 2.03815508157961E-02 
1629	 2.02234653046887E-02 
1630	 2.04516150501258E-02 
1631	 0.02045281138717 
1632	 2.04767568806363E-02 
1633	 2.07816731657861E-02 
1634	 2.17048104071344E-02 
1635	 2.26966587797794E-02 
1636	 2.25939133819953E-02 
1637	 2.28238970583164E-02 
1638	 2.28438999814599E-02 
1639	 2.25211388878341E-02 
1640	 2.43983564608724E-02 
1641	 2.41272112132393E-02 
1642	 2.04663161115877E-02 
1643	 1.80852041908174E-02 
1644	 1.75823943841287E-02 
1645	 2.00555031740206E-02 
1646	 2.15258410744214E-02 
1647	 1.94932899108307E-02 
1648	 1.78969555061038E-02 
1649	 1.70542531466754E-02 
1650	 1.79633610640346E-02 
1651	 0.018381894530987 
1652	 1.75512678088852E-02 
1653	 2.05742132852127E-02 
1654	 0.021101044542761 
1655	 2.29037727467869E-02 
1656	 2.36942406163011E-02 
1657	 2.08179412706041E-02 
1658	 1.98590570363454E-02 
1659	 2.08481510423335E-02 
1660	 2.20141785553319E-02 
1661	 2.29372095394266E-02 
1662	 2.20006070439786E-02 
1663	 2.15756327038309E-02 
1664	 0.021643408984839 
1665	 1.96409291783426E-02 
1666	 2.00166661777019E-02 
1667	 2.25404104836245E-02 
1668	 2.24185383423164E-02 
1669	 2.28909738186237E-02 
1670	 2.34360805894714E-02 
1671	 2.45864977542971E-02 
1672	 2.54841347096917E-02 
1673	 2.45568072405021E-02 
1674	 2.34069534793821E-02 
1675	 2.12051699500257E-02 
1676	 1.87572445536738E-02 
1677	 0.020507082487172 
1678	 2.29108744237024E-02 
1679	 2.31475454321245E-02 
1680	 2.27169021959974E-02 
1681	 2.10281360856176E-02 
1682	 1.92496315382387E-02 
1683	 1.86138033756325E-02 
1684	 2.10778412860392E-02 
1685	 2.41192108853253E-02 
1686	 0.02568476341058 
1687	 2.78603002890096E-02 
1688	 2.73655324656696E-02 
1689	 2.61601921743833E-02 
1690	 2.62916617205691E-02 
1691	 2.47711098384837E-02 
1692	 2.38999812355823E-02 
1693	 2.52869772936329E-02 
1694	 2.60910051872718E-02 
1695	 2.63191216915258E-02 
1696	 2.79749995540525E-02 
1697	 2.73443857483863E-02 
1698	 0.025036392506552 
1699	 2.31527622032482E-02 
1700	 2.13180204206566E-02 
1701	 2.22673579887332E-02 
1702	 0.022581067560573 
1703	 2.22006191461144E-02 
1704	 2.29470053135026E-02 
1705	 2.14049902087352E-02 
1706	 2.12768828336417E-02 
1707	 2.32475099934737E-02 
1708	 2.20486186620349E-02 
1709	 1.87368168009282E-02 
1710	 0.015690942041342 
1711	 1.57803196996719E-02 
1712	 1.91946056845937E-02 
1713	 2.31294709393086E-02 
1714	 2.63982457861458E-02 
1715	 2.84119653020568E-02 
1716	 2.64172128499416E-02 
1717	 2.96375201161219E-02 
1718	 2.82980241805706E-02 
1719	 2.55281569711834E-02 
1720	 2.89477079544799E-02 
1721	 2.82078671944815E-02 
1722	 2.64994264226722E-02 
1723	 2.83917372319732E-02 
1724	 2.70574085744217E-02 
1725	 2.75121022688684E-02 
1726	 2.68436270366475E-02 
1727	 2.27393913478661E-02 
1728	 0.025042756441447 
1729	 2.56477357259222E-02 
1730	 2.25739678304642E-02 
1731	 2.46750631258685E-02 
1732	 2.58596416867215E-02 
1733	 2.24031357858356E-02 
1734	 2.37671396448765E-02 
1735	 2.88668141973113E-02 
1736	 0.027649185191147 
1737	 2.68014406599499E-02 
1738	 2.68978491113392E-02 
1739	 2.10482789624425E-02 
1740	 0.01880579805806 
1741	 2.14076435993877E-02 
1742	 2.36709723841285E-02 
1743	 2.51933332235019E-02 
1744	 2.28444209331351E-02 
1745	 2.28065871494055E-02 
1746	 2.79486350335851E-02 
1747	 2.76158150268642E-02 
1748	 2.63237125246574E-02 
1749	 2.44565982963731E-02 
1750	 1.39243414023174E-02 
1751	 0.014263095460783 
1752	 2.68362197641168E-02 
1753	 2.82319725251284E-02 
1754	 2.68760770423004E-02 
1755	 0.029115228136608 
1756	 2.63955900534244E-02 
1757	 2.98553320326826E-02 
1758	 3.27698048131454E-02 
1759	 3.06471621948958E-02 
1760	 3.17291425622811E-02 
1761	 3.44160550560395E-02 
1762	 3.57075857339643E-02 
1763	 3.07550010349343E-02 
1764	 1.90309822273506E-02 
1765	 1.08926018109585E-02 
1766	 7.93873640718501E-03 
1767	 1.45300866745557E-02 
1768	 2.74939520840428E-02 
1769	 2.73204599966799E-02 
1770	 2.19167524772443E-02 
1771	 1.88002997624138E-02 
1772	 1.74049730629053E-02 
1773	 0.027925894392975 
1774	 3.49268075259973E-02 
1775	 2.47474447186214E-02 
1776	 2.41284533961306E-02 
1777	 2.83092785356612E-02 
1778	 0.029601254826555 
1779	 3.78286305797663E-02 
1780	 3.57934672825741E-02 
1781	 1.55323544795109E-02 
1782	 1.45660484450573E-02 
1783	 2.17251001500691E-02 
1784	 0.030117135695485 
1785	 6.67913062302317E-02 
1786	 5.29458997473983E-02 
1787	-5.9314768198282E-03 
1788	-1.64974483280761E-02 
1789	-3.97213044237533E-02 
1790	-1.72129662547392E-02 
1791	 3.04176922286404E-02 
1792	 3.70092671758009E-02 
1793	 2.78876559095608E-02 
1794	 2.93127607001555E-02 
1795	 3.55242498342355E-02 
1796	 8.85284616715391E-02 
1797	 0.132993169433284 
1798	 6.70772369480648E-02 
1799	 0.024685700913008 
1800	-6.60148450580344E-02 
1801	-0.083426240382113 
1802	 0.190182697377183 
1803	 0.206959563643973 
1804	-7.23588112273613E-02 
1805	-0.152415431281284 
1806	-0.301743464868424 
1807	-0.405982689063912 
1808	-8.92200504884962E-02 
1809	 4.53984147117567E-03 
1810	-0.162171594027848 
1811	-5.46398849801332E-02 
1812	 0.485119625776356 
1813	 0.566417047695899 
1814	 0.532846782016176 
1815	 0.184804937790988 
1816	-0.364576322847834 
1817	-0.243542133725715 
1818	-0.421766878746438 
1819	-9.96913114488264E-02 
1820	 0.106652105862222 
1821	-0.53642184477428 
1822	-0.958298625660908 
1823	-0.141842765617289 
1824	 0.625130778358669 
1825	 1.21525093913609 
1826	 1.07885195027909 
1827	 0.989075279369826 
1828	 0.882291449538388 
1829	-0.385335324275059 
1830	-0.587402273385944 
1831	 1.90527609477605 
1832	 4.2374261074376 
1833	 3.86048469848608 
1834	 7.24084126354275 
1835	-11.3124817737951 
1836	-4.67147700877581 
1837	-1.6883757647437 
1838	-1.22785325866737 
1839	-0.923154085751973 
1840	-13.5139483468847 
1841	 1.30066299852518 
1842	 1.08114714213839 
1843	 0.996696095613768 
1844	 2.65592705898413 
1845	 3.27573540568686 
1846	 0.607911941019467 
1847	 2.02208817351809 
1848	-3.51916026371675 
1849	-3.12282380305234 
1850	-13.5507421193837 
1851	-26.8958560171809 
1852	-6.03519623000214 
1853	-3.04743619006335 
1854	-1.90436370561621 
1855	-0.273240476109435 
1856	 0.036950066338283 
1857	-0.125145470138961 
1858	-2.54925893271837E-02 
1859	 0.12812840249773 
1860	 0.259474517976961 
1861	 0.25642360323676 
1862	 0.283970048551604 
1863	 0.525068479228991 
1864	-7.55821389226695E-02 
1865	-1.62535423107584 
1866	-1.29164870972037 
1867	-2.17548157271905 
1868	-1.68231190476299 
1869	 1.64694601747197 
1870	 2.76280725471668 
1871	-0.936448102572106 
1872	-1.6081781766582 
1873	-1.12575788075941 
1874	-0.958349081792664 
1875	-0.644772134817714 
1876	-0.430274776200084 
1877	-0.140459091058569 
1878	 0.094560065485191 
1879	 0.403629731063942 
1880	 0.521217640097893 
1881	 0.353187172841345 
1882	 0.153202843456985 
1883	-0.232633070699199 
1884	-0.968332697926046 
1885	-2.70905954895774 
1886	-32.1875769285254 
1887	 1.06898225081456 
1888	 2.83584564463871 
1889	 1.48441360107669 
1890	 0.581504061057658 
1891	 0.501698551934557 
1892	 0.125144379499309 
1893	-0.443837574696269 
1894	-0.34694039575233 
1895	 3.57592293066348 
1896	 4.37158717495644 
1897	 1.87376705226887 
1898	 1.38749226222633 
1899	 1.63585783591967 
1900	 2.27345116368689 
1901	 0.936180631954706 
1902	 1.40532891628984 
1903	 1.75766694396704 
1904	 4.39100442523308 
1905	-0.61908003849642 
1906	-6.33514814263056E-02 
1907	 8.49299408298873E-02 
1908	 0.6231676176103 
1909	 0.624551264511556 
1910	-0.891468735588094 
1911	 2.37709141235722 
1912	-2.94741157535219 
1913	-26.2903279269794 
1914	 1.53835235862011 
1915	 1.51874485622484 
1916	 3.37673506699868 
1917	 3.74271117433598 
1918	 3.19896088641061 
1919	-2.30409429361911 
1920	-1.47402729142927 
1921	-2.11078267708899 
1922	-1.52937938686594 
1923	-0.704075801796055 
1924	 0.175008891218934 
1925	 0.396413792185155 
1926	 0.360836855548308 
1927	-0.318562909709895 
1928	-0.95299953410844 
1929	-2.60944800277699 
1930	 0.406831255526766 
1931	 2.28746247873296E-02 
1932	 0.109174350170131 
1933	 1.50544629363557 
1934	 2.79960012068366 
1935	 6.57906385350195 
1936	 12.1644325140661 
1937	 0.669812085483258 
1938	-0.39576401813483 
1939	-0.685813049042265 
1940	-0.771859595433439 
1941	-0.721424340458319 
1942	-0.539262045544465 
1943	-0.555553011435422 
1944	-0.685765044063759 
1945	-0.896747858097761 
1946	-1.14130331385913 
1947	 2.53364178374866 
1948	 0.532867169162891 
1949	 0.590932480721307 
1950	 1.3626014323839 
1951	 1.56548719267344 
1952	 2.19718411906868 
1953	 10.0433515938881 
1954	-6.82059344018514 
1955	-5.31731277554025 
1956	-1.54367157733719 
1957	-1.04995521344084 
1958	-0.59302648580017 
1959	 0.437834703753586 
1960	 5.86822066009306E-02 
1961	-0.23440945483896 
1962	-0.256544754884655 
1963	-0.405158332990916 
1964	-0.756292314608452 
1965	-0.12187400596406 
1966	 0.176570194910821 
1967	 0.363608725970295 
1968	 9.87308462308161E-03 
1969	 0.250866773400102 
1970	-7.5650685899675E-03 
1971	-0.184177575113068 
1972	 3.86973848174834E-02 
1973	 1.10169966221662E-02 
1974	-0.107875031787655 
1975	-3.22290065900179E-02 
1976	-5.29187403827708E-02 
1977	-0.154928809086961 
1978	-0.109346083086571 
1979	-0.085496451792767 
1980	-6.20468675278543E-02 
1981	-9.41137459355879E-02 
1982	-0.050727732369082 
1983	 8.12648552721278E-03 
1984	 5.09826348792073E-02 
1985	-4.54782989412775E-02 
1986	-9.26050065861095E-02 
1987	-0.156825095377141 
1988	-0.364559895450872 
1989	-0.506083088674821 
1990	-0.430771857625404 
1991	-0.21919441142516 
1992	 2.31153901818816E-02 
1993	 0.188332317254489 
1994	 0.262406442998615 
1995	 0.268915466695951 
1996	 0.138176555074401 
1997	 1.54226553220423E-02 
1998	 5.34644765328339E-02 
1999	 0.202193219476519 
2000	 0.328842128548574 
2001	 2.78251438441954E-02 
2002	-8.28651270544691E-02 
2003	-0.15472123432626 
2004	-0.259374158521905 
2005	-2.54005143286972E-02 
2006	 0.186975735968133 
2007	 0.259393966555582 
2008	 0.275122050979486 
2009	 0.191206583424078 
2010	-0.610677230777787 
2011	-0.942014781562716 
2012	-1.25344047005693 
2013	-0.434787051252876 
2014	-0.216033572338774 
2015	-9.17466324068921E-02 
2016	-7.20097142307721E-02 
2017	-8.83669468704119E-02 
2018	-0.100298345544359 
2019	-8.42344805916774E-02 
2020	-3.80532981023552E-02 
2021	 4.64283719185244E-02 
2022	 0.113372982883218 
2023	 0.13261161177627 
2024	 0.131402112179371 
2025	 9.59335518952908E-02 
2026	 7.41713070882713E-02 
2027	 5.40086420782272E-02 
2028	 2.90884233136771E-02 
2029	 1.61316039098134E-02 
2030	 2.63781776888054E-02 
2031	 2.44107266965625E-02 
2032	 3.12119322092981E-02 
2033	 3.43926658490548E-02 
2034	-1.10270651032331E-02 
2035	-4.57254081197028E-02 
2036	-0.062858319153404 
2037	-7.74217251018462E-02 
2038	-6.26549838892758E-02 
2039	-4.23217228940134E-02 
2040	 6.54549709472796E-03 
2041	 1.55953123371935E-02 
2042	 8.7038253905892E-03 
2043	 2.00549321422384E-02 
2044	 2.86233821303402E-02 
2045	 1.96928294766916E-02 
2046	 2.21393949546507E-02 
2047	 3.30585136129626E-02 
2048	 2.30981950396205E-02 
2049	 0.046989182598839 
2050	 9.47004047826659E-02 
2051	 0.114476215384983 
2052	 8.16947306512341E-02 
2053	 7.05509819436724E-03 
2054	-3.08962239689048E-02 
2055	-5.86904000606715E-02 
2056	-5.73348930691748E-02 
2057	 1.71668537488926E-02 
2058	 3.45388755459037E-02 
2059	 5.71600221070571E-02 
2060	 4.55550017076473E-02 
2061	-1.68414682107645E-03 
2062	-5.72046396263206E-02 
2063	-0.072995600057399 
2064	-7.72244070831622E-02 
2065	-8.05415417061221E-02 
2066	-4.64195500122969E-02 
2067	-7.19074209156958E-03 
2068	 3.63374280771568E-02 
2069	 7.37264483698205E-02 
2070	 8.22338061886453E-02 
2071	 0.077125857697804 
2072	 5.55867120983132E-02 
2073	 3.65552789086173E-02 
2074	 1.05037643589787E-02 
2075	 5.52521101022715E-03 
2076	 5.79812295852049E-03 
2077	-3.32285626482174E-03 
2078	 1.27432150053535E-03 
2079	-1.83888003562739E-03 
2080	-2.03679472514022E-02 
2081	-2.66632295204341E-02 
2082	-1.51932232588823E-02 
2083	-9.30592506896232E-03 
2084	-1.93759480084819E-03 
2085	 5.31902816967718E-03 
2086	 0.028621114834832 
2087	 4.53408743899935E-02 
2088	 5.21719257487058E-02 
2089	 7.49600403470188E-02 
2090	 6.32673275084383E-02 
2091	 3.32937481448072E-02 
2092	 2.24748538610232E-02 
2093	 1.38335870552855E-02 
2094	 0.016949726721802 
2095	 3.71683363589704E-02 
2096	 3.99099192406621E-02 
2097	 0.050978359938818 
2098	 4.14693631774665E-02 
2099	 5.9752113476611E-03 
2100	-9.99448923070759E-03 
2101	-2.62646295679988E-02 
2102	-3.40904215987782E-02 
2103	-1.67483188738966E-02 
2104	-5.17708335375545E-03 
2105	 5.66453637833795E-04 
2106	 4.58220265806431E-03 
2107	 6.89398782621282E-03 
2108	 1.20982280452645E-02 
2109	 1.64891221765708E-02 
2110	 2.12931802301236E-02 
2111	 2.37417271468012E-02 
2112	 2.10838338151135E-02 
2113	 2.37327397937334E-02 
2114	 4.01390141737731E-02 
2115	 3.94056410154347E-02 
2116	 2.79740258420826E-02 
2117	 0.0242563731373 
2118	 9.81513533801744E-03 
2119	 1.37255397264096E-02 
2120	 3.25289485891696E-02 
2121	 4.81951098163603E-02 
2122	 5.23145985093818E-02 
2123	 4.86597816231892E-02 
2124	 0.041765351600065 
2125	 1.91650595065418E-02 
2126	 1.30826793211014E-02 
2127	 1.58126460754401E-02 
2128	 5.54533828429516E-03 
2129	 1.22405556322459E-02 
2130	 1.59760133752422E-02 
2131	 6.11195484938575E-03 
2132	-5.50136273722324E-03 
2133	-1.98220788075231E-02 
2134	-1.70145483645864E-02 
2135	-6.87674721451498E-04 
2136	 2.68211536200644E-03 
2137	 1.34878184591122E-02 
2138	 1.64201328682963E-02 
2139	 5.81687852513155E-03 
2140	 1.71984911566167E-03 
2141	 4.68747785883427E-03 
2142	 5.58523566057145E-03 
2143	 4.07460509266357E-03 
2144	-7.34537774847197E-03 
2145	 6.94353566769203E-03 
2146	 0.011043678096233 
2147	 1.33998262706297E-02 
2148	 1.74750510757007E-02 
2149	 0.016993416117515 
2150	 2.55481269990236E-02 
2151	 2.19195110205443E-02 
2152	 2.38396248410733E-02 
2153	 1.26343223566052E-02 
2154	-7.95719975704082E-03 
2155	 1.04231113752862E-02 
2156	 2.26652860356677E-02 
2157	 2.05243323352782E-02 
2158	 1.66829751799551E-02 
2159	 1.76918923912302E-02 
2160	-2.11500691652842E-03 
2161	 6.73618913219271E-04 
2162	 3.21896034293193E-02 
2163	 0.04357379544394 
2164	 5.56606808105624E-02 
2165	 5.47818585293477E-02 
2166	 0.031863044182216 
2167	 2.71219459257115E-02 
2168	 2.07813569152766E-02 
2169	 2.44140744994516E-02 
2170	 4.57371921466251E-02 
2171	 5.74990463900738E-02 
2172	 0.080576910963768 
2173	 7.59958489701739E-02 
2174	 6.15870048745628E-02 
2175	 0.063238876367022 
2176	 4.65919571261457E-02 
2177	 3.19621035848413E-02 
2178	 1.93638020170061E-02 
2179	 1.14121404914627E-02 
2180	 2.21564874332314E-02 
2181	 1.95640921989851E-02 
2182	 0.026916700748379 
2183	 3.64621853824048E-02 
2184	 5.56163061520533E-03 
2185	-2.01041453065032E-03 
2186	-7.85437260438589E-03 
2187	-1.57682265324393E-02 
2188	-2.10256998043647E-02 
2189	-1.04531567024793E-02 
2190	-1.61529396055499E-02 
2191	-3.55409962823619E-02 
2192	-0.036426496956883 
2193	-3.43932923096631E-02 
2194	-2.89347099512994E-02 
2195	-6.13111334281198E-03 
2196	 3.27571211158117E-03 
2197	 5.10678152277606E-03 
2198	 7.5457267980003E-03 
2199	-5.14114072115422E-03 
2200	 1.21435442253279E-02 
2201	 0.031888737047578 
2202	 4.00748384280923E-02 
2203	 3.54782235333572E-02 
2204	 2.28050789023077E-02 
2205	 3.25069244548472E-02 
2206	 3.36060912858841E-02 
2207	 3.20631443363606E-02 
2208	 3.87309454585911E-02 
2209	 2.70249973669168E-02 
2210	 8.41089552341133E-03 
2211	 1.03521889669109E-02 
2212	 2.53885443277369E-02 
2213	 3.85023134020354E-03 
2214	-4.93579467993024E-03 
2215	 2.14629514734073E-02 
2216	 2.93674686139454E-02 
2217	 4.40624314576344E-02 
2218	 9.06120371732865E-02 
2219	 0.096718144241056 
2220	 7.43262451785411E-02 
2221	 0.066554837751415 
2222	 4.41257832253587E-02 
2223	 2.77336559689939E-02 
2224	 2.31615311361213E-02 
2225	 1.98046092045085E-02 
2226	 1.66723557374872E-02 
2227	 0.01833948756928 
2228	 0.015869690762558 
2229	 1.83608259647424E-02 
2230	 3.17495744137377E-02 
2231	 3.19101642466929E-02 
2232	 4.37636350464887E-02 
2233	 4.12251438213738E-02 
2234	 1.76532998139106E-02 
2235	-5.79984163286636E-03 
2236	-0.01195527384222 
2237	-2.80095207822988E-02 
2238	-2.92400281404212E-02 
2239	-0.017144016900216 
2240	-1.38534172310166E-02 
2241	-2.18203137976328E-03 
2242	 5.33787550239902E-03 
2243	 2.06693018959076E-02 
2244	 4.33642261471563E-02 
2245	 4.47304330614826E-02 
2246	 3.96386855132089E-02 
2247	 0.043656317828243 
2248	 5.30912812184945E-02 
2249	 7.00918017774411E-02 
2250	 8.48381171558041E-02 
2251	 6.56447296661272E-02 
2252	 2.77697263967853E-02 
2253	 2.51033028972649E-03 
2254	 1.26422291988749E-02 
2255	 2.35432436753682E-02 
2256	 2.46947299054726E-02 
2257	 4.04510875530089E-02 
2258	 2.62783671942318E-02 
2259	 1.65162417863446E-02 
2260	 1.57112098051712E-02 
2261	 2.68552598484383E-02 
2262	 2.80306301913398E-02 
2263	 0.021952713226321 
2264	 3.60464867045629E-02 
2265	 6.59565522981576E-02 
2266	 7.38812655761035E-02 
2267	 9.46553796555108E-02 
2268	 0.095108326443692 
2269	 6.23050105181696E-02 
2270	 0.042468110862957 
2271	 2.54085951868497E-02 
2272	 1.66634951134046E-03 
2273	-3.87559239265812E-02 
2274	-4.94173294966696E-02 
2275	-4.82901461133549E-02 
2276	-4.09212042769452E-02 
2277	-1.67059517194198E-02 
2278	-5.55037599824538E-03 
2279	 5.30383683360955E-03 
2280	 2.22253952146824E-02 
2281	 4.67275285086788E-02 
2282	 6.43783367020682E-02 
2283	 6.59883420295852E-02 
2284	 6.20322242882008E-02 
2285	 4.54267310143595E-02 
2286	 6.59481510961257E-02 
2287	 0.112209154865918 
2288	 0.13240052076039 
2289	 9.61761130403198E-02 
2290	 2.95206564487304E-02 
2291	-1.65822515018844E-02 
2292	-0.041698381048982 
2293	-4.43240235685317E-02 
2294	-1.33880785504388E-02 
2295	-1.99041521806257E-02 
2296	-2.95045907009135E-02 
2297	-1.86415316064579E-02 
2298	-2.86382522319183E-02 
2299	-3.31167610915086E-02 
2300	-9.42737941128479E-02 
2301	-0.166491705706832 
2302	-0.217991694778947 
2303	-0.265759647034114 
2304	-0.24146501417984 
2305	-0.11148754834145 
2306	-1.36853074017704E-02 
2307	-8.27700327282485E-03 
2308	 1.44596443119543E-02 
2309	 1.89702025966138E-02 
2310	-2.7182464936844E-03 
2311	-2.62781147002144E-03 
2312	-3.49766158157577E-02 
2313	-8.17133171329565E-02 
2314	-0.148648918067614 
2315	-0.188889741604568 
2316	-9.64634261655804E-02 
2317	-6.02180581128559E-02 
2318	-5.64870291344488E-02 
2319	 3.10517480264142E-02 
2320	 5.40566819875874E-02 
2321	-2.24227742010007E-02 
2322	-0.095372386719922 
2323	-0.231422515277806 
2324	-0.367876320322121 
2325	-0.433473598081977 
2326	-0.313347297825214 
2327	-7.87544228332285E-02 
2328	-1.32476601409006E-02 
2329	-1.48503381135023E-02 
2330	-5.07894075051857E-02 
2331	-5.53934773226783E-02 
2332	-5.81405627296866E-02 
2333	-4.10988172794501E-02 
2334	-3.90891462948611E-03 
2335	-5.23265418398155E-02 
2336	-3.37014893832759E-02 
2337	 0.036748532137684 
2338	-0.013347918628272 
2339	-0.110880613038204 
2340	-0.224235367780815 
2341	-0.401674858171174 
2342	-0.542616443739099 
2343	-0.595944348532615 
2344	-0.698462941974321 
2345	-0.533017711539739 
2346	-0.330734836906737 
2347	-0.346055810463447 
2348	-0.122968541671886 
2349	 7.03029617206466E-02 
2350	 2.35538054151413E-02 
2351	 9.47090869810439E-02 
2352	 4.41386169005735E-02 
2353	-0.165663923057918 
2354	-0.217856510472964 
2355	-0.261069308298071 
2356	-0.383759763896428 
2357	-0.369621540436662 
2358	-0.341132495188422 
2359	-0.181744992338132 
2360	 5.52523482690593E-02 
2361	 0.16453433981083 
2362	 0.136756277744906 
2363	-0.160683759348272 
2364	-0.513549136409218 
2365	-0.580495687239289 
2366	-0.659173020085902 
2367	-0.722259375362767 
2368	-0.488396536142534 
2369	-0.408818193976431 
2370	-0.317093186616337 
2371	-0.136634535608745 
2372	-9.22470389764723E-02 
2373	-8.83959311958072E-02 
2374	-0.127964732397181 
2375	-0.1172120211803 
2376	 0.103535075328818 
2377	 0.53106383290322 
2378	 0.276704512763303 
2379	-0.162364349015411 
2380	-0.386101594440035 
2381	-0.449184047565174 
2382	-0.915834022339539 
2383	-1.93724496113422 
2384	-2.62089282018886 
2385	-11.8742182139098 
2386	 5.76178932415299 
2387	 3.71761355521634 
2388	 5.70580834546317 
2389	 11.5951051258582 
2390	 8.2857476064434 
2391	 2.1766375602349 
2392	 1.73074527496189 
2393	-206.007452663136 
2394	 2.10203442136437 
2395	-111.955300520989 
2396	-1.56073805131555 
2397	-0.659344723448747 
2398	 0.936494226384815 
2399	-2.25011180660755 
2400	 8.62486305150377 
2401	-4.89472836888081 
2402	-0.60788872141241 
2403	-0.581890801294901 
2404	-2.62912657368975 
2405	-1.5952182327192 
2406	-5.41047278913868 
2407	 1.60276003186591 
2408	 0.517635170804628 
2409	-0.198261397043536 
2410	-0.31192733078495 
2411	 0.576839310961927 
2412	 1.79788120107239 
2413	 2.78411393855211 
2414	 1.88703908798191 
2415	 2.75577810777791 
2416	-9.48508131991486 
2417	-4.79023687485228 
2418	-2.80413300520349 
2419	-3.28406244811419 
2420	-2.5404481776946 
2421	-1.81678717370552 
2422	-2.8221781560833 
2423	-8.6910312994249 
2424	 3.4600144253218 
2425	 1.20077017857469 
2426	-4.33129433449553 
2427	 0.102369369070273 
2428	 2.61536593140811 
2429	 4.89975266805516 
2430	-9.23575030716979 
2431	 1.59529768671161 
2432	 3.66782643947139E-02 
2433	-1.12622326828704 
2434	-1.03652017651604 
2435	-0.175634653183623 
2436	 4.50519703346485E-02 
2437	-5.65499303788317E-02 
2438	-1.63982161831851 
2439	 0.755823155652018 
2440	 0.668469925553425 
2441	 1.06121189396536 
2442	 3.00955221567202 
2443	 0.779342710149583 
2444	 1.48708064468075 
2445	 4.51521172941385 
2446	-2.94380404708054 
2447	-3.61948466482786 
2448	 3.28674809043888 
2449	 1.64268641507828 
2450	 1.10991258304311 
2451	 0.598106164180996 
2452	-2.23866203183128 
2453	 2.37186544789335 
2454	 0.804210183379064 
2455	 0.372437196466651 
2456	 0.517308802082512 
2457	 0.714137076500255 
2458	 0.80773203827258 
2459	 0.975069912790493 
2460	 1.22291320709513 
2461	 0.831415036340634 
2462	 0.408022323081467 
2463	 0.625851616657096 
2464	 0.80172765926707 
2465	 0.146794113629059 
2466	-0.62736034782301 
2467	-0.88702622616761 
2468	-1.98201790303344 
2469	 25.5674506204953 
2470	 7.78354138836296E-02 
2471	-0.143083875509889 
2472	 4.45829584071826E-02 
2473	 0.052507243800934 
2474	 1.57058772754843E-02 
2475	 0.422713514826328 
2476	 7.89424647278096E-02 
2477	-0.100485701523607 
2478	-0.408418430670736 
2479	-0.439970695093867 
2480	-0.415911127040814 
2481	-0.4183338453067 
2482	 0.305958783077596 
2483	 0.316745097364671 
2484	 0.303082397129298 
2485	 6.15416839295983 
2486	-3.21043149031581 
2487	-18.3290941630391 
2488	-4.82154285713557 
2489	-12.468751375727 
2490	-15.6475491056128 
2491	-12.4049365338821 
2492	 2.40512909582627 
2493	 1.51656377110463 
2494	 1.65552720433113 
2495	-1.15243229967051 
2496	 1.02455392166318 
2497	 0.711620628941845 
2498	 0.345147642867873 
2499	 0.250502377771921 
2500	-0.604957746795379 
