Wavelength	rt0712west_close200001.asd
350	 7.40499507876105E-02 
351	 7.44302605758831E-02 
352	 7.43412596970036E-02 
353	 7.44274692136541E-02 
354	 7.47954187875646E-02 
355	 7.39369955412453E-02 
356	 7.47983388327393E-02 
357	 7.55080859744383E-02 
358	 7.39693760530806E-02 
359	 7.38764773671748E-02 
360	 7.40974645894342E-02 
361	 7.44906354404376E-02 
362	 7.54793638320221E-02 
363	 7.48273776546845E-02 
364	 7.47248479069574E-02 
365	 7.57184448153078E-02 
366	 7.50535735656585E-02 
367	 0.07498934183575 
368	 7.50191560498603E-02 
369	 7.46032509642772E-02 
370	 7.59120425467485E-02 
371	 0.075643003971604 
372	 7.44893842769325E-02 
373	 7.52321644504294E-02 
374	 7.60380122858162E-02 
375	 7.62370826790049E-02 
376	 7.59849931164874E-02 
377	 7.63751521542834E-02 
378	 7.69294755888187E-02 
379	 0.077096507757393 
380	 7.67663537112343E-02 
381	 7.71928055525582E-02 
382	 0.07790438185966 
383	 0.078313324097465 
384	 7.80034330863866E-02 
385	 7.81061054890183E-02 
386	 7.83153074662357E-02 
387	 7.83751735408807E-02 
388	 7.82560923817959E-02 
389	 7.86735517819701E-02 
390	 7.96366944322113E-02 
391	 8.05766437015932E-02 
392	 7.98360541490189E-02 
393	 7.99772503132185E-02 
394	 8.03690673894552E-02 
395	 7.97452736152995E-02 
396	 8.04647802539809E-02 
397	 8.08575983913556E-02 
398	 8.07673390618732E-02 
399	 8.14264294306013E-02 
400	 8.11375845724957E-02 
401	 8.06768613025944E-02 
402	 0.080846012506892 
403	 0.081804850203163 
404	 8.19440220300175E-02 
405	 0.081639887431557 
406	 0.0818505743619 
407	 8.19992655679437E-02 
408	 8.20576710787267E-02 
409	 8.22820090513699E-02 
410	 8.30958927689799E-02 
411	 8.29356063403731E-02 
412	 8.28191772416119E-02 
413	 8.34956861346023E-02 
414	 8.40013267514234E-02 
415	 8.39290644757945E-02 
416	 8.38068091580352E-02 
417	 0.084330886014172 
418	 0.084468462189873 
419	 8.46291466888047E-02 
420	 8.50545305631338E-02 
421	 0.085679436044761 
422	 8.59179679721117E-02 
423	 8.60297265685861E-02 
424	 0.086316281882867 
425	 8.66334923841149E-02 
426	 8.71885947330954E-02 
427	 8.78153945996284E-02 
428	 8.81995613953166E-02 
429	 8.83426001846937E-02 
430	 8.88846446422721E-02 
431	 8.96422026580487E-02 
432	 8.94408342819954E-02 
433	 8.97427297143067E-02 
434	 9.03579048155711E-02 
435	 9.08342989509327E-02 
436	 9.10823799685299E-02 
437	 9.15594160207559E-02 
438	 9.21763809124899E-02 
439	 9.25612787494723E-02 
440	 9.28150427493426E-02 
441	 9.31721728834459E-02 
442	 9.37017618544353E-02 
443	 9.42252220618471E-02 
444	 9.43651455944551E-02 
445	 9.46192524098011E-02 
446	 0.095375587570107 
447	 9.56352771081031E-02 
448	 9.56263990140542E-02 
449	 9.57985468034979E-02 
450	 9.66189148610349E-02 
451	 9.68567766087047E-02 
452	 9.69380769720818E-02 
453	 9.71974727173989E-02 
454	 9.72367322018077E-02 
455	 0.097560409074648 
456	 0.098003844921735 
457	 9.82553098800286E-02 
458	 9.86995786957676E-02 
459	 9.87355715639612E-02 
460	 9.84438487557828E-02 
461	 9.86099720171364E-02 
462	 9.89954148311396E-02 
463	 9.93480214962112E-02 
464	 9.94947232935369E-02 
465	 9.94647277120348E-02 
466	 9.97388881266788E-02 
467	 0.100029686147994 
468	 9.98339261759477E-02 
469	 0.100225308282934 
470	 0.100624550224659 
471	 0.100661589703384 
472	 0.100452435451082 
473	 0.100664060644073 
474	 0.101259255324897 
475	 0.101870502250681 
476	 0.101741189355779 
477	 0.101860486724359 
478	 0.102393947951917 
479	 0.102884279461781 
480	 0.102908950356102 
481	 0.102855345628909 
482	 0.103127994119921 
483	 0.103991435702649 
484	 0.104387218492592 
485	 0.104530246586079 
486	 0.105008342000867 
487	 0.105503442872112 
488	 0.105809907339129 
489	 0.106019175971253 
490	 0.106482695237221 
491	 0.107027104710726 
492	 0.107469543412156 
493	 0.107816113667574 
494	 0.108678697659137 
495	 0.108867651974796 
496	 0.108919319178128 
497	 0.110003775697382 
498	 0.11049477566236 
499	 0.110650469436172 
500	 0.110858452038846 
501	 0.111382248397833 
502	 0.112144747123352 
503	 0.112672411604122 
504	 0.112741979676532 
505	 0.11359037891893 
506	 0.114498347593801 
507	 0.115081938830505 
508	 0.115343871175581 
509	 0.116218025819801 
510	 0.117108575048175 
511	 0.117598463106121 
512	 0.118233067703923 
513	 0.119092324749787 
514	 0.119892445466954 
515	 0.12029778123278 
516	 0.121006571951314 
517	 0.121932521006664 
518	 0.122870253454083 
519	 0.12357731103388 
520	 0.123981967090194 
521	 0.124519705426418 
522	 0.125496749615209 
523	 0.126378057653022 
524	 0.127262638764708 
525	 0.128076585955579 
526	 0.128682877108633 
527	 0.129665532297743 
528	 0.13054964738536 
529	 0.131157134785756 
530	 0.132233051233741 
531	 0.132997893590942 
532	 0.133713122809978 
533	 0.134862337941001 
534	 0.135815980724551 
535	 0.136733909607938 
536	 0.137676755668342 
537	 0.138529872965625 
538	 0.139374570152199 
539	 0.140213266089785 
540	 0.141060559897476 
541	 0.142045121643851 
542	 0.142985708916431 
543	 0.143916028107482 
544	 0.144991182306812 
545	 0.146021326814279 
546	 0.147157463362593 
547	 0.148391310673958 
548	 0.149334378664178 
549	 0.150275291720131 
550	 0.151331425645602 
551	 0.152517252817452 
552	 0.153640926672456 
553	 0.154624446664707 
554	 0.15549471687559 
555	 0.156376092508691 
556	 0.157142557148122 
557	 0.158116761480211 
558	 0.159389192763254 
559	 0.159976386458361 
560	 0.160680980476581 
561	 0.161633403653452 
562	 0.162530332107596 
563	 0.163280181193678 
564	 0.16402629845636 
565	 0.164763482025369 
566	 0.165083824616033 
567	 0.165696446974527 
568	 0.166346587052938 
569	 0.166593926377462 
570	 0.167298929078246 
571	 0.168040192053048 
572	 0.168553152214874 
573	 0.16883846624492 
574	 0.169631767130499 
575	 0.170400066569548 
576	 0.170675859434126 
577	 0.171206380490851 
578	 0.171809050784705 
579	 0.172405042645824 
580	 0.172941506977207 
581	 0.173031145271428 
582	 0.173273667681352 
583	 0.17378500667427 
584	 0.173575372780752 
585	 0.173284096562137 
586	 0.172698609224856 
587	 0.1714352449115 
588	 0.170317287157923 
589	 0.169624935606875 
590	 0.169524380441341 
591	 0.16994968184806 
592	 0.170208405365454 
593	 0.170226657704015 
594	 0.170078155044882 
595	 0.169793121525978 
596	 0.16983872505495 
597	 0.170060512726146 
598	 0.170024099923949 
599	 0.170067641051752 
600	 0.170148826249313 
601	 0.170159398696324 
602	 0.169940347631157 
603	 0.169696625757312 
604	 0.169677084022696 
605	 0.169999029849001 
606	 0.170093909695044 
607	 0.170097662276956 
608	 0.170001975905911 
609	 0.169651467549063 
610	 0.169935992699855 
611	 0.1702760184446 
612	 0.170146842125183 
613	 0.170131574982662 
614	 0.170241790988382 
615	 0.170317751198694 
616	 0.170159579705404 
617	 0.170314859538227 
618	 0.170290597017978 
619	 0.170018795666584 
620	 0.170324243766339 
621	 0.170119523503687 
622	 0.169842461361637 
623	 0.170100108493287 
624	 0.169736295612272 
625	 0.169207475510302 
626	 0.16881751981454 
627	 0.168665071148748 
628	 0.168661735519714 
629	 0.168673795627297 
630	 0.168671767675783 
631	 0.168943454258832 
632	 0.169016850918218 
633	 0.169020955983045 
634	 0.169293574220888 
635	 0.169361963274109 
636	 0.169585404886471 
637	 0.169959646487227 
638	 0.16987382642272 
639	 0.169629707007566 
640	 0.169536152783925 
641	 0.169721806375661 
642	 0.169585594676249 
643	 0.169330402825438 
644	 0.168800400301312 
645	 0.167563544164799 
646	 0.166621615046559 
647	 0.166497681622999 
648	 0.167050468999177 
649	 0.16703060940122 
650	 0.16733029292317 
651	 0.167636486257473 
652	 0.167332078333679 
653	 0.166913604978556 
654	 0.166429298032389 
655	 0.16596935853249 
656	 0.165754964922927 
657	 0.165622975417766 
658	 0.165415872083354 
659	 0.165120693662567 
660	 0.165130914760362 
661	 0.165071237212202 
662	 0.164778129007099 
663	 0.164282014056531 
664	 0.164116213688327 
665	 0.164139622434226 
666	 0.164135417247847 
667	 0.163911990074976 
668	 0.16380939645434 
669	 0.163866376594561 
670	 0.163948750502792 
671	 0.163602084910987 
672	 0.163533513637842 
673	 0.163716071618383 
674	 0.163447366222795 
675	 0.16363783889527 
676	 0.164019754604859 
677	 0.16422195634333 
678	 0.164163917867873 
679	 0.164247837078715 
680	 0.164356980978799 
681	 0.164229458654524 
682	 0.164475741367257 
683	 0.164621138395997 
684	 0.164352125400858 
685	 0.163606110951575 
686	 0.162815019595753 
687	 0.162432095429313 
688	 0.162649689649958 
689	 0.163152228650304 
690	 0.162841944855276 
691	 0.161713609475778 
692	 0.160483379973045 
693	 0.159754655481446 
694	 0.159970368571957 
695	 0.160732627812979 
696	 0.16104543905273 
697	 0.159964584592254 
698	 0.158156606681526 
699	 0.156978534461229 
700	 0.156470834806094 
701	 0.156388606712563 
702	 0.156196117656361 
703	 0.155331028457678 
704	 0.154437936009597 
705	 0.153544109982773 
706	 0.152625024592524 
707	 0.151599904647242 
708	 0.150422089706338 
709	 0.149313810839714 
710	 0.148427999003295 
711	 0.146757470853802 
712	 0.144918341459566 
713	 0.143007711374694 
714	 0.140406131037806 
715	 0.136826582629702 
716	 0.132188248174407 
717	 0.127773372788278 
718	 0.124910926387562 
719	 0.123572764621502 
720	 0.123043110500811 
721	 0.122397275739526 
722	 0.120482844308357 
723	 0.117321823689169 
724	 0.114007071640176 
725	 0.111777098385315 
726	 0.109608620494207 
727	 0.107113169555739 
728	 0.104299659294135 
729	 0.101909608836447 
730	 9.91602336294713E-02 
731	 9.68306443027604E-02 
732	 9.54225689153232E-02 
733	 0.094112464122685 
734	 9.22861489538577E-02 
735	 9.01203074723902E-02 
736	 8.88918152455442E-02 
737	 8.83232546277888E-02 
738	 8.78813228518914E-02 
739	 8.73443986785255E-02 
740	 8.74837059778819E-02 
741	 8.74209898867329E-02 
742	 8.72806903863296E-02 
743	 8.75526303392461E-02 
744	 8.75795693184166E-02 
745	 8.71349942072322E-02 
746	 8.66824281108263E-02 
747	 8.75045376335094E-02 
748	 8.76797608325066E-02 
749	 8.73631013714173E-02 
750	 8.71743027339741E-02 
751	 8.73973024424925E-02 
752	 8.74173275135083E-02 
753	 8.71845465025011E-02 
754	 8.69852643307492E-02 
755	 8.69897011975985E-02 
756	 8.67529336633995E-02 
757	 8.62379941705905E-02 
758	 8.60943486897185E-02 
759	 0.084674523231252 
760	 0.081543011301908 
761	 8.08473965816745E-02 
762	 8.20550453465767E-02 
763	 8.28192320320572E-02 
764	 8.38508144468505E-02 
765	 0.085855086571868 
766	 8.64157283907788E-02 
767	 0.086896880853193 
768	 8.75871688334574E-02 
769	 0.087957154199333 
770	 8.84603896414185E-02 
771	 8.87941597000468E-02 
772	 8.87924658695344E-02 
773	 8.90024845063169E-02 
774	 0.089413286139185 
775	 8.98006298451544E-02 
776	 8.99501528727618E-02 
777	 9.04014131996317E-02 
778	 9.06263987383899E-02 
779	 9.07542391200483E-02 
780	 9.15665922038477E-02 
781	 9.18616720545574E-02 
782	 9.21078591332714E-02 
783	 9.26830977215701E-02 
784	 9.30371635866518E-02 
785	 9.32900544458129E-02 
786	 0.09341839721766 
787	 9.34133375330999E-02 
788	 9.34791782178064E-02 
789	 9.41344078590823E-02 
790	 9.52067968905912E-02 
791	 9.60067380688691E-02 
792	 9.68305471977138E-02 
793	 9.74404795291537E-02 
794	 9.76166454148201E-02 
795	 9.71229564043389E-02 
796	 9.76335748104395E-02 
797	 9.86663641046218E-02 
798	 9.92735027198715E-02 
799	 9.92601474443833E-02 
800	 0.099336488042445 
801	 9.97453442755181E-02 
802	 0.100365387461499 
803	 0.10098959060808 
804	 0.101659867156758 
805	 0.10207705586321 
806	 0.10161106001711 
807	 0.101493147264371 
808	 0.100974514034778 
809	 9.96749549703213E-02 
810	 9.96502883723765E-02 
811	 9.89014785377019E-02 
812	 9.72385032269087E-02 
813	 9.55600544890377E-02 
814	 9.52619602355953E-02 
815	 9.42272094480823E-02 
816	 9.28349557202274E-02 
817	 9.33958905927213E-02 
818	 9.27643829811734E-02 
819	 9.26645568700063E-02 
820	 0.09297073840551 
821	 0.091073330033215 
822	 8.84964535918506E-02 
823	 8.64118616154187E-02 
824	 8.52560650380168E-02 
825	 8.42720979905939E-02 
826	 8.19980045894239E-02 
827	 7.92657579528118E-02 
828	 7.77916770795613E-02 
829	 7.58679026096024E-02 
830	 7.40464672886765E-02 
831	 7.22741047708053E-02 
832	 7.03201537423566E-02 
833	 0.069891392353455 
834	 6.98719409370616E-02 
835	 6.94611111207541E-02 
836	 6.86390599787631E-02 
837	 6.77335584902205E-02 
838	 6.73959737082489E-02 
839	 0.067748090491592 
840	 6.76362119464194E-02 
841	 6.70768866896495E-02 
842	 0.066690800623514 
843	 6.68592754344081E-02 
844	 6.57398371202612E-02 
845	 6.52796836364573E-02 
846	 6.56351973294739E-02 
847	 6.56602167424885E-02 
848	 0.064710356327267 
849	 6.37775655760909E-02 
850	 6.34378369600126E-02 
851	 6.33779377094769E-02 
852	 6.27794151024717E-02 
853	 6.25267770976038E-02 
854	 6.28455427626429E-02 
855	 6.18553311133387E-02 
856	 6.11850201368474E-02 
857	 6.11313844497246E-02 
858	 6.14149112130375E-02 
859	 6.12146315025419E-02 
860	 6.09062478781148E-02 
861	 6.06970188546394E-02 
862	 6.06004558472589E-02 
863	 5.99864622798955E-02 
864	 6.01890563688339E-02 
865	 6.04871712344116E-02 
866	 5.86927314128856E-02 
867	 5.85778112303554E-02 
868	 5.87506412240375E-02 
869	 5.82896169983765E-02 
870	 5.78418133393931E-02 
871	 5.73994928778462E-02 
872	 5.69502738897106E-02 
873	 5.65575664636887E-02 
874	 5.65070333437109E-02 
875	 5.61019377582641E-02 
876	 5.54481637657092E-02 
877	 5.48883824829942E-02 
878	 5.45860145471881E-02 
879	 5.41163648228128E-02 
880	 5.33948698825083E-02 
881	 5.26140224262536E-02 
882	 5.23079209616604E-02 
883	 5.21997096886066E-02 
884	 5.23066882185426E-02 
885	 5.26910151868441E-02 
886	 5.14125957484051E-02 
887	 5.11584527429632E-02 
888	 5.21023859685986E-02 
889	 0.051098372296926 
890	 5.00732174842927E-02 
891	 4.92624555278994E-02 
892	 0.048470629584725 
893	 0.047182451607313 
894	 4.81432899340175E-02 
895	 4.84387079367359E-02 
896	 4.52740022671069E-02 
897	 4.56047414334216E-02 
898	 4.63357973333926E-02 
899	 4.61723175683042E-02 
900	 4.52673753455062E-02 
901	 4.55169059272392E-02 
902	 4.43478141972195E-02 
903	 4.30245393884018E-02 
904	 4.38328429605829E-02 
905	 4.78391326634307E-02 
906	 4.61613710827629E-02 
907	 4.08101187600853E-02 
908	 4.22230557667325E-02 
909	 0.041297920932748 
910	 4.14493591700872E-02 
911	 4.28879742392594E-02 
912	 4.21708392039622E-02 
913	 4.19593684637165E-02 
914	 4.00102299639321E-02 
915	 0.037241547086202 
916	 3.79484973399144E-02 
917	 3.75585511498621E-02 
918	 3.95589783089376E-02 
919	 4.18613407580811E-02 
920	 0.035598535741292 
921	 3.72835843037503E-02 
922	 4.11994811395759E-02 
923	 4.07290318223028E-02 
924	 3.63522992559069E-02 
925	 3.42680995972938E-02 
926	 3.69034589119363E-02 
927	 0.041977155178642 
928	 0.033390541024442 
929	 4.32690857934621E-02 
930	 6.39626436284181E-02 
931	 5.41834927169045E-02 
932	 4.96306435732697E-02 
933	 0.046575620402278 
934	 3.31600416584469E-02 
935	 1.29813799327817E-02 
936	 4.45304880463576E-02 
937	 0.067676855917292 
938	 6.27238371023048E-02 
939	 3.82576414040639E-02 
940	 3.72932445274686E-02 
941	 4.22208708305295E-02 
942	 4.16463943534108E-02 
943	 3.12061217876974E-02 
944	 3.01657518130625E-02 
945	 1.89683122635214E-02 
946	 1.65950720563791E-02 
947	 4.34616290220659E-02 
948	 1.82201396928336E-02 
949	 2.31683571739472E-02 
950	 4.46228341954404E-02 
951	 2.40589099478666E-02 
952	 2.28906337608109E-02 
953	 3.30328441643996E-02 
954	 4.37855497865443E-02 
955	 0.049151357542195 
956	 5.88374555284132E-02 
957	 3.55014131629007E-02 
958	 2.10589625483508E-02 
959	 7.36347192464455E-02 
960	 5.10898203896231E-02 
961	 1.78159139016274E-02 
962	 2.19752170449205E-02 
963	 6.63903806438525E-02 
964	 4.95607136151609E-02 
965	 2.46646048285361E-02 
966	 2.26729878816231E-02 
967	 4.23815725875661E-02 
968	 4.50715097493035E-02 
969	 3.94411098818002E-02 
970	 3.60633548191319E-02 
971	 4.09195182297159E-02 
972	 3.47155725824782E-02 
973	 3.53318617671152E-02 
974	 3.97047587435532E-02 
975	 0.026606015159135 
976	 0.037721418067368 
977	 4.34615934027446E-02 
978	 3.44323007719397E-02 
979	 2.47574091467483E-02 
980	 2.69984198250058E-02 
981	 3.07733054744284E-02 
982	 3.31692386951614E-02 
983	 3.77590931667226E-02 
984	 4.23469839675473E-02 
985	 3.71719679007467E-02 
986	 3.05248425173388E-02 
987	 0.039043845906805 
988	 4.14746988573445E-02 
989	 3.68880026229237E-02 
990	 3.31495552267568E-02 
991	 3.95776164692353E-02 
992	 3.97569150219706E-02 
993	 3.49553024774291E-02 
994	 3.33922869685362E-02 
995	 4.19087220468529E-02 
996	 3.79212013421486E-02 
997	 0.036395727493348 
998	 4.02337480868141E-02 
999	 4.19759074322831E-02 
1000	 3.32485480614826E-02 
1001	 4.13655961589026E-02 
1002	 3.91010462124573E-02 
1003	 3.90832210113598E-02 
1004	 3.98177597567827E-02 
1005	 3.98310390031109E-02 
1006	 4.00494266078315E-02 
1007	 4.12041571713169E-02 
1008	 3.86375406926411E-02 
1009	 3.90014828302214E-02 
1010	 4.01502825048438E-02 
1011	 3.78480438884142E-02 
1012	 3.75530025248031E-02 
1013	 3.71257200368365E-02 
1014	 3.59119796425707E-02 
1015	 3.29454473253424E-02 
1016	 3.24146687645001E-02 
1017	 3.26148030976725E-02 
1018	 3.27212765346629E-02 
1019	 3.43041762165983E-02 
1020	 3.49318988303908E-02 
1021	 3.37819908926233E-02 
1022	 3.52987363885498E-02 
1023	 3.82496291665145E-02 
1024	 3.96286527822917E-02 
1025	 3.87011922957676E-02 
1026	 3.86825898984529E-02 
1027	 3.83548336733768E-02 
1028	 3.49766929313074E-02 
1029	 3.55291877837992E-02 
1030	 4.14834224304316E-02 
1031	 4.00410968794097E-02 
1032	 3.46426159565229E-02 
1033	 3.26526508934792E-02 
1034	 0.026788850063273 
1035	 0.025273481001612 
1036	 2.91371483874133E-02 
1037	 0.031228979831408 
1038	 3.51115818030099E-02 
1039	 3.63286872103749E-02 
1040	 3.46295913453711E-02 
1041	 3.54372429582221E-02 
1042	 3.52946051985413E-02 
1043	 3.34517895785799E-02 
1044	 3.26653206468408E-02 
1045	 3.35764941978195E-02 
1046	 3.24838320002038E-02 
1047	 2.87917565922692E-02 
1048	 2.84375631263457E-02 
1049	 2.78342820323064E-02 
1050	 2.98185595969264E-02 
1051	 3.84087250683799E-02 
1052	 4.03175247726958E-02 
1053	 4.03210598474744E-02 
1054	 3.99277742942177E-02 
1055	 3.24928774987846E-02 
1056	 2.98035951297757E-02 
1057	 2.91080773377795E-02 
1058	 3.13613079091454E-02 
1059	 3.22050554319432E-02 
1060	 3.55911023944942E-02 
1061	 3.59867692009119E-02 
1062	 3.40688068413455E-02 
1063	 3.41030262489483E-02 
1064	 3.45891045878435E-02 
1065	 3.42318866808516E-02 
1066	 3.46124696831353E-02 
1067	 3.40556917129068E-02 
1068	 3.16082462328688E-02 
1069	 3.02579961051202E-02 
1070	 2.81979782376962E-02 
1071	 2.80470190200741E-02 
1072	 3.00065235474446E-02 
1073	 3.12981940486013E-02 
1074	 3.16656877106295E-02 
1075	 3.26542175492038E-02 
1076	 0.033042935770459 
1077	 3.14685458965381E-02 
1078	 3.14579269284775E-02 
1079	 3.34126873684258E-02 
1080	 3.31096801122747E-02 
1081	 0.030742187968024 
1082	 3.07738435251054E-02 
1083	 3.16750092185764E-02 
1084	 3.16112572012742E-02 
1085	 3.19165624172855E-02 
1086	 3.26569260710734E-02 
1087	 3.38583054596461E-02 
1088	 3.35286435644678E-02 
1089	 3.29782579349213E-02 
1090	 3.26030100388546E-02 
1091	 3.23201865509987E-02 
1092	 2.92377073539662E-02 
1093	 2.95303610406802E-02 
1094	 3.45600100361656E-02 
1095	 3.46246936998408E-02 
1096	 3.24120736365971E-02 
1097	 3.09706623190661E-02 
1098	 2.48178762149604E-02 
1099	 2.36688382965046E-02 
1100	 2.94305526914637E-02 
1101	 3.01299082578029E-02 
1102	 2.72395501064416E-02 
1103	 2.92232931170908E-02 
1104	 3.59166916379366E-02 
1105	 3.49490351632186E-02 
1106	 2.87291913712598E-02 
1107	 3.01410559342488E-02 
1108	 2.51973762197109E-02 
1109	 1.84963547748355E-02 
1110	 1.81858092322047E-02 
1111	 3.81655984625084E-02 
1112	 3.91577839770595E-02 
1113	 0.023609015017109 
1114	 1.44037195441657E-02 
1115	-1.17377648764222E-02 
1116	-2.08899786568954E-02 
1117	 1.25649439022998E-02 
1118	 1.60332041712371E-02 
1119	-8.00548970822777E-04 
1120	-2.3431666564376E-03 
1121	-2.73673424279865E-02 
1122	-0.116930493230423 
1123	-1.61125871512479E-02 
1124	 0.200419446042631 
1125	 0.125262954866178 
1126	 4.63371470174109E-02 
1127	 0.092695326902605 
1128	-5.41679250085253E-02 
1129	-0.091088786715867 
1130	 5.80417413270557E-02 
1131	 2.72261865338679E-02 
1132	-0.172364431975733 
1133	-0.1557273154682 
1134	-7.60770540701533E-02 
1135	-1.73106612855232E-02 
1136	 0.183481396970632 
1137	 0.176192532285756 
1138	 8.07008110204313E-02 
1139	-2.61702303545711E-03 
1140	-0.109714217177574 
1141	-7.25568173533866E-02 
1142	 0.053543891664467 
1143	 5.01404826932906E-02 
1144	 6.64666277254933E-02 
1145	 6.92718547424235E-02 
1146	-3.66414799865413E-04 
1147	 1.20915982638522E-02 
1148	 6.16279348954284E-02 
1149	-9.25776788237049E-03 
1150	-2.79278546497776E-02 
1151	-1.24481679636036E-02 
1152	 2.15745058836521E-03 
1153	-3.74115646456485E-03 
1154	 0.013631536010557 
1155	 5.23826406302608E-02 
1156	 4.66018027110248E-02 
1157	 3.50534907017514E-02 
1158	 3.58633140700809E-02 
1159	 1.82734518162949E-02 
1160	 1.60175816140537E-02 
1161	 0.031409614637849 
1162	 3.74831351741277E-02 
1163	 3.79588607144716E-02 
1164	 3.36341949502743E-02 
1165	 0.025392328921163 
1166	 2.45789660359356E-02 
1167	 3.43356829581016E-02 
1168	 4.36776367536722E-02 
1169	 4.40395947234352E-02 
1170	 0.039538534341751 
1171	 3.86049898877698E-02 
1172	 3.48156467134028E-02 
1173	 3.23677985583096E-02 
1174	 3.22872146187516E-02 
1175	 3.37215611865952E-02 
1176	 3.22437491071702E-02 
1177	 2.99218188171661E-02 
1178	 3.05423593417964E-02 
1179	 3.08578944607797E-02 
1180	 3.00003911522912E-02 
1181	 3.03068842650973E-02 
1182	 3.30236771561352E-02 
1183	 3.65241085251174E-02 
1184	 3.56544338125264E-02 
1185	 3.11622288931645E-02 
1186	 2.89205409850907E-02 
1187	 2.96773653354522E-02 
1188	 0.029880766232904 
1189	 2.99232936296728E-02 
1190	 3.27005328715815E-02 
1191	 3.52721229569277E-02 
1192	 3.60698897957713E-02 
1193	 3.78078945104483E-02 
1194	 3.99193555159565E-02 
1195	 0.038086399321786 
1196	 0.036684225167947 
1197	 3.46206584958483E-02 
1198	 3.21933996371256E-02 
1199	 3.47440199599038E-02 
1200	 3.29362318898437E-02 
1201	 2.79537410330893E-02 
1202	 2.97605075399341E-02 
1203	 3.36402836105369E-02 
1204	 3.50191078573177E-02 
1205	 3.48417839199855E-02 
1206	 3.46624412747182E-02 
1207	 3.26290007914778E-02 
1208	 3.04592554862006E-02 
1209	 3.16731448451829E-02 
1210	 3.32904182085405E-02 
1211	 3.26105473603884E-02 
1212	 3.26864060913458E-02 
1213	 3.45143010210673E-02 
1214	 0.033988225556199 
1215	 3.30216406538105E-02 
1216	 3.24667843222414E-02 
1217	 3.22791628801153E-02 
1218	 3.12938812817852E-02 
1219	 3.27402139034436E-02 
1220	 3.47818241060595E-02 
1221	 0.035388597530145 
1222	 0.034373137685868 
1223	 0.034655388379874 
1224	 3.57762716278628E-02 
1225	 3.42022247935745E-02 
1226	 3.29694442141971E-02 
1227	 3.40463162915025E-02 
1228	 3.32295588690114E-02 
1229	 3.04955625908739E-02 
1230	 3.10535096578582E-02 
1231	 3.06680789744685E-02 
1232	 2.90084859104672E-02 
1233	 3.15309296744026E-02 
1234	 3.40676619514075E-02 
1235	 3.52387982135762E-02 
1236	 3.67911035814132E-02 
1237	 3.69633256287304E-02 
1238	 3.56892424649638E-02 
1239	 3.41204022364481E-02 
1240	 3.30619529803202E-02 
1241	 3.13561396855652E-02 
1242	 3.19628603024482E-02 
1243	 3.41616012713222E-02 
1244	 3.42163242845659E-02 
1245	 3.40827754128869E-02 
1246	 3.32686669740526E-02 
1247	 0.031448930570208 
1248	 3.11048468320419E-02 
1249	 3.22397726575566E-02 
1250	 3.36016586856668E-02 
1251	 3.20173542227521E-02 
1252	 2.97057794986606E-02 
1253	 3.11527978467858E-02 
1254	 3.16741980935334E-02 
1255	 3.16869487052148E-02 
1256	 3.25028506161824E-02 
1257	 3.36632238228893E-02 
1258	 3.29694302074955E-02 
1259	 3.10589445362095E-02 
1260	 3.15834792054364E-02 
1261	 3.36152890919051E-02 
1262	 0.033245853247961 
1263	 0.032695491642068 
1264	 3.35895974038433E-02 
1265	 0.031777226486098 
1266	 2.85751088048925E-02 
1267	 2.94423727141482E-02 
1268	 3.28858023059653E-02 
1269	 3.35415212922235E-02 
1270	 2.97203224129828E-02 
1271	 2.61588240723748E-02 
1272	 2.53296904837109E-02 
1273	 0.025362127844458 
1274	 0.026234972245859 
1275	 2.95932503950145E-02 
1276	 3.10097046831094E-02 
1277	 3.01351503935316E-02 
1278	 3.21368574312175E-02 
1279	 3.48124757069431E-02 
1280	 3.47086111230508E-02 
1281	 3.51300130503419E-02 
1282	 3.65038274611367E-02 
1283	 3.64018057418001E-02 
1284	 3.44873211089834E-02 
1285	 3.39402494401407E-02 
1286	 3.25635943451759E-02 
1287	 3.25510186948473E-02 
1288	 3.51358274043959E-02 
1289	 3.52044763548686E-02 
1290	 3.42071094384016E-02 
1291	 3.43575403576756E-02 
1292	 3.26758047237536E-02 
1293	 2.93547118665617E-02 
1294	 2.92635778713672E-02 
1295	 3.12267941881232E-02 
1296	 0.031607967986041 
1297	 2.89289689279742E-02 
1298	 2.80562070406811E-02 
1299	 3.08469788258827E-02 
1300	 3.14621998110157E-02 
1301	 3.05210966101711E-02 
1302	 3.18794378537553E-02 
1303	 3.01038175202705E-02 
1304	 2.62618323106991E-02 
1305	 0.026741740920898 
1306	 2.58944281737051E-02 
1307	 2.37939647811106E-02 
1308	 1.96214812219125E-02 
1309	 1.27636772573572E-02 
1310	 1.24146635149979E-02 
1311	 1.31081103405965E-02 
1312	 1.45450633429387E-02 
1313	 2.77530873626676E-02 
1314	 2.83167147784002E-02 
1315	 1.63985669094897E-02 
1316	 1.45750205699099E-02 
1317	 1.07513430957548E-02 
1318	 8.35489706624297E-03 
1319	 0.016742450306643 
1320	 1.89662701917354E-02 
1321	 1.32049335124179E-02 
1322	 1.37006971456587E-02 
1323	 1.54157112152537E-02 
1324	 1.15364135214744E-02 
1325	 1.25715230700751E-02 
1326	 0.017416043799354 
1327	 1.29192204601274E-02 
1328	 1.45677686863993E-02 
1329	 2.87331858869522E-02 
1330	 1.46949445527618E-02 
1331	-3.55760885129774E-03 
1332	 1.49618930214326E-02 
1333	 1.68965701503239E-02 
1334	-5.82692042896648E-03 
1335	-2.01938779310893E-02 
1336	-3.25890033973576E-02 
1337	-2.61468722053631E-02 
1338	-1.00353268362695E-02 
1339	-3.5679126303403E-03 
1340	 4.06270834127651E-02 
1341	 6.37963646184976E-02 
1342	 5.30457153303779E-02 
1343	 3.16629801087726E-02 
1344	-1.09164789720013E-02 
1345	-2.81300133323329E-02 
1346	-9.75246077572349E-02 
1347	-0.148211477831422 
1348	-5.41661318472493E-02 
1349	 1.37414681816794E-02 
1350	-4.15356437813802E-02 
1351	 8.64244918514994E-03 
1352	 0.320141592972597 
1353	 0.39189340678265 
1354	 6.13683016988853E-02 
1355	 1.03739366336002 
1356	 10.5275213113562 
1357	 0.557351521994608 
1358	-1.8417375601783 
1359	 2.87067893070886 
1360	-0.88948570217972 
1361	-1.14663015356635E-02 
1362	 6.85988282935091E-02 
1363	 0.601913592178079 
1364	 0.383214697265264 
1365	-0.166829411161924 
1366	-1.3084536826888 
1367	-12.4835870464945 
1368	 3.71398046327166 
1369	-2.30360300518966E-02 
1370	-2.42927271081248E-02 
1371	-1.02152988111882 
1372	-2.42105632888296 
1373	-4.2064419758006 
1374	-37.398166315539 
1375	 1.58060093394622 
1376	 5.60226620677391 
1377	 1.12642417958155 
1378	 2.46253927394779 
1379	 1.16816495352667 
1380	 0.932267828973804 
1381	 1.25371126176894 
1382	 2.86298575142929 
1383	 1.98397481189974 
1384	 1.7257970638063 
1385	 1.07215519036711 
1386	 1.25551618606302 
1387	 6.63916727884169 
1388	 7.57797599120342 
1389	 4.99419841311745E-02 
1390	 0.354353253504744 
1391	 2.66359758520199 
1392	 1.58849949042584 
1393	 0.428965303979381 
1394	-1.19588245497134 
1395	-7.36030268763771E-02 
1396	 0.38470765042843 
1397	-0.170057657170126 
1398	-0.59230099471964 
1399	-2.64718764730006 
1400	 0.594567653611737 
1401	 0.520961503297205 
1402	 0.277725603472475 
1403	 0.459088789299544 
1404	 0.555893990639856 
1405	-4.08746247205503E-02 
1406	 1.67256932786727 
1407	 1.2732521916822 
1408	-0.91129255074224 
1409	-1.40197705132148 
1410	-2.16309947134746 
1411	-1.11737468257352 
1412	-0.543759720337526 
1413	-2.53366477601256 
1414	 0.481723204048083 
1415	 0.949621328217358 
1416	-4.96315289482699 
1417	-3.24903626115408 
1418	-0.741442697528627 
1419	-0.457034062771934 
1420	-0.301167631612598 
1421	-0.283212824290679 
1422	 0.149500739246649 
1423	 0.427521080463541 
1424	 1.1248936815066 
1425	 1.15961785468357 
1426	-10.7739721577714 
1427	-2.23264891497305 
1428	-0.162005687606691 
1429	-0.105837232670557 
1430	-0.757036226537243 
1431	-0.84857541274081 
1432	-1.79415792155575 
1433	-2.61991696486666 
1434	-1.82279033495786 
1435	-1.62713498679935 
1436	-3.38070072354528 
1437	 0.282634530211962 
1438	-0.230383362254606 
1439	-0.278251184292204 
1440	-17.7824661284061 
1441	 63.1062319748027 
1442	-1.75638032397344 
1443	-1.04295286012037 
1444	-1.09107847506727 
1445	-1.29164640231897 
1446	-1.92306674304283 
1447	-4.02497767695288 
1448	-3.52131218891266 
1449	-5.76555329947729 
1450	 7.55010241944478 
1451	 1.40536565217032 
1452	 2.64183652109791 
1453	-0.153804757915027 
1454	-3.61190926076909E-02 
1455	-2.67496511195417 
1456	-1.11341268013755 
1457	-1.00157462149775 
1458	-0.94704077088996 
1459	-1.02889356805717 
1460	-0.867390437904696 
1461	-0.51403775292495 
1462	-0.514143903591544 
1463	-1.64895333653957 
1464	-0.864849880931 
1465	 0.374858394157873 
1466	 1.21460018351335 
1467	-0.459429407499903 
1468	-0.37335837525569 
1469	-0.663085967236974 
1470	 7.00147813913511E-02 
1471	-8.8164971402902 
1472	-3.52474344096975 
1473	 185.70275687057 
1474	-5.26431543814205 
1475	-0.260408248479934 
1476	-0.189280687968462 
1477	-0.758695132580932 
1478	-0.896105634553026 
1479	-3.11666870050822 
1480	 213.842097561594 
1481	-183.422632182194 
1482	 27.3543177052952 
1483	 17.716877590426 
1484	-38.8539717158109 
1485	-3.14644401853122 
1486	-1.20061706133449 
1487	-0.289960850782526 
1488	-0.210888694418754 
1489	-0.656073696257722 
1490	-0.265110380414796 
1491	 0.030034337741002 
1492	 5.99339752007874E-02 
1493	 0.276630755657704 
1494	 0.216660230988927 
1495	-0.205529734106078 
1496	-0.339694636915529 
1497	-0.291608836485206 
1498	-0.262838949537384 
1499	-9.44576446482987E-02 
1500	-8.18936206432198E-02 
1501	-0.184683645144462 
1502	-0.188189899037136 
1503	-0.22522512151454 
1504	-0.174997794506035 
1505	 5.79514320524377E-02 
1506	 0.10086295690627 
1507	 8.50985118995185E-03 
1508	-4.43987135530997E-02 
1509	-0.106200182069139 
1510	-0.16774854893992 
1511	-0.133945384461875 
1512	-8.64016436195648E-02 
1513	-0.149789983988858 
1514	-0.138670743223406 
1515	-3.77717532551096E-02 
1516	-4.27270181812796E-02 
1517	-2.63383114967961E-02 
1518	-2.44374104713242E-03 
1519	-5.0307384454465E-03 
1520	 1.26364795689459E-02 
1521	 2.65700926549559E-02 
1522	 4.00806381512842E-02 
1523	 4.16082926745029E-02 
1524	 4.73127178748942E-03 
1525	-1.65123462074612E-02 
1526	-6.95322502500641E-03 
1527	-4.03299859174911E-02 
1528	-5.76456681633934E-02 
1529	-3.83897648738328E-02 
1530	-1.67204346346268E-02 
1531	-2.56713849923801E-03 
1532	-1.40132251376122E-02 
1533	 4.47518528264915E-03 
1534	 3.01276957129359E-02 
1535	 3.63134937224677E-02 
1536	 4.39171107877283E-02 
1537	 2.32371628404833E-02 
1538	-0.013185640314632 
1539	-9.84778591462226E-03 
1540	 3.29155170836416E-02 
1541	 4.50393911310512E-02 
1542	 2.78820341433382E-02 
1543	 2.41988644185289E-02 
1544	 0.021067259898362 
1545	 3.41229483494942E-02 
1546	 5.41733786355844E-02 
1547	 6.42000836453671E-02 
1548	 4.86821116605376E-02 
1549	 2.11546829397911E-02 
1550	 1.02121466104166E-02 
1551	-0.01190459658483 
1552	-1.89940811874824E-02 
1553	 1.45964312590653E-03 
1554	 7.55978143343023E-04 
1555	 6.85702321550103E-03 
1556	 2.23128598051933E-02 
1557	 5.50275327542152E-03 
1558	-2.07583860506463E-03 
1559	 1.55896401769601E-02 
1560	 1.76759754217066E-02 
1561	 0.018705787511206 
1562	 3.57456199363045E-02 
1563	 3.58665028574534E-02 
1564	 0.011221822235555 
1565	-7.23157280374376E-03 
1566	-1.42247685097341E-02 
1567	-2.28166698494087E-02 
1568	-0.014585620194508 
1569	 9.58640520973683E-03 
1570	 1.88515510402187E-02 
1571	 1.99985674962327E-02 
1572	 2.37558550975781E-02 
1573	 2.84703752234399E-02 
1574	 2.76375358354585E-02 
1575	 3.21605904718513E-02 
1576	 4.33694036773811E-02 
1577	 2.75231116874786E-02 
1578	 1.50293294489911E-02 
1579	 2.61605938227024E-02 
1580	 7.74581310833912E-03 
1581	-1.34646412180584E-02 
1582	 7.23762795584725E-03 
1583	 2.32575508185009E-02 
1584	 2.14808994017159E-02 
1585	 2.09170716568078E-02 
1586	 1.72512527777708E-02 
1587	 6.90422521168383E-03 
1588	 1.15588703402709E-02 
1589	 3.74905547140407E-02 
1590	 4.24002246838346E-02 
1591	 3.07901820301425E-02 
1592	 2.79121090510917E-02 
1593	 2.17875812293612E-02 
1594	 7.06967164603346E-03 
1595	 9.26381415736287E-03 
1596	 3.23756368868636E-02 
1597	 4.85111836971055E-02 
1598	 5.46663316271973E-02 
1599	 4.88880564780063E-02 
1600	 3.98696676052247E-02 
1601	 3.63306002325317E-02 
1602	 3.22833602733074E-02 
1603	 0.035465306093797 
1604	 4.26056768428386E-02 
1605	 5.09520993744971E-02 
1606	 5.60865719971177E-02 
1607	 5.53209927465027E-02 
1608	 4.97879817840229E-02 
1609	 2.23253626690575E-02 
1610	 8.24452870100125E-03 
1611	 3.55703196122086E-02 
1612	 4.09671063967279E-02 
1613	 1.92015281774891E-02 
1614	 1.84002720255552E-02 
1615	 1.91803413263745E-02 
1616	 2.17071979043859E-02 
1617	 4.18337704442295E-02 
1618	 3.94742544897831E-02 
1619	 2.46845309486222E-02 
1620	 1.56926778448504E-02 
1621	 1.32746298793938E-02 
1622	 2.60651604148638E-02 
1623	 3.29801921793519E-02 
1624	 3.08178609979764E-02 
1625	 2.47296261665526E-02 
1626	 1.57108372709396E-02 
1627	 1.48499996631491E-02 
1628	 1.50970690858248E-02 
1629	 6.86844905853093E-03 
1630	 1.25952917394785E-02 
1631	 3.58424948126994E-02 
1632	 0.041465712796947 
1633	 2.82010007548435E-02 
1634	 1.92795554705543E-02 
1635	 1.60615327770079E-02 
1636	 1.15743456511962E-02 
1637	 1.65993249369117E-02 
1638	 3.43917960641298E-02 
1639	 3.43249545349156E-02 
1640	 0.020238374782072 
1641	 2.44809105736381E-02 
1642	 2.86038437315286E-02 
1643	 1.89979647860696E-02 
1644	 9.18823529500429E-03 
1645	 1.16288868952831E-02 
1646	 2.70613819508096E-02 
1647	 3.93995604582269E-02 
1648	 4.34099665416696E-02 
1649	 4.17752406360028E-02 
1650	 3.77296804220288E-02 
1651	 2.91284106241198E-02 
1652	 2.48065823929768E-02 
1653	 4.41446973946312E-02 
1654	 4.00203419629868E-02 
1655	 2.50962826896095E-02 
1656	 0.036452424227518 
1657	 5.64919870385032E-02 
1658	 5.21131176869839E-02 
1659	 5.34309586928197E-02 
1660	 5.86036615359017E-02 
1661	 4.00224353643828E-02 
1662	 3.01909032227657E-02 
1663	 3.77105120148294E-02 
1664	 4.61318375133786E-02 
1665	 4.84195812360912E-02 
1666	 4.41593291597485E-02 
1667	 5.58207801093223E-02 
1668	 3.98427886571524E-02 
1669	 1.80299149168149E-02 
1670	 1.61170988504769E-02 
1671	 2.47344174216316E-02 
1672	 4.83645188293076E-02 
1673	 7.01566325252334E-02 
1674	 7.91611250325431E-02 
1675	 7.50316524332652E-02 
1676	 6.56528924045856E-02 
1677	 5.62689870707762E-02 
1678	 4.68268019334784E-02 
1679	 5.11332783629748E-02 
1680	 5.32164899467503E-02 
1681	 0.047950538564393 
1682	 4.78018960023408E-02 
1683	 5.61028070311527E-02 
1684	 5.71468865016917E-02 
1685	 0.039615046787449 
1686	 3.49954645783649E-02 
1687	 3.90159637074756E-02 
1688	 2.46665814661961E-02 
1689	 2.72243969013598E-02 
1690	 4.97401085827043E-02 
1691	 4.27682356207125E-02 
1692	 2.91333282236883E-02 
1693	 3.89965397943414E-02 
1694	 3.70197824837014E-02 
1695	 2.72761488821619E-02 
1696	 3.60852199292683E-02 
1697	 2.85273860956746E-02 
1698	 1.06868697828958E-02 
1699	 2.02201065134894E-02 
1700	 2.81779469253529E-02 
1701	 3.24190177670426E-02 
1702	 0.047063798791093 
1703	 4.06416537225755E-02 
1704	 3.10413769427951E-02 
1705	 4.67495214277714E-02 
1706	 5.48077608501156E-02 
1707	 0.036746791757734 
1708	 3.68475880208025E-02 
1709	 5.12418334172784E-02 
1710	 3.31385885575115E-02 
1711	 3.40268773015783E-02 
1712	 5.10976913496478E-02 
1713	 5.29727119104633E-02 
1714	 5.05398975935371E-02 
1715	 4.67785769382245E-02 
1716	 5.74615233892244E-02 
1717	 5.31136562111727E-02 
1718	 5.18860731163322E-02 
1719	 4.87076809101187E-02 
1720	 2.56157563503254E-02 
1721	 1.71097460458018E-02 
1722	 3.70210808159649E-02 
1723	 5.63800392622522E-02 
1724	 0.058871741380775 
1725	 7.10019305342071E-02 
1726	 7.23220026663428E-02 
1727	 5.23796263100422E-02 
1728	 5.03575174436929E-02 
1729	 4.25684992340566E-02 
1730	 0.030847050204197 
1731	 3.96349175747241E-02 
1732	 4.58941323266256E-02 
1733	 4.91491874619064E-02 
1734	 3.84491412300805E-02 
1735	 1.04249331742832E-02 
1736	 2.36337966224076E-03 
1737	 4.52114580197696E-03 
1738	 7.83753328846586E-03 
1739	 3.33497993106804E-02 
1740	 5.68513006682542E-02 
1741	 3.23402261814363E-02 
1742	 1.29852597288622E-02 
1743	 5.34402038813589E-02 
1744	 6.76947681640231E-02 
1745	 5.96653815320604E-02 
1746	 4.65262277489419E-02 
1747	 2.80444423352685E-02 
1748	-5.02311812099235E-03 
1749	-1.85195910301204E-04 
1750	 4.27685835793604E-02 
1751	 4.29037121092099E-02 
1752	 2.89786142959174E-02 
1753	 2.33880375031149E-02 
1754	-1.84722635445841E-02 
1755	-2.17362485602513E-02 
1756	 2.94306786598425E-02 
1757	 0.020991087853202 
1758	 1.19140464602257E-03 
1759	 0.011553058365292 
1760	-6.87284204416073E-05 
1761	-3.51120360623109E-02 
1762	-1.12515123934076E-02 
1763	-1.22472297776275E-02 
1764	-4.71307295788444E-02 
1765	 2.25542290437993E-03 
1766	 5.25709055683119E-02 
1767	 2.80528567154689E-02 
1768	-8.47384864763992E-03 
1769	-3.95687775885428E-02 
1770	-6.58877841236801E-02 
1771	-3.48365699886568E-02 
1772	 4.14842205610622E-02 
1773	 6.88641062896512E-02 
1774	 6.70825921133973E-02 
1775	-2.34598720929414E-02 
1776	-3.99399922685563E-02 
1777	-5.79823602352616E-02 
1778	-3.95396757286161E-02 
1779	 0.171147706955728 
1780	 0.18685032111172 
1781	 3.41452038908477E-02 
1782	-4.34061759278135E-02 
1783	-0.279415306575054 
1784	-0.312298700167902 
1785	-0.120645920414329 
1786	 1.94320157565865E-02 
1787	 0.364087659386791 
1788	 0.327081644948784 
1789	-4.10538905919634E-02 
1790	-0.11339377410072 
1791	-0.073446808697588 
1792	 5.36252067579951E-02 
1793	 0.507069339660028 
1794	 0.530960417893872 
1795	-6.47774103422719E-02 
1796	 0.075677926579608 
1797	 0.830436835961485 
1798	 2.33682039004599 
1799	 20.2607450742382 
1800	 0.724000530010374 
1801	-8.78756293364561E-02 
1802	-0.143064772638571 
1803	-0.253059551789275 
1804	-0.227708443905507 
1805	-0.564054417127349 
1806	-10.5892298070888 
1807	-119.616298533147 
1808	-5.93532943771443E-02 
1809	-1.06592949988897E-02 
1810	-0.132854871631069 
1811	-6.46856093971424E-02 
1812	 0.722587992877404 
1813	 0.917552997036328 
1814	 0.433956607246812 
1815	 0.525995837791114 
1816	 0.758135920592938 
1817	 0.792354065817144 
1818	-0.585299751864851 
1819	-1.6268022643732 
1820	 12.3184304138274 
1821	 2.79753218551204 
1822	 3.53288905657225 
1823	 1.57624987786119 
1824	 2.02602087318472 
1825	-0.421026283423914 
1826	-0.15123837348624 
1827	-0.755462519135877 
1828	-1.04333549135565 
1829	 0.292371847544991 
1830	 0.12473528650331 
1831	-1.61314382132147 
1832	-4.03052646178534 
1833	 1.89759502958849 
1834	 1.365401355404 
1835	-3.61503593435532 
1836	-33.315970064126 
1837	-0.817469351479911 
1838	-0.952954585731673 
1839	-1.46870564268076 
1840	 21.7727862677368 
1841	 0.788601164112475 
1842	-0.424779036333717 
1843	-0.301513801800386 
1844	 4.75269531980988 
1845	 7.53836114597765 
1846	 1.31685615042216 
1847	 1.04796930412584 
1848	 0.588368085614825 
1849	-3.86588166876459 
1850	-1.43601358770237 
1851	 13.6009633807565 
1852	-3.93487530938786 
1853	-0.625106057300145 
1854	-0.156394250130883 
1855	 0.806149915546149 
1856	 0.995477606824532 
1857	 0.876337289115632 
1858	 0.854842019742293 
1859	 0.907331059284543 
1860	 0.633916419059359 
1861	-8.93204738816794E-03 
1862	-0.608166169155666 
1863	-0.252215459096826 
1864	-0.447405517125073 
1865	-0.697087706530718 
1866	-0.855983538687173 
1867	-1.08871715439513 
1868	-5.4520877148019 
1869	 7.82500627289948 
1870	 1.09043115321559 
1871	 0.356094893710687 
1872	-0.301570477482293 
1873	 0.318095334741745 
1874	-0.297823937429764 
1875	-8.07589381808786E-02 
1876	 2.02233536559158E-02 
1877	 0.292864282222527 
1878	 0.54671347935751 
1879	 0.939068930100201 
1880	 0.978702735314444 
1881	 0.885231806399611 
1882	 0.876393313170633 
1883	-0.155868748872694 
1884	 1.18841014444717 
1885	 1.28755089416981 
1886	 1.85902210178608 
1887	-0.988438120719488 
1888	-0.263572032945477 
1889	-0.118669630246423 
1890	 4.70483301160425E-02 
1891	 0.115781456639686 
1892	 0.176268903885593 
1893	 0.619210833865394 
1894	 0.97436334817695 
1895	-0.322715355615531 
1896	-2.70336338119015E-02 
1897	-5.03153523545367E-02 
1898	-0.120239183682627 
1899	-0.204781023016703 
1900	-0.15762666487163 
1901	 0.340943356405399 
1902	 0.807468595412639 
1903	 1.12929139948247 
1904	 1.13826119352799 
1905	 1.98175328230539 
1906	-3.81263531266439 
1907	-0.198230775952297 
1908	-0.170255123808162 
1909	 9.03340529821608E-02 
1910	 0.609919283851115 
1911	 0.316314437866128 
1912	-0.237065927411169 
1913	-0.207247695879577 
1914	-0.529216153564816 
1915	-0.554390739986373 
1916	-0.589300462864225 
1917	-0.638062819820851 
1918	-1.56089670597913 
1919	 19.608516335779 
1920	-6.41110040067029 
1921	 0.993943925134105 
1922	 0.910708436880325 
1923	 0.41147922023896 
1924	-7.03718082847591E-02 
1925	 0.326062484623501 
1926	 0.407570399992105 
1927	 3.81526971956845E-02 
1928	-7.03062883373768E-03 
1929	 1.29758091764221 
1930	 9.67389542065238 
1931	 3.00305229016685 
1932	 1.29007341210689 
1933	 0.173152208496125 
1934	-0.118938679401868 
1935	-0.18116865447568 
1936	-0.364092137694881 
1937	-0.292723944677903 
1938	-0.398236749021176 
1939	-0.50137789298989 
1940	-0.388036858512127 
1941	-0.44833702667089 
1942	-0.830262674649276 
1943	-0.939229155624854 
1944	-0.993901370885143 
1945	-1.28653869813167 
1946	-1.8405608057262 
1947	-0.93925238162987 
1948	-0.224576840370932 
1949	-0.160470844114846 
1950	-0.122620334987333 
1951	 1.0383310828453 
1952	 0.952045851539612 
1953	 1.65490001059849 
1954	 0.784401183169858 
1955	 0.168142706304998 
1956	-0.07361488748371 
1957	-0.890455321303206 
1958	-2.16513442112268 
1959	 5.5997413579171 
1960	 3.04198359796934 
1961	 1.97950884792522 
1962	 1.10923053308316 
1963	 1.33355365136079 
1964	 1.83482804126885 
1965	 0.904728510813955 
1966	 0.434503072605826 
1967	 3.05536138572844 
1968	-4.44403727763869E-02 
1969	 0.332675546210713 
1970	-1.26521745085705 
1971	 3.6395027947902 
1972	 2.99777520029113 
1973	 2.45340737207303 
1974	 3.05092603278268 
1975	 8.49602429669289 
1976	 3.0740260829865 
1977	 6.55726174233878 
1978	 2.89868887484151 
1979	 2.28221661459087 
1980	 2.19388889053376 
1981	 20.1866872574707 
1982	 3.13235983340659 
1983	 2.17797431037691 
1984	 2.38289362602236 
1985	 1.0432934930513 
1986	 0.614817197023361 
1987	 0.490596219658232 
1988	 0.228119061761897 
1989	 0.311748262789213 
1990	 0.522493486500625 
1991	 0.42823164068554 
1992	 0.124720389706062 
1993	 1.87275070543229E-02 
1994	-8.65900061624624E-02 
1995	-0.675762372902255 
1996	-1.61984179914212 
1997	 21.2385540509769 
1998	 0.395720544814192 
1999	 0.847908470265335 
2000	 1.60931871136066 
2001	 1.9948294013236 
2002	 3.35976253871345 
2003	 3.54700873379881 
2004	 2.88641018760595 
2005	 18.1603794076285 
2006	 8.3831976716558 
2007	 1.54803623240999 
2008	 19.0179123892033 
2009	-9.46294940264655 
2010	-1.30092133861081 
2011	-0.643665037780174 
2012	 0.201198155403239 
2013	-0.343819824022636 
2014	-0.457923999847916 
2015	-0.395479361430651 
2016	 5.51374220710828E-02 
2017	 0.209848789170644 
2018	 0.194093404917459 
2019	 0.611245580774305 
2020	 3.6967401754876 
2021	-1.96720048262482 
2022	 4.56789862215202 
2023	 0.523079025082489 
2024	 0.163790710980142 
2025	-0.327962642088959 
2026	-0.682141349049733 
2027	-3.18289449965084 
2028	 2.03951736090035 
2029	 1.02123319805555 
2030	 1.4093605715143 
2031	 153.307214021789 
2032	-1.81264472249129 
2033	-0.870447713123035 
2034	-1.02560106286631 
2035	-1.04014331516901 
2036	-0.67557411202349 
2037	-1.50539551009278 
2038	-1.57911749982372 
2039	-1.21497103001752 
2040	-1.16969391424812 
2041	-0.880393742154714 
2042	-0.101001721335208 
2043	 8.63494723641542E-02 
2044	-4.70489196729334E-02 
2045	-0.103985092768154 
2046	-9.14664147297326E-02 
2047	-5.66554358310446E-02 
2048	 0.368455406088344 
2049	-0.514218512010062 
2050	-0.577570571690205 
2051	 3.88736385112777 
2052	 0.626541488801952 
2053	 0.815890516637243 
2054	 1.08767859007223 
2055	 1.46086520329468 
2056	 1.82332061955854 
2057	 4.16129378643922 
2058	 3.26770873202313 
2059	 1.30619060907581 
2060	 0.60073948340076 
2061	-0.472935098472244 
2062	-1.39878963644888 
2063	-4.2649607868667 
2064	-3.20696532632918 
2065	-1.81647716235649 
2066	-1.25180009174101 
2067	-1.25425784120169 
2068	-1.30334711818884 
2069	-1.2897754748593 
2070	-1.38244163186833 
2071	-1.0898163664527 
2072	-0.938862667950218 
2073	-0.914924678936434 
2074	-1.95173279954954 
2075	-1.37966681554414 
2076	 1.53057407284232E-02 
2077	 0.46032988050886 
2078	 0.3768290360232 
2079	 0.31378552605545 
2080	-0.1585611645134 
2081	-0.274481814460416 
2082	-0.851326547594946 
2083	-27.6350415385632 
2084	-8.73338246447594E-02 
2085	-7.34402535200857E-03 
2086	-0.401502492094063 
2087	-0.574713950303042 
2088	-0.847175717696119 
2089	 5.66682873419747 
2090	-3.84267116939706E-02 
2091	-1.318619505391 
2092	-3.10251284845566 
2093	 8.87480021181349 
2094	 2.02285364623693 
2095	 0.781496841615724 
2096	 0.624702770580554 
2097	 7.32544134811413E-03 
2098	-0.314244083544311 
2099	-0.171315865759461 
2100	-3.91401841126955 
2101	-3.04965293128596 
2102	-1.73473612923336 
2103	-0.714027799459057 
2104	 0.179524804090654 
2105	 0.446619204973344 
2106	 0.508563018050666 
2107	 0.41418452151355 
2108	 0.441218675671241 
2109	 0.392576926746703 
2110	-4.39413408603303E-02 
2111	-0.0224109894942 
2112	-0.47047611610742 
2113	-0.587836159109957 
2114	-0.113036896625403 
2115	-9.79790999266393E-02 
2116	-0.239532692705794 
2117	-0.247954208708503 
2118	-0.319162315752655 
2119	-0.328619583270919 
2120	-0.284036316898182 
2121	-0.1320285565365 
2122	-8.20968463711213E-02 
2123	-0.160725517458135 
2124	-0.360790816543454 
2125	-0.506442047790909 
2126	-0.662354286798653 
2127	-0.568525722816083 
2128	-0.175033166166251 
2129	 4.55587813369414E-02 
2130	 0.018872370009927 
2131	 6.86257040237482E-02 
2132	 5.74685330126681E-02 
2133	-7.1972523672385E-03 
2134	 2.78910835670046E-02 
2135	 0.137431078298168 
2136	 0.184741518414676 
2137	 0.297088738510556 
2138	 0.303312102328631 
2139	 0.234695092523584 
2140	 0.251381648969163 
2141	 0.287666047449175 
2142	 0.281310721424611 
2143	 0.329866682866169 
2144	 0.22185897600562 
2145	 0.217492694758619 
2146	 0.234181562877623 
2147	 9.61636248011067E-02 
2148	 3.65995616943685E-02 
2149	-7.61374815915995E-02 
2150	-0.336868100305732 
2151	-0.314133480011949 
2152	-0.223637572768635 
2153	-0.173949956698178 
2154	-3.17362334565674E-02 
2155	-0.130479438993477 
2156	-0.267940203428703 
2157	-0.356076322652247 
2158	-0.593554231145067 
2159	-0.515200875217565 
2160	-0.205527213754283 
2161	-6.30603969565628E-02 
2162	 0.166917049026854 
2163	 0.257284940342405 
2164	 0.277674026152136 
2165	 0.289337814613149 
2166	 0.274918701044557 
2167	 0.227835496044871 
2168	 9.50365677853985E-02 
2169	 4.92687825869344E-02 
2170	-2.67637886294645E-03 
2171	-0.11243746622654 
2172	 7.34829827272908E-03 
2173	 2.06050751475938E-02 
2174	-3.31027442748308E-03 
2175	 8.11956297181076E-02 
2176	-1.89228110301128E-03 
2177	-5.56788500632191E-02 
2178	-0.148330134034678 
2179	-0.255451049167721 
2180	-0.299188368327701 
2181	-0.27691001524839 
2182	-0.225142104791027 
2183	-0.20950675617839 
2184	-0.086634753685289 
2185	-8.48242917313291E-02 
2186	-0.125078434272588 
2187	-0.219199204135308 
2188	-0.198434188080318 
2189	-0.198117907592137 
2190	-0.179900446827289 
2191	-1.88398490122515E-02 
2192	-1.89168198040005E-02 
2193	-0.184954137636266 
2194	-0.250710578203773 
2195	-0.275004741625967 
2196	-0.299363051923255 
2197	-0.311487392683591 
2198	-0.327080868366172 
2199	-0.411592647817771 
2200	-0.372376632647209 
2201	-6.78528767756041E-02 
2202	 0.131639977840772 
2203	 0.290314129649116 
2204	 0.317605419970846 
2205	 0.141388313369876 
2206	 0.206074883424147 
2207	 0.328418140249502 
2208	 0.33468107395329 
2209	 0.347519181557506 
2210	 0.2937177705561 
2211	 0.29945717875338 
2212	 0.184334041695994 
2213	 2.61912368845934E-02 
2214	-4.87222207810564E-02 
2215	-0.137761210783334 
2216	-8.84923860100563E-02 
2217	-0.140371988936674 
2218	-0.240198230812437 
2219	-0.255125414600847 
2220	-0.287984260583338 
2221	-0.280599145547516 
2222	-0.163568004593703 
2223	-0.139429974866732 
2224	-0.151496192206407 
2225	-0.163987758383632 
2226	-0.227578894683262 
2227	-0.272390440850083 
2228	-0.381177506526575 
2229	-0.39038160723428 
2230	-0.289611528095173 
2231	-0.217835187020812 
2232	-0.122693796642536 
2233	 6.2692781388235E-03 
2234	 0.204349375185302 
2235	 0.301823937558503 
2236	 0.24968771769678 
2237	 0.243798323629468 
2238	 3.12845352784518E-03 
2239	-0.208150210589057 
2240	-0.251558244188063 
2241	-0.316776544488992 
2242	-0.267533214036977 
2243	-0.248752571649061 
2244	-0.37877540532022 
2245	-0.408893377624811 
2246	-0.285665932669889 
2247	-0.277276053613337 
2248	-0.341018478894546 
2249	-0.338545942434159 
2250	-0.294508900200189 
2251	-0.405542698618153 
2252	-0.342092211984106 
2253	-0.204332888965899 
2254	-0.477934834276174 
2255	-0.411913549068277 
2256	-0.309470352011916 
2257	-0.397108659199587 
2258	-0.176601230112995 
2259	-7.15335529893651E-02 
2260	-6.14825366896491E-02 
2261	-7.14617853514132E-02 
2262	-0.174775625465418 
2263	-0.476361899370157 
2264	-0.602746958154297 
2265	-0.927891961003201 
2266	-1.04454737816622 
2267	-0.622689437058984 
2268	-0.133034274405521 
2269	 0.267944625918629 
2270	 0.363721424715799 
2271	 0.358511816751957 
2272	 0.35025439883459 
2273	 0.259039111146861 
2274	 0.135516197667081 
2275	-0.214858122735647 
2276	-0.409500018598224 
2277	-0.440129465437076 
2278	-0.419007303850397 
2279	-0.192101256433814 
2280	-0.051997586684223 
2281	 8.45595969617045E-02 
2282	 0.056830984285013 
2283	-1.08397080922062E-02 
2284	-6.33032628769963E-02 
2285	-0.188060429036327 
2286	 0.690422454434814 
2287	-2.32796830147585 
2288	 534.044155447435 
2289	 1.76802365079529 
2290	 0.949475548568428 
2291	 2.20091141533422E-02 
2292	-0.349890073210517 
2293	-0.656776663795927 
2294	 6.98207414175801 
2295	-2.38072875077884 
2296	-2.24049662807999 
2297	-1.67670805302903 
2298	-1.2412629764088 
2299	-0.612896662451413 
2300	-6.04021273572862E-02 
2301	 0.245801163888609 
2302	 8.82181713106584E-02 
2303	-0.294020693987674 
2304	-0.680539191489993 
2305	-0.493986414776031 
2306	-0.471810012108081 
2307	-0.537075464040024 
2308	-0.417899804957219 
2309	-0.533149876993741 
2310	-0.791616494806131 
2311	-0.47974012542858 
2312	-0.444895199708031 
2313	-0.237586721484176 
2314	-6.54871156416143E-02 
2315	-2.08920564332709E-02 
2316	 8.17831884675347E-02 
2317	-0.508925378273547 
2318	-0.877087744169014 
2319	-1.56963380529971 
2320	-2.843032325727 
2321	-1.72212292090946 
2322	-1.99396997409925 
2323	-2.46162415782067 
2324	-1.15447978773908 
2325	-0.726781678783591 
2326	-0.530467674480454 
2327	-0.892523810832779 
2328	-1.22738803370777 
2329	-0.397873940069753 
2330	-5.63020615619771E-02 
2331	 0.107744672345756 
2332	 0.420287259989599 
2333	 0.464176208714416 
2334	 0.351911846781906 
2335	 1.15224218539148 
2336	 1.87053276414027 
2337	 2.22754830417472 
2338	 0.99750109944803 
2339	-0.163909907202452 
2340	-0.708293924475171 
2341	-0.448399383181218 
2342	 0.269668724275898 
2343	 0.617690193186926 
2344	 1.9023693437017 
2345	 9.2492607284508 
2346	 1.04097825542272 
2347	 2.33924242197376 
2348	 4.70563960476408 
2349	 9.26722650237579 
2350	-9.75484400014855 
2351	-6.10802219335458 
2352	 5.07561909372714 
2353	 2.65832865403863 
2354	 2.33820427854665 
2355	 2.42747569883963 
2356	 3.01071529558293 
2357	-46.1772821226069 
2358	-2.16352661856061 
2359	-1.46369164016892 
2360	-0.356089526780485 
2361	 4.96788353319692 
2362	 1.04260670897285 
2363	 0.639889755617194 
2364	 0.962166060465967 
2365	 1.61226349241085 
2366	 1.23349562870218 
2367	-58.2378192147732 
2368	-1.67926488561931 
2369	-0.905529283204318 
2370	-0.520162513119055 
2371	-0.501559849563341 
2372	-0.641182763938867 
2373	-1.08476083790109 
2374	-0.253857800439112 
2375	 0.135012537993601 
2376	-1.28044345505534 
2377	 0.123602371265175 
2378	-0.520630375060367 
2379	-0.368778389345909 
2380	-0.145703316762057 
2381	 0.121473939768729 
2382	 1.14651963849312 
2383	-4.85829252086481 
2384	-1.78148175284092 
2385	-2.09364814147064 
2386	-8.54573315602586 
2387	-3.84872686667285 
2388	-8.10272392340968 
2389	 3.40857504508512 
2390	 1.56549226002993 
2391	 0.217219822057942 
2392	 0.302789164865755 
2393	-3.95551698631101 
2394	-4.35250417073259 
2395	-8.07810239397993 
2396	 2.07070543648997 
2397	-0.181699488842006 
2398	-0.167178687185008 
2399	-0.385297349894162 
2400	 0.469515363542682 
2401	-0.454977929209539 
2402	-0.696217851274689 
2403	 2.48317953643736 
2404	 2.60857651191149 
2405	 2.26198519320813 
2406	 0.985429602297509 
2407	 0.367759757101018 
2408	-1.63415581862466 
2409	 0.802616373926028 
2410	 0.449925590462151 
2411	 0.369889115876204 
2412	-6.50276200667322E-03 
2413	 0.029046341725982 
2414	 1.30876452399863E-02 
2415	 0.277895207468134 
2416	 0.483155175321537 
2417	 0.547780403238609 
2418	 0.808648402680738 
2419	 0.615392502049967 
2420	-2.52867250544825 
2421	 0.926493171321123 
2422	-0.119221684145986 
2423	 0.522322914675475 
2424	 0.438391042591722 
2425	-0.264740866110453 
2426	 0.346054203547495 
2427	-0.600550778581437 
2428	 0.407654409931014 
2429	 0.597578515358717 
2430	 0.575444751276179 
2431	 1.05224981737034 
2432	 1.77465689926027 
2433	 2.39501890977428 
2434	 1.56382931064704 
2435	 0.836933900026511 
2436	 41.1676743163309 
2437	 3.03402380037593 
2438	 1.15521216515519 
2439	 0.470320569055932 
2440	 0.550098625286802 
2441	-0.293610589714371 
2442	 4.09745646805994 
2443	-4.28386780463047E-02 
2444	 0.553614103680677 
2445	 0.071011520141009 
2446	 1.69377222158246E-02 
2447	-0.81895567979746 
2448	-1.29261664532389 
2449	-3.92286072247809 
2450	-9.58556769864537 
2451	 3.72756148156695 
2452	-6.07015690388134 
2453	-0.82570876355309 
2454	-0.659795056547406 
2455	 0.774430651461321 
2456	 8.92484124909912 
2457	-0.50335893685245 
2458	-1.09651045252387 
2459	-0.707127155049155 
2460	 0.640897824774535 
2461	 0.256712410505084 
2462	 19.7207852124787 
2463	 2.57952422378919 
2464	-1.34055533432578 
2465	 10.234671270109 
2466	-1.99706350815048 
2467	-5.03940168290501 
2468	-2.13179373692352 
2469	-1.64013777977999 
2470	-1.41549509855291 
2471	-1.41426489243494 
2472	-4.36731043449077 
2473	 2.16643915937467 
2474	 1.11683417798831 
2475	 1.42902558700005 
2476	 0.445819226487204 
2477	 0.559367669297526 
2478	 1.04270207750974 
2479	 1.90873239729804 
2480	 4.39044426334571 
2481	 9.35371326794739 
2482	 3.65909780713799 
2483	 2.38613476343724 
2484	 0.848676089630519 
2485	-0.108514078664861 
2486	 0.03885856647667 
2487	 0.215152566623584 
2488	 0.690112782746997 
2489	-6.87419769535132 
2490	-0.636134165701531 
2491	-0.333405285713831 
2492	-0.769977312257827 
2493	-1.32468322300426 
2494	-2.78580125958735 
2495	-44.4352642178965 
2496	-5.75500295140779 
2497	-2.79206501042573 
2498	-1.65249344849338 
2499	 0.196225244248351 
2500	 3.26624611678432 
