Wavelength	rt0712EAST_FAR00004.asd
350	 6.15163691955454E-02 
351	 6.25115610647783E-02 
352	 6.27039526178927E-02 
353	 6.30381838007695E-02 
354	 6.39457703128045E-02 
355	 6.35076894082908E-02 
356	 6.33598648340071E-02 
357	 6.34448566909899E-02 
358	 6.32576588205836E-02 
359	 6.27456007645432E-02 
360	 0.062795399283198 
361	 6.30728007125006E-02 
362	 6.25429623970485E-02 
363	 6.21738690377395E-02 
364	 6.24118831695239E-02 
365	 6.30528173907743E-02 
366	 6.30625153397483E-02 
367	 6.28174030460938E-02 
368	 6.26720438782233E-02 
369	 6.28503821703784E-02 
370	 0.063132957911391 
371	 6.31277035451423E-02 
372	 6.29027394567918E-02 
373	 6.28312834025951E-02 
374	 6.31850554137529E-02 
375	 6.35544289553075E-02 
376	 6.36344917244555E-02 
377	 6.33857970219927E-02 
378	 6.26795675279318E-02 
379	 6.21641732565486E-02 
380	 0.062411988655097 
381	 6.32640000099952E-02 
382	 6.37048346705377E-02 
383	 6.37720911173545E-02 
384	 0.063891588693687 
385	 6.28376902486059E-02 
386	 6.27767655554815E-02 
387	 6.39346831143117E-02 
388	 6.41636402730364E-02 
389	 6.48695040733897E-02 
390	 0.064863074875639 
391	 6.37434066067329E-02 
392	 6.40834064766089E-02 
393	 6.47624380901632E-02 
394	 6.50573648700736E-02 
395	 6.46411921377862E-02 
396	 6.42055245452015E-02 
397	 6.43752307153863E-02 
398	 6.49403064860213E-02 
399	 6.50460422094295E-02 
400	 6.48256593848956E-02 
401	 6.46446491368531E-02 
402	 6.46732643602387E-02 
403	 6.45743844887521E-02 
404	 6.45752544833053E-02 
405	 6.46211630535836E-02 
406	 6.45735900465723E-02 
407	 6.43959183617653E-02 
408	 6.46410005608797E-02 
409	 6.51049883507743E-02 
410	 6.48879598255044E-02 
411	 6.50554631345599E-02 
412	 6.50326915169919E-02 
413	 6.45445799823662E-02 
414	 6.47749658493247E-02 
415	 6.47801371921823E-02 
416	 6.47861390655832E-02 
417	 6.52547164639959E-02 
418	 0.065001739270401 
419	 0.064846708122134 
420	 6.50292293217687E-02 
421	 6.50226163552173E-02 
422	 6.50070075066945E-02 
423	 6.52440198086901E-02 
424	 6.56304942197337E-02 
425	 6.48924659160888E-02 
426	 6.48586668350593E-02 
427	 6.54269990288481E-02 
428	 6.55939452665431E-02 
429	 6.55303096910338E-02 
430	 0.065388374387331 
431	 6.53620856166757E-02 
432	 6.56672689814428E-02 
433	 6.55795597297268E-02 
434	 6.55533048629895E-02 
435	 0.065937199751939 
436	 6.59581174024551E-02 
437	 6.59754431159001E-02 
438	 6.60412084696823E-02 
439	 6.60650393046583E-02 
440	 6.62881178283087E-02 
441	 6.64780658783584E-02 
442	 6.65356400212199E-02 
443	 6.66287911335569E-02 
444	 6.68382976689587E-02 
445	 6.70156602414081E-02 
446	 6.70567788782855E-02 
447	 0.067287863482809 
448	 6.76620839317255E-02 
449	 6.79134222594306E-02 
450	 6.77012484236996E-02 
451	 6.77754649722791E-02 
452	 6.80368385439525E-02 
453	 6.82056881637198E-02 
454	 6.78493236832883E-02 
455	 6.80644944701357E-02 
456	 6.83478198445202E-02 
457	 6.79521201457796E-02 
458	 6.82419793428715E-02 
459	 6.85316748112281E-02 
460	 6.84697632444176E-02 
461	 6.81793207250047E-02 
462	 6.84108165799231E-02 
463	 6.87063790201515E-02 
464	 6.86469854791852E-02 
465	 6.86108820352377E-02 
466	 6.88124659795698E-02 
467	 6.90783040742145E-02 
468	 6.90913814003603E-02 
469	 0.069169071946798 
470	 6.93940110829848E-02 
471	 6.96605722933111E-02 
472	 6.96472533995062E-02 
473	 6.97160205309529E-02 
474	 6.98851441523574E-02 
475	 7.01059944991225E-02 
476	 7.04540413577809E-02 
477	 7.07731427002945E-02 
478	 7.09980421159195E-02 
479	 7.11428022921359E-02 
480	 7.12724450355901E-02 
481	 7.14616546970189E-02 
482	 7.16866435540501E-02 
483	 0.071704429413646 
484	 7.19564596152499E-02 
485	 7.24074561501917E-02 
486	 7.28045186251412E-02 
487	 7.28362219175446E-02 
488	 7.30190477281041E-02 
489	 0.073403704199753 
490	 7.35663925274245E-02 
491	 7.37533236465303E-02 
492	 7.40324333394914E-02 
493	 7.44215716121093E-02 
494	 7.49264540367246E-02 
495	 7.53199564942977E-02 
496	 0.075601439662327 
497	 7.58905489401974E-02 
498	 7.61911782188829E-02 
499	 7.64220172373825E-02 
500	 7.66391702677496E-02 
501	 7.71291195193073E-02 
502	 7.75014471261536E-02 
503	 7.78825016386815E-02 
504	 7.84358823579092E-02 
505	 7.88275110120568E-02 
506	 0.079193314942133 
507	 7.95877674661844E-02 
508	 7.99975392222347E-02 
509	 8.05667897109919E-02 
510	 8.09747462154845E-02 
511	 8.11306456820176E-02 
512	 8.16390616471285E-02 
513	 8.21919653447278E-02 
514	 8.26908003706218E-02 
515	 8.31106722826757E-02 
516	 8.33854165781276E-02 
517	 8.38828375200789E-02 
518	 8.45809640621662E-02 
519	 8.49526289229611E-02 
520	 8.53562997863597E-02 
521	 8.58321228341631E-02 
522	 0.086359224165749 
523	 8.69891302484146E-02 
524	 8.73942021688018E-02 
525	 8.77708895011408E-02 
526	 8.86052960023942E-02 
527	 8.90370627955195E-02 
528	 8.94093016162087E-02 
529	 8.99731908216202E-02 
530	 9.04478706716211E-02 
531	 9.09965212214061E-02 
532	 0.091606374036624 
533	 9.22027757136068E-02 
534	 9.27675741455844E-02 
535	 0.093277793696771 
536	 9.38129440263878E-02 
537	 9.45579923275574E-02 
538	 9.50750961283075E-02 
539	 9.55891403178232E-02 
540	 9.63167547707623E-02 
541	 9.68677746146041E-02 
542	 9.75580925176564E-02 
543	 9.82729339518294E-02 
544	 9.86887318850023E-02 
545	 0.099291527860706 
546	 9.99024633014571E-02 
547	 0.100439171329584 
548	 0.101191958840896 
549	 0.101778551802829 
550	 0.102279280795445 
551	 0.102893001977766 
552	 0.103467165895775 
553	 0.104055352334239 
554	 0.104657575818962 
555	 0.105199311659534 
556	 0.105729946175286 
557	 0.106327496126668 
558	 0.106974513555615 
559	 0.107335489394086 
560	 0.107781750552482 
561	 0.108244569067059 
562	 0.108428922154605 
563	 0.108769869622395 
564	 0.109130290686701 
565	 0.109332910986161 
566	 0.109228742116277 
567	 0.109513652486543 
568	 0.109827872628533 
569	 0.109622377566636 
570	 0.109849011748345 
571	 0.110049435025346 
572	 0.11003120510773 
573	 0.109981576974718 
574	 0.110111920015535 
575	 0.110076985620741 
576	 0.109671753589965 
577	 0.109568311889506 
578	 0.109445262688997 
579	 0.109225524313698 
580	 0.10898061654109 
581	 0.108707386508834 
582	 0.108380668484645 
583	 0.107978691706424 
584	 0.107494117005233 
585	 0.106886651982546 
586	 0.106126413236654 
587	 0.105232864189859 
588	 0.104534426335376 
589	 0.103991993130588 
590	 0.103465080758019 
591	 0.102722572449109 
592	 0.102385993660446 
593	 0.102020769117705 
594	 0.101250107684162 
595	 0.100468819290412 
596	 9.96675319853941E-02 
597	 9.88643088051565E-02 
598	 9.80687784314975E-02 
599	 9.70622841184279E-02 
600	 9.61284546941688E-02 
601	 9.54657527996961E-02 
602	 9.50608687370557E-02 
603	 9.45037871410373E-02 
604	 0.094078159257083 
605	 9.41121980868823E-02 
606	 9.39152401611602E-02 
607	 9.36742638200264E-02 
608	 9.34440112059965E-02 
609	 9.31142667623456E-02 
610	 9.29672586755481E-02 
611	 0.092783351479746 
612	 9.24073184837915E-02 
613	 9.21913214708333E-02 
614	 9.20382647618237E-02 
615	 9.18132502224276E-02 
616	 9.14135809563834E-02 
617	 9.12508391941575E-02 
618	 9.10362618061057E-02 
619	 9.06988089393944E-02 
620	 9.06607864725106E-02 
621	 9.04546755204507E-02 
622	 9.01565875248497E-02 
623	 9.00056776047165E-02 
624	 9.01284852855942E-02 
625	 9.00279064358952E-02 
626	 8.95971008374959E-02 
627	 8.91532487261892E-02 
628	 8.88845708112063E-02 
629	 0.088780073089882 
630	 8.87218615871074E-02 
631	 8.84974789517821E-02 
632	 8.81636053177231E-02 
633	 8.79644171567043E-02 
634	 8.81286310956289E-02 
635	 8.80705770826086E-02 
636	 8.78793477601658E-02 
637	 8.77525320582519E-02 
638	 8.79545844713412E-02 
639	 8.76556165391326E-02 
640	 8.72438351698314E-02 
641	 8.72434200415793E-02 
642	 8.71250964569392E-02 
643	 8.70457760633618E-02 
644	 8.69239964331318E-02 
645	 0.086480329840098 
646	 8.58995322282549E-02 
647	 8.56680472683562E-02 
648	 8.58474952345077E-02 
649	 8.53765527426216E-02 
650	 8.50183653172265E-02 
651	 8.47694610168533E-02 
652	 8.43597169655526E-02 
653	 8.35305029116736E-02 
654	 8.28826497148439E-02 
655	 8.24158095708868E-02 
656	 8.13021913021526E-02 
657	 8.04123478718761E-02 
658	 7.97358284023189E-02 
659	 7.90662711707003E-02 
660	 7.82453055891296E-02 
661	 7.75665634570476E-02 
662	 7.69552499789807E-02 
663	 7.61852044713168E-02 
664	 7.58275962688558E-02 
665	 7.55065560549843E-02 
666	 7.50051962910296E-02 
667	 7.45835252390659E-02 
668	 0.074693473834987 
669	 7.48293306262484E-02 
670	 7.44503045764031E-02 
671	 7.45702510267057E-02 
672	 0.074995203293523 
673	 7.53941529789241E-02 
674	 7.54141749960525E-02 
675	 7.58052979242975E-02 
676	 7.62702608464774E-02 
677	 7.65461236162495E-02 
678	 7.69738128679299E-02 
679	 7.74220050649925E-02 
680	 7.78729726599321E-02 
681	 0.07835899527759 
682	 7.89325730228392E-02 
683	 7.94308435988748E-02 
684	 7.98300688256478E-02 
685	 8.03659693051182E-02 
686	 8.11449655721816E-02 
687	 8.17775955885254E-02 
688	 8.18967522999919E-02 
689	 8.19203306920146E-02 
690	 8.19815893686748E-02 
691	 8.20291159806749E-02 
692	 0.081898386026237 
693	 0.081798457867204 
694	 8.16507136264519E-02 
695	 8.13582849072322E-02 
696	 8.08136829013128E-02 
697	 0.080261393705271 
698	 7.98874751669677E-02 
699	 7.98009198845772E-02 
700	 7.93950158370199E-02 
701	 0.07860289996608 
702	 7.76762291697209E-02 
703	 7.69662574315789E-02 
704	 7.64950959817206E-02 
705	 7.57548102312243E-02 
706	 7.46402186193759E-02 
707	 7.40327280979571E-02 
708	 7.29011670308014E-02 
709	 7.16181634596117E-02 
710	 7.08498195980782E-02 
711	 6.97696153790486E-02 
712	 6.85017864686465E-02 
713	 6.71894535143748E-02 
714	 6.59188207125848E-02 
715	 6.48688994414431E-02 
716	 6.37357312212053E-02 
717	 6.23652418808074E-02 
718	 6.14357796599306E-02 
719	 6.00550696509376E-02 
720	 5.88035088215548E-02 
721	 5.80549971972604E-02 
722	 5.74043116807236E-02 
723	 5.64491562668749E-02 
724	 5.53208660361956E-02 
725	 5.45638138487357E-02 
726	 5.36569783873122E-02 
727	 0.052788197251763 
728	 5.21056290492965E-02 
729	 5.11382092883609E-02 
730	 5.06796111124646E-02 
731	 5.03670384200901E-02 
732	 4.95701469927287E-02 
733	 4.91232299913029E-02 
734	 4.87906310374973E-02 
735	 0.048512830128574 
736	 4.84855436783123E-02 
737	 4.81883725043406E-02 
738	 4.79097742233519E-02 
739	 4.79321874682468E-02 
740	 4.80098720743283E-02 
741	 0.047925827433613 
742	 4.77836193972022E-02 
743	 4.78062498476847E-02 
744	 4.77467139839615E-02 
745	 4.77376291758162E-02 
746	 4.77637832434497E-02 
747	 4.75704991449696E-02 
748	 4.75826719116664E-02 
749	 0.047649027366776 
750	 4.75570902630614E-02 
751	 4.73971277518864E-02 
752	 4.72764042794265E-02 
753	 4.72550692685316E-02 
754	 4.73407225116821E-02 
755	 4.74497002833966E-02 
756	 4.72764837133358E-02 
757	 0.046929761274512 
758	 4.72614254500441E-02 
759	 4.70901667735965E-02 
760	 4.64689945140719E-02 
761	 4.66250482111304E-02 
762	 4.60792326468696E-02 
763	 4.61891344839458E-02 
764	 4.64739825554173E-02 
765	 4.63159196634511E-02 
766	 4.67296541597842E-02 
767	 4.70151891602117E-02 
768	 4.70059831017848E-02 
769	 4.69587695914355E-02 
770	 4.70807684902118E-02 
771	 4.70981526150366E-02 
772	 0.046890571383784 
773	 4.70357589589454E-02 
774	 4.70701662325994E-02 
775	 4.70410439696601E-02 
776	 4.71489542724756E-02 
777	 4.70815466142588E-02 
778	 0.047079732476417 
779	 4.70989482326428E-02 
780	 4.68231963562138E-02 
781	 0.047167376212189 
782	 4.74360002843049E-02 
783	 4.71591924127458E-02 
784	 4.70400559947273E-02 
785	 4.71893060542678E-02 
786	 0.047494871250015 
787	 4.76706889608759E-02 
788	 4.72263107141445E-02 
789	 4.71471238489419E-02 
790	 4.75458554054037E-02 
791	 4.77460992994457E-02 
792	 4.78430130201605E-02 
793	 4.78696264221185E-02 
794	 4.78156236498486E-02 
795	 4.75788939464746E-02 
796	 4.78013059391689E-02 
797	 4.80959001280716E-02 
798	 0.047994027228417 
799	 4.77528902808443E-02 
800	 4.79335357827918E-02 
801	 4.82889639828837E-02 
802	 0.048219162500314 
803	 4.85443652839832E-02 
804	 4.86547703133393E-02 
805	 4.84101864827252E-02 
806	 4.82586682109023E-02 
807	 0.048392225358407 
808	 4.85325665712481E-02 
809	 4.83972558109004E-02 
810	 4.80040661781264E-02 
811	 4.75741405427994E-02 
812	 4.72688021869132E-02 
813	 4.72537575963476E-02 
814	 4.78245559866271E-02 
815	 0.047367345887664 
816	 4.63162994826675E-02 
817	 4.66472454378196E-02 
818	 4.65029529025645E-02 
819	 4.64196540252113E-02 
820	 4.65176824659882E-02 
821	 4.62021791462648E-02 
822	 4.58402591187824E-02 
823	 0.046023096445741 
824	 4.65554122853007E-02 
825	 4.56262462127581E-02 
826	 4.53578927966691E-02 
827	 4.54218278908227E-02 
828	 4.48168238245508E-02 
829	 0.044689385345647 
830	 4.45539917174671E-02 
831	 4.41142311360765E-02 
832	 4.34531233909677E-02 
833	 4.41129310740882E-02 
834	 4.44645485628511E-02 
835	 4.39784423544873E-02 
836	 4.38370341413487E-02 
837	 0.044017230023117 
838	 4.40960382291444E-02 
839	 0.043896012280667 
840	 4.41452135852375E-02 
841	 4.38423518168334E-02 
842	 4.34970158128922E-02 
843	 0.043847514731297 
844	 4.40676492185385E-02 
845	 4.41603388197914E-02 
846	 4.41184741015149E-02 
847	 4.39586367727405E-02 
848	 4.40410829988634E-02 
849	 4.41521987022956E-02 
850	 4.40714502381758E-02 
851	 4.36944356564698E-02 
852	 4.34069769652188E-02 
853	 4.34408680649751E-02 
854	 4.37722843509091E-02 
855	 4.39857502077805E-02 
856	 4.39811024405081E-02 
857	 4.38547820159531E-02 
858	 4.37404680465132E-02 
859	 4.36578999303605E-02 
860	 4.35247405465423E-02 
861	 4.35719797149312E-02 
862	 4.40231753129292E-02 
863	 4.41225593952228E-02 
864	 4.40745372941675E-02 
865	 4.39071731752805E-02 
866	 4.35067654127936E-02 
867	 4.34633843027591E-02 
868	 4.36660437056369E-02 
869	 4.38521622868058E-02 
870	 4.37295807087246E-02 
871	 4.33834860568538E-02 
872	 4.32075055083408E-02 
873	 4.33604805395808E-02 
874	 4.33539149758673E-02 
875	 4.30090289421867E-02 
876	 4.26839877060361E-02 
877	 4.28109754770257E-02 
878	 4.34822305737516E-02 
879	 0.043149821660906 
880	 4.25066232851801E-02 
881	 4.29596930899714E-02 
882	 4.30926728882774E-02 
883	 4.30104114353934E-02 
884	 4.27403118046655E-02 
885	 4.22714668731994E-02 
886	 4.20223568969397E-02 
887	 4.26081220450313E-02 
888	 4.32818386276956E-02 
889	 4.20115013546573E-02 
890	 4.18518457883959E-02 
891	 4.21890880900225E-02 
892	 4.22069992912588E-02 
893	 4.20949748951609E-02 
894	 4.24131580684817E-02 
895	 4.24350054841973E-02 
896	 4.13888701699323E-02 
897	 4.01816723984673E-02 
898	 3.99083203240706E-02 
899	 4.13252397448676E-02 
900	 4.32946179107692E-02 
901	 4.03564691411762E-02 
902	 3.96212087909953E-02 
903	 4.01459758547947E-02 
904	 3.92789030516004E-02 
905	 4.20773568232627E-02 
906	 4.25364401577268E-02 
907	 4.04350196459121E-02 
908	 4.03502516520033E-02 
909	 4.13115542773316E-02 
910	 4.20157743988014E-02 
911	 0.041102889093725 
912	 3.82559998496648E-02 
913	 4.16559994641404E-02 
914	 4.25154648822322E-02 
915	 3.90456637601092E-02 
916	 3.95177234201709E-02 
917	 4.05165806231077E-02 
918	 4.09898591907241E-02 
919	 0.041012616768781 
920	 4.15427221249463E-02 
921	 0.041901268442689 
922	 4.07915044541506E-02 
923	 3.83562961333617E-02 
924	 3.82701124822135E-02 
925	 4.06645939769722E-02 
926	 4.19461957280345E-02 
927	 3.92623547064806E-02 
928	 4.06122868412854E-02 
929	 3.78065677641201E-02 
930	 2.87157774670594E-02 
931	 2.05161700081767E-02 
932	 4.11148932286712E-02 
933	 6.47036497139783E-02 
934	 5.23733228761106E-02 
935	 3.55062061726737E-03 
936	 1.46812144375402E-02 
937	 4.49566039781461E-02 
938	 5.96618314025773E-02 
939	 4.46688298656237E-02 
940	 0.040491542351307 
941	 5.95326181731951E-02 
942	 6.68576269452641E-02 
943	 2.07448500413612E-02 
944	 2.61045739885873E-02 
945	 3.80590490956903E-02 
946	 3.39779003932742E-02 
947	 1.94843999926605E-02 
948	 3.11227510885366E-02 
949	 3.22183041695672E-02 
950	 2.90167552541262E-02 
951	 4.66284571294047E-02 
952	 5.04528066571626E-02 
953	 3.29645308994878E-02 
954	 1.90859496114164E-02 
955	 4.15590894950831E-02 
956	 5.80062751029982E-02 
957	 4.79131360057198E-02 
958	 3.36625117192633E-02 
959	 4.88647019830514E-02 
960	 4.11369302711825E-02 
961	 4.01959270741341E-02 
962	 4.57468410328467E-02 
963	 4.01107466751725E-02 
964	 4.41103917934644E-02 
965	 4.52710638448984E-02 
966	 4.06982437025128E-02 
967	 3.60578837489096E-02 
968	 4.23567082375445E-02 
969	 4.45135405967816E-02 
970	 3.93056467812318E-02 
971	 3.49274661405847E-02 
972	 3.46217383268812E-02 
973	 3.47901790789343E-02 
974	 3.71050986184144E-02 
975	 4.58726081674568E-02 
976	 3.82970985877336E-02 
977	 3.35548277338574E-02 
978	 3.73582774585704E-02 
979	 3.96952297675986E-02 
980	 4.21480860304259E-02 
981	 4.07461897581904E-02 
982	 3.84186090634074E-02 
983	 4.15733679044399E-02 
984	 4.26330745080034E-02 
985	 0.041844331063742 
986	 4.01810578023133E-02 
987	 3.89359892212183E-02 
988	 4.16182781278839E-02 
989	 4.15787592815121E-02 
990	 3.92197032421792E-02 
991	 3.98310424479214E-02 
992	 3.94826686246246E-02 
993	 4.19106129794463E-02 
994	 4.35529855970191E-02 
995	 3.86459494806771E-02 
996	 4.13216053481076E-02 
997	 0.039403549147898 
998	 3.54869029051723E-02 
999	 3.90851673983439E-02 
1000	 3.80464905798514E-02 
1001	 4.24531383559443E-02 
1002	 4.16556426083071E-02 
1003	 4.09176921787883E-02 
1004	 3.96967317185531E-02 
1005	 3.99492723446417E-02 
1006	 4.04818456447198E-02 
1007	 4.20482301941207E-02 
1008	 4.40940050655679E-02 
1009	 4.50093140778274E-02 
1010	 4.51054954805522E-02 
1011	 4.50154507035416E-02 
1012	 4.29782963730819E-02 
1013	 4.22168149696809E-02 
1014	 0.04203448162294 
1015	 0.041741606742245 
1016	 4.14133476754003E-02 
1017	 4.21929912885804E-02 
1018	 0.042381837090461 
1019	 4.23317055415144E-02 
1020	 4.20537772585388E-02 
1021	 4.14580389569088E-02 
1022	 4.14661613852876E-02 
1023	 4.16582884417141E-02 
1024	 4.04537378224154E-02 
1025	 3.95805467664219E-02 
1026	 4.02972782116065E-02 
1027	 0.040706990654826 
1028	 4.11512986307952E-02 
1029	 4.16414531225564E-02 
1030	 4.28010499413227E-02 
1031	 4.30827923577912E-02 
1032	 4.26796281566077E-02 
1033	 0.042770243255376 
1034	 4.28843652125021E-02 
1035	 4.30578791903532E-02 
1036	 4.37074752199682E-02 
1037	 4.37553092896706E-02 
1038	 4.40067252689637E-02 
1039	 4.29499134972442E-02 
1040	 4.14741078758464E-02 
1041	 4.12560967988616E-02 
1042	 4.13462080220076E-02 
1043	 4.22115456309605E-02 
1044	 0.042195610754634 
1045	 4.23994493515482E-02 
1046	 4.22020022885706E-02 
1047	 4.04491657250902E-02 
1048	 4.07160529223318E-02 
1049	 4.28198239784924E-02 
1050	 4.33994588386648E-02 
1051	 4.44536675134684E-02 
1052	 0.044749052387202 
1053	 4.33408676878851E-02 
1054	 4.27751361551617E-02 
1055	 4.24229680369353E-02 
1056	 4.21671283822747E-02 
1057	 4.20567128860608E-02 
1058	 4.22388927491424E-02 
1059	 4.20791539586686E-02 
1060	 4.18697358646451E-02 
1061	 4.18178720134201E-02 
1062	 4.14432230710141E-02 
1063	 4.16433711210269E-02 
1064	 4.27243320180031E-02 
1065	 4.28688856281171E-02 
1066	 4.26126067679969E-02 
1067	 4.26487184487644E-02 
1068	 4.20287658440872E-02 
1069	 4.20154826117372E-02 
1070	 4.31284509659992E-02 
1071	 4.34303701556658E-02 
1072	 4.32846340390121E-02 
1073	 4.35637923929585E-02 
1074	 0.043019075564021 
1075	 4.12116128187728E-02 
1076	 4.13403232463665E-02 
1077	 4.20248288201482E-02 
1078	 4.26618453334655E-02 
1079	 0.044864265546172 
1080	 4.53800682863503E-02 
1081	 4.50245907572698E-02 
1082	 0.044497278940947 
1083	 0.042910006654835 
1084	 4.24111915206917E-02 
1085	 4.17461026988991E-02 
1086	 4.17461130222531E-02 
1087	 4.30930659801075E-02 
1088	 4.35070111805904E-02 
1089	 4.37525743854835E-02 
1090	 4.41018946592925E-02 
1091	 4.41887316791182E-02 
1092	 4.42361508629124E-02 
1093	 4.34104682465549E-02 
1094	 0.041676110855999 
1095	 4.11402914852782E-02 
1096	 3.96792858981787E-02 
1097	 3.94319263156759E-02 
1098	 0.041982792703358 
1099	 4.23036474294228E-02 
1100	 4.10712261281486E-02 
1101	 4.10839582548238E-02 
1102	 4.03825739985422E-02 
1103	 4.02439711149346E-02 
1104	 3.99606008298932E-02 
1105	 4.34802550169077E-02 
1106	 4.61589759005862E-02 
1107	 4.71029352806502E-02 
1108	 4.70769898810876E-02 
1109	 4.44068545941115E-02 
1110	 4.42970488843831E-02 
1111	 4.39871960699203E-02 
1112	 4.37490144859382E-02 
1113	 4.74696484734256E-02 
1114	 4.80074452112181E-02 
1115	 4.29881847773702E-02 
1116	 3.99189377505832E-02 
1117	 3.41697050861425E-02 
1118	 3.18646070624616E-02 
1119	 3.63748770721302E-02 
1120	 3.64401370500419E-02 
1121	 3.58609477787094E-02 
1122	 4.97150877992753E-02 
1123	 4.97301398387718E-02 
1124	 5.39897303191428E-02 
1125	 0.10328279216117 
1126	 0.1012994696528 
1127	 3.45657217119895E-02 
1128	 1.54491507248091E-02 
1129	 2.43944971645771E-02 
1130	 2.75553967543387E-02 
1131	 5.19876287733224E-02 
1132	 0.142673904899215 
1133	 0.133144341814256 
1134	 6.48171189359039E-02 
1135	 5.34918421401228E-02 
1136	 3.70406872031023E-02 
1137	 3.24198179449638E-02 
1138	 4.76795763735046E-02 
1139	 7.15652617122815E-02 
1140	 7.83811691339102E-02 
1141	 0.057035607178754 
1142	 5.40986486517708E-02 
1143	 6.91960036102611E-02 
1144	 6.40928109572013E-02 
1145	 6.15484023076031E-02 
1146	 6.90080454705508E-02 
1147	 4.53820222098725E-02 
1148	 1.66937011466869E-02 
1149	 0.029240306523822 
1150	 2.71621220211013E-02 
1151	 1.32267653623368E-02 
1152	 1.95047567134272E-02 
1153	 3.82329470015994E-02 
1154	 3.77627476501664E-02 
1155	 3.45713966597764E-02 
1156	 3.89794307645953E-02 
1157	 3.26009880448089E-02 
1158	 3.10486710964268E-02 
1159	 3.66996771185658E-02 
1160	 3.98047047090779E-02 
1161	 4.16462698948204E-02 
1162	 4.17256889984785E-02 
1163	 4.01074171111885E-02 
1164	 3.89353931455683E-02 
1165	 4.09258212080097E-02 
1166	 0.043469066273719 
1167	 4.45814426582612E-02 
1168	 4.57934416526784E-02 
1169	 4.51665737956708E-02 
1170	 4.30857390586855E-02 
1171	 4.19183996087728E-02 
1172	 4.04364262669395E-02 
1173	 4.00691240870815E-02 
1174	 4.02803493250318E-02 
1175	 4.07200099866599E-02 
1176	 4.14963864029242E-02 
1177	 4.19251174182035E-02 
1178	 4.22875117818596E-02 
1179	 4.21366327029766E-02 
1180	 4.16578595450693E-02 
1181	 4.10098938387934E-02 
1182	 0.041008245274151 
1183	 4.20849486304337E-02 
1184	 4.22064009580661E-02 
1185	 4.19657672231495E-02 
1186	 4.19948593088564E-02 
1187	 4.06966596981428E-02 
1188	 3.96710718330399E-02 
1189	 4.00856964438329E-02 
1190	 4.04965673758284E-02 
1191	 3.99131408463829E-02 
1192	 4.02104917675407E-02 
1193	 4.11506595507073E-02 
1194	 4.29314935114948E-02 
1195	 4.25395388331185E-02 
1196	 4.30583535880782E-02 
1197	 4.47331574920082E-02 
1198	 0.042718426226818 
1199	 4.12574018038637E-02 
1200	 4.23397089104163E-02 
1201	 4.15513151880886E-02 
1202	 3.98564579935147E-02 
1203	 4.02616786707356E-02 
1204	 4.17936565082945E-02 
1205	 4.16698837715169E-02 
1206	 4.16386550591337E-02 
1207	 4.33248155531984E-02 
1208	 4.29725816110902E-02 
1209	 4.20682413851463E-02 
1210	 4.33248218645113E-02 
1211	 4.34026456391101E-02 
1212	 4.26407210212474E-02 
1213	 0.042715068968714 
1214	 0.042622827319781 
1215	 4.25621796663024E-02 
1216	 4.25176730919741E-02 
1217	 0.042108385828972 
1218	 4.16876918056634E-02 
1219	 4.21682908749304E-02 
1220	 4.28621045058621E-02 
1221	 0.042929482817147 
1222	 4.19778975434684E-02 
1223	 0.04158528067468 
1224	 4.18437148965179E-02 
1225	 0.041560229217649 
1226	 0.042391618024918 
1227	 4.28789326873462E-02 
1228	 4.18277598708322E-02 
1229	 4.12892507445341E-02 
1230	 0.041301424452939 
1231	 4.07564853112254E-02 
1232	 4.02605296098473E-02 
1233	 4.06790669987144E-02 
1234	 4.09454987087941E-02 
1235	 0.040966843696107 
1236	 4.10274357221966E-02 
1237	 4.06777976058291E-02 
1238	 3.94687633676355E-02 
1239	 0.039782718276704 
1240	 4.05810834129397E-02 
1241	 4.05451781746141E-02 
1242	 4.13648564444357E-02 
1243	 4.19418049436192E-02 
1244	 4.09124922418593E-02 
1245	 4.04254018053196E-02 
1246	 4.08721714538929E-02 
1247	 4.06405464509273E-02 
1248	 4.03363338626136E-02 
1249	 4.11531980699277E-02 
1250	 4.17312905799134E-02 
1251	 4.16492877164717E-02 
1252	 4.16335110446066E-02 
1253	 4.16198137140648E-02 
1254	 4.19855344952898E-02 
1255	 4.24546328677883E-02 
1256	 4.21588752360269E-02 
1257	 4.14708693390428E-02 
1258	 4.08694204094096E-02 
1259	 3.94279511523264E-02 
1260	 3.87607873576728E-02 
1261	 3.84574850238644E-02 
1262	 3.86462165774629E-02 
1263	 3.95287911425016E-02 
1264	 4.00081139613584E-02 
1265	 0.03946983824981 
1266	 3.93194305344335E-02 
1267	 0.039131573950499 
1268	 3.81775526637557E-02 
1269	 3.89478198774695E-02 
1270	 4.06779737231419E-02 
1271	 4.14900026575118E-02 
1272	 4.13639885729704E-02 
1273	 4.11042369741096E-02 
1274	 4.09187067166362E-02 
1275	 4.04380882879791E-02 
1276	 4.07916142426484E-02 
1277	 4.09285036328288E-02 
1278	 4.06327484593452E-02 
1279	 4.14530731468173E-02 
1280	 0.042159142845406 
1281	 4.22628841285407E-02 
1282	 0.042279791174294 
1283	 0.042270310331392 
1284	 4.10427824744688E-02 
1285	 4.10407048175183E-02 
1286	 4.24712651060849E-02 
1287	 4.28290939066947E-02 
1288	 4.28170631010441E-02 
1289	 4.30150910523624E-02 
1290	 4.30617232958858E-02 
1291	 4.25734999231022E-02 
1292	 4.21800016776061E-02 
1293	 4.30558834195032E-02 
1294	 4.36613971952673E-02 
1295	 4.34331005823177E-02 
1296	 4.30602301398326E-02 
1297	 4.29429984036037E-02 
1298	 4.25603490043472E-02 
1299	 0.041200861387864 
1300	 4.09084122893201E-02 
1301	 4.16716814384524E-02 
1302	 4.17468380414018E-02 
1303	 4.22211606245432E-02 
1304	 0.043928705758464 
1305	 4.47686752034781E-02 
1306	 4.47214498204685E-02 
1307	 0.044201286961413 
1308	 4.49464892884945E-02 
1309	 4.44608712146441E-02 
1310	 4.44596705548531E-02 
1311	 4.72075937482341E-02 
1312	 4.71183285448259E-02 
1313	 4.43190772303061E-02 
1314	 4.35367468585282E-02 
1315	 4.26605237051475E-02 
1316	 4.16612283429013E-02 
1317	 4.12886746253433E-02 
1318	 4.08606018328368E-02 
1319	 0.038945474961761 
1320	 3.93778409548332E-02 
1321	 4.18937721373129E-02 
1322	 4.51721034738018E-02 
1323	 4.60800441542266E-02 
1324	 4.72979573896041E-02 
1325	 0.047241774747267 
1326	 4.36738669058288E-02 
1327	 4.05985518177066E-02 
1328	 4.13763430950682E-02 
1329	 4.82720358355299E-02 
1330	 5.02708509408535E-02 
1331	 4.57269859582778E-02 
1332	 5.12135020600849E-02 
1333	 5.32218307921674E-02 
1334	 4.83927802385465E-02 
1335	 4.50470829487517E-02 
1336	 4.32402407463546E-02 
1337	 4.51812980939491E-02 
1338	 4.75223763515175E-02 
1339	 4.87814249155644E-02 
1340	 6.23749964945405E-02 
1341	 6.35550870072745E-02 
1342	 4.38531915535576E-02 
1343	 3.68158188390991E-02 
1344	 2.82626879645203E-02 
1345	 3.08553783594962E-02 
1346	 6.34297764475803E-02 
1347	 7.58181143206141E-02 
1348	 8.32713802556208E-02 
1349	 0.108905345479189 
1350	 0.112451691570823 
1351	 0.139474447498291 
1352	 0.268747517648318 
1353	 0.328860041700061 
1354	 0.239851991683383 
1355	 0.228685038645212 
1356	 0.219699522433765 
1357	 0.200746176079449 
1358	 0.539575510941341 
1359	 0.541252550713598 
1360	 0.597028582308963 
1361	 1.01288761082447 
1362	 1.48603407150312 
1363	 3.0388745693282 
1364	 1.52057300459579 
1365	 0.569434048915506 
1366	 0.179044065047091 
1367	-5.55551055572418E-03 
1368	-0.156563416055295 
1369	-0.555466484650571 
1370	-0.859615430861604 
1371	-1.22364565200039 
1372	-0.401124715831094 
1373	 4.6125401796282 
1374	-20.9458801949303 
1375	-0.498437137214405 
1376	-0.333478413199341 
1377	-0.72984966385816 
1378	-0.712603182005909 
1379	 2.12055984494771 
1380	 2.08826930217257 
1381	 1.65489132112676 
1382	 1.53210356551844 
1383	 0.355123458605479 
1384	 0.183069367337558 
1385	 0.365014965574682 
1386	 0.441529036115867 
1387	 0.832972501608071 
1388	 0.623108417182629 
1389	 0.343394831272099 
1390	 0.201685206647371 
1391	-1.14142742488874 
1392	-6.16765886292217E-02 
1393	 0.590060414224465 
1394	 0.564972634049169 
1395	 0.435177328505699 
1396	 0.738245394042143 
1397	 1.30709993454012 
1398	-172.838956963302 
1399	 1.73954166406256 
1400	 0.764441489873798 
1401	 2.03024712900056 
1402	-133.179092867925 
1403	-4.47990581850861 
1404	-17.3516749386255 
1405	-223.374612321662 
1406	 0.929311093597117 
1407	 0.768832816277271 
1408	 4.12267209921523 
1409	 20.8969786738196 
1410	-2.09950240937884 
1411	-5.70644851285577 
1412	 2.24122156889734 
1413	 2.47294935238969 
1414	 3.97096174280708 
1415	 3.84636566464487 
1416	 6.52120253329816 
1417	 18.842697837865 
1418	 13.8714189326129 
1419	 4.31806587553321 
1420	 2.63921015262566 
1421	 1.06031116262032 
1422	-9.62132577895506E-02 
1423	-0.274863783635673 
1424	-1.38527662587144 
1425	-1.97146304559324 
1426	-1.20175368694004 
1427	-0.621808867489927 
1428	-0.143456267239513 
1429	-0.182267940473252 
1430	-0.295157081457872 
1431	-0.260819630754978 
1432	-0.286398432742388 
1433	-0.313927040977712 
1434	-0.314408002703961 
1435	-0.101451255677763 
1436	 0.114047318094016 
1437	 0.185095495134162 
1438	 0.362813011554853 
1439	 0.387862284376906 
1440	 0.276083281706377 
1441	 0.145021926778809 
1442	-0.19367435622484 
1443	-0.227449799174001 
1444	-0.099969299207936 
1445	-4.65164966628729E-02 
1446	 0.133025682689595 
1447	 0.259231369836831 
1448	 0.182838517372239 
1449	 0.095779614705617 
1450	 5.60285684581585E-02 
1451	 8.13775441810925E-02 
1452	 9.32524632722983E-02 
1453	 5.72891799932276E-02 
1454	 7.43009052402288E-02 
1455	 0.108058105956808 
1456	 9.01538147367646E-02 
1457	 4.74626478107118E-02 
1458	 7.13486154414001E-02 
1459	 0.102514049877553 
1460	 0.105024931594907 
1461	 0.162251156027542 
1462	 0.172546574380152 
1463	 9.22040246394291E-02 
1464	 8.56232515259748E-02 
1465	 0.157116180833558 
1466	 0.144214722222935 
1467	 0.069318360902371 
1468	 7.28148366328074E-02 
1469	 0.112153553782168 
1470	 0.100085069131909 
1471	 0.14815382347419 
1472	 0.117600902818064 
1473	-5.87358885107266E-02 
1474	-5.75308844148893E-02 
1475	 2.84344875169608E-02 
1476	 3.83490978238391E-02 
1477	 8.57641380986341E-02 
1478	 9.12527877750291E-02 
1479	 2.19942633831983E-02 
1480	 9.43944211285242E-03 
1481	 3.69382281733331E-02 
1482	 3.83019168417011E-02 
1483	 2.63907155132387E-02 
1484	 2.89947492680917E-02 
1485	 3.23588613687656E-02 
1486	 3.79846933350172E-02 
1487	 6.29332558100384E-02 
1488	 6.01950289209304E-02 
1489	 3.65737298324256E-02 
1490	 0.036222365622642 
1491	 3.86903559385919E-02 
1492	 3.35362041864065E-02 
1493	 3.51638229252816E-02 
1494	 0.037217754276036 
1495	 3.18163152602173E-02 
1496	 3.15637603143765E-02 
1497	 4.06069438250779E-02 
1498	 4.15772127860437E-02 
1499	 3.58564826529921E-02 
1500	 0.033218078527052 
1501	 2.83367721875011E-02 
1502	 2.92265786338077E-02 
1503	 3.61901045932294E-02 
1504	 3.73689816339047E-02 
1505	 3.74298248195818E-02 
1506	 4.03078105749238E-02 
1507	 3.97625188339653E-02 
1508	 3.71977124199058E-02 
1509	 3.95298598318907E-02 
1510	 3.99012661783796E-02 
1511	 3.49972372938973E-02 
1512	 3.37802826204598E-02 
1513	 3.36715642072351E-02 
1514	 3.24554060126983E-02 
1515	 3.48921752979946E-02 
1516	 3.70771147784422E-02 
1517	 0.036837578013307 
1518	 3.53037633064784E-02 
1519	 3.32871368335351E-02 
1520	 0.033351322159311 
1521	 3.41548023895091E-02 
1522	 3.43588154090078E-02 
1523	 3.50424541366969E-02 
1524	 3.33775909619669E-02 
1525	 3.25347542528074E-02 
1526	 3.35853431497914E-02 
1527	 3.24735827335035E-02 
1528	 3.27833309523397E-02 
1529	 0.035107367071788 
1530	 3.52792018502409E-02 
1531	 3.31366399381461E-02 
1532	 3.31064025134083E-02 
1533	 3.46022360191748E-02 
1534	 3.42700721767327E-02 
1535	 0.035861847664241 
1536	 3.78886153069385E-02 
1537	 3.51313593239905E-02 
1538	 3.44096569602167E-02 
1539	 3.66850544809219E-02 
1540	 3.46034471697962E-02 
1541	 3.37242086706359E-02 
1542	 3.62155663626077E-02 
1543	 3.58478405007146E-02 
1544	 3.44546669650493E-02 
1545	 3.46927232772175E-02 
1546	 3.41643252117149E-02 
1547	 3.35009854213814E-02 
1548	 3.44064837352235E-02 
1549	 3.51244131314377E-02 
1550	 3.60520936633978E-02 
1551	 3.67988953315294E-02 
1552	 3.63646751201907E-02 
1553	 3.74090218654812E-02 
1554	 3.86782879088292E-02 
1555	 3.81036000267996E-02 
1556	 3.76391969525947E-02 
1557	 3.74459027579335E-02 
1558	 3.62045972749217E-02 
1559	 0.03510898485804 
1560	 3.60575889976483E-02 
1561	 3.69910718799512E-02 
1562	 3.68817823892631E-02 
1563	 3.81775150211929E-02 
1564	 3.89663249636859E-02 
1565	 3.81105144195975E-02 
1566	 3.78526762607507E-02 
1567	 3.57975636988497E-02 
1568	 3.35687657927288E-02 
1569	 0.03461837459625 
1570	 3.34025969673593E-02 
1571	 3.12871770663196E-02 
1572	 3.34128086449272E-02 
1573	 3.55332972306395E-02 
1574	 3.50773004238453E-02 
1575	 3.45074216314389E-02 
1576	 3.61532470499636E-02 
1577	 3.69400233310181E-02 
1578	 3.59450091647965E-02 
1579	 3.67659407663178E-02 
1580	 3.70599477325548E-02 
1581	 3.61399418455241E-02 
1582	 3.68629895442317E-02 
1583	 3.73969843251419E-02 
1584	 3.70669766928352E-02 
1585	 3.81304704759082E-02 
1586	 0.037169901159251 
1587	 3.47321316141217E-02 
1588	 3.52890309557982E-02 
1589	 0.03533310360945 
1590	 3.38094717891215E-02 
1591	 3.33615744874645E-02 
1592	 3.42068596285389E-02 
1593	 3.33034341601135E-02 
1594	 3.27586605201573E-02 
1595	 0.03555712619435 
1596	 3.52497329053155E-02 
1597	 3.44028810223227E-02 
1598	 3.65753486803535E-02 
1599	 3.70778342744926E-02 
1600	 3.63987196795349E-02 
1601	 3.61860444788759E-02 
1602	 3.59471472586271E-02 
1603	 3.50671920356728E-02 
1604	 3.38308512780533E-02 
1605	 3.43243960856309E-02 
1606	 3.61185766193092E-02 
1607	 3.50759795499495E-02 
1608	 3.43570062506148E-02 
1609	 3.60767719612545E-02 
1610	 3.57786945341081E-02 
1611	 3.61491163776577E-02 
1612	 3.78791757483025E-02 
1613	 3.86665459703619E-02 
1614	 3.99584657834497E-02 
1615	 4.07089218227154E-02 
1616	 4.12653600178346E-02 
1617	 4.07544428281933E-02 
1618	 3.69462359987288E-02 
1619	 3.42245803401038E-02 
1620	 0.033766425987652 
1621	 3.34312218743105E-02 
1622	 3.27429677123399E-02 
1623	 3.22219313065128E-02 
1624	 3.25895696361897E-02 
1625	 3.18298801954065E-02 
1626	 3.31324660826133E-02 
1627	 3.53269815552193E-02 
1628	 3.36563992151106E-02 
1629	 0.032625196741275 
1630	 3.33815969980384E-02 
1631	 3.39303284014505E-02 
1632	 3.46191799701581E-02 
1633	 3.51688835693383E-02 
1634	 3.29625963837609E-02 
1635	 2.86726981952058E-02 
1636	 2.98486721980881E-02 
1637	 3.49433484300729E-02 
1638	 3.63703265788835E-02 
1639	 3.54882110690912E-02 
1640	 3.47867260316291E-02 
1641	 3.38136790817086E-02 
1642	 3.36849152479257E-02 
1643	 0.034860873721961 
1644	 3.45757782491906E-02 
1645	 0.032132973275221 
1646	 3.22028437093599E-02 
1647	 3.39886938913088E-02 
1648	 3.46794242712194E-02 
1649	 3.64615546815664E-02 
1650	 0.03555997343135 
1651	 0.033426743527541 
1652	 3.53322148831527E-02 
1653	 3.60303889417758E-02 
1654	 3.59488620070752E-02 
1655	 0.035737882554843 
1656	 3.63873682767099E-02 
1657	 3.78015090732333E-02 
1658	 0.037262194900349 
1659	 3.61412065759924E-02 
1660	 3.60694870266715E-02 
1661	 3.39831811008036E-02 
1662	 3.43650901220098E-02 
1663	 3.87153217266623E-02 
1664	 3.97447424309732E-02 
1665	 3.90354234719858E-02 
1666	 3.82723331710152E-02 
1667	 3.66127835566915E-02 
1668	 3.53926121052423E-02 
1669	 3.44768315160907E-02 
1670	 3.78529958190692E-02 
1671	 3.77992222815222E-02 
1672	 3.37345325060397E-02 
1673	 3.31817024226432E-02 
1674	 0.033088516510597 
1675	 3.28809894202366E-02 
1676	 3.50504272266215E-02 
1677	 3.63807882538073E-02 
1678	 3.53045731841857E-02 
1679	 0.035625792955699 
1680	 3.80945169313206E-02 
1681	 3.86557643448659E-02 
1682	 3.67781205477045E-02 
1683	 3.52250424634416E-02 
1684	 3.20063096247117E-02 
1685	 3.14584275605538E-02 
1686	 3.74966759283839E-02 
1687	 4.03661449063227E-02 
1688	 0.039139051199614 
1689	 3.97307113981055E-02 
1690	 3.97068957768887E-02 
1691	 3.80237165368392E-02 
1692	 3.66724238714929E-02 
1693	 3.46549269001096E-02 
1694	 3.15230788148625E-02 
1695	 3.06568425325958E-02 
1696	 3.37944100993677E-02 
1697	 3.54834229165805E-02 
1698	 3.44256893258678E-02 
1699	 3.41515736846994E-02 
1700	 3.31747180975632E-02 
1701	 3.28490973068379E-02 
1702	 3.53632383514377E-02 
1703	 3.73576723743048E-02 
1704	 3.73187143887333E-02 
1705	 3.68902060235646E-02 
1706	 0.038029416323812 
1707	 3.87029976006984E-02 
1708	 3.70181788840336E-02 
1709	 3.82450000743717E-02 
1710	 3.99191312361098E-02 
1711	 0.036202449820809 
1712	 3.54867940784144E-02 
1713	 0.036534740203224 
1714	 3.52232467453508E-02 
1715	 3.40620232300788E-02 
1716	 3.30990500923531E-02 
1717	 0.034763848250666 
1718	 3.82068853932891E-02 
1719	 3.60747275400174E-02 
1720	 3.36152929266652E-02 
1721	 3.48213637563337E-02 
1722	 3.34373296783517E-02 
1723	 3.54882536096599E-02 
1724	 4.09531662571695E-02 
1725	 3.75967079231365E-02 
1726	 3.54667471573082E-02 
1727	 3.61783032080462E-02 
1728	 3.19924492342382E-02 
1729	 3.31539619604782E-02 
1730	 3.63434028421837E-02 
1731	 3.45074564038227E-02 
1732	 3.53647041646446E-02 
1733	 3.56419305985733E-02 
1734	 3.22616211311058E-02 
1735	 3.26102749448457E-02 
1736	 3.24963617464653E-02 
1737	 3.20834372102817E-02 
1738	 3.70853091806185E-02 
1739	 3.77676504335196E-02 
1740	 3.56162436216861E-02 
1741	 3.81279791227863E-02 
1742	 3.68900541514534E-02 
1743	 3.52936500960263E-02 
1744	 3.82081706888403E-02 
1745	 3.93649202050341E-02 
1746	 4.13310016686876E-02 
1747	 4.08849493556596E-02 
1748	 0.037399247502586 
1749	 3.63912171480919E-02 
1750	 0.03427102823127 
1751	 3.35197143831319E-02 
1752	 3.60482692009673E-02 
1753	 3.60639503791688E-02 
1754	 3.45376659730775E-02 
1755	 0.034875066971555 
1756	 0.036169103827974 
1757	 4.00679782975638E-02 
1758	 0.040918835454865 
1759	 3.88083819809753E-02 
1760	 3.91630002462859E-02 
1761	 0.04135356501393 
1762	 4.15994989825406E-02 
1763	 0.045688131923373 
1764	 4.55344335576056E-02 
1765	 4.04671791573134E-02 
1766	 4.01219706379591E-02 
1767	 3.71544938917667E-02 
1768	 3.96412899180535E-02 
1769	 3.94223857997776E-02 
1770	 0.034085487255719 
1771	 4.46729350654197E-02 
1772	 4.70526700346932E-02 
1773	 4.16877710042715E-02 
1774	 5.31570922768092E-02 
1775	 4.23083389719056E-02 
1776	 0.034849343502579 
1777	 3.48550197910261E-02 
1778	 3.72944439997438E-02 
1779	 4.31448144417844E-02 
1780	 4.30022008378534E-02 
1781	 0.048299359151055 
1782	 4.83959155909968E-02 
1783	 0.030503704823761 
1784	 2.58444896046451E-02 
1785	 3.49550433521032E-02 
1786	 3.18108877641251E-02 
1787	 2.34116781077056E-02 
1788	 1.92176628930601E-02 
1789	 9.98985156661018E-03 
1790	 7.68471172821581E-03 
1791	 6.9385601778105E-03 
1792	 1.60547615993292E-02 
1793	 1.30584146807712E-02 
1794	-9.93225550318763E-03 
1795	 6.99408526083785E-03 
1796	-1.27765543930795E-04 
1797	 1.58842670930162E-02 
1798	 0.118841755219212 
1799	 8.86011649258992E-02 
1800	-0.175397759754443 
1801	-0.218711413428525 
1802	-0.140433384157533 
1803	-0.162716583427827 
1804	 5.06112450288998E-02 
1805	 0.200840379485545 
1806	 7.26652419672327E-02 
1807	 7.83147313061867E-03 
1808	 6.88159080556419E-02 
1809	 0.109823026330878 
1810	-2.51116295597179E-02 
1811	-0.303734102284752 
1812	-0.443231489223359 
1813	-0.514907633951512 
1814	-0.606613672300863 
1815	-0.514924015061956 
1816	-0.320284196891599 
1817	 4.42262998058681E-02 
1818	 0.292936933706596 
1819	 0.431378682212672 
1820	 0.717297882575623 
1821	 0.644495721447481 
1822	 4.73032655584884E-02 
1823	-1.55195762301693 
1824	-2.47139052514338 
1825	-0.795710573485972 
1826	-0.4047029787317 
1827	 0.989339678806487 
1828	 0.882393919366297 
1829	-1.4790402794768 
1830	-2.05176705356806 
1831	-6.36481227246631 
1832	-11.8326973380151 
1833	-3.15261166029477 
1834	-5.59989746410326 
1835	 24.1208581790524 
1836	 8.11025696426224 
1837	 0.235527569342158 
1838	-0.297364726356282 
1839	-2.20074087652459 
1840	-26.3237624737418 
1841	 0.387427457820833 
1842	-0.676985841928535 
1843	-0.907325029740095 
1844	-1.19226974621142 
1845	-0.905551622572901 
1846	-2.67657157073096 
1847	-2.74813505252513 
1848	 3.28547325723885 
1849	 0.645400442085422 
1850	 1.12808307678667 
1851	-0.114371462929806 
1852	-1.78294213772466E-02 
1853	 0.243597250649601 
1854	 0.218121692564291 
1855	 0.120419589879915 
1856	-2.37392154075588E-02 
1857	-0.218443559406839 
1858	-0.313922051710734 
1859	-0.566935676425277 
1860	-0.725073375824202 
1861	-0.470848989091049 
1862	-0.762375312394593 
1863	-0.781216343579642 
1864	 0.163621554492746 
1865	-0.779845346879721 
1866	 22.6406008257208 
1867	 9.54090465571483 
1868	 16.0754752775549 
1869	 62.3525731268462 
1870	-51.5494512781763 
1871	-3.24510599334438 
1872	-2.84312139612077 
1873	-2.07798956544906 
1874	-1.14065718000098 
1875	-0.688813793764711 
1876	-0.431469995580506 
1877	 1.14043163875543 
1878	 1.23042706498464 
1879	-0.810360143273938 
1880	-0.893329908693612 
1881	-0.373475467121476 
1882	-0.217428261805183 
1883	 0.156699895136113 
1884	 2.12281943193979 
1885	 2.81296057848101 
1886	 2.81297333408202 
1887	-0.927333912152865 
1888	 1.86832120411294 
1889	 0.519155559186746 
1890	 0.666514515646696 
1891	 0.657364852764094 
1892	 0.468138811389575 
1893	-0.707422906588341 
1894	-6.6599769398766 
1895	-11.6649052173208 
1896	-7.95031828804769 
1897	-2.27363054707469 
1898	-0.840085049230554 
1899	 0.539470641683068 
1900	 4.06024726104781 
1901	 0.241256195811531 
1902	 0.194732467684839 
1903	 0.613955152127663 
1904	 4.46652021807636 
1905	-1.52807087575031 
1906	 2.91582769655527E-02 
1907	-0.645985548222171 
1908	-1.23602189729663 
1909	-1.62804239499574 
1910	-5.02717831269373 
1911	 9.47504699462184 
1912	-3.15498882237816 
1913	-2.13157262768874 
1914	-0.956764060095584 
1915	-1.13270433078159 
1916	-0.169409086281057 
1917	-1.73652186272942 
1918	-4.37563017736754 
1919	 1.874892980588 
1920	 0.855408552867319 
1921	-0.846399820391315 
1922	-2.20064597601159 
1923	-2.176832711128 
1924	-1.89378784550504 
1925	-0.671338963858886 
1926	-0.411877352683071 
1927	-0.249185411033536 
1928	-0.364205653805803 
1929	 0.301021889340079 
1930	-0.384059417610199 
1931	-0.607687584100656 
1932	-0.712427774624386 
1933	-0.131803991731808 
1934	 0.947842117764473 
1935	 3.18274813540195 
1936	 12.0436405725919 
1937	 2.62082457137738 
1938	 0.347502554635713 
1939	 6.61513741106885E-02 
1940	-3.27042456663658E-02 
1941	 5.58733721838148E-02 
1942	-5.75531057589894E-02 
1943	 0.065113303026422 
1944	-2.73176334522161E-02 
1945	-0.666639479621233 
1946	-0.927173368727052 
1947	 27.9661342393777 
1948	-3.52117437614873E-02 
1949	 0.693972815628711 
1950	 0.860691649263557 
1951	 0.650968598568077 
1952	 0.846212612190528 
1953	 3.44285154530714 
1954	-1.38388679127603 
1955	-0.971940785320111 
1956	-0.73952569832952 
1957	-0.765337344242323 
1958	-0.391969780515529 
1959	 0.220864552455811 
1960	 0.243408729532735 
1961	 0.100828402288448 
1962	-0.199783103269584 
1963	-0.777804516437218 
1964	-2.68288309196743 
1965	-3.10791570065265 
1966	-3.37955776134703 
1967	-3.72137617109771 
1968	-2.63555204676944 
1969	-0.897949641129918 
1970	-0.6366176359048 
1971	-0.561862521229634 
1972	-0.553677559826772 
1973	-0.179397503722282 
1974	 4.34352478994495E-02 
1975	-0.173479249672536 
1976	-0.217367401048281 
1977	-0.324136895125726 
1978	-0.388288382417082 
1979	-0.420615747704951 
1980	-0.3451567689896 
1981	-0.319210167757013 
1982	-0.267241243600518 
1983	-0.332857479738673 
1984	-0.31121523949933 
1985	-0.213837445691758 
1986	-0.145889033853459 
1987	-7.41712159088337E-02 
1988	-4.39507473950329E-02 
1989	-5.75928196955268E-02 
1990	-9.53601406754146E-02 
1991	-0.122361018021629 
1992	-0.208975019392621 
1993	-0.255560552211805 
1994	-0.240141393202108 
1995	-0.204647166735166 
1996	-0.271004241715307 
1997	-9.57382809247993E-03 
1998	 0.185780988353208 
1999	-0.066181782585083 
2000	 8.99744468783333E-02 
2001	 0.307409633438814 
2002	 0.229057488461487 
2003	 0.383844353129206 
2004	 0.342061305482089 
2005	 0.219378894497393 
2006	 0.286022701273025 
2007	 0.424884836091074 
2008	 0.771256995159936 
2009	 1.01583231146246 
2010	 1.53689074397865 
2011	 1.4246755147278 
2012	 1.34426018792438 
2013	 0.424337322384126 
2014	 0.168088626546241 
2015	 0.169905882894389 
2016	 0.213720468612469 
2017	 0.281464662586918 
2018	 0.326206264522189 
2019	 0.215153107194072 
2020	 8.08262972117857E-02 
2021	 1.15442002313263E-02 
2022	 1.72153597078822E-03 
2023	 1.72288868657357E-02 
2024	 2.59087735988347E-02 
2025	 5.96652239942456E-02 
2026	 8.13999595416833E-02 
2027	 0.101713203864339 
2028	 7.96714839748818E-02 
2029	 8.37044141301051E-02 
2030	 6.23164814143933E-02 
2031	 5.66200358843388E-03 
2032	 3.84932524416846E-03 
2033	 1.21046001640679E-02 
2034	 2.59983789551863E-02 
2035	 3.89840298780559E-02 
2036	 3.56367486868797E-02 
2037	 1.73606539899483E-02 
2038	-5.91215054614754E-03 
2039	-8.12422595754613E-03 
2040	 1.20154999893075E-03 
2041	 8.10923921719784E-03 
2042	 3.29810183673347E-02 
2043	 4.38319009419854E-02 
2044	 4.96067945567522E-02 
2045	 4.99408519918792E-02 
2046	 0.04703004007757 
2047	 7.09080625478061E-02 
2048	 8.04943120945097E-02 
2049	 9.13086284397573E-02 
2050	 0.086620465247324 
2051	 4.82490267454578E-02 
2052	 1.77677558357869E-03 
2053	-0.037702280562404 
2054	-1.92154024044683E-02 
2055	-0.019696816687632 
2056	-1.87020987731497E-02 
2057	 7.32059526502193E-03 
2058	 1.70265218120713E-02 
2059	-0.010232345774922 
2060	 1.11663769529442E-02 
2061	 6.46503410939676E-02 
2062	 8.33697832808171E-02 
2063	 0.093793996113954 
2064	 8.81666082338829E-02 
2065	 6.00045073038176E-02 
2066	 2.96535703140286E-02 
2067	 2.14673614892498E-02 
2068	 1.36675735701517E-02 
2069	-2.07118234092316E-03 
2070	-9.60381061421997E-03 
2071	-5.31063260153507E-03 
2072	 2.60312638746657E-02 
2073	 3.14972843507642E-02 
2074	 3.47450981369661E-02 
2075	 3.19392909667691E-02 
2076	-9.67680486673246E-05 
2077	-5.79047144725942E-03 
2078	 2.0436768285676E-03 
2079	 1.67199390377621E-02 
2080	 3.65975569567642E-02 
2081	 7.30082760235918E-02 
2082	 0.104988578504075 
2083	 0.112948339524653 
2084	 0.090999742980109 
2085	 0.068974041503995 
2086	 0.063089063792515 
2087	 4.59645770222744E-02 
2088	 3.73381791174263E-02 
2089	 4.80192746646111E-02 
2090	 6.68081787835101E-02 
2091	 7.42424430044668E-02 
2092	 6.62435282504987E-02 
2093	 5.83671155349562E-02 
2094	 4.37037064030391E-02 
2095	-7.44780582476382E-03 
2096	-1.90062513277076E-02 
2097	-8.01811729690266E-03 
2098	 5.13881476310956E-03 
2099	 3.73650329593055E-02 
2100	 0.054397762734584 
2101	 4.71321610218297E-02 
2102	 3.36914787978485E-02 
2103	 1.11430759680361E-02 
2104	-1.73452161707649E-02 
2105	-7.11833060047719E-03 
2106	-9.85076052664115E-03 
2107	-1.48186411284669E-02 
2108	 1.07047795870104E-02 
2109	 2.19302498477975E-02 
2110	 3.40966565852075E-02 
2111	 5.61135002979552E-02 
2112	 6.13342919119478E-02 
2113	 6.59374885134897E-02 
2114	 7.20980291928388E-02 
2115	 7.20306408395023E-02 
2116	 6.35246715875519E-02 
2117	 5.44008192189103E-02 
2118	 0.035111878931161 
2119	 2.16464806846478E-02 
2120	 4.86981837985484E-03 
2121	 4.46930996349962E-04 
2122	-1.09324593884281E-03 
2123	 2.18402437787319E-02 
2124	 4.68421606446731E-02 
2125	 4.83732897356577E-02 
2126	 5.00932379282979E-02 
2127	 4.95222037711528E-02 
2128	 4.34749149889943E-02 
2129	 5.74710044143674E-02 
2130	 6.95983553923186E-02 
2131	 6.36082828623951E-02 
2132	 6.58738452144639E-02 
2133	 6.48985079557759E-02 
2134	 6.41494664801289E-02 
2135	 6.48501898299617E-02 
2136	 6.71277826815179E-02 
2137	 0.069728702341133 
2138	 7.02369089211237E-02 
2139	 7.25245006198887E-02 
2140	 7.03869457764275E-02 
2141	 6.02909219497386E-02 
2142	 5.59828324739624E-02 
2143	 5.03753148785542E-02 
2144	 5.34017356546788E-02 
2145	 5.52850426553496E-02 
2146	 5.48533984691166E-02 
2147	 5.28916896133821E-02 
2148	 4.28551548219663E-02 
2149	 3.45751087746594E-02 
2150	 2.74257284491435E-02 
2151	 1.90469866558837E-02 
2152	 1.77641175079245E-02 
2153	 5.86086970133896E-03 
2154	 5.83815275309989E-03 
2155	 3.09681613889214E-02 
2156	 4.19540721609428E-02 
2157	 4.17349310064016E-02 
2158	 0.039832194211125 
2159	 3.77815061265172E-02 
2160	 1.68966833116994E-02 
2161	 9.35174007809439E-03 
2162	 1.34063631651385E-02 
2163	 1.62112597708313E-02 
2164	 1.66502614860882E-02 
2165	 2.12299513793277E-02 
2166	 3.80733667616367E-02 
2167	 4.59384561086264E-02 
2168	 5.32497653062735E-02 
2169	 5.12873044564665E-02 
2170	 3.97540117438334E-02 
2171	 0.0261904344074 
2172	 2.89738286569698E-02 
2173	 0.031514920865355 
2174	 4.13991176106724E-02 
2175	 5.57745905781188E-02 
2176	 3.65138881494418E-02 
2177	 1.38425066125661E-02 
2178	 7.00492103042311E-03 
2179	 0.005302498638828 
2180	 2.08264953712656E-02 
2181	 2.41640477949284E-02 
2182	 0.016646385883582 
2183	 0.016283837175845 
2184	 1.35658709929049E-02 
2185	 1.98751110326044E-02 
2186	 2.18696439191531E-02 
2187	 2.40697734978262E-02 
2188	 2.32631420712875E-02 
2189	 0.017112847072551 
2190	 2.31084026174699E-02 
2191	 4.09146756803643E-02 
2192	 4.45013497994478E-02 
2193	 4.49685688449254E-02 
2194	 4.59353596689336E-02 
2195	 4.00269117356286E-02 
2196	 3.43730261643187E-02 
2197	 2.50206825600247E-02 
2198	 2.58276214536032E-02 
2199	 2.73980098616451E-02 
2200	 3.35153162700183E-02 
2201	 5.21660594440988E-02 
2202	 0.049512278897627 
2203	 2.63096200250588E-02 
2204	 1.71537425632145E-02 
2205	 3.56292331412845E-03 
2206	 1.43431225339472E-02 
2207	 2.64598295634984E-02 
2208	 5.99290813715324E-03 
2209	 0.013881208813291 
2210	 2.73653956684291E-02 
2211	 3.65923448112133E-02 
2212	 6.45123353528988E-02 
2213	 7.14915199051917E-02 
2214	 7.13166307682119E-02 
2215	 7.45463666616397E-02 
2216	 7.19335140592896E-02 
2217	 0.067070900949465 
2218	 5.12389778068713E-02 
2219	 0.047438172097479 
2220	 4.60818204051294E-02 
2221	 4.89139048993723E-02 
2222	 7.14964718709846E-02 
2223	 0.077823568576169 
2224	 6.96101149259224E-02 
2225	 7.06414954679884E-02 
2226	 7.05597966595774E-02 
2227	 6.84422891940778E-02 
2228	 7.20583322404627E-02 
2229	 6.78687494920563E-02 
2230	 5.57022146670707E-02 
2231	 4.79334769102713E-02 
2232	 4.02452049451146E-02 
2233	 3.32279477085497E-02 
2234	 3.18721842404594E-02 
2235	 1.94410879324057E-02 
2236	 1.33600681473113E-02 
2237	 6.4647480122728E-03 
2238	-8.84514126278252E-03 
2239	-1.46643784593543E-02 
2240	-7.77804928711004E-03 
2241	 3.20854645420347E-03 
2242	 1.64409949115244E-02 
2243	 3.63765288754369E-02 
2244	 0.058410463743838 
2245	 5.98283807606219E-02 
2246	 6.15596082096623E-02 
2247	 4.74881614640407E-02 
2248	 1.22616600800589E-02 
2249	 1.15136955277424E-02 
2250	 1.88318939057545E-02 
2251	 3.54389060928224E-02 
2252	 5.09346652276108E-02 
2253	 0.052119907799205 
2254	 4.20764089174393E-02 
2255	 1.20897858977274E-02 
2256	 3.03731052682461E-02 
2257	 5.12161494450965E-02 
2258	 5.12629997572678E-02 
2259	 0.087865770239313 
2260	 9.92968458422624E-02 
2261	 7.12100594977297E-02 
2262	 6.77589589655235E-02 
2263	 7.96352064311038E-02 
2264	 7.90932174541519E-02 
2265	 7.75622660595069E-02 
2266	 7.48302041951454E-02 
2267	 0.059737283739726 
2268	 0.042689720621511 
2269	 2.17370872391831E-02 
2270	 9.50496226900617E-03 
2271	 1.54067400815661E-02 
2272	 1.67028622487156E-02 
2273	 7.40235310394811E-03 
2274	 6.1703538092722E-03 
2275	-4.3587244690183E-03 
2276	-8.31954718751911E-03 
2277	 2.81370512258171E-02 
2278	 1.90358152861358E-02 
2279	-2.28372284335542E-02 
2280	-3.41717095612928E-02 
2281	-6.22847606118678E-02 
2282	-6.85205628983371E-02 
2283	-3.19885279330329E-02 
2284	-2.8734920878701E-03 
2285	 3.41789435496051E-02 
2286	 3.93827406248536E-02 
2287	 3.28492810919897E-02 
2288	 3.42543721907273E-02 
2289	-1.52930767289772E-02 
2290	-1.84700955395083E-02 
2291	 6.9767733733792E-03 
2292	-1.81740682455359E-02 
2293	-1.44739864242978E-02 
2294	 3.04843603619971E-02 
2295	 0.029764412732807 
2296	 2.45558419994264E-02 
2297	 3.09515045346352E-02 
2298	 2.90183206790392E-03 
2299	 1.01325263316557E-02 
2300	 2.25402209973778E-02 
2301	 3.10034804521782E-03 
2302	-0.022219637904992 
2303	-5.03304555798372E-02 
2304	-3.46190249165255E-02 
2305	 1.93339724406935E-02 
2306	 3.78917853887977E-02 
2307	 0.042329111283203 
2308	 7.53360632082222E-02 
2309	 0.111826217964965 
2310	 0.125504574434234 
2311	 0.151500622198337 
2312	 0.163138985507901 
2313	 0.056918116603767 
2314	 3.21752480518167E-03 
2315	 2.11288070750458E-02 
2316	-0.046909820020394 
2317	-5.54314242387046E-02 
2318	-0.013162031689641 
2319	 4.79395430945593E-03 
2320	 4.51117819004277E-02 
2321	 3.93986311242681E-02 
2322	-1.31367524421968E-02 
2323	-8.85210258380227E-02 
2324	-0.156763175003218 
2325	-0.16518680566845 
2326	-8.51967045386604E-02 
2327	-1.35074652037341E-02 
2328	 2.07864567484113E-02 
2329	 9.87927826478871E-02 
2330	 0.144091282628821 
2331	 0.198316055418557 
2332	 0.271083083857052 
2333	 0.261838216106923 
2334	 0.245306445632636 
2335	 0.129682970348002 
2336	-7.56465917954912E-02 
2337	-0.278624751417763 
2338	-0.457828943962176 
2339	-0.410822586052056 
2340	-0.198043719369548 
2341	-7.16854674141076E-02 
2342	 4.66701048150983E-02 
2343	-0.10748404336495 
2344	-0.320975364701399 
2345	-0.309298849247971 
2346	-0.537575242118832 
2347	-0.515698397446521 
2348	-0.359557524775437 
2349	-0.458438279649286 
2350	-0.316407211129969 
2351	-0.286985573580184 
2352	-0.329435190531556 
2353	-0.23821640372832 
2354	-0.192175121992714 
2355	-0.128459628111895 
2356	-3.06460503938862E-02 
2357	-9.64323489678619E-02 
2358	-0.250101166641378 
2359	-0.403879674672451 
2360	-0.466606366274737 
2361	-0.429776162493603 
2362	-0.34948630512679 
2363	-0.326402084318269 
2364	-0.46023093971595 
2365	-0.57937238957655 
2366	-0.555910684314995 
2367	-0.383660912406746 
2368	-7.66914719529219E-02 
2369	 0.172169774991397 
2370	 0.252303503010712 
2371	 7.19593010762099E-02 
2372	 3.83284511352249E-03 
2373	 9.76885249199802E-02 
2374	-0.13183389043802 
2375	-0.668498816797083 
2376	-0.935661986162643 
2377	-0.521552869279237 
2378	-0.399234720742552 
2379	-0.448274993983472 
2380	-0.737853310671374 
2381	-1.17456182067599 
2382	-1.12849220187704 
2383	-1.3477553563866 
2384	-0.810435316923844 
2385	-3.22205129248789 
2386	 1.2400433022777 
2387	-8.77854741155143E-02 
2388	-0.639723236431399 
2389	-4.70257705831266 
2390	-4.12644144709887 
2391	-1.66007023002856 
2392	-2.00212219693721 
2393	 166.644861136867 
2394	-3.88966525910198 
2395	 4.8112011537286 
2396	 7.5607844560516 
2397	 2.03743731751456 
2398	 51.1085965030678 
2399	-4.50030498194885 
2400	 13.2964156091333 
2401	 1.92978068594216 
2402	 0.50182193001342 
2403	-0.913263554492825 
2404	-2.65934999291919 
2405	-1.14933897303442 
2406	-0.802792821699879 
2407	-0.944369831721755 
2408	-4.69839478799518 
2409	-0.990792996244718 
2410	-0.722370342295123 
2411	-1.49831559052728 
2412	-1.72969679609836 
2413	-2.66014371523367 
2414	-0.904725266279934 
2415	 0.110122924628442 
2416	 1.52615454448416 
2417	 1.17451689146342 
2418	 0.604486204886699 
2419	 0.912190526932534 
2420	 0.543801627111333 
2421	-0.113177355896683 
2422	-0.953605609746296 
2423	-5.56101781640493 
2424	 3.29130397872828 
2425	 1.96658694414226 
2426	-10.003498786269 
2427	-0.678041788479087 
2428	 0.966537127924921 
2429	 0.79684866317078 
2430	-3.43190088527905 
2431	 0.953066085177916 
2432	-0.804338662243308 
2433	-1.59551179161723 
2434	-0.376559254912052 
2435	-0.221837089049763 
2436	-0.163991000835189 
2437	 0.264692446677944 
2438	 3.54403461761234E-02 
2439	-0.16129489704985 
2440	-0.10557728365991 
2441	 0.413241115220776 
2442	 1.25748143759399 
2443	-1.21058786096682 
2444	-0.711535948593697 
2445	 0.732404849233573 
2446	 0.814936785230226 
2447	 5.24842796219242 
2448	-7.51429267315888 
2449	-3.02901097976177 
2450	-2.66519639212697 
2451	-1.52596916126172 
2452	-7.86553488934272 
2453	 2.06577892813264 
2454	 0.971394313533082 
2455	 0.554971662210013 
2456	 0.441954234933504 
2457	 0.385239230192346 
2458	 0.386721495136734 
2459	 0.418025194110714 
2460	 0.336404225933043 
2461	 0.659384417632035 
2462	 0.848627736519224 
2463	 2.01543610727342 
2464	 2.41906668864558 
2465	 0.889098970104178 
2466	 0.561976824409267 
2467	 0.309425726473358 
2468	 1.38501296906068 
2469	-37.2417207504162 
2470	-1.42157076947603 
2471	-0.862101569915813 
2472	-0.866773911815634 
2473	-0.860605375648631 
2474	-1.06175447632897 
2475	-1.27129900515864 
2476	 0.515229641008727 
2477	 1.5629288433695 
2478	 0.855405772872339 
2479	 0.56285008683358 
2480	 0.447767393140986 
2481	-0.594706406926135 
2482	-0.978069495207422 
2483	-0.551588382337408 
2484	-0.789000587121794 
2485	-2.05181021067997 
2486	 1.7575111956729 
2487	 14.2520742324603 
2488	 0.54803438124468 
2489	 1.27678632123443 
2490	 0.656321336989969 
2491	-1.18823094034583 
2492	-0.374255967422409 
2493	-0.311389478538819 
2494	-0.898646470002269 
2495	 2.81987078079286 
2496	 1.90257498231012 
2497	 1.6547107233595 
2498	 2.46267209186298 
2499	 1.58784174219999 
2500	 1.00106570195806 
