Wavelength	rt0712EAST_CLOSE00000.asd
350	 3.99922905012417E-02 
351	 4.14612300216372E-02 
352	 0.040994515289931 
353	 4.09827064837902E-02 
354	 4.25112767221248E-02 
355	 4.21086355859397E-02 
356	 4.20324115317472E-02 
357	 4.20214318733788E-02 
358	 0.041423762600083 
359	 4.13079561882233E-02 
360	 4.13988252285514E-02 
361	 0.041388970219892 
362	 4.11002538898573E-02 
363	 4.15728082380692E-02 
364	 0.041931399103574 
365	 4.18048281095922E-02 
366	 4.19534479275811E-02 
367	 0.041555996425725 
368	 4.13563090363028E-02 
369	 4.19708596174847E-02 
370	 4.21606410473703E-02 
371	 4.17729739797656E-02 
372	 4.14124170088566E-02 
373	 4.19464037577874E-02 
374	 4.22618910333616E-02 
375	 4.22816059204011E-02 
376	 4.22561221600076E-02 
377	 4.26978132047898E-02 
378	 4.25013528675907E-02 
379	 4.20744589342786E-02 
380	 4.21027954390637E-02 
381	 4.29842554615349E-02 
382	 4.32071095600743E-02 
383	 4.29147946507723E-02 
384	 4.29498144423209E-02 
385	 4.24685687409313E-02 
386	 4.23910802346224E-02 
387	 4.31043623850099E-02 
388	 4.42078941238435E-02 
389	 4.47456606579748E-02 
390	 4.45716577282037E-02 
391	 0.043997823124186 
392	 4.38036977982644E-02 
393	 4.41763720549036E-02 
394	 4.44744052796496E-02 
395	 4.40861549425363E-02 
396	 4.43277233627616E-02 
397	 4.42545111257979E-02 
398	 0.044067762560947 
399	 4.49287744471363E-02 
400	 4.49607542056362E-02 
401	 0.044706795419052 
402	 0.044765992213093 
403	 4.50173731119086E-02 
404	 4.50794896205808E-02 
405	 4.49726056712456E-02 
406	 4.48785425440137E-02 
407	 4.48215385453901E-02 
408	 4.50906277412357E-02 
409	 4.55007036254743E-02 
410	 4.54431583854937E-02 
411	 4.55318288121093E-02 
412	 0.045516718339472 
413	 4.53423881030968E-02 
414	 4.58720913294265E-02 
415	 4.58926560027817E-02 
416	 4.57380679611832E-02 
417	 0.04614113907819 
418	 4.60321583421801E-02 
419	 4.58905524417074E-02 
420	 0.045975658191663 
421	 4.61821177152569E-02 
422	 4.62103455650009E-02 
423	 4.64240300257487E-02 
424	 4.69243622960649E-02 
425	 4.66538250080232E-02 
426	 0.046501941824179 
427	 4.67136022842978E-02 
428	 4.71285385354174E-02 
429	 4.72469704919914E-02 
430	 4.72261433674248E-02 
431	 0.047310334092395 
432	 4.77478935209782E-02 
433	 4.78210380515873E-02 
434	 0.047891140769105 
435	 4.82641244896569E-02 
436	 4.83344646823476E-02 
437	 4.83314498544533E-02 
438	 4.84380909166662E-02 
439	 4.87622068210457E-02 
440	 4.90006096852798E-02 
441	 4.92254449448189E-02 
442	 4.94526669445682E-02 
443	 4.95435385305337E-02 
444	 4.98467597070629E-02 
445	 5.01606436184885E-02 
446	 5.02582910052817E-02 
447	 5.04322462228999E-02 
448	 0.050704116669921 
449	 5.09696289905628E-02 
450	 5.10641427366257E-02 
451	 5.12701278929885E-02 
452	 5.15043995871271E-02 
453	 5.16153344397463E-02 
454	 5.13692181658704E-02 
455	 5.16434617613308E-02 
456	 5.20321561959408E-02 
457	 5.18842490725844E-02 
458	 5.20259170458241E-02 
459	 5.22031266826732E-02 
460	 5.22457622534853E-02 
461	 5.21436020414727E-02 
462	 5.24045417022879E-02 
463	 5.26935478775615E-02 
464	 5.27169827228579E-02 
465	 5.27677328332223E-02 
466	 5.29608795284021E-02 
467	 5.31943874797812E-02 
468	 5.32800896103231E-02 
469	 5.33632210122198E-02 
470	 5.35382783622443E-02 
471	 5.37768635312952E-02 
472	 5.38961402041638E-02 
473	 5.39836859010144E-02 
474	 5.42057692338535E-02 
475	 5.46245013954407E-02 
476	 5.48746183890296E-02 
477	 5.51076139614636E-02 
478	 5.53326452787942E-02 
479	 5.54793478876848E-02 
480	 5.57419868292677E-02 
481	 5.60358399193902E-02 
482	 5.62793864714387E-02 
483	 5.64659669615549E-02 
484	 5.66978107481116E-02 
485	 5.71114294978125E-02 
486	 5.76894404656414E-02 
487	 5.75957461779661E-02 
488	 5.76911351965803E-02 
489	 5.82218891119686E-02 
490	 5.87445369329325E-02 
491	 5.89729651055164E-02 
492	 5.92246865185882E-02 
493	 5.97124566920133E-02 
494	 5.99829833562917E-02 
495	 6.05041908283981E-02 
496	 6.10265074320532E-02 
497	 6.10554485216983E-02 
498	 0.061341475608912 
499	 6.17639622296945E-02 
500	 6.22360860024153E-02 
501	 6.28819057629313E-02 
502	 6.31820106699769E-02 
503	 6.34667959273226E-02 
504	 6.41045455353608E-02 
505	 6.44964543220224E-02 
506	 6.50258857478655E-02 
507	 0.065654108241489 
508	 6.60316453210909E-02 
509	 6.66478038413644E-02 
510	 6.71263252602739E-02 
511	 0.067306132063955 
512	 6.78434808305321E-02 
513	 6.83525802948879E-02 
514	 6.88881685457442E-02 
515	 6.96042515614319E-02 
516	 7.00211146775416E-02 
517	 7.07039359248964E-02 
518	 7.16112496299324E-02 
519	 7.18735803685018E-02 
520	 7.23042095542791E-02 
521	 7.28813758829814E-02 
522	 7.34501797023028E-02 
523	 7.40990004118814E-02 
524	 7.47866514299571E-02 
525	 0.075443510897184 
526	 7.60040464950699E-02 
527	 7.66410957277706E-02 
528	 7.73286215481196E-02 
529	 7.80182681078736E-02 
530	 7.86920697712147E-02 
531	 7.92968514447699E-02 
532	 7.98878715821324E-02 
533	 8.05572667723458E-02 
534	 8.13439353851488E-02 
535	 8.21042340575513E-02 
536	 8.28095953196738E-02 
537	 0.083568919519204 
538	 8.42848607857762E-02 
539	 0.085004357090026 
540	 8.57983151142702E-02 
541	 8.67245159460353E-02 
542	 8.75202665629116E-02 
543	 8.82117997415239E-02 
544	 8.90077743164477E-02 
545	 8.98970648919267E-02 
546	 0.090743382133712 
547	 9.14881686441639E-02 
548	 9.22457330969005E-02 
549	 9.30575007696855E-02 
550	 9.38531129799403E-02 
551	 9.45553422598954E-02 
552	 9.53007394849249E-02 
553	 9.61353142536096E-02 
554	 9.70324863020276E-02 
555	 9.78857240476106E-02 
556	 9.85953306004627E-02 
557	 9.93014932518024E-02 
558	 0.100094446117254 
559	 0.100697279738029 
560	 0.101443186921038 
561	 0.10218298133133 
562	 0.102540864226999 
563	 0.103120734724577 
564	 0.103804467738213 
565	 0.10435379989443 
566	 0.104448740066884 
567	 0.104801733846734 
568	 0.105246559565631 
569	 0.105407474128187 
570	 0.105852058069824 
571	 0.106235094198043 
572	 0.106443458480495 
573	 0.106670129274102 
574	 0.107089664360587 
575	 0.107344212356165 
576	 0.107228725110825 
577	 0.107445976604305 
578	 0.107593106296127 
579	 0.107630985873338 
580	 0.107725942189561 
581	 0.107742933130819 
582	 0.107738910448115 
583	 0.107685684699192 
584	 0.107343323411981 
585	 0.106998773238648 
586	 0.106529340975503 
587	 0.10574562662998 
588	 0.105136165309598 
589	 0.104735473559812 
590	 0.104468631238515 
591	 0.10415507710104 
592	 0.103987559848371 
593	 0.103782286673831 
594	 0.103381621583059 
595	 0.102897191689231 
596	 0.102383528971326 
597	 0.101893217105156 
598	 0.101449280915619 
599	 0.100825811411419 
600	 0.10014040205239 
601	 9.96204808928585E-02 
602	 9.96446810739133E-02 
603	 9.93399825977308E-02 
604	 9.89508146728487E-02 
605	 9.89544222455191E-02 
606	 9.90116203012002E-02 
607	 9.90017619106292E-02 
608	 9.89095146993894E-02 
609	 9.88242832731973E-02 
610	 9.88563254986294E-02 
611	 9.87530960932922E-02 
612	 9.83909038526214E-02 
613	 9.82386275523075E-02 
614	 0.098181624201852 
615	 9.81122279692225E-02 
616	 9.79356954897245E-02 
617	 9.77231758926388E-02 
618	 0.097560650758468 
619	 9.74914171561329E-02 
620	 0.097506219518075 
621	 9.73973038504062E-02 
622	 9.72781024913899E-02 
623	 9.73145236376501E-02 
624	 9.73861822888742E-02 
625	 9.71658735071671E-02 
626	 9.67168335950795E-02 
627	 9.64925799485396E-02 
628	 9.64537743389285E-02 
629	 9.63630316291529E-02 
630	 9.61365957068117E-02 
631	 9.62214634656412E-02 
632	 9.62229136754994E-02 
633	 9.62352142838176E-02 
634	 9.64705251422066E-02 
635	 9.61455842785706E-02 
636	 9.59297396177556E-02 
637	 9.61258247373367E-02 
638	 9.63413179930522E-02 
639	 9.61590340160728E-02 
640	 9.59797909368946E-02 
641	 9.61912719861478E-02 
642	 9.60054888810846E-02 
643	 9.58693605555084E-02 
644	 9.57510184115585E-02 
645	 9.52161125084227E-02 
646	 9.45681754911917E-02 
647	 9.43390787198276E-02 
648	 9.46324969552229E-02 
649	 9.44929423980304E-02 
650	 9.42926833991067E-02 
651	 9.40907904720799E-02 
652	 9.38205862616372E-02 
653	 9.31452177715422E-02 
654	 0.092526182278787 
655	 9.20084357659364E-02 
656	 0.091072737623189 
657	 9.02733863256784E-02 
658	 0.089543729867048 
659	 0.088773349036479 
660	 8.82304709497348E-02 
661	 0.087503753701492 
662	 8.65692571594331E-02 
663	 8.56831989956167E-02 
664	 8.50844220897344E-02 
665	 8.45218819013451E-02 
666	 8.38978441712732E-02 
667	 8.35224294216442E-02 
668	 8.32725901287626E-02 
669	 8.30089713561238E-02 
670	 8.26739849148687E-02 
671	 8.26599138703878E-02 
672	 8.25956853275624E-02 
673	 8.25668366462248E-02 
674	 8.30694841455735E-02 
675	 8.33741648131345E-02 
676	 8.36722051166087E-02 
677	 8.41493671380674E-02 
678	 0.084492466893872 
679	 8.50201048951179E-02 
680	 8.55757730842718E-02 
681	 8.59206162352905E-02 
682	 0.086880961464158 
683	 8.78752770663807E-02 
684	 8.85308110738502E-02 
685	 8.89591751323514E-02 
686	 8.95189097573193E-02 
687	 9.01552713297143E-02 
688	 9.06459279831582E-02 
689	 9.10022720429752E-02 
690	 9.12079471129968E-02 
691	 9.12437755310841E-02 
692	 9.10896229598291E-02 
693	 9.09370930844061E-02 
694	 9.09907658563013E-02 
695	 9.11074519024016E-02 
696	 0.090709583580677 
697	 9.01243629787876E-02 
698	 8.94228400678039E-02 
699	 8.86681925787667E-02 
700	 8.76797199922422E-02 
701	 8.70959220023012E-02 
702	 8.66843069883528E-02 
703	 8.56082255188899E-02 
704	 0.084891770995544 
705	 8.40868724706212E-02 
706	 8.29794648645679E-02 
707	 8.22962716888773E-02 
708	 8.08868579612938E-02 
709	 7.92572641906475E-02 
710	 7.82488497100238E-02 
711	 7.67917144896504E-02 
712	 0.075199979943084 
713	 7.35278919379313E-02 
714	 7.14399995707293E-02 
715	 6.97669027620579E-02 
716	 6.78055366454048E-02 
717	 6.50929545577952E-02 
718	 6.38604147273053E-02 
719	 6.19820249568063E-02 
720	 6.01547641772138E-02 
721	 5.90780006867046E-02 
722	 5.76367820104009E-02 
723	 5.58941412802791E-02 
724	 0.054332695035393 
725	 5.30282871062547E-02 
726	 5.11845811039139E-02 
727	 4.91041993928836E-02 
728	 4.72413704045083E-02 
729	 4.57601116723822E-02 
730	 4.44697807249862E-02 
731	 4.29759267748547E-02 
732	 4.10251184886157E-02 
733	 0.040048672719012 
734	 3.91115234506155E-02 
735	 3.81326930483722E-02 
736	 3.81907880254786E-02 
737	 3.76326185337739E-02 
738	 0.036890327361567 
739	 3.65951048581305E-02 
740	 3.65146364687234E-02 
741	 3.65072153894193E-02 
742	 3.65095685305354E-02 
743	 3.64956153027812E-02 
744	 3.63141481966824E-02 
745	 3.63327114525784E-02 
746	 3.65566850456273E-02 
747	 3.64567153075207E-02 
748	 3.63481918957956E-02 
749	 3.62412482709168E-02 
750	 3.61130123863354E-02 
751	 3.60680479979434E-02 
752	 3.60438338373163E-02 
753	 3.59554472526113E-02 
754	 3.57791176390753E-02 
755	 3.61009275887599E-02 
756	 3.60951927094863E-02 
757	 3.56249827239413E-02 
758	 0.035800189827265 
759	 3.55466433904917E-02 
760	 3.49097616181301E-02 
761	 3.50976900102514E-02 
762	 3.52254523851451E-02 
763	 3.54989697849627E-02 
764	 3.56673649709569E-02 
765	 3.56017591967049E-02 
766	 3.58318838324329E-02 
767	 3.60483960341015E-02 
768	 3.61568469294087E-02 
769	 3.62280387823491E-02 
770	 3.63465282830978E-02 
771	 3.65000760105416E-02 
772	 3.66462775010313E-02 
773	 3.67053762063183E-02 
774	 3.69552557685292E-02 
775	 3.71408796061218E-02 
776	 3.69537188746058E-02 
777	 3.72449934626951E-02 
778	 3.76343206679248E-02 
779	 3.77875301254477E-02 
780	 3.75710080448354E-02 
781	 3.78993448606553E-02 
782	 0.03828656746659 
783	 3.83090203143591E-02 
784	 3.82702727348955E-02 
785	 3.85337508424039E-02 
786	 0.038939830772784 
787	 3.91546729559005E-02 
788	 3.92807930245525E-02 
789	 3.93667903173264E-02 
790	 3.96026683084406E-02 
791	 4.01804199563107E-02 
792	 0.040222673043126 
793	 4.03846025653063E-02 
794	 4.08810715041405E-02 
795	 4.08452762991583E-02 
796	 4.12909528001098E-02 
797	 4.17548409877284E-02 
798	 4.17026944316621E-02 
799	 4.17105046770576E-02 
800	 4.21594534833344E-02 
801	 4.27486701022777E-02 
802	 0.042857392596146 
803	 4.28829212270878E-02 
804	 4.31097661243685E-02 
805	 4.33647074413007E-02 
806	 4.30694946771661E-02 
807	 4.33249540268811E-02 
808	 4.32219957343188E-02 
809	 4.22961160979307E-02 
810	 4.26224235558062E-02 
811	 4.20298429571465E-02 
812	 4.10626423144213E-02 
813	 4.13259813624107E-02 
814	 4.14258927116511E-02 
815	 4.09814385403959E-02 
816	 4.03943664208263E-02 
817	 4.04088311716495E-02 
818	 3.92283946203001E-02 
819	 3.88096679566896E-02 
820	 3.91876885690034E-02 
821	 0.038014835407599 
822	 3.78387151451152E-02 
823	 3.76654911126505E-02 
824	 3.64783264683962E-02 
825	 3.50807274628589E-02 
826	 3.40640044443512E-02 
827	 3.32281787283749E-02 
828	 3.22647328255077E-02 
829	 3.20204634235619E-02 
830	 3.13498908844862E-02 
831	 3.03122560631374E-02 
832	 2.98815487229727E-02 
833	 3.01600043598362E-02 
834	 3.04240874805002E-02 
835	 3.01449371245605E-02 
836	 0.02916356265793 
837	 2.91007186931571E-02 
838	 2.91341257376865E-02 
839	 2.86470771489402E-02 
840	 2.89406012163187E-02 
841	 2.86576183654382E-02 
842	 0.028362662470918 
843	 2.89065594185413E-02 
844	 2.92391431921009E-02 
845	 2.89023743689335E-02 
846	 2.83173659108428E-02 
847	 2.83612182419962E-02 
848	 2.83813872147631E-02 
849	 2.83375569232544E-02 
850	 2.81243910596378E-02 
851	 2.75318294979264E-02 
852	 2.76887212042894E-02 
853	 2.80102408258953E-02 
854	 2.80491974915104E-02 
855	 2.85119554083821E-02 
856	 2.80895391533249E-02 
857	 2.74901677557364E-02 
858	 2.75473919368205E-02 
859	 2.75284833020702E-02 
860	 2.72045760541418E-02 
861	 2.71504191144883E-02 
862	 2.79785079233768E-02 
863	 2.79861081528412E-02 
864	 2.75677859668699E-02 
865	 2.72118733904989E-02 
866	 0.02724854040199 
867	 2.67795582239793E-02 
868	 2.65869676678782E-02 
869	 2.68760733026882E-02 
870	 2.68436960339423E-02 
871	 2.65851790636428E-02 
872	 2.64921211582996E-02 
873	 2.66406325553567E-02 
874	 2.62278608547759E-02 
875	 2.59722481909301E-02 
876	 2.59915176767084E-02 
877	 2.61983771856391E-02 
878	 2.66018634134602E-02 
879	 2.63967485789827E-02 
880	 2.56916728740422E-02 
881	 2.51628060171297E-02 
882	 2.56576526528773E-02 
883	 2.57648249548883E-02 
884	 2.53109511837976E-02 
885	 2.51559865059297E-02 
886	 2.53453696484412E-02 
887	 2.57008126040017E-02 
888	 2.57893195013601E-02 
889	 2.50583232430092E-02 
890	 2.49065584334539E-02 
891	 2.53174241552126E-02 
892	 2.58246526402695E-02 
893	 2.55891730887059E-02 
894	 2.53042009985247E-02 
895	 2.46359950164651E-02 
896	 0.023515549558679 
897	 2.39566562572079E-02 
898	 2.35521978874798E-02 
899	 2.37957774610201E-02 
900	 2.58507216425554E-02 
901	 2.50526824323949E-02 
902	 2.42488854302035E-02 
903	 2.41825074800953E-02 
904	 2.46780113352026E-02 
905	 2.57306050075934E-02 
906	 2.38637143194412E-02 
907	 2.13080758611432E-02 
908	 0.023847746066381 
909	 2.32460869858937E-02 
910	 2.33245111769527E-02 
911	 2.46877101022057E-02 
912	 0.024189533696976 
913	 2.38626747757763E-02 
914	 2.28160237790177E-02 
915	 2.20341419036385E-02 
916	 2.41395784267246E-02 
917	 2.35748449225547E-02 
918	 2.31577247078476E-02 
919	 2.44728350979817E-02 
920	 2.62327322608856E-02 
921	 2.57720419317569E-02 
922	 2.32209529311908E-02 
923	 2.03084054308111E-02 
924	 2.12019385900293E-02 
925	 2.28592597251096E-02 
926	 2.30159943207449E-02 
927	 0.021047939584315 
928	 2.33656535811294E-02 
929	 1.78057951377759E-02 
930	 5.36931182267117E-03 
931	 1.44871394673941E-03 
932	 2.26960767376752E-02 
933	 3.96422236995603E-02 
934	 3.08244646823657E-02 
935	 6.11451300536732E-03 
936	 7.1430875490313E-03 
937	 2.42937079449366E-02 
938	 2.91234663107221E-02 
939	 8.58644461762144E-03 
940	 2.23506801089723E-02 
941	 2.74226859336788E-02 
942	 2.07378437578981E-02 
943	 1.80553382010537E-02 
944	 1.80962393588452E-02 
945	 1.67462095340066E-02 
946	 1.02669354945117E-02 
947	 1.50842352990553E-03 
948	 1.73363545971543E-02 
949	 1.84069889594435E-02 
950	 1.41256656804431E-02 
951	 3.37814194203074E-02 
952	 3.21590875860455E-02 
953	 1.54052176434402E-02 
954	 5.89206006701987E-03 
955	 2.22805577891496E-02 
956	 1.03233227172383E-02 
957	 1.02916474716221E-02 
958	 2.02617111461193E-02 
959	 1.52715298300136E-02 
960	 2.72298009479757E-02 
961	 2.74175368997895E-02 
962	 2.00377170553876E-02 
963	 2.65609645615039E-02 
964	 3.24028660829916E-02 
965	 2.92526906343577E-02 
966	 2.19482083535352E-02 
967	 2.09738205320671E-02 
968	 2.21228099636108E-02 
969	 2.27741035091496E-02 
970	 2.31279815580142E-02 
971	 2.45687524501334E-02 
972	 1.73477887404465E-02 
973	 1.79012351294102E-02 
974	 2.70688269132954E-02 
975	 2.82048204538342E-02 
976	 1.91872710608051E-02 
977	 1.88663986823706E-02 
978	 2.57612116070364E-02 
979	 2.27094047038854E-02 
980	 2.31212155641279E-02 
981	 0.023490438342661 
982	 2.25839934904308E-02 
983	 2.23987554409097E-02 
984	 2.71534786999684E-02 
985	 2.68035432142809E-02 
986	 2.09064941122218E-02 
987	 1.73945248596527E-02 
988	 0.022732818770034 
989	 2.11922776797677E-02 
990	 1.57338277109673E-02 
991	 2.09985659438294E-02 
992	 2.29495929078747E-02 
993	 2.48879324748991E-02 
994	 2.49337052485397E-02 
995	 1.96228257356676E-02 
996	 2.19340395449314E-02 
997	 0.022548396086817 
998	 2.00048451211114E-02 
999	 1.88007211874787E-02 
1000	 2.09884870901972E-02 
1001	 2.54811655133723E-02 
1002	 0.027335446296708 
1003	 2.81465868961375E-02 
1004	 2.76890637279097E-02 
1005	 2.68306569345507E-02 
1006	 2.57321238557084E-02 
1007	 0.024493908059665 
1008	 0.022650571499346 
1009	 2.09962976477764E-02 
1010	 2.11714296754515E-02 
1011	 2.28010234210839E-02 
1012	 2.32916707951696E-02 
1013	 2.28873105484025E-02 
1014	 2.28579635801661E-02 
1015	 2.15678780873358E-02 
1016	 2.17342305786131E-02 
1017	 2.33055247925093E-02 
1018	 2.42149819925114E-02 
1019	 2.59885379071861E-02 
1020	 2.64053559103612E-02 
1021	 2.62040110235096E-02 
1022	 2.50507530360628E-02 
1023	 2.42884305929312E-02 
1024	 2.32560079804884E-02 
1025	 2.21480770160525E-02 
1026	 2.20849351820071E-02 
1027	 2.23928111594115E-02 
1028	 0.02318859966317 
1029	 2.36801180234811E-02 
1030	 2.51847882952507E-02 
1031	 2.53780196274121E-02 
1032	 2.46994645485176E-02 
1033	 2.40431328228658E-02 
1034	 2.24203136860029E-02 
1035	 2.18700909373693E-02 
1036	 2.14648899158919E-02 
1037	 2.14278290013339E-02 
1038	 2.21207796574947E-02 
1039	 2.31118221523509E-02 
1040	 2.30893307982651E-02 
1041	 2.36154917821451E-02 
1042	 2.37439658778792E-02 
1043	 2.34954675733286E-02 
1044	 2.33816643522094E-02 
1045	 2.31741477581472E-02 
1046	 2.32466977500771E-02 
1047	 0.023688714597295 
1048	 2.35599534557221E-02 
1049	 2.32965467197546E-02 
1050	 2.30503453889848E-02 
1051	 2.19767717186143E-02 
1052	 2.17306701300592E-02 
1053	 2.23887831643193E-02 
1054	 2.25685088805923E-02 
1055	 2.27571536731593E-02 
1056	 2.29793180735541E-02 
1057	 2.31224300565729E-02 
1058	 2.33787378652874E-02 
1059	 2.25500761216809E-02 
1060	 2.10191905343584E-02 
1061	 2.02460917567189E-02 
1062	 1.78914277626485E-02 
1063	 1.82504173480052E-02 
1064	 2.13263904660275E-02 
1065	 2.24966471718191E-02 
1066	 2.46355226903378E-02 
1067	 2.54030994022844E-02 
1068	 2.45934069090699E-02 
1069	 2.39948707130473E-02 
1070	 2.22229953515814E-02 
1071	 2.16585180537468E-02 
1072	 0.021185136086915 
1073	 2.15521970984945E-02 
1074	 2.16955016952542E-02 
1075	 0.023094432591463 
1076	 2.29004163343015E-02 
1077	 2.13428032950599E-02 
1078	 2.11657785664822E-02 
1079	 2.13304754682582E-02 
1080	 2.12249104006316E-02 
1081	 2.14292361203664E-02 
1082	 2.18788763245825E-02 
1083	 2.21014602783764E-02 
1084	 2.24004901070157E-02 
1085	 2.38713157656933E-02 
1086	 2.43385750019493E-02 
1087	 2.36104663144626E-02 
1088	 2.34112921982336E-02 
1089	 2.28103842534939E-02 
1090	 2.28738856978328E-02 
1091	 0.022772554449166 
1092	 2.33027037399861E-02 
1093	 2.26024874788512E-02 
1094	 2.05759189273601E-02 
1095	 2.01252456107666E-02 
1096	 0.01988941833916 
1097	 1.99958717350604E-02 
1098	 2.19344704849056E-02 
1099	 2.25113046493557E-02 
1100	 2.23617670066986E-02 
1101	 2.19096525628827E-02 
1102	 2.02796627437063E-02 
1103	 1.95847835946699E-02 
1104	 1.87129308335657E-02 
1105	 1.83557570146106E-02 
1106	 1.80911509034553E-02 
1107	 1.91051247416048E-02 
1108	 2.16996890128595E-02 
1109	 2.16293792876924E-02 
1110	 2.04132531399093E-02 
1111	 1.72449843744015E-02 
1112	 1.68885898378518E-02 
1113	 1.36708137898337E-02 
1114	 0.013785997297688 
1115	 2.40541589918042E-02 
1116	 2.58686276960566E-02 
1117	 2.16789101620798E-02 
1118	 2.13692118162049E-02 
1119	 1.16564974890978E-02 
1120	 6.47906527547073E-03 
1121	 1.69644746953723E-02 
1122	 1.65252244785252E-02 
1123	-2.80792292667716E-02 
1124	-1.97627374732142E-02 
1125	 2.78211095172546E-02 
1126	 1.66733078659861E-03 
1127	 2.6898003673955E-03 
1128	 6.70582870509329E-02 
1129	 6.75905792033253E-02 
1130	 1.16081953372832E-02 
1131	 1.19042075594247E-02 
1132	 1.97341740727286E-02 
1133	 1.83408382152386E-02 
1134	 3.52370857134784E-02 
1135	 4.21950137308738E-02 
1136	 4.47106758669851E-02 
1137	 4.39211353399195E-02 
1138	 3.96042544779567E-02 
1139	 3.32362963948459E-02 
1140	 3.33756968497947E-02 
1141	 2.20093585198387E-02 
1142	 7.36946168355056E-03 
1143	-6.03482772646392E-03 
1144	-0.010678696354793 
1145	-1.31023874676698E-02 
1146	-0.016211406450934 
1147	-9.20253021455926E-03 
1148	-1.77113895456161E-03 
1149	 1.37258889857954E-02 
1150	 1.85761092310249E-02 
1151	 2.08299759063914E-02 
1152	 0.02289744136904 
1153	 2.50455316839787E-02 
1154	 1.88188261594686E-02 
1155	 9.42789084298538E-03 
1156	 9.19010702996893E-03 
1157	 7.67980456356316E-03 
1158	 8.52383367656415E-03 
1159	 1.87525397344451E-02 
1160	 2.95351656332663E-02 
1161	 3.04612956616581E-02 
1162	 2.71929019392325E-02 
1163	 2.29025074593628E-02 
1164	 1.72936684794435E-02 
1165	 1.65545378980986E-02 
1166	 1.80150048011898E-02 
1167	 1.74729441163846E-02 
1168	 1.67354251509473E-02 
1169	 0.017051322825009 
1170	 0.01710443511936 
1171	 1.70714288404165E-02 
1172	 1.78060598027579E-02 
1173	 1.85194518564928E-02 
1174	 1.94114401206123E-02 
1175	 1.86807655509842E-02 
1176	 1.70119400131259E-02 
1177	 1.73780700287142E-02 
1178	 1.76504594279388E-02 
1179	 1.70060605510628E-02 
1180	 1.92225673485014E-02 
1181	 2.10886430091803E-02 
1182	 2.04930798419328E-02 
1183	 2.03082524498167E-02 
1184	 2.05400059114549E-02 
1185	 2.02810825512902E-02 
1186	 2.00241499975076E-02 
1187	 2.03534179294094E-02 
1188	 0.020945996693842 
1189	 0.020771803013899 
1190	 1.94669985330151E-02 
1191	 0.018732691371972 
1192	 1.85526286082325E-02 
1193	 1.85745147072999E-02 
1194	 1.78939543019562E-02 
1195	 1.82730169940456E-02 
1196	 1.97086513625569E-02 
1197	 1.87936761057269E-02 
1198	 1.73744552296211E-02 
1199	 1.83327232015522E-02 
1200	 1.87447931862881E-02 
1201	 1.81315340371434E-02 
1202	 1.86190519770671E-02 
1203	 1.90445572909648E-02 
1204	 1.82991931514762E-02 
1205	 1.88907507019567E-02 
1206	 2.06013828541933E-02 
1207	 2.10068748702503E-02 
1208	 2.01377497222351E-02 
1209	 1.90716894540555E-02 
1210	 0.019814286747339 
1211	 2.09780668929056E-02 
1212	 1.95890331901354E-02 
1213	 1.87279642130747E-02 
1214	 1.91336125237269E-02 
1215	 1.96309502274044E-02 
1216	 1.86210230333706E-02 
1217	 1.91842746048321E-02 
1218	 2.06895625687026E-02 
1219	 2.00365039808697E-02 
1220	 1.96109088870994E-02 
1221	 2.09500773966012E-02 
1222	 2.16030366741143E-02 
1223	 2.03228406084538E-02 
1224	 1.92811304467567E-02 
1225	 1.91694297831369E-02 
1226	 1.91029634566433E-02 
1227	 1.98452664780688E-02 
1228	 2.00640799434159E-02 
1229	 1.96955595174655E-02 
1230	 2.01162249521846E-02 
1231	 2.00656883038347E-02 
1232	 2.00227245357754E-02 
1233	 1.99162677191345E-02 
1234	 1.93693828382551E-02 
1235	 1.94001646100046E-02 
1236	 2.00457837526284E-02 
1237	 2.01134191014945E-02 
1238	 2.03212022305093E-02 
1239	 2.03294268062579E-02 
1240	 1.99213810102345E-02 
1241	 2.00026592650451E-02 
1242	 1.98136601087558E-02 
1243	 1.96110326691757E-02 
1244	 2.03410501009413E-02 
1245	 2.07598204408304E-02 
1246	 2.05454252875599E-02 
1247	 2.02400672393275E-02 
1248	 0.018723230960928 
1249	 1.72185961633586E-02 
1250	 0.018570600076966 
1251	 1.98482867317092E-02 
1252	 1.88015253034712E-02 
1253	 1.85902040849308E-02 
1254	 1.93036410077494E-02 
1255	 1.89910872034552E-02 
1256	 0.018709311070805 
1257	 0.019841098883955 
1258	 2.07023392201732E-02 
1259	 2.02414300041563E-02 
1260	 1.99564729686133E-02 
1261	 2.12590425255147E-02 
1262	 2.15172989651302E-02 
1263	 1.99279593516001E-02 
1264	 1.93619179737039E-02 
1265	 0.02103447815293 
1266	 2.02486752564843E-02 
1267	 1.94584116854687E-02 
1268	 2.03939492054548E-02 
1269	 1.97859321362738E-02 
1270	 1.94990856506483E-02 
1271	 1.99082171772428E-02 
1272	 1.99047947023139E-02 
1273	 2.08001742589995E-02 
1274	 0.021282816528644 
1275	 2.05666893599282E-02 
1276	 2.01265697753166E-02 
1277	 0.019774039160895 
1278	 1.94404020825124E-02 
1279	 2.03436300656081E-02 
1280	 0.021329660540259 
1281	 2.16466731591453E-02 
1282	 2.19295218987326E-02 
1283	 2.16631368477619E-02 
1284	 1.97120802780162E-02 
1285	 1.98530599701974E-02 
1286	 2.14484779403036E-02 
1287	 2.18110519717094E-02 
1288	 0.022980896206539 
1289	 2.32229942305954E-02 
1290	 2.24452197986311E-02 
1291	 2.04308959440513E-02 
1292	 1.90059975294694E-02 
1293	 2.01442977173966E-02 
1294	 2.12243224417186E-02 
1295	 2.05310891063974E-02 
1296	 2.07757033887993E-02 
1297	 2.12437552261122E-02 
1298	 2.01502051025945E-02 
1299	 1.96125063430607E-02 
1300	 0.019795763307727 
1301	 1.89189200627194E-02 
1302	 1.76168503767424E-02 
1303	 1.70454161136481E-02 
1304	 1.78733133197598E-02 
1305	 1.89169151737123E-02 
1306	 0.018789311045073 
1307	 1.82398126461001E-02 
1308	 1.87441099794621E-02 
1309	 0.019483978522185 
1310	 1.87413109339997E-02 
1311	 1.68088067234274E-02 
1312	 1.73407324735071E-02 
1313	 1.82297633973568E-02 
1314	 1.77924979397465E-02 
1315	 2.05243478605644E-02 
1316	 2.12845714743883E-02 
1317	 1.60595128947026E-02 
1318	 1.53072137954249E-02 
1319	 1.97408789428048E-02 
1320	 2.07407981649947E-02 
1321	 0.02224167156791 
1322	 2.15756643567922E-02 
1323	 1.93554367421427E-02 
1324	 1.64048696532897E-02 
1325	 1.56001227801518E-02 
1326	 1.55483225319157E-02 
1327	 1.48392638575007E-02 
1328	 0.015398086696544 
1329	 1.39961739445469E-02 
1330	 1.14792776398755E-02 
1331	 1.42951626686994E-02 
1332	 1.46627582258352E-02 
1333	 0.016550278281233 
1334	 2.62299476446578E-02 
1335	 2.86307682357463E-02 
1336	 2.50352137993946E-02 
1337	 2.43435729697336E-02 
1338	 2.15532378716125E-02 
1339	 1.96153931858092E-02 
1340	 1.99088101860486E-02 
1341	 1.60094962570337E-02 
1342	 6.59652077881704E-03 
1343	 2.49316583607412E-04 
1344	-9.49210328333071E-03 
1345	-1.67988495443092E-02 
1346	-1.32770506137225E-02 
1347	-2.29169419330447E-02 
1348	-5.61967813650854E-02 
1349	-7.99676199661494E-02 
1350	-0.109011903903259 
1351	-0.153315473163499 
1352	-0.164048546235591 
1353	-0.163827304703038 
1354	-0.145247892019366 
1355	-3.09337240805784E-02 
1356	-0.223039493772137 
1357	-0.546497683455701 
1358	-0.874337065747078 
1359	-1.03961542802217 
1360	-0.826266836650708 
1361	-0.496128670492785 
1362	-0.36543933959557 
1363	-0.37671044412308 
1364	-0.321286608906219 
1365	-0.2778109061397 
1366	-0.337323843336115 
1367	-0.376778227085429 
1368	-0.490024035728838 
1369	-0.822900415573504 
1370	-1.33235273164373 
1371	-4.44765941172291 
1372	-6.1283479430012 
1373	-9.77315294232371 
1374	 54.6306289391289 
1375	-6.59378325051659 
1376	-3.40642675281 
1377	-1.11036431994659 
1378	-1.2818717823921 
1379	-1.5925843318439 
1380	-1.43208274319141 
1381	-6.66696020365758 
1382	-6.95405006270091 
1383	-1.37426832517336 
1384	-1.00874645707659 
1385	-1.12828836526052 
1386	-1.28566904768902 
1387	-4.53547069446435 
1388	-5.29704096830583 
1389	-2.90411971354111 
1390	-3.77614797327054 
1391	-6.17176317511004 
1392	-2.40351673891709 
1393	-1.34817456814937 
1394	-1.33995541963172 
1395	-1.66831986640049 
1396	-1.33712282185954 
1397	-2.84656196216935 
1398	 394.025714018133 
1399	-2.91629914894228 
1400	-1.51474155605105 
1401	-3.66246765931307 
1402	 222.373486325535 
1403	 7.19480399744314 
1404	 23.3054961258881 
1405	 313.327300066555 
1406	-3.23536262560937 
1407	-3.0804117328838 
1408	-8.81868825906526 
1409	-41.5167206037648 
1410	 6.4576766211223 
1411	 12.3283325371336 
1412	-1.88522856998186 
1413	-1.97062568091636 
1414	-3.62801168717709 
1415	-2.96301431403238 
1416	-5.95227766144072 
1417	-22.1380282315693 
1418	-15.2769469473178 
1419	-4.75555974061458 
1420	-3.49897326859351 
1421	-2.33898502163677 
1422	-0.689563500373942 
1423	-0.57507851237907 
1424	-1.24590898165263 
1425	-2.05198958730119 
1426	-3.94926566134375 
1427	-3.29785150500993 
1428	-1.42045229760334 
1429	-1.16481875887813 
1430	-0.644785868949123 
1431	-0.583186171108118 
1432	-1.13168357759243 
1433	-1.21238008092234 
1434	-1.29860102669703 
1435	-1.27976028341207 
1436	-0.846394418151673 
1437	-0.542220756851882 
1438	-0.545879215550072 
1439	-0.409885568617159 
1440	-0.391190528664808 
1441	-0.677775946601204 
1442	-0.537579758439635 
1443	-0.463734009782851 
1444	-0.382728009888419 
1445	-0.296343033286018 
1446	-0.374818793660568 
1447	-0.320692104112682 
1448	-0.203475989058935 
1449	-0.166225236673269 
1450	-0.115609784305482 
1451	-9.35052295275203E-02 
1452	-8.79606921652659E-02 
1453	-5.26707835467002E-02 
1454	-5.91277115462035E-02 
1455	-5.95596830939348E-02 
1456	-7.25935960843206E-02 
1457	-0.128481666701636 
1458	-0.111525376087778 
1459	-5.58965157302226E-02 
1460	-3.91604048155735E-02 
1461	-7.23963292309086E-03 
1462	-5.59604624104841E-04 
1463	-2.88591573115172E-02 
1464	-3.65866962937033E-02 
1465	-2.51901750851157E-02 
1466	-3.23315930781302E-02 
1467	-5.74095179479992E-02 
1468	-6.52415765824349E-02 
1469	-7.44965617944708E-02 
1470	-7.01435257134556E-02 
1471	-2.96245692110522E-02 
1472	-5.05850800223344E-02 
1473	-0.117130839248003 
1474	-0.125060100145865 
1475	-0.129826131518215 
1476	-0.129103489604607 
1477	-9.83927714431275E-02 
1478	-6.93920373508296E-02 
1479	-4.02098292361965E-02 
1480	-3.73021578259916E-02 
1481	-3.27111120643483E-02 
1482	-0.037149093610996 
1483	-7.99457761176718E-02 
1484	-7.13375745957256E-02 
1485	-3.90504174930803E-02 
1486	-2.39134171740177E-02 
1487	 5.43274210485852E-03 
1488	 9.31374061963259E-03 
1489	-7.97794715906958E-03 
1490	-6.29921359882722E-03 
1491	 7.7832431394063E-05 
1492	-1.40324290952981E-03 
1493	-5.52867992449944E-03 
1494	-4.39462611711718E-04 
1495	 9.74513526497358E-03 
1496	 1.10852619705947E-02 
1497	 0.013582075481454 
1498	 1.60764044392614E-02 
1499	 9.9629116498094E-03 
1500	 7.60640899945073E-03 
1501	 1.39555965876891E-02 
1502	 1.41544940572879E-02 
1503	 6.11156784453774E-03 
1504	 6.86479374335184E-03 
1505	 1.33194016439348E-02 
1506	 1.32827020289927E-02 
1507	 1.11273616825138E-02 
1508	 1.14485162054336E-02 
1509	 1.22595666918411E-02 
1510	 1.19042420080806E-02 
1511	 7.47549463215448E-03 
1512	 7.17533849553867E-03 
1513	 1.33072778109089E-02 
1514	 1.32435672601532E-02 
1515	 0.012176920870252 
1516	 1.75657800685593E-02 
1517	 1.78270471760462E-02 
1518	 1.46241961623062E-02 
1519	 1.73114823225787E-02 
1520	 2.22761014126698E-02 
1521	 2.14150056566884E-02 
1522	 1.70789865878719E-02 
1523	 1.78375558890719E-02 
1524	 1.74848366862828E-02 
1525	 1.28761796385873E-02 
1526	 1.25136348378454E-02 
1527	 1.43451654957757E-02 
1528	 1.40218769190501E-02 
1529	 1.19338809299604E-02 
1530	 1.17339252788372E-02 
1531	 1.36547933053167E-02 
1532	 1.27244679447209E-02 
1533	 1.40706954101769E-02 
1534	 1.54676608808927E-02 
1535	 1.28658520018299E-02 
1536	 1.17450578631098E-02 
1537	 1.04587012160127E-02 
1538	 9.25952475066083E-03 
1539	 8.99918463782401E-03 
1540	 8.82814663750271E-03 
1541	 8.70595725842667E-03 
1542	 9.75679384199105E-03 
1543	 1.27506385402497E-02 
1544	 1.44081151170559E-02 
1545	 1.67010203008368E-02 
1546	 0.017727183901783 
1547	 1.69884870973296E-02 
1548	 1.90575008562777E-02 
1549	 1.96470739360173E-02 
1550	 1.78341765637104E-02 
1551	 1.60248731418914E-02 
1552	 0.014016659506855 
1553	 0.013877985012132 
1554	 1.46916372566417E-02 
1555	 1.55960979635623E-02 
1556	 1.61314251334143E-02 
1557	 1.41794347392016E-02 
1558	 1.34980500087989E-02 
1559	 1.51425315768762E-02 
1560	 1.48847496243447E-02 
1561	 1.39080264207446E-02 
1562	 1.52813566897585E-02 
1563	 1.62597257490877E-02 
1564	 1.57864254614928E-02 
1565	 1.74781559658256E-02 
1566	 1.91921049185428E-02 
1567	 1.76634395933545E-02 
1568	 1.59774194816078E-02 
1569	 1.57086033182847E-02 
1570	 1.51899958571254E-02 
1571	 1.40077225532689E-02 
1572	 1.31966781233575E-02 
1573	 0.014033703154497 
1574	 1.41412441158368E-02 
1575	 1.23486584260249E-02 
1576	 1.25003712293949E-02 
1577	 1.39909985330915E-02 
1578	 1.36294063401958E-02 
1579	 1.40984621927675E-02 
1580	 1.49505922410635E-02 
1581	 0.015046769094991 
1582	 1.60264821599735E-02 
1583	 1.73093845695693E-02 
1584	 1.82562787483089E-02 
1585	 1.77664166427103E-02 
1586	 1.72489846483194E-02 
1587	 1.78557611251986E-02 
1588	 1.87263499935148E-02 
1589	 1.87839546220157E-02 
1590	 0.017338568565749 
1591	 1.45200910465807E-02 
1592	 1.34702875708037E-02 
1593	 1.65061459973189E-02 
1594	 1.90568974841247E-02 
1595	 0.01882255645967 
1596	 0.018370794359919 
1597	 1.82300379357137E-02 
1598	 1.81942880510764E-02 
1599	 1.85373732365336E-02 
1600	 1.82627291398274E-02 
1601	 1.74124066761443E-02 
1602	 1.64792825213709E-02 
1603	 1.64690270672966E-02 
1604	 1.73762169806695E-02 
1605	 1.72917378846096E-02 
1606	 1.53506958280737E-02 
1607	 1.42283752856709E-02 
1608	 1.58460786253343E-02 
1609	 1.66150465737947E-02 
1610	 1.42241521470345E-02 
1611	 0.0131608083815 
1612	 0.015558937710032 
1613	 1.64370454845767E-02 
1614	 1.62289241346679E-02 
1615	 1.88300012743175E-02 
1616	 2.00479221272972E-02 
1617	 0.018215225691238 
1618	 1.92524662012565E-02 
1619	 1.99899476892285E-02 
1620	 1.78088525080195E-02 
1621	 1.81541272613747E-02 
1622	 1.87473494403056E-02 
1623	 0.018192434277093 
1624	 1.77635516850947E-02 
1625	 1.69086586874516E-02 
1626	 1.69173830002624E-02 
1627	 1.67290028068144E-02 
1628	 1.67065336533825E-02 
1629	 1.73438768246178E-02 
1630	 1.76321754282336E-02 
1631	 1.75096308545193E-02 
1632	 1.61198835804922E-02 
1633	 1.41255406521597E-02 
1634	 1.41092140981911E-02 
1635	 1.48756813564044E-02 
1636	 1.51041944912976E-02 
1637	 1.68959818087143E-02 
1638	 1.73774778503786E-02 
1639	 1.58235567622232E-02 
1640	 1.55261732850952E-02 
1641	 1.54907497441708E-02 
1642	 1.54981632181335E-02 
1643	 1.75087065373913E-02 
1644	 0.018739512211516 
1645	 1.54857059419124E-02 
1646	 1.34318593187047E-02 
1647	 1.42187926816016E-02 
1648	 1.52052968535943E-02 
1649	 1.88257103446086E-02 
1650	 2.09954648741553E-02 
1651	 1.88906567167297E-02 
1652	 1.47445594924289E-02 
1653	 1.23104519825191E-02 
1654	 1.22249676225121E-02 
1655	 1.36287051776363E-02 
1656	 1.38038755251246E-02 
1657	 1.49727647296591E-02 
1658	 1.51177469419902E-02 
1659	 1.42986541512556E-02 
1660	 1.58343486773601E-02 
1661	 1.88405471377167E-02 
1662	 1.75441203254928E-02 
1663	 1.36665257399154E-02 
1664	 1.41426876590235E-02 
1665	 1.53441735868395E-02 
1666	 1.48448396961963E-02 
1667	 1.72197103178272E-02 
1668	 1.57920165140285E-02 
1669	 1.38933436160262E-02 
1670	 1.72428018294864E-02 
1671	 1.91002387494585E-02 
1672	 1.65529209729668E-02 
1673	 1.37326143384023E-02 
1674	 1.35091778752235E-02 
1675	 1.52859640048199E-02 
1676	 1.67878158025351E-02 
1677	 1.67939493596261E-02 
1678	 1.47404476775715E-02 
1679	 1.30815509382669E-02 
1680	 1.46836704531252E-02 
1681	 1.61042871451331E-02 
1682	 1.68520669359502E-02 
1683	 1.76434552938995E-02 
1684	 1.71313570181429E-02 
1685	 1.81765748526858E-02 
1686	 1.94768459725666E-02 
1687	 1.92652172706727E-02 
1688	 1.83963861072641E-02 
1689	 0.017345017265147 
1690	 1.89296643238605E-02 
1691	 1.93737089169099E-02 
1692	 1.60783081770577E-02 
1693	 1.58457750799434E-02 
1694	 1.59923438860854E-02 
1695	 0.014449653892138 
1696	 1.76703275888426E-02 
1697	 2.01113176633727E-02 
1698	 1.69824266008643E-02 
1699	 1.49165138167564E-02 
1700	 1.62731301058644E-02 
1701	 1.70512229776702E-02 
1702	 1.50077154710787E-02 
1703	 1.42249912863261E-02 
1704	 1.45075159212744E-02 
1705	 1.21344852720609E-02 
1706	 1.30269508930614E-02 
1707	 1.72860128192237E-02 
1708	 1.69614271918729E-02 
1709	 1.44410284190609E-02 
1710	 1.50549276251997E-02 
1711	 1.36927147710307E-02 
1712	 9.67374256010837E-03 
1713	 1.42374724407249E-02 
1714	 1.48966034515337E-02 
1715	 1.62082947481327E-02 
1716	 1.31902244836317E-02 
1717	 7.52419516278093E-03 
1718	 7.10466532905363E-03 
1719	 1.02686840059181E-02 
1720	 1.27295253785785E-02 
1721	 0.016871819395274 
1722	 0.017258840498735 
1723	 1.13451522647879E-02 
1724	 7.47114194567378E-03 
1725	 8.00001730719686E-03 
1726	 9.41828172743336E-03 
1727	 1.28471054932057E-02 
1728	 1.31189348568793E-02 
1729	 8.59801400843597E-03 
1730	 8.66843112204722E-03 
1731	 1.16191760724961E-02 
1732	 1.29385519156108E-02 
1733	 1.32806155517955E-02 
1734	 0.012313388698619 
1735	 7.1477881008925E-03 
1736	 4.79845030842102E-03 
1737	 0.010701055903809 
1738	 1.28513496786196E-02 
1739	 1.19183221209353E-02 
1740	 1.45837378824759E-02 
1741	 1.83438599665294E-02 
1742	 1.70270097598281E-02 
1743	 1.36766805801287E-02 
1744	 1.63313774106628E-02 
1745	 1.36213311284667E-02 
1746	 9.50137162757963E-03 
1747	 1.11976857763539E-02 
1748	 1.42339396365549E-02 
1749	 1.45501543402423E-02 
1750	 1.92038127259375E-02 
1751	 1.90432520848202E-02 
1752	 1.19843244022578E-02 
1753	 8.53865251690616E-03 
1754	 4.7242090142186E-03 
1755	 5.15878641426927E-03 
1756	 7.89703267776582E-03 
1757	 1.30742641981099E-02 
1758	 1.63940822671252E-02 
1759	 1.07127429459264E-02 
1760	 6.26972264610844E-03 
1761	 8.02970937683676E-03 
1762	 1.09707925663318E-02 
1763	 1.33971604556973E-02 
1764	 2.55247516838127E-02 
1765	 2.67621711485317E-02 
1766	 1.95252025022063E-02 
1767	 2.73062310970092E-02 
1768	 2.49718738268127E-02 
1769	 1.63511190533113E-02 
1770	 2.24220356019016E-02 
1771	 2.86402560146351E-02 
1772	 2.71753989298953E-02 
1773	 2.76019648372599E-02 
1774	 2.36329617867885E-02 
1775	-1.56855928357333E-02 
1776	-1.80860578262707E-02 
1777	 2.64190374860634E-02 
1778	 2.98751094706692E-02 
1779	 3.48425775157986E-02 
1780	 3.44269446085118E-02 
1781	-2.43256971356246E-02 
1782	-3.47694027582917E-02 
1783	 3.37233573950783E-03 
1784	 1.26672587546598E-02 
1785	 2.83616633799977E-02 
1786	 2.28237781230308E-02 
1787	-1.99581786491061E-02 
1788	-2.10168078062959E-02 
1789	 3.50220763529689E-03 
1790	-2.08708359601302E-03 
1791	-3.03524047953158E-03 
1792	-1.87215054291336E-02 
1793	-8.33937199322708E-02 
1794	-8.19711684502214E-02 
1795	-3.84830717911757E-02 
1796	-2.59074648124938E-02 
1797	 2.49332199903951E-02 
1798	 7.97508033307856E-03 
1799	-3.89854745159297E-02 
1800	-0.141735578567353 
1801	-0.193938418985426 
1802	-8.87360821031572E-02 
1803	-0.119422053424959 
1804	-0.248926962937883 
1805	-0.360726242151464 
1806	-0.845554407005192 
1807	-0.918901788548755 
1808	-0.180606754393237 
1809	-9.67774071854014E-02 
1810	 4.79216736231399E-02 
1811	 0.267567361236713 
1812	-0.46169965446102 
1813	-0.652313201029217 
1814	-0.381766055106779 
1815	-0.427209750536805 
1816	-0.700197716087216 
1817	-0.469665738736424 
1818	-3.54124393974475E-02 
1819	-8.38640336812447E-02 
1820	-9.94252828460886E-02 
1821	-1.35011280963205 
1822	-2.45984101179722 
1823	 0.38840149449834 
1824	 1.07541322731252 
1825	 0.161837897742825 
1826	 0.132542515720453 
1827	-0.595477581619548 
1828	-0.754470680191509 
1829	 1.01925152217454 
1830	 0.910799108093537 
1831	-6.95401816356024 
1832	-13.2546727489918 
1833	-5.34284939114017 
1834	-9.48374614578645 
1835	 19.6981035829832 
1836	 6.45595370585498 
1837	 1.14543758797991 
1838	 1.01855528849522 
1839	 2.33759037662711 
1840	 31.0465846976116 
1841	-1.33290825977735 
1842	-1.16617959518678 
1843	-1.53265088926953 
1844	-3.94006016791865 
1845	-5.23107916594624 
1846	 4.45077362575215 
1847	 3.06174474271192 
1848	-0.742282555189047 
1849	 1.53938991434447 
1850	 4.04710150021479 
1851	 4.21771342656409 
1852	 1.05408386076028 
1853	 0.953050732966824 
1854	 0.595273631191066 
1855	 9.68338699099367E-02 
1856	 0.105442706104158 
1857	 0.16495640260256 
1858	 0.100640348251063 
1859	 1.43333056388042E-02 
1860	 0.315520790637904 
1861	 0.479049227516881 
1862	 0.058971707253372 
1863	-0.392506947105727 
1864	-1.48210601372984 
1865	-5.65523061610397 
1866	 40.5591998177624 
1867	 16.5895882919163 
1868	 18.1307467879522 
1869	 53.0410654478145 
1870	-40.8235546232741 
1871	-1.59399985321209 
1872	 0.32584667165294 
1873	 0.612199676235839 
1874	 0.525239422037036 
1875	 0.694092168438001 
1876	 0.806131983811349 
1877	 1.05228306156933 
1878	 0.629412772475842 
1879	 0.256307295320635 
1880	-0.195880830403073 
1881	-0.915676247686622 
1882	-0.78230516745758 
1883	-1.04371430241978 
1884	-2.59109282202865 
1885	-5.28156531621384 
1886	-48.3238240088277 
1887	 5.10141033272239 
1888	-13.9205830560117 
1889	-3.35812034584603 
1890	 0.538583317630615 
1891	 0.758878145061788 
1892	 0.592512197637535 
1893	 2.52792676619619 
1894	 5.33628895033521 
1895	-4.93586733475922 
1896	-2.42458267717159 
1897	-0.450163546951173 
1898	-1.01201975692785 
1899	-2.99490628598812 
1900	-13.4818100860502 
1901	 4.29376263199684 
1902	 3.37657031857306 
1903	 2.79315668724645 
1904	 5.58170870336513 
1905	-0.865411838425321 
1906	-0.14120051398566 
1907	-0.167810055794884 
1908	 0.70830342464357 
1909	 1.84450752062099 
1910	 3.95503786414031 
1911	-13.6542029999567 
1912	 11.1318360075851 
1913	 55.5132640522828 
1914	-3.45653340902118 
1915	-2.58669811186594 
1916	-1.80395932533099 
1917	-0.853947886268436 
1918	-1.25704526080733 
1919	 0.782744817730747 
1920	 0.210623534348895 
1921	 0.228898847289428 
1922	-0.207901302630605 
1923	-1.20589411801344 
1924	-1.50792042363901 
1925	-0.942941140247988 
1926	-1.0923287342738 
1927	-1.32030717650636 
1928	-2.15569184941093 
1929	-16.7124996311352 
1930	 3.54968305036788 
1931	 1.52133534533314 
1932	 0.427736851502514 
1933	-8.83611458449716E-02 
1934	-0.429992988165203 
1935	-1.18974034336131 
1936	-1.54650507472206 
1937	-0.365691378423856 
1938	-1.12576139594415E-02 
1939	-9.39084337016501E-03 
1940	-0.150630961468859 
1941	-0.218139253686928 
1942	-5.41852443827221E-02 
1943	-0.244993688350744 
1944	-0.605169162341524 
1945	-1.10787719917631 
1946	-3.14240390781295 
1947	 158.741340277016 
1948	-3.51211005789408 
1949	-1.46427364435514 
1950	-0.786163304125257 
1951	-0.565915001039336 
1952	-0.750931840404842 
1953	-4.35726951214521 
1954	 2.69141651072671 
1955	 2.92479305164456 
1956	 1.54433283436392 
1957	 1.24627352162533 
1958	 1.74051362253385 
1959	 0.964006540519578 
1960	 0.641539485250896 
1961	 0.304377481883684 
1962	 0.100208107771113 
1963	 0.142916600920377 
1964	 0.103891086536789 
1965	 0.36823676023769 
1966	 0.652656208234105 
1967	 1.7170633139822 
1968	 1.05721252918144 
1969	 0.438097936636076 
1970	 0.618014468668232 
1971	 0.438273664162369 
1972	 0.363890090205853 
1973	 0.43215667547185 
1974	 0.325022500410713 
1975	 0.310019878178321 
1976	 0.241965494726956 
1977	 0.161575777903781 
1978	 7.89609263067825E-02 
1979	-4.08349860947593E-03 
1980	-8.84106640982241E-02 
1981	-0.218336527901699 
1982	-0.271582394954784 
1983	-0.16360059504437 
1984	-0.159748772512879 
1985	-0.127996878847415 
1986	-0.174789689554141 
1987	-0.284036176433077 
1988	-0.263437668192342 
1989	-0.226025600738021 
1990	-0.156586566787747 
1991	-0.168534314803359 
1992	-0.155973482344851 
1993	-0.104875700298462 
1994	-9.05670641885407E-02 
1995	-5.21111360879883E-02 
1996	 6.32488282360214E-02 
1997	 5.72303609147093E-02 
1998	-0.12656377211613 
1999	-0.145742560733966 
2000	-2.40498123164323E-02 
2001	 9.22296661749603E-03 
2002	-0.078396033202984 
2003	-0.22788217553483 
2004	-0.376450282596305 
2005	-0.200116366717959 
2006	 0.29100826585348 
2007	 0.488300679380118 
2008	 0.466499336187337 
2009	 0.477144561517014 
2010	-6.93094282471937E-02 
2011	-0.586353521635585 
2012	-0.971758271706982 
2013	-0.402841345527518 
2014	-0.3464333337775 
2015	-0.53305521011061 
2016	-0.534185068031606 
2017	-0.422914322117385 
2018	-0.445590951119761 
2019	-0.413699261880462 
2020	-0.263287193887199 
2021	-0.177540114627904 
2022	-4.85230181483813E-02 
2023	 6.43568091569984E-02 
2024	 5.91310919836037E-02 
2025	-5.47073106735032E-02 
2026	-6.26365032248481E-02 
2027	-8.58027710718692E-02 
2028	-8.86252376336153E-02 
2029	-1.91736683376294E-02 
2030	 2.99820664055185E-03 
2031	-4.86241402895216E-03 
2032	-9.68927658219935E-04 
2033	-1.46317590068157E-02 
2034	-1.80867959789323E-02 
2035	-3.16801909065534E-02 
2036	-5.83786102623327E-02 
2037	-9.39908755317089E-02 
2038	-0.113148109689103 
2039	-0.110749278556995 
2040	-7.69337112197403E-02 
2041	-6.14160758093366E-02 
2042	-3.30413619132085E-02 
2043	-0.021054113273786 
2044	-2.49318135689096E-02 
2045	-3.21386761583386E-02 
2046	 4.99753802066226E-03 
2047	 3.52479636856308E-02 
2048	 4.76964630557429E-02 
2049	 9.35062241358988E-02 
2050	 9.39073827269592E-02 
2051	 5.85493436551356E-02 
2052	 5.55756093917625E-02 
2053	 4.64502920676299E-02 
2054	 4.25655426816111E-02 
2055	 5.00356528124802E-02 
2056	 5.13625531877601E-02 
2057	 5.97623482919306E-02 
2058	 0.065794888102629 
2059	 6.88868291439942E-02 
2060	 0.063583176070373 
2061	 7.79781691856352E-02 
2062	 2.51733043822824E-02 
2063	-2.78804666983107E-02 
2064	-5.27250416638419E-02 
2065	-0.114611607163204 
2066	-0.138461841524623 
2067	-0.105122851206686 
2068	-8.53523581204467E-02 
2069	-6.54544954088135E-02 
2070	-2.34273000497049E-02 
2071	-3.19637171805329E-03 
2072	 2.16258722937135E-02 
2073	 0.039842952809065 
2074	 6.07078965520549E-02 
2075	 6.40957994281415E-02 
2076	 6.16556773222699E-02 
2077	 4.36282683993859E-02 
2078	 0.008474074836541 
2079	 3.09688135077381E-03 
2080	-4.11202109067522E-04 
2081	-9.77242018428708E-03 
2082	 1.02277954080173E-02 
2083	 2.93084902920998E-02 
2084	 4.18534768246273E-02 
2085	 4.74852426599136E-02 
2086	 6.11311749940831E-02 
2087	 8.10669319161128E-02 
2088	 6.20806301915335E-02 
2089	 3.21108913784099E-02 
2090	 1.98434425448473E-02 
2091	 4.64278963011394E-04 
2092	-1.44502173372929E-02 
2093	-1.34896126044102E-02 
2094	-4.34125199022995E-03 
2095	-2.68766554079023E-03 
2096	 6.27955885329178E-03 
2097	 5.69637227890401E-02 
2098	 5.55328638291222E-02 
2099	 2.44832566294207E-02 
2100	-3.13756121655311E-03 
2101	-1.78895078923719E-02 
2102	-3.28917554614095E-02 
2103	-3.16536482456764E-02 
2104	-6.4851018872881E-03 
2105	-4.80115538964456E-03 
2106	 9.1577747430361E-03 
2107	 4.44849255618818E-02 
2108	 0.051761169892429 
2109	 4.60616828646178E-02 
2110	 2.05681064995106E-02 
2111	-3.23061720497425E-03 
2112	-1.30700769414565E-02 
2113	-2.17170643047736E-02 
2114	-1.43029067356744E-02 
2115	-6.33586660965087E-03 
2116	 2.29741602169702E-03 
2117	 4.27198263411428E-03 
2118	 1.66721125896921E-02 
2119	 1.30719237946323E-02 
2120	-8.28080257407661E-03 
2121	-2.04786462067196E-02 
2122	-3.10635147630131E-02 
2123	-4.38999792494452E-02 
2124	-2.85501167079088E-02 
2125	-8.41890371955313E-03 
2126	 7.58199337434725E-03 
2127	 2.53648966974958E-02 
2128	 2.45856071749269E-02 
2129	 1.91271382985219E-02 
2130	 1.46353302385199E-02 
2131	 9.7611559921873E-03 
2132	 1.37090549939627E-02 
2133	 8.89673984047595E-03 
2134	 6.85623176202087E-03 
2135	 9.4680716558747E-03 
2136	 8.22215112519958E-03 
2137	 3.81306201218776E-03 
2138	 1.16151719542504E-03 
2139	-4.07126691553589E-03 
2140	-5.04537285891447E-03 
2141	-5.08906308382562E-03 
2142	-4.56856654781902E-03 
2143	-1.71768849426522E-03 
2144	 3.46269448786291E-03 
2145	 9.81930480915499E-03 
2146	 0.016958968859288 
2147	 1.24674545242993E-02 
2148	 1.33358219113739E-02 
2149	 3.71975045960373E-02 
2150	 5.06816450111274E-02 
2151	 5.83867281056477E-02 
2152	 6.74045708118851E-02 
2153	 5.33225618438675E-02 
2154	 3.33171504055938E-02 
2155	 2.47535725417324E-02 
2156	 3.09456790576795E-02 
2157	 3.26006495252149E-02 
2158	 3.42318421382862E-02 
2159	 0.02979194610444 
2160	 1.99344377722797E-02 
2161	 1.55003631732782E-02 
2162	 1.17279810661613E-02 
2163	 9.85383753601651E-03 
2164	 2.25235354890934E-02 
2165	 1.98188753447627E-02 
2166	-8.9108877206282E-03 
2167	-1.86477305581735E-02 
2168	-1.44447149319911E-02 
2169	-2.18341010528786E-02 
2170	-3.10965977768861E-02 
2171	-2.84039337488942E-02 
2172	-3.07527342261219E-02 
2173	-2.90707682559175E-02 
2174	-0.012648096002084 
2175	 2.33757916223713E-02 
2176	 5.68848064332319E-02 
2177	 6.99522777072803E-02 
2178	 7.95537590757792E-02 
2179	 6.77532166088869E-02 
2180	 4.29566569995044E-02 
2181	 0.030919441534607 
2182	 3.34350151826002E-02 
2183	 4.75188478287945E-02 
2184	 4.87902398026924E-02 
2185	 2.99636921733134E-02 
2186	 2.05015177174289E-02 
2187	-1.03004626638052E-05 
2188	-1.18826057248041E-02 
2189	-9.57651039230323E-03 
2190	-1.69509173068259E-02 
2191	-4.05107853179066E-02 
2192	-4.44692401297104E-02 
2193	-4.01936524589639E-02 
2194	-4.04788761351856E-02 
2195	-2.32711554851489E-02 
2196	-1.99166565890486E-02 
2197	-3.24362489746473E-02 
2198	-0.027066184269687 
2199	-1.30117400370528E-02 
2200	-0.01269557191312 
2201	 1.10280171945784E-02 
2202	 2.92838247126096E-02 
2203	 4.28424905273049E-02 
2204	 3.96360865709163E-02 
2205	 2.14859489533033E-02 
2206	 4.95879840050639E-03 
2207	-2.03211899618485E-02 
2208	-2.23779486505488E-02 
2209	-1.27896221592553E-02 
2210	-1.68978415168361E-02 
2211	-2.74463839924263E-02 
2212	-3.44775567733331E-02 
2213	-1.98860991205372E-02 
2214	-4.40802368453896E-03 
2215	 2.05039684664363E-03 
2216	 1.34124703296286E-02 
2217	 2.19548555566352E-02 
2218	 1.28950126611517E-02 
2219	 1.43649060917876E-02 
2220	 3.01207370662429E-02 
2221	 3.13080021045313E-02 
2222	 2.46930726196971E-02 
2223	 1.84524315247674E-02 
2224	 2.20973244559344E-03 
2225	 2.58333192528471E-03 
2226	 8.72325123282326E-03 
2227	 8.34042182192689E-03 
2228	 1.85459219024639E-02 
2229	 0.026997965444814 
2230	 3.29622437362652E-02 
2231	 2.81661749934828E-02 
2232	 2.19307242173004E-02 
2233	 1.44879297839124E-02 
2234	-6.40414097801731E-03 
2235	-2.06385434582449E-02 
2236	-3.46347739042639E-02 
2237	-0.045350209043619 
2238	-3.39191516333279E-02 
2239	-2.07211694714026E-02 
2240	 5.44616025999253E-03 
2241	 1.51735331930161E-02 
2242	-3.44173843466303E-04 
2243	 4.75891488124654E-05 
2244	 1.52386527267475E-02 
2245	 2.02541219112488E-02 
2246	 2.24883158703766E-02 
2247	 1.52662268855266E-02 
2248	-8.57590385536553E-03 
2249	 8.82209629671789E-03 
2250	 2.17825239521345E-02 
2251	 1.62342339457569E-02 
2252	 2.69442821937606E-02 
2253	 1.58799580013438E-03 
2254	-2.14008188908501E-02 
2255	-1.33579131548754E-02 
2256	-1.11218116307287E-02 
2257	-8.23270472796797E-03 
2258	 4.20132780109848E-03 
2259	 2.07811412180372E-02 
2260	 3.62312441079945E-02 
2261	 0.056643935138254 
2262	 5.80292618025636E-02 
2263	 4.93704346975978E-02 
2264	 4.70356983311074E-02 
2265	 2.88688259684339E-02 
2266	 1.93144677827742E-02 
2267	 0.021574750709206 
2268	 1.83309455072487E-02 
2269	 1.06683885756479E-03 
2270	 0.00348015687696 
2271	 3.82727542252711E-02 
2272	 2.65792706491947E-02 
2273	-2.30212543241225E-02 
2274	-2.70104410946285E-02 
2275	-2.61943662599257E-02 
2276	-2.43002312776119E-02 
2277	 1.96675640432153E-02 
2278	 2.83133621833173E-02 
2279	-9.50947349948405E-03 
2280	-2.33056553787849E-02 
2281	-3.18352698240752E-02 
2282	-1.97997027883009E-02 
2283	-8.67432345333773E-03 
2284	 8.05165352192518E-03 
2285	-1.21275523458255E-02 
2286	-3.06019214473542E-02 
2287	-0.010223722224069 
2288	-4.59345139564433E-03 
2289	 1.52582196795858E-02 
2290	 5.52093258325904E-02 
2291	 4.88895836261937E-02 
2292	 2.11644893679356E-02 
2293	 8.19576737205761E-03 
2294	-5.60149226199623E-03 
2295	-4.19962125960775E-02 
2296	-8.56519101891958E-02 
2297	-6.60459486008454E-02 
2298	-2.10410095831939E-02 
2299	 7.87269636925028E-03 
2300	 2.88533967257737E-02 
2301	-1.09836487438674E-03 
2302	-4.32222138634774E-02 
2303	-6.05422287022029E-02 
2304	-8.64836223722619E-02 
2305	-4.59223874042591E-02 
2306	-5.34095942980091E-03 
2307	 2.59291004943898E-03 
2308	 0.085198660306415 
2309	 0.11811354559956 
2310	 0.115902552274827 
2311	 0.138323296133943 
2312	 5.58376735210459E-02 
2313	-4.71107266459933E-02 
2314	-0.136611756885676 
2315	-0.259668732017318 
2316	-0.295068960583708 
2317	-0.240098086241236 
2318	-0.120852104277782 
2319	 1.04229923266673E-02 
2320	 0.11011225234812 
2321	 0.063058620463268 
2322	 1.89369440407421E-02 
2323	 8.46083462939436E-03 
2324	-2.26008159135555E-02 
2325	 8.37451142351953E-02 
2326	 0.127178973082276 
2327	 0.044008563046779 
2328	 4.96283727923051E-02 
2329	-2.86106398881094E-02 
2330	-4.19453354284535E-02 
2331	-5.83100045162088E-03 
2332	-0.04323601192642 
2333	 1.84582844155904E-02 
2334	 8.72743640774097E-02 
2335	 3.72113462066539E-02 
2336	-3.00277020741004E-02 
2337	-0.075966553378444 
2338	-0.153532044404997 
2339	-0.109773435641206 
2340	 2.89787134645899E-02 
2341	 2.13377588022089E-02 
2342	-2.62450782020666E-02 
2343	-0.129830878200336 
2344	-0.222237425047711 
2345	-8.29359437602847E-02 
2346	-2.04567759098637E-03 
2347	-1.32672503719456E-02 
2348	 5.92134857514807E-02 
2349	 4.00111127841503E-02 
2350	-3.70880955839338E-02 
2351	 9.10987136027827E-02 
2352	 0.143669228845834 
2353	 6.87302253674992E-02 
2354	 0.189136620861058 
2355	 0.249100817132438 
2356	 0.209659611063174 
2357	 0.124089354729061 
2358	-0.013345763027248 
2359	-0.18203782516828 
2360	-0.272675990209319 
2361	-8.86475236765191E-02 
2362	 5.18965522672609E-02 
2363	-9.85583116648475E-02 
2364	-7.15255220615023E-02 
2365	-3.71056800245219E-02 
2366	-0.210679758222111 
2367	-9.84011902628447E-02 
2368	 2.49425307743726E-02 
2369	-0.134256447612491 
2370	-4.32429823851499E-02 
2371	 0.236955612927921 
2372	 0.538885880389447 
2373	 0.817410552020642 
2374	 0.757916167443693 
2375	 0.857995875590101 
2376	 0.209128766099834 
2377	 0.064721172834378 
2378	 7.24188392780279E-02 
2379	-6.93943316153427E-02 
2380	-0.205297472603727 
2381	-0.510718633904478 
2382	-0.554873310942974 
2383	-0.489757650298895 
2384	-0.725934187538613 
2385	-6.07844443246677 
2386	 3.98013188813191 
2387	 3.48529924932746 
2388	 6.15159939055975 
2389	 14.0916051165084 
2390	-0.105888175977721 
2391	-2.20521683366473 
2392	-2.35235642704409 
2393	 316.836419452679 
2394	-5.64813602313627 
2395	-153.282184614504 
2396	-17.6750328670367 
2397	-2.16450720223932 
2398	-38.3731685436974 
2399	 4.07322417500709 
2400	-11.0991869605133 
2401	 4.50780468974826 
2402	 1.81181729452434 
2403	 3.12332270143944 
2404	 4.52236572964688 
2405	 1.15259242072135 
2406	 1.7641904926377 
2407	-1.27055527922126 
2408	-5.84954419763016 
2409	-1.61052369055393 
2410	-1.00655001138846 
2411	-1.28233607046352 
2412	-1.61764623645085 
2413	-2.87173784079018 
2414	-1.51118449129205 
2415	-1.8921797176607 
2416	 5.04560527875334 
2417	 1.19704889264735 
2418	 0.732167351268626 
2419	 0.885658455077581 
2420	 2.94318528511416E-02 
2421	-0.34530658517644 
2422	-0.501082101687975 
2423	-3.52695081301603 
2424	 2.4091912237993 
2425	 1.49633166898204 
2426	-14.7913322409886 
2427	-5.84502101625109 
2428	-8.70850856519332 
2429	-3.87716259324119 
2430	 0.157023921029995 
2431	 3.10434572182797 
2432	 1.75604562561755 
2433	 1.84641035593927 
2434	 0.630104418367617 
2435	 0.277546990504932 
2436	 0.269240435083338 
2437	 0.425105143581616 
2438	-0.2568600316371 
2439	 0.689443068839278 
2440	 0.681623871914064 
2441	 1.70750398635193 
2442	 8.2544542555412 
2443	-1.54714049306205 
2444	-8.99056886851898E-03 
2445	 1.90493585424168 
2446	-2.40736955355432 
2447	-4.54908775622025 
2448	 2.82752278617863 
2449	-0.446966750559136 
2450	-0.706998205189459 
2451	-0.490590355873036 
2452	 0.10603808169818 
2453	-0.116356794237998 
2454	 8.02496623061537E-02 
2455	 0.015393020743777 
2456	 0.356132762107952 
2457	 0.69455117735169 
2458	 0.601042916689397 
2459	 0.523286614066567 
2460	 0.268793423460972 
2461	-7.71332066788481E-02 
2462	 0.123632535569442 
2463	 1.50910294650637 
2464	 2.37668314785476 
2465	 1.80086894541705 
2466	 2.35565824233667 
2467	 1.87976321264384 
2468	 5.02063413274738 
2469	-118.928283865641 
2470	-2.55275380417071 
2471	-0.692563597078336 
2472	-0.791330922995795 
2473	-0.540422489082763 
2474	-0.507910662134239 
2475	-3.6127956406884 
2476	-2.75911247672725 
2477	-1.1948725330674 
2478	-0.706196389582821 
2479	-0.312407300927822 
2480	-1.72049946274509E-02 
2481	-0.910999358318445 
2482	-2.18714460836241 
2483	-1.372098808923 
2484	-0.767174479618027 
2485	-2.96723574537797 
2486	 0.141852240563268 
2487	 20.7937121677049 
2488	 9.74099800284265 
2489	 19.0316859995573 
2490	 21.4087249106986 
2491	 8.76613062275796 
2492	-1.01688651077751 
2493	-1.44866659878127 
2494	-0.984449987908167 
2495	 0.524552092630339 
2496	 7.30553279095399E-02 
2497	-0.163864639371968 
2498	 0.225285872607658 
2499	 0.726945914772803 
2500	 0.924396129928083 
