Wavelength	rt0712EAST_FAR00009.asd
350	 5.66170623289675E-02 
351	 5.78272943572863E-02 
352	 5.78489611121633E-02 
353	 5.79324527841759E-02 
354	 5.87928962147585E-02 
355	 5.86832071683207E-02 
356	 5.86182052503005E-02 
357	 5.87331385509207E-02 
358	 5.87875223301023E-02 
359	 5.80804653958574E-02 
360	 5.79532282161068E-02 
361	 5.82973235012341E-02 
362	 5.81013401803151E-02 
363	 5.84836052431947E-02 
364	 5.86546802146471E-02 
365	 5.83302713793371E-02 
366	 5.83259630267312E-02 
367	 5.81860393560009E-02 
368	 5.81245005373498E-02 
369	 5.83803945367242E-02 
370	 5.87542182663328E-02 
371	 5.85971819626262E-02 
372	 5.81034753350856E-02 
373	 5.79815813417172E-02 
374	 5.84997291415206E-02 
375	 0.058612670530523 
376	 5.82114996112655E-02 
377	 5.86249320105455E-02 
378	 5.85538822623612E-02 
379	 5.81519307397371E-02 
380	 5.80040538587979E-02 
381	 5.89489380855956E-02 
382	 5.92689650912181E-02 
383	 5.91343200495154E-02 
384	 5.94367070587858E-02 
385	 5.87480846482837E-02 
386	 5.86232589159294E-02 
387	 5.93128593157233E-02 
388	 5.94147714960016E-02 
389	 6.04365255559944E-02 
390	 6.08321989100171E-02 
391	 5.97745215097933E-02 
392	 5.93760726649269E-02 
393	 6.01134144401488E-02 
394	 0.060683702810625 
395	 0.059791200039756 
396	 5.99715722486673E-02 
397	 6.01508378791508E-02 
398	 6.00851880331619E-02 
399	 6.03953885847888E-02 
400	 6.05986418005782E-02 
401	 6.04574978803236E-02 
402	 6.00409472714785E-02 
403	 5.99330934459687E-02 
404	 6.02036027763929E-02 
405	 6.04605110886145E-02 
406	 6.03009146826758E-02 
407	 6.04310466751294E-02 
408	 6.04522544671418E-02 
409	 6.03506560912193E-02 
410	 0.060528359771487 
411	 6.06246086254541E-02 
412	 6.05485727775367E-02 
413	 0.060394106232386 
414	 6.05896043605771E-02 
415	 6.05963517593761E-02 
416	 6.05133970525515E-02 
417	 6.06360574471641E-02 
418	 6.07393834131296E-02 
419	 6.06384349398863E-02 
420	 6.04635956778116E-02 
421	 6.06522563863763E-02 
422	 6.05665763538182E-02 
423	 6.07501490219239E-02 
424	 0.061392670318088 
425	 6.09820451061119E-02 
426	 6.07095029823029E-02 
427	 6.08696246893706E-02 
428	 6.12187875999582E-02 
429	 6.11283952367586E-02 
430	 6.12138514480266E-02 
431	 6.15444040369782E-02 
432	 6.14219264526137E-02 
433	 6.12469122763603E-02 
434	 6.13420743445234E-02 
435	 0.061729650296167 
436	 6.16082525632383E-02 
437	 0.061590418185768 
438	 6.17764373404482E-02 
439	 6.19678627611627E-02 
440	 6.20637459095207E-02 
441	 6.22643176450066E-02 
442	 6.25409358900457E-02 
443	 0.062467668893677 
444	 6.27382064032541E-02 
445	 0.063020250527811 
446	 6.29615601901223E-02 
447	 6.33206906437093E-02 
448	 6.34713658620548E-02 
449	 6.33774299637745E-02 
450	 6.34550394451864E-02 
451	 6.37391987496827E-02 
452	 6.40166393455709E-02 
453	 0.064093873808947 
454	 0.06386123198397 
455	 6.39011154718786E-02 
456	 6.40672619364372E-02 
457	 6.40444643729858E-02 
458	 6.42350851880398E-02 
459	 0.064463886784022 
460	 6.44997328182696E-02 
461	 6.41292923313479E-02 
462	 6.42447618508106E-02 
463	 6.45508678105277E-02 
464	 0.064677950383477 
465	 6.47648130410171E-02 
466	 6.48517464995534E-02 
467	 6.49469270808586E-02 
468	 6.50465005690768E-02 
469	 0.065236741748193 
470	 6.52828850500684E-02 
471	 0.065242389024852 
472	 6.55949303574565E-02 
473	 6.56895233380106E-02 
474	 6.58048599272685E-02 
475	 6.62314135757067E-02 
476	 6.63844471548913E-02 
477	 6.66320653726628E-02 
478	 6.69428005611911E-02 
479	 6.70436562699555E-02 
480	 6.72675484704438E-02 
481	 6.74732946422535E-02 
482	 6.76093904208859E-02 
483	 6.79488697948062E-02 
484	 6.81056212383052E-02 
485	 6.83341837518771E-02 
486	 0.06890490634975 
487	 6.88439015523367E-02 
488	 6.87886570031607E-02 
489	 6.90863904649833E-02 
490	 6.96800991594723E-02 
491	 6.98419502481551E-02 
492	 7.00449778605479E-02 
493	 7.06177678785749E-02 
494	 0.070801582912087 
495	 7.10961791470921E-02 
496	 7.14984621427709E-02 
497	 0.071782065722411 
498	 7.21366113838513E-02 
499	 7.23934688826128E-02 
500	 0.072590967339318 
501	 7.31474538476906E-02 
502	 7.34588928951706E-02 
503	 7.38458952676128E-02 
504	 7.46117207811528E-02 
505	 0.074816959213116 
506	 7.52442550467898E-02 
507	 7.58784902698151E-02 
508	 7.61020673232197E-02 
509	 7.66534933135487E-02 
510	 0.077148269190295 
511	 7.73440071621742E-02 
512	 7.77314668617254E-02 
513	 0.078164594233905 
514	 7.86495649388278E-02 
515	 0.079197032826198 
516	 7.94870707231836E-02 
517	 7.99994320444344E-02 
518	 8.07198283229866E-02 
519	 8.09614958725389E-02 
520	 8.14244269729399E-02 
521	 8.20142867224971E-02 
522	 8.25261423421095E-02 
523	 8.30427041857021E-02 
524	 8.34536646270825E-02 
525	 0.083912607418872 
526	 8.46930649363593E-02 
527	 0.085112362895076 
528	 8.54362943659139E-02 
529	 8.59354892618864E-02 
530	 8.66471319543457E-02 
531	 8.72018107050301E-02 
532	 8.76282520846522E-02 
533	 8.81272431771598E-02 
534	 8.89014776563826E-02 
535	 8.95430457830332E-02 
536	 9.00131798233819E-02 
537	 9.07230832585188E-02 
538	 9.12593074285983E-02 
539	 9.17958595143386E-02 
540	 9.25079095342176E-02 
541	 9.30945985573879E-02 
542	 9.37130032143793E-02 
543	 9.43191823897719E-02 
544	 0.094783853594447 
545	 9.54611825916886E-02 
546	 9.61226828504052E-02 
547	 9.66554290450749E-02 
548	 9.73228660394903E-02 
549	 0.097866674884967 
550	 9.84082059074387E-02 
551	 9.91293291184428E-02 
552	 9.97613207452784E-02 
553	 0.100304636646464 
554	 0.100820784327112 
555	 0.101414627357053 
556	 0.101990069202708 
557	 0.10258117254417 
558	 0.103176326221498 
559	 0.103521381048523 
560	 0.103967225426403 
561	 0.104442627120435 
562	 0.104668267894272 
563	 0.105196039851145 
564	 0.105577065733954 
565	 0.105582524889927 
566	 0.1056545050251 
567	 0.105741474986941 
568	 0.105836417494923 
569	 0.10594833003058 
570	 0.106205248498174 
571	 0.106262451793985 
572	 0.106148271038356 
573	 0.106307982865877 
574	 0.106557231768367 
575	 0.106491831346558 
576	 0.105973755912821 
577	 0.105855218707395 
578	 0.105761811626303 
579	 0.105569028843191 
580	 0.10530939563513 
581	 0.104993024305134 
582	 0.104729674458946 
583	 0.104499708179859 
584	 0.104039247918921 
585	 0.103290707604664 
586	 0.102461825099887 
587	 0.101793172969003 
588	 0.100895709254553 
589	 0.100290467306206 
590	 9.99842590048189E-02 
591	 9.93180482726887E-02 
592	 9.87731455807588E-02 
593	 9.82450287350179E-02 
594	 9.75943600276246E-02 
595	 9.68689640918458E-02 
596	 9.60899949883783E-02 
597	 9.52688917051103E-02 
598	 9.44139002681338E-02 
599	 9.35029586501327E-02 
600	 9.25400280635939E-02 
601	 9.16935271080901E-02 
602	 9.14282882134236E-02 
603	 9.09911745929468E-02 
604	 9.05051524724282E-02 
605	 9.03035706438586E-02 
606	 9.02440227982697E-02 
607	 9.00504498335808E-02 
608	 8.97229768124846E-02 
609	 8.95478323740591E-02 
610	 8.93629066173312E-02 
611	 8.91155541866547E-02 
612	 8.87858511058138E-02 
613	 8.83466616507667E-02 
614	 8.81921951012603E-02 
615	 8.81606669137416E-02 
616	 8.78379495417659E-02 
617	 8.77406384557214E-02 
618	 8.74164009639096E-02 
619	 0.086853238411993 
620	 8.69302756931146E-02 
621	 8.68785740314734E-02 
622	 8.66937975444454E-02 
623	 8.65799949107915E-02 
624	 8.65177015156816E-02 
625	 8.62682442581006E-02 
626	 8.58649016620401E-02 
627	 8.56143746060898E-02 
628	 8.53860985324126E-02 
629	 8.51888030131095E-02 
630	 8.50169857290371E-02 
631	 8.47770540822011E-02 
632	 8.46432322597296E-02 
633	 8.46262193733246E-02 
634	 8.46289506440647E-02 
635	 8.44458350777546E-02 
636	 8.41870363298665E-02 
637	 8.40280456353119E-02 
638	 8.42006646589206E-02 
639	 8.39006179498943E-02 
640	 8.36141988577615E-02 
641	 8.38567812658967E-02 
642	 8.35967007499559E-02 
643	 8.33871013789397E-02 
644	 8.32748342942907E-02 
645	 8.28681954321065E-02 
646	 8.23058738952156E-02 
647	 8.19469698798227E-02 
648	 8.19290415349228E-02 
649	 8.17355291604365E-02 
650	 0.081629913302697 
651	 8.13388108388356E-02 
652	 8.05666548095879E-02 
653	 8.00145800261308E-02 
654	 7.94834626145682E-02 
655	 7.87235581335203E-02 
656	 7.76238969444254E-02 
657	 7.69611313192165E-02 
658	 7.62863424103295E-02 
659	 7.52579242492937E-02 
660	 7.46450109918908E-02 
661	 7.41141734994913E-02 
662	 7.34503528600253E-02 
663	 7.25869898018028E-02 
664	 7.20873641473424E-02 
665	 7.17203053124605E-02 
666	 7.12966522993258E-02 
667	 7.08778127834471E-02 
668	 7.09600891609382E-02 
669	 7.11437124387969E-02 
670	 7.09159531242878E-02 
671	 7.08028794773653E-02 
672	 7.10739551738178E-02 
673	 7.15836669335823E-02 
674	 0.071837628969371 
675	 0.072090630302727 
676	 0.072493325096552 
677	 7.30476841498938E-02 
678	 7.34432978487798E-02 
679	 7.36279316391486E-02 
680	 7.38366453778738E-02 
681	 7.43854577511162E-02 
682	 7.50622425513057E-02 
683	 7.56832593454097E-02 
684	 0.076174275950539 
685	 7.66504502212255E-02 
686	 7.74628357131697E-02 
687	 7.80729835915879E-02 
688	 7.80149436077953E-02 
689	 7.82513974813697E-02 
690	 7.82004997139311E-02 
691	 0.077998008398123 
692	 7.81648600352775E-02 
693	 7.79691585750144E-02 
694	 7.79147143090609E-02 
695	 7.80155131137916E-02 
696	 7.72775240920126E-02 
697	 7.67804441234479E-02 
698	 7.64242639790229E-02 
699	 7.59130534636472E-02 
700	 7.55657999768485E-02 
701	 7.49160138230712E-02 
702	 7.39883066341574E-02 
703	 7.31417928477573E-02 
704	 7.25912438483914E-02 
705	 7.19150355522822E-02 
706	 7.09425250853839E-02 
707	 7.02056581495634E-02 
708	 6.89876063310626E-02 
709	 6.77114924262837E-02 
710	 6.69703386728825E-02 
711	 6.57111496343085E-02 
712	 6.44709184371649E-02 
713	 6.34659899715139E-02 
714	 6.24557327383813E-02 
715	 6.11185124939599E-02 
716	 0.059555049007987 
717	 5.83186214175496E-02 
718	 5.76225822255931E-02 
719	 5.62650882183682E-02 
720	 5.48900699549901E-02 
721	 5.40668056077111E-02 
722	 5.35105870267574E-02 
723	 5.27327621637119E-02 
724	 5.16998098704377E-02 
725	 5.07894217840393E-02 
726	 4.98586896419099E-02 
727	 4.89224507097074E-02 
728	 4.80171514468863E-02 
729	 4.70825747443464E-02 
730	 4.67800434001055E-02 
731	 4.65329765525679E-02 
732	 4.56126445019585E-02 
733	 4.52572555031432E-02 
734	 4.49300071848968E-02 
735	 4.45322414974931E-02 
736	 4.46018787232276E-02 
737	 4.41514147325974E-02 
738	 4.37609539274416E-02 
739	 4.39382867914348E-02 
740	 4.39777014765205E-02 
741	 4.40392933726391E-02 
742	 4.40677807996421E-02 
743	 4.39483712517642E-02 
744	 4.39076404603383E-02 
745	 4.38877354970915E-02 
746	 4.38359771181318E-02 
747	 4.37438070175636E-02 
748	 4.38257446625396E-02 
749	 4.38719489745878E-02 
750	 4.36955229923428E-02 
751	 4.35391552209063E-02 
752	 0.043502992599834 
753	 4.34985488160997E-02 
754	 0.043371630929182 
755	 4.34125743532179E-02 
756	 4.33466914289934E-02 
757	 4.31292927307745E-02 
758	 4.31411711176396E-02 
759	 4.31028357982744E-02 
760	 4.28377996746277E-02 
761	 0.042557533015681 
762	 4.24748793529317E-02 
763	 4.25114050669174E-02 
764	 4.26355031839834E-02 
765	 4.28230954022468E-02 
766	 4.30903984005755E-02 
767	 4.32120598270636E-02 
768	 4.31806620887884E-02 
769	 4.31581713908968E-02 
770	 4.33779657345309E-02 
771	 4.34212678390559E-02 
772	 4.31088584134768E-02 
773	 4.32733587667592E-02 
774	 4.32872799688584E-02 
775	 0.043225296173654 
776	 4.33685946417861E-02 
777	 4.32843881621807E-02 
778	 4.32628331527931E-02 
779	 4.33476857243899E-02 
780	 4.33070096838959E-02 
781	 4.35544098534054E-02 
782	 4.36271770383925E-02 
783	 4.33262182384565E-02 
784	 4.34140532621754E-02 
785	 4.35608223612724E-02 
786	 4.36870110948753E-02 
787	 0.043739647266596 
788	 4.33853385160128E-02 
789	 4.32541389408743E-02 
790	 4.35015756084783E-02 
791	 4.37976964091029E-02 
792	 4.38855859117517E-02 
793	 4.38311513797692E-02 
794	 0.043768459462687 
795	 4.38604332903224E-02 
796	 0.044181424364669 
797	 4.43600202045576E-02 
798	 4.41506244350293E-02 
799	 4.40685124359092E-02 
800	 4.42456780939736E-02 
801	 0.044546898921253 
802	 4.46657905505128E-02 
803	 4.44504535983214E-02 
804	 4.45355577121375E-02 
805	 4.48234173561688E-02 
806	 4.44614923599141E-02 
807	 4.44977747970971E-02 
808	 4.46861859383894E-02 
809	 4.45732040678311E-02 
810	 4.38241187708346E-02 
811	 0.043492589920265 
812	 4.34547581129826E-02 
813	 4.31246641031726E-02 
814	 4.32104938063816E-02 
815	 4.33862253941076E-02 
816	 4.33748261357228E-02 
817	 4.31452360815511E-02 
818	 0.043159045371415 
819	 4.31076127607451E-02 
820	 4.29177657804045E-02 
821	 4.28524958293709E-02 
822	 4.26641739383762E-02 
823	 4.25780821910016E-02 
824	 4.25443061703223E-02 
825	 4.15562743248428E-02 
826	 0.041275348367097 
827	 4.12946112274813E-02 
828	 4.06942492223323E-02 
829	 4.08386695238454E-02 
830	 4.07158918966486E-02 
831	 4.01797344039087E-02 
832	 3.98190408890091E-02 
833	 4.00567449761008E-02 
834	 4.03911600854404E-02 
835	 4.04309324151338E-02 
836	 4.00696398302672E-02 
837	 4.02280924677246E-02 
838	 4.02627006478414E-02 
839	 3.98327366690574E-02 
840	 4.02448712971616E-02 
841	 4.00721629587575E-02 
842	 3.96477984137551E-02 
843	 3.98140454995848E-02 
844	 4.07590990936404E-02 
845	 4.04328396663238E-02 
846	 3.94112212711112E-02 
847	 3.98210520666458E-02 
848	 4.02511478183085E-02 
849	 0.040201608171159 
850	 3.97676141054369E-02 
851	 3.96616695032184E-02 
852	 0.039826081228821 
853	 3.98823204180327E-02 
854	 3.98136061104167E-02 
855	 4.05556063119172E-02 
856	 4.01443438221213E-02 
857	 3.95641762560579E-02 
858	 3.99254830564521E-02 
859	 3.97936654913582E-02 
860	 3.95639370691478E-02 
861	 3.95477947379996E-02 
862	 3.99054272430992E-02 
863	 4.02200875423255E-02 
864	 4.02659673807825E-02 
865	 4.00544528643007E-02 
866	 3.97998999665344E-02 
867	 3.93375415063781E-02 
868	 3.91612428168287E-02 
869	 3.93061639748388E-02 
870	 3.91530983920913E-02 
871	 3.93794308903525E-02 
872	 3.93169818331411E-02 
873	 3.87962137183375E-02 
874	 3.94382393400445E-02 
875	 3.90395077303042E-02 
876	 3.86609381285349E-02 
877	 3.94806981988549E-02 
878	 3.91949319201028E-02 
879	 0.038952752917757 
880	 0.038883817369492 
881	 3.87206364569984E-02 
882	 3.90461338445219E-02 
883	 3.87320706329011E-02 
884	 3.83281338007497E-02 
885	 3.93183967854667E-02 
886	 3.91565839810746E-02 
887	 3.88971241969915E-02 
888	 3.88842325053044E-02 
889	 3.82625856628636E-02 
890	 3.81145056553277E-02 
891	 0.038669491695142 
892	 3.93460004908159E-02 
893	 3.82034976372901E-02 
894	 3.77409207274416E-02 
895	 3.79193654145573E-02 
896	 3.77793359742096E-02 
897	 3.65377042957387E-02 
898	 3.63868541205385E-02 
899	 3.78677905614256E-02 
900	 3.95281388226315E-02 
901	 3.69094628379448E-02 
902	 3.64661380519947E-02 
903	 3.75311779518117E-02 
904	 3.75640584814206E-02 
905	 3.91737670472574E-02 
906	 3.80727550890028E-02 
907	 3.53424634768723E-02 
908	 3.61791567011481E-02 
909	 3.78649423733584E-02 
910	 3.81915368694302E-02 
911	 3.74532593019521E-02 
912	 3.78486719743416E-02 
913	 3.60338998825766E-02 
914	 3.48458257250769E-02 
915	 3.55419634335293E-02 
916	 3.64049787128254E-02 
917	 0.036353057930655 
918	 3.55398445211646E-02 
919	 3.55464629261145E-02 
920	 3.90960841805138E-02 
921	 3.88493271557841E-02 
922	 3.62652256180298E-02 
923	 0.034489850709649 
924	 3.68521947564173E-02 
925	 3.77899394389341E-02 
926	 3.65987583524286E-02 
927	 3.42196777176469E-02 
928	 3.08348038610122E-02 
929	 0.029441064187223 
930	 2.75648876052053E-02 
931	 2.16150775349203E-02 
932	 3.75820908633702E-02 
933	 5.77301045636124E-02 
934	 4.62918571081502E-02 
935	 5.37042832544775E-04 
936	 2.31368813827184E-02 
937	 0.039741464262668 
938	 0.039753936991296 
939	 3.36515516022233E-02 
940	 2.51666250399113E-02 
941	 3.21975402260622E-02 
942	 3.72888334462527E-02 
943	 0.016478004881676 
944	 3.90058702090982E-02 
945	 3.39144148361642E-02 
946	 1.09511085151273E-02 
947	 2.33759569337456E-02 
948	 4.10331823035236E-02 
949	 3.63595817926414E-02 
950	 2.47538819513116E-02 
951	 3.67444007416603E-02 
952	 3.41180557743296E-02 
953	 0.023679823948463 
954	 2.17934900601779E-02 
955	 3.97801506579214E-02 
956	 3.68237130142471E-02 
957	 3.13704153401823E-02 
958	 3.33215017566833E-02 
959	 0.041058331351126 
960	 3.79693603975399E-02 
961	 3.26249604450273E-02 
962	 0.029777015158002 
963	 3.03834412549399E-02 
964	 4.15057862367722E-02 
965	 4.06544076621299E-02 
966	 3.21697808322729E-02 
967	 3.45792247988312E-02 
968	 3.69199321888633E-02 
969	 3.71686225381276E-02 
970	 3.60842149014088E-02 
971	 3.54911296338151E-02 
972	 3.05181440540164E-02 
973	 0.030152279088145 
974	 3.58796748903637E-02 
975	 0.03948887862464 
976	 3.25777563426984E-02 
977	 0.030311997264733 
978	 3.48063658653082E-02 
979	 3.55513532627374E-02 
980	 3.51354270358048E-02 
981	 3.49692264289677E-02 
982	 3.62521369539363E-02 
983	 3.92360847438227E-02 
984	 4.02034076334319E-02 
985	 3.59499647784771E-02 
986	 3.04633592293852E-02 
987	 3.15965111799512E-02 
988	 3.74167369374695E-02 
989	 3.56244013091633E-02 
990	 3.05196965725927E-02 
991	 3.57764704482617E-02 
992	 3.76905824274505E-02 
993	 3.98025117828549E-02 
994	 3.80689052354948E-02 
995	 2.77474499850778E-02 
996	 0.034909192053134 
997	 3.85414064930587E-02 
998	 3.60134833099658E-02 
999	 3.65619484497109E-02 
1000	 3.42383743392569E-02 
1001	 4.14104200937303E-02 
1002	 4.18348952764393E-02 
1003	 4.24295275836271E-02 
1004	 4.33967541442764E-02 
1005	 4.37119905790004E-02 
1006	 0.04451873816508 
1007	 4.42659737362304E-02 
1008	 4.38436621741721E-02 
1009	 0.043544561019079 
1010	 0.043044398509441 
1011	 4.32409908660123E-02 
1012	 4.28868471356695E-02 
1013	 4.22433576469783E-02 
1014	 4.19691106864349E-02 
1015	 0.04223846269187 
1016	 4.20560834110225E-02 
1017	 4.12683385615074E-02 
1018	 4.14144018194654E-02 
1019	 4.24605669310739E-02 
1020	 4.28613194382421E-02 
1021	 4.37132888659938E-02 
1022	 4.36948185289792E-02 
1023	 4.36538423278488E-02 
1024	 4.21207195773212E-02 
1025	 4.19672336297782E-02 
1026	 0.043366661549256 
1027	 4.31225196399097E-02 
1028	 0.042826996165189 
1029	 4.24932972937335E-02 
1030	 4.10420905686497E-02 
1031	 4.02949557691322E-02 
1032	 4.00118354774171E-02 
1033	 3.97868249123356E-02 
1034	 3.92306599200765E-02 
1035	 3.94989430549215E-02 
1036	 4.14384757949331E-02 
1037	 4.16305741820777E-02 
1038	 4.10432396101565E-02 
1039	 4.04979229226842E-02 
1040	 3.97970203866527E-02 
1041	 4.02238255530901E-02 
1042	 4.08336162943225E-02 
1043	 4.35087334847365E-02 
1044	 4.34674500068663E-02 
1045	 4.17709272756433E-02 
1046	 4.15326426502179E-02 
1047	 4.08858617706017E-02 
1048	 4.06608301238174E-02 
1049	 4.13571862404959E-02 
1050	 4.16985015592676E-02 
1051	 0.041677495645826 
1052	 4.19643037814981E-02 
1053	 4.33011305899851E-02 
1054	 4.34823440308742E-02 
1055	 4.23537619890877E-02 
1056	 0.042103011357621 
1057	 4.19591870054884E-02 
1058	 4.15994104504814E-02 
1059	 0.04120445619436 
1060	 4.13795471053084E-02 
1061	 4.11964949860656E-02 
1062	 3.99835830275053E-02 
1063	 4.00701398426459E-02 
1064	 4.11745725359021E-02 
1065	 4.17689649335374E-02 
1066	 4.33346930720345E-02 
1067	 4.34498738249532E-02 
1068	 0.042368999750504 
1069	 4.18166543733218E-02 
1070	 4.00677334547594E-02 
1071	 3.94596603486948E-02 
1072	 3.98837883392243E-02 
1073	 4.02407414763331E-02 
1074	 4.07542275107955E-02 
1075	 4.20626192470008E-02 
1076	 4.22496051999677E-02 
1077	 4.21333191075638E-02 
1078	 4.17600470249981E-02 
1079	 4.04189606952995E-02 
1080	 3.98231645087898E-02 
1081	 0.039449995214613 
1082	 3.91579509943448E-02 
1083	 3.86757349308677E-02 
1084	 3.89876699636205E-02 
1085	 4.01618420452524E-02 
1086	 4.05827061694603E-02 
1087	 4.19222175929881E-02 
1088	 4.22213169011656E-02 
1089	 4.10115862374102E-02 
1090	 3.99093479073505E-02 
1091	 3.98989334160615E-02 
1092	 3.98547934581987E-02 
1093	 4.08440171936661E-02 
1094	 4.44125329486341E-02 
1095	 4.51656843475692E-02 
1096	 4.46196850893529E-02 
1097	 4.40588900131832E-02 
1098	 4.09459050925651E-02 
1099	 4.04379711636377E-02 
1100	 0.042425187277635 
1101	 0.043219324861327 
1102	 4.41304315963816E-02 
1103	 4.51778929451721E-02 
1104	 0.045543712806108 
1105	 0.045897476314942 
1106	 4.77451027916521E-02 
1107	 5.18492760606982E-02 
1108	 0.053189459314406 
1109	 5.16084190329014E-02 
1110	 5.13767914356933E-02 
1111	 4.75443724044341E-02 
1112	 4.90898266695813E-02 
1113	 5.91014103783685E-02 
1114	 6.15915128767915E-02 
1115	 6.12797058887651E-02 
1116	 6.42524382509398E-02 
1117	 5.70792852134896E-02 
1118	 0.056679983983647 
1119	 7.99487423131951E-02 
1120	 9.15980590423769E-02 
1121	 9.71351800849857E-02 
1122	 9.18312089604391E-02 
1123	 5.13528339987716E-02 
1124	 3.87857248062657E-02 
1125	 9.45374378025021E-02 
1126	 0.133695970474782 
1127	 0.163907579017597 
1128	 0.175042109794279 
1129	 0.177242183189658 
1130	 0.136008987148155 
1131	 0.11932793535478 
1132	 0.122830201891932 
1133	 0.117482461038583 
1134	 9.30556725291826E-02 
1135	 8.52393074803222E-02 
1136	 9.53707743031331E-02 
1137	 9.02545411009876E-02 
1138	 7.43365655113106E-02 
1139	 0.068371042642871 
1140	 7.63980030403654E-02 
1141	 7.86347630657463E-02 
1142	 8.65999534748251E-02 
1143	 0.101022445233216 
1144	 0.120407907793643 
1145	 0.114091490526671 
1146	 8.38480233978691E-02 
1147	 8.90381835309192E-02 
1148	 8.29181557809906E-02 
1149	 6.67170241666226E-02 
1150	 6.61126839565624E-02 
1151	 8.18287857204735E-02 
1152	 7.60276127637028E-02 
1153	 6.85704998053441E-02 
1154	 6.65429713740603E-02 
1155	 6.33149877884074E-02 
1156	 5.82189035630336E-02 
1157	 6.16362435332895E-02 
1158	 5.74456903100119E-02 
1159	 4.76288395164977E-02 
1160	 0.046871694984676 
1161	 0.04797102219197 
1162	 4.52061990266675E-02 
1163	 4.40847561961582E-02 
1164	 4.31865488015634E-02 
1165	 4.00345947936676E-02 
1166	 3.93589133975788E-02 
1167	 0.041625368171639 
1168	 4.31016668878815E-02 
1169	 4.37203958367177E-02 
1170	 4.27597459197982E-02 
1171	 4.17844058865683E-02 
1172	 3.93641880158873E-02 
1173	 3.89095293358955E-02 
1174	 3.88454808072403E-02 
1175	 3.95819725997489E-02 
1176	 4.03519135825539E-02 
1177	 3.99107660800312E-02 
1178	 3.91598097950911E-02 
1179	 3.90312281541519E-02 
1180	 4.06286670166905E-02 
1181	 4.16118422584264E-02 
1182	 4.19782714417228E-02 
1183	 4.28168287660125E-02 
1184	 4.17392662508515E-02 
1185	 4.04660303421849E-02 
1186	 3.96706680165221E-02 
1187	 3.89066447893021E-02 
1188	 3.86946019425427E-02 
1189	 3.87343684353199E-02 
1190	 3.93466483141114E-02 
1191	 3.94671511868299E-02 
1192	 0.039117387153674 
1193	 3.76230045954252E-02 
1194	 3.79107026908202E-02 
1195	 3.95940721912368E-02 
1196	 0.039936001093627 
1197	 4.06849796279937E-02 
1198	 4.15560473972407E-02 
1199	 4.11311692637721E-02 
1200	 4.08244897195701E-02 
1201	 4.04554796240021E-02 
1202	 3.98169727422745E-02 
1203	 3.88992237256834E-02 
1204	 3.88930448608866E-02 
1205	 4.12246683330584E-02 
1206	 4.17570771795667E-02 
1207	 3.97165525682194E-02 
1208	 3.95472090004794E-02 
1209	 3.91706190584155E-02 
1210	 0.038127887678108 
1211	 3.92604196641921E-02 
1212	 3.98851457094796E-02 
1213	 3.91812295498489E-02 
1214	 3.86303334369359E-02 
1215	 0.03821289155247 
1216	 3.81788913930291E-02 
1217	 3.87453889808402E-02 
1218	 3.89983911492593E-02 
1219	 3.92620529703291E-02 
1220	 3.95734564717659E-02 
1221	 3.88563010565533E-02 
1222	 3.84597081225417E-02 
1223	 3.89924579300186E-02 
1224	 3.98527218611196E-02 
1225	 0.039848571535459 
1226	 3.86790211406523E-02 
1227	 3.91883447470363E-02 
1228	 3.97767088270523E-02 
1229	 3.81635607518435E-02 
1230	 3.81749635850647E-02 
1231	 3.82639757772414E-02 
1232	 3.65570003670079E-02 
1233	 3.71150999778063E-02 
1234	 3.87621893738064E-02 
1235	 3.90261741787808E-02 
1236	 3.78904728677618E-02 
1237	 3.79786520059625E-02 
1238	 3.85150984295005E-02 
1239	 3.81851520416247E-02 
1240	 3.75269306578946E-02 
1241	 0.037323267331866 
1242	 0.036759041816207 
1243	 0.036596456109344 
1244	 3.71835765332902E-02 
1245	 0.037987182108653 
1246	 0.038701508474898 
1247	 3.85556974084601E-02 
1248	 3.81941925219452E-02 
1249	 3.84279987897299E-02 
1250	 3.81705496823666E-02 
1251	 3.80159273656196E-02 
1252	 3.89787029091439E-02 
1253	 3.90639695742511E-02 
1254	 0.03795207755467 
1255	 3.75364835721137E-02 
1256	 3.76535248733474E-02 
1257	 3.76588407802374E-02 
1258	 3.73703640251397E-02 
1259	 3.79817637110723E-02 
1260	 3.81212603049805E-02 
1261	 3.69350057325496E-02 
1262	 0.036826003846197 
1263	 3.78630872989467E-02 
1264	 3.84144082765577E-02 
1265	 0.038264261811984 
1266	 3.83337610486279E-02 
1267	 3.88818645853146E-02 
1268	 3.93667212780559E-02 
1269	 3.92520113836517E-02 
1270	 3.89191245653134E-02 
1271	 3.80375772836876E-02 
1272	 3.72549656973757E-02 
1273	 0.037589864996191 
1274	 3.79009837443439E-02 
1275	 3.75813717377269E-02 
1276	 3.76648472074123E-02 
1277	 3.93290399923944E-02 
1278	 4.01272311101004E-02 
1279	 3.94322550333423E-02 
1280	 3.92438565054577E-02 
1281	 3.95412883395255E-02 
1282	 3.88446858973329E-02 
1283	 3.87731724967994E-02 
1284	 4.07892391832036E-02 
1285	 4.10749511636008E-02 
1286	 3.91277621358225E-02 
1287	 0.038658588355533 
1288	 3.93773219454455E-02 
1289	 3.92519804044932E-02 
1290	 3.89751728695648E-02 
1291	 3.85822373926088E-02 
1292	 3.83475987623996E-02 
1293	 3.71435457777146E-02 
1294	 3.66819229415618E-02 
1295	 3.74260012827456E-02 
1296	 3.77172049872569E-02 
1297	 3.77011704809572E-02 
1298	 3.84985846682306E-02 
1299	 4.07981567172001E-02 
1300	 4.13729412734776E-02 
1301	 0.040702061328487 
1302	 4.16143304434086E-02 
1303	 4.16143803508814E-02 
1304	 4.26623304081161E-02 
1305	 4.43170390204291E-02 
1306	 4.45688282935692E-02 
1307	 4.19999376944624E-02 
1308	 4.20451695786704E-02 
1309	 4.39694515395339E-02 
1310	 4.41094258867707E-02 
1311	 4.40050742438226E-02 
1312	 4.37652142966153E-02 
1313	 0.040640223385861 
1314	 4.09050014807649E-02 
1315	 4.59515118728629E-02 
1316	 4.66241719246726E-02 
1317	 4.46099764426995E-02 
1318	 4.53016978284381E-02 
1319	 4.56182406664834E-02 
1320	 4.55999630260914E-02 
1321	 4.72324367316054E-02 
1322	 5.07494129150484E-02 
1323	 5.08557262828149E-02 
1324	 4.70652213272407E-02 
1325	 0.047337851571489 
1326	 4.86433028519209E-02 
1327	 4.70633372844499E-02 
1328	 4.51858715952583E-02 
1329	 4.24755798295409E-02 
1330	 4.30556676963877E-02 
1331	 4.92166271608828E-02 
1332	 5.46806965549126E-02 
1333	 0.059701501881706 
1334	 6.40911593236932E-02 
1335	 6.34955314204735E-02 
1336	 5.15154155711547E-02 
1337	 5.21432816446086E-02 
1338	 5.74281963295744E-02 
1339	 5.91754861865561E-02 
1340	 6.62759405688215E-02 
1341	 7.36295114811921E-02 
1342	 8.08163154782545E-02 
1343	 8.71986423506484E-02 
1344	 9.53129112099904E-02 
1345	 0.109237854192722 
1346	 0.1231385855755 
1347	 0.142071387722269 
1348	 0.200094691078884 
1349	 0.244962166927633 
1350	 0.247699828734955 
1351	 0.289685986667973 
1352	 0.254329348532386 
1353	 0.319262814757432 
1354	 0.563509869286164 
1355	 0.946908898729213 
1356	 1.02312335616477 
1357	 1.11654475432761 
1358	 1.32308743402498 
1359	 1.05194755290607 
1360	 0.983079601381669 
1361	 1.15927565503359 
1362	 1.401847161024 
1363	 2.2201484312364 
1364	 0.753049992360053 
1365	 0.555857196006656 
1366	 0.724720135827206 
1367	 0.381230947604966 
1368	 0.526022755537659 
1369	 1.34965180641645 
1370	 2.10744367757497 
1371	 6.58893198151386 
1372	 9.55021172102976 
1373	 15.1150865694246 
1374	-74.4104837601471 
1375	 6.85309945584995 
1376	 3.87206450317478 
1377	 2.97322585646146 
1378	 3.03804110450686 
1379	 2.49377034875973 
1380	 1.53161063619678 
1381	 2.18932010372518 
1382	 1.92650813388047 
1383	 0.925998317566492 
1384	 1.0121731826629 
1385	 1.13734753869273 
1386	 1.33504379214547 
1387	 5.38834011061827 
1388	 5.34780925315312 
1389	 0.897480753471354 
1390	 0.511573895942188 
1391	 1.07052440890552 
1392	 0.662343738194284 
1393	 0.639527426372003 
1394	 0.922929011722276 
1395	 1.48955777340749 
1396	 1.42095772700036 
1397	 2.44572815441194 
1398	-362.539699050505 
1399	 3.09255812638981 
1400	 1.47975764880116 
1401	 2.97335694665335 
1402	-246.852396420776 
1403	-12.8039125040876 
1404	-32.3922480296096 
1405	-375.975569734835 
1406	 3.04315045659933 
1407	 3.13785049370271 
1408	 10.0164326187375 
1409	 45.5353020382404 
1410	-7.68629773843026 
1411	-21.2209801901233 
1412	 5.03945705516743 
1413	 4.75675635561531 
1414	 7.38709807169318 
1415	 7.4855687318105 
1416	 15.5312343815364 
1417	 42.215073199157 
1418	 22.5240827875365 
1419	 7.53025903561424 
1420	 3.58614919665383 
1421	 2.01102612339011 
1422	 1.46445871448391 
1423	 1.76449558967232 
1424	 5.16249495392889 
1425	 5.93607665246247 
1426	 6.55450125317927 
1427	 5.24877834404779 
1428	 1.82740256317281 
1429	 1.3391633234761 
1430	 1.15515066545085 
1431	 1.11621183863482 
1432	 1.31446269415157 
1433	 1.22293917369216 
1434	 1.06689778157455 
1435	 1.09197583154379 
1436	 0.995664471016285 
1437	 0.945356154604476 
1438	 1.08116520001553 
1439	 1.28155292666959 
1440	 1.73612000792578 
1441	 1.96302774490121 
1442	 1.24326537009162 
1443	 0.731559728846432 
1444	 0.362964371265496 
1445	 0.245891040129162 
1446	 0.195474318668442 
1447	 0.168764104994449 
1448	 0.203669738875759 
1449	 0.200545819676761 
1450	 0.23749360409895 
1451	 0.26840244529254 
1452	 0.233026253777727 
1453	 0.257145994696513 
1454	 0.232501822461144 
1455	 0.224227430409264 
1456	 0.246901960657667 
1457	 0.259209152356077 
1458	 0.236544886564639 
1459	 0.222747672850355 
1460	 0.259912436684843 
1461	 0.297971683723023 
1462	 0.280547006292003 
1463	 0.306310374665392 
1464	 0.326526188030824 
1465	 0.250190487924016 
1466	 0.231203787400444 
1467	 0.2704991361389 
1468	 0.310228687220462 
1469	 0.363995655916611 
1470	 0.350253065393888 
1471	 0.341494756070991 
1472	 0.356679117696562 
1473	 0.311054355529032 
1474	 0.276052973558384 
1475	 0.297892735666269 
1476	 0.28807801076879 
1477	 0.22154286880161 
1478	 0.191358141672274 
1479	 0.196153151184714 
1480	 0.173019801413643 
1481	 0.128018071708254 
1482	 0.122237838535097 
1483	 0.145045192646369 
1484	 0.128705106163175 
1485	 0.11020175882967 
1486	 0.102479042618335 
1487	 7.69527411364079E-02 
1488	 7.28689635686704E-02 
1489	 0.089885896024879 
1490	 8.92989591004899E-02 
1491	 8.30229215026701E-02 
1492	 7.92608512750497E-02 
1493	 7.36443701738774E-02 
1494	 6.98267992496541E-02 
1495	 6.96948834909326E-02 
1496	 6.61142053121382E-02 
1497	 0.05778056938083 
1498	 5.40623375548751E-02 
1499	 5.22001791445356E-02 
1500	 4.86665054108321E-02 
1501	 0.045229273990039 
1502	 4.44117866368196E-02 
1503	 4.41743354749922E-02 
1504	 4.37195528776571E-02 
1505	 4.48007832978626E-02 
1506	 4.61057445083882E-02 
1507	 4.78867246434381E-02 
1508	 4.40273094588688E-02 
1509	 4.27997071494594E-02 
1510	 0.043793153857825 
1511	 4.04799455976668E-02 
1512	 3.98144235736535E-02 
1513	 4.43964824670472E-02 
1514	 4.58072506457515E-02 
1515	 4.49898745930701E-02 
1516	 4.52984587905271E-02 
1517	 4.41003514167666E-02 
1518	 4.26449283980347E-02 
1519	 4.32584975844262E-02 
1520	 4.40342881102822E-02 
1521	 4.41712465554292E-02 
1522	 4.23088232333212E-02 
1523	 3.83611382706284E-02 
1524	 3.75161248576452E-02 
1525	 3.87257943990795E-02 
1526	 3.90720624385218E-02 
1527	 3.84055887933826E-02 
1528	 3.86939144780905E-02 
1529	 3.87955984661531E-02 
1530	 3.70081073272905E-02 
1531	 4.09475313764912E-02 
1532	 4.46025342088297E-02 
1533	 4.04906811868168E-02 
1534	 3.80875352597099E-02 
1535	 3.73739334584521E-02 
1536	 3.54555960271737E-02 
1537	 3.46552355561078E-02 
1538	 3.54379759821407E-02 
1539	 3.64281665331305E-02 
1540	 3.55426780054212E-02 
1541	 3.65693261990213E-02 
1542	 3.83374035712895E-02 
1543	 3.75636105742704E-02 
1544	 0.037829946219879 
1545	 3.79297454111723E-02 
1546	 3.69171517723703E-02 
1547	 3.75007868744657E-02 
1548	 3.68887993890472E-02 
1549	 3.66177229131944E-02 
1550	 3.87305781158903E-02 
1551	 3.75450504932119E-02 
1552	 3.62754512948718E-02 
1553	 3.69564408012253E-02 
1554	 3.58225818813663E-02 
1555	 3.79647636888572E-02 
1556	 0.041113414663694 
1557	 0.039068839683422 
1558	 3.83208528378321E-02 
1559	 3.93718099321766E-02 
1560	 3.72346896288326E-02 
1561	 0.034869293455396 
1562	 3.50346384034351E-02 
1563	 0.035528430391835 
1564	 3.47484863814512E-02 
1565	 3.55702107871713E-02 
1566	 3.84527146332909E-02 
1567	 0.039431740459979 
1568	 3.78755551925219E-02 
1569	 3.91143729791652E-02 
1570	 4.04824788400747E-02 
1571	 3.96021932880003E-02 
1572	 4.09746011567423E-02 
1573	 3.95798196541577E-02 
1574	 3.64034032641042E-02 
1575	 3.53768858417964E-02 
1576	 3.46341763054169E-02 
1577	 3.58219136167963E-02 
1578	 3.73107487431449E-02 
1579	 3.82791468033642E-02 
1580	 3.79448696576865E-02 
1581	 3.65409920002467E-02 
1582	 3.72188152164238E-02 
1583	 3.70405036483001E-02 
1584	 0.037009145896248 
1585	 3.93384828887167E-02 
1586	 0.040223884639857 
1587	 3.90555376291864E-02 
1588	 3.90402002761524E-02 
1589	 3.95989682231196E-02 
1590	 3.84523579406937E-02 
1591	 3.82762327784653E-02 
1592	 3.88339993263095E-02 
1593	 3.81087690679777E-02 
1594	 3.77676383540678E-02 
1595	 3.97591570410409E-02 
1596	 4.10862926083034E-02 
1597	 3.93918915400446E-02 
1598	 3.86374535276953E-02 
1599	 3.92085652367697E-02 
1600	 3.89686663324674E-02 
1601	 3.79008969591652E-02 
1602	 3.74473792599359E-02 
1603	 3.78748025962287E-02 
1604	 3.75523660229553E-02 
1605	 3.65972913285325E-02 
1606	 3.73627524599787E-02 
1607	 3.73764349011192E-02 
1608	 3.53000586167675E-02 
1609	 3.56208168718282E-02 
1610	 3.57225054585074E-02 
1611	 3.39208942660075E-02 
1612	 3.36406768552207E-02 
1613	 3.56554536669636E-02 
1614	 3.73311052851483E-02 
1615	 3.83829874258055E-02 
1616	 3.89164775540916E-02 
1617	 3.73330307299723E-02 
1618	 3.70313480242513E-02 
1619	 3.60261510027606E-02 
1620	 3.42744515907762E-02 
1621	 3.38496504174008E-02 
1622	 3.29710998610282E-02 
1623	 3.52964349236693E-02 
1624	 0.03779617877155 
1625	 3.77349997574905E-02 
1626	 3.83274058046198E-02 
1627	 3.74511697617534E-02 
1628	 3.66109105320988E-02 
1629	 3.85818528941734E-02 
1630	 3.95269139828699E-02 
1631	 3.93864586825351E-02 
1632	 3.91188084392878E-02 
1633	 3.85988724536985E-02 
1634	 3.96397151382766E-02 
1635	 4.04858867922747E-02 
1636	 4.09015896115612E-02 
1637	 4.13993181538557E-02 
1638	 4.03622868010605E-02 
1639	 3.85544581988684E-02 
1640	 0.038316559006958 
1641	 3.85332947954149E-02 
1642	 3.65592469122937E-02 
1643	 3.66188524319879E-02 
1644	 3.88647296882104E-02 
1645	 3.81667725434211E-02 
1646	 3.75071497978977E-02 
1647	 3.74180606605242E-02 
1648	 3.72863994507018E-02 
1649	 0.037835397980155 
1650	 3.73789388283725E-02 
1651	 0.037298325569659 
1652	 3.61311990853803E-02 
1653	 3.70034224521953E-02 
1654	 0.038565119469081 
1655	 4.18334320971383E-02 
1656	 4.21270341885266E-02 
1657	 4.06303987835366E-02 
1658	 0.039734546178189 
1659	 3.76258988405109E-02 
1660	 3.71985924092209E-02 
1661	 3.81183725951166E-02 
1662	 3.80338775414399E-02 
1663	 3.84001786498009E-02 
1664	 3.85071169761135E-02 
1665	 3.67649226908777E-02 
1666	 3.65348636218664E-02 
1667	 3.76843139841265E-02 
1668	 3.86919946196979E-02 
1669	 3.98527688947718E-02 
1670	 4.02623939202429E-02 
1671	 4.05937690435941E-02 
1672	 4.11812353939889E-02 
1673	 0.04056999093587 
1674	 3.99797269438048E-02 
1675	 4.00640610961929E-02 
1676	 0.040652959175059 
1677	 4.05521789453297E-02 
1678	 3.94362014520435E-02 
1679	 3.90821173320355E-02 
1680	 3.73550011242588E-02 
1681	 3.56313156180837E-02 
1682	 3.69432218229933E-02 
1683	 3.72261683530154E-02 
1684	 3.52850674631927E-02 
1685	 3.56634542427645E-02 
1686	 3.68756303847229E-02 
1687	 3.69120401869783E-02 
1688	 3.89497892023978E-02 
1689	 3.96709767437013E-02 
1690	 3.84058030436329E-02 
1691	 3.86981314702897E-02 
1692	 3.82765755797615E-02 
1693	 0.040097848045509 
1694	 4.38334336828581E-02 
1695	 4.35246989760594E-02 
1696	 4.20851938053614E-02 
1697	 4.10974678815735E-02 
1698	 3.88905278785079E-02 
1699	 3.67169569157521E-02 
1700	 3.90825892971413E-02 
1701	 4.34170028587757E-02 
1702	 4.34374164970153E-02 
1703	 4.40078600222428E-02 
1704	 4.47443333764677E-02 
1705	 0.040267404219463 
1706	 3.66320791443311E-02 
1707	 3.93372433036951E-02 
1708	 3.97478810120548E-02 
1709	 3.84504399059462E-02 
1710	 4.25125973744235E-02 
1711	 4.23710072881216E-02 
1712	 3.87479430893761E-02 
1713	 4.06416861596399E-02 
1714	 4.05904304823222E-02 
1715	 4.06082606904066E-02 
1716	 0.040601019100002 
1717	 4.03025428783676E-02 
1718	 4.00641759646367E-02 
1719	 3.97285505438614E-02 
1720	 4.14317277131487E-02 
1721	 4.18378059631269E-02 
1722	 0.0415235988841 
1723	 4.60669922663087E-02 
1724	 4.76327910487721E-02 
1725	 4.47893962548658E-02 
1726	 4.59146151277376E-02 
1727	 4.49257431120852E-02 
1728	 3.83862760396216E-02 
1729	 3.82048184093854E-02 
1730	 4.32257349544344E-02 
1731	 4.15100028385524E-02 
1732	 4.01410297247064E-02 
1733	 4.23034120058972E-02 
1734	 3.94740576005225E-02 
1735	 4.02394435646308E-02 
1736	 4.62703345221979E-02 
1737	 4.64660117478301E-02 
1738	 4.29344429548503E-02 
1739	 4.22075455378479E-02 
1740	 4.46901920071209E-02 
1741	 4.36924473411501E-02 
1742	 0.043621843043869 
1743	 4.69835706562858E-02 
1744	 0.04710100888075 
1745	 5.10429981272159E-02 
1746	 5.22419438169716E-02 
1747	 5.16003165135766E-02 
1748	 5.03316322414641E-02 
1749	 5.10273293839569E-02 
1750	 5.11265416282984E-02 
1751	 0.05001516093274 
1752	 4.78917846651664E-02 
1753	 4.86395006367735E-02 
1754	 5.44247366468938E-02 
1755	 0.054766951175081 
1756	 5.16176097260131E-02 
1757	 4.20428190324015E-02 
1758	 3.67060182688649E-02 
1759	 0.042804692871928 
1760	 5.41658468386343E-02 
1761	 5.60574295286427E-02 
1762	 5.44655957766144E-02 
1763	 4.84286158934508E-02 
1764	 3.39281752432454E-02 
1765	 3.47073233389935E-02 
1766	 0.043424671366648 
1767	 4.32176635078093E-02 
1768	 5.67383450531506E-02 
1769	 5.98564131139808E-02 
1770	 5.16183698941394E-02 
1771	 0.058762253014154 
1772	 4.71431289842848E-02 
1773	 4.56147792399158E-02 
1774	 6.54039183448414E-02 
1775	 8.03910398725608E-02 
1776	 8.60343250050973E-02 
1777	 7.49713388032515E-02 
1778	 6.85420385461902E-02 
1779	 0.052770413434413 
1780	 4.62670651493549E-02 
1781	 0.050387845855556 
1782	 0.058734271688238 
1783	 0.07821871304066 
1784	 8.34464419112488E-02 
1785	 8.99130638676052E-02 
1786	 9.48673502450865E-02 
1787	 8.05205267884209E-02 
1788	 0.079665341064264 
1789	 9.29498792273802E-02 
1790	 8.50987284320945E-02 
1791	 0.107416275990552 
1792	 0.115618265038573 
1793	 7.16692636597719E-02 
1794	 7.64663730647358E-02 
1795	 5.82802221643072E-02 
1796	 6.06353964137118E-02 
1797	 0.208229702334787 
1798	 0.258401392415348 
1799	 0.300435247079933 
1800	 0.380193479225265 
1801	 0.352484455987361 
1802	 0.218559639821171 
1803	 0.15622304446544 
1804	-0.113168509364306 
1805	-0.184922274782316 
1806	 5.76680779047533E-02 
1807	 0.413007468566529 
1808	 1.11674286838824 
1809	 1.47286971056897 
1810	 2.37327782131638 
1811	 3.05346717822945 
1812	 2.59040463215221 
1813	 1.7087867923813 
1814	 1.03925278750763 
1815	 0.776087498241974 
1816	 0.351319887591059 
1817	 0.562804554019118 
1818	 0.65024103904147 
1819	 0.689700839130449 
1820	 1.33523736059572 
1821	 2.78643748213647 
1822	 4.08495873000733 
1823	 1.391704061569 
1824	 0.947187774977107 
1825	 1.15191064056757 
1826	 0.891853747719059 
1827	 0.682838055856133 
1828	 1.09611718590493 
1829	 1.85385415373412 
1830	 1.68207462923114 
1831	-0.845772108701384 
1832	 7.19337047021653E-02 
1833	 0.839807624983937 
1834	 2.73029678683183 
1835	-21.7498730268507 
1836	-11.7029967999453 
1837	-1.89409893113098 
1838	-1.51586327087809 
1839	-2.83105988591555 
1840	-25.5398673764317 
1841	 0.96850516328207 
1842	 0.883142786901449 
1843	 0.705967380929776 
1844	-0.897892956772536 
1845	-2.0105229522414 
1846	 0.743955472851316 
1847	 0.206145209983778 
1848	 1.36398472673519 
1849	 1.49041512933258 
1850	 5.36567547696522 
1851	 12.011639245571 
1852	 3.39361467421718 
1853	 2.10368633789321 
1854	 1.40075980856135 
1855	 0.437888048080597 
1856	 0.19269562292983 
1857	-0.070244684887437 
1858	-0.207232044404568 
1859	-0.209458613639884 
1860	-0.295897911258031 
1861	-0.137174787068582 
1862	 0.434421724339833 
1863	 0.401854693453325 
1864	 1.78142055946483 
1865	 3.15443891204914 
1866	 22.251037644264 
1867	 10.4904713348355 
1868	 9.81924397964754 
1869	 27.4844111222038 
1870	-16.1109566720218 
1871	 0.72268966783706 
1872	 0.92308173723118 
1873	 0.806338366566843 
1874	 0.393201723481506 
1875	-0.257679934434282 
1876	-0.325862304989513 
1877	-0.138519049684574 
1878	-3.22757029455842E-02 
1879	 0.763632732996937 
1880	 0.998326379063285 
1881	 0.841596562852564 
1882	 0.109347189458176 
1883	-3.54520054659973E-02 
1884	-0.138004471763955 
1885	-4.2521668954008 
1886	-57.9711494751191 
1887	 4.41083143051406 
1888	-9.5541311334482 
1889	-2.70513632761528 
1890	 9.48022475825729E-03 
1891	 0.355911396503201 
1892	 0.393937353050475 
1893	 0.799761548694654 
1894	 1.38341487473729 
1895	 3.96287713151836 
1896	 3.41053249055368 
1897	 0.628632991914514 
1898	 1.22318675685862E-02 
1899	-1.29737756368734 
1900	-6.61395885362457 
1901	 2.28986628803374 
1902	 1.84349254309886 
1903	 0.43528670315108 
1904	-0.583799328781228 
1905	-0.65659363544204 
1906	-1.13243367316262 
1907	-1.37215742419491 
1908	-1.14521948149126 
1909	-0.373568298615738 
1910	 2.07173330032189 
1911	-7.53136424296231 
1912	 2.90270449451646 
1913	 7.50097997758247 
1914	 1.39932165952017 
1915	 1.82221462544254 
1916	 1.94357791815609 
1917	 2.24905247806889 
1918	 1.40953228846956 
1919	 0.701773355716657 
1920	 0.279378663297828 
1921	 1.08658268919235E-02 
1922	-0.181853786670467 
1923	-0.83361306126557 
1924	-0.637359105136885 
1925	 0.162245674505131 
1926	 0.347094507616381 
1927	 0.444789467257391 
1928	 0.34202095229376 
1929	-2.97535678756776 
1930	 1.55231329366579 
1931	 1.48074044640134 
1932	 1.39474532411354 
1933	 1.29041498011555 
1934	 1.58495838110364 
1935	 2.44931234130915 
1936	 1.58338040726756 
1937	-7.14919002501899E-02 
1938	-4.15306660309458E-02 
1939	-7.44349405365499E-02 
1940	-0.050760307821178 
1941	-0.218004353385953 
1942	-2.03481532667505E-02 
1943	 0.110180155756048 
1944	-4.58007689915739E-03 
1945	 0.51222018776449 
1946	 1.58543349911706 
1947	-72.4899097875059 
1948	 1.68830746811673 
1949	 0.897635947093912 
1950	 1.09610780345995 
1951	 0.279236922227812 
1952	 7.64286712479357E-02 
1953	-0.326105301176453 
1954	-1.32514836168521 
1955	 0.380211959807242 
1956	 0.14666868892858 
1957	-0.15492584641856 
1958	 1.04861366321437 
1959	 0.452903520412403 
1960	 0.198738412149759 
1961	 6.63840565046181E-02 
1962	-4.37047540257694E-02 
1963	 1.98131409982398E-02 
1964	-5.61287128467303E-02 
1965	-0.190808273314417 
1966	-0.310856688482262 
1967	-0.434393028290825 
1968	-0.935929110638223 
1969	-0.350716220430527 
1970	-2.92853415741023E-02 
1971	 7.50502616047475E-02 
1972	 0.171635587945636 
1973	 0.17038822240253 
1974	 3.58032524885199E-02 
1975	 9.71461957583747E-02 
1976	 0.283880689806795 
1977	 0.346234727340147 
1978	 0.38544408368259 
1979	 0.424144569229165 
1980	 0.436505914139342 
1981	 0.407851911830603 
1982	 0.347664153562429 
1983	 0.296559415035081 
1984	 0.227897574638905 
1985	 2.28073374891772E-02 
1986	-0.12684274190577 
1987	-0.147766346909384 
1988	-0.113240862364205 
1989	 8.84990400067287E-02 
1990	 0.22628664428909 
1991	 0.230181677625763 
1992	 0.225849339200034 
1993	 0.195976977643246 
1994	 0.197007821566426 
1995	 0.272960271492634 
1996	 0.328624336992426 
1997	 0.266231903279803 
1998	 0.217805480749322 
1999	 0.169828557943419 
2000	 6.47815783983931E-02 
2001	 9.37447483888372E-02 
2002	 5.77291009301158E-02 
2003	 0.130976118699389 
2004	 0.375898797058809 
2005	 0.531569183122469 
2006	 0.746685071477946 
2007	 0.51090970511095 
2008	 0.490641350868731 
2009	 0.491818456473813 
2010	 0.559752963521196 
2011	 0.40149204496563 
2012	 0.575955458446295 
2013	 0.181011427469113 
2014	 0.166479268588117 
2015	 0.198194456884674 
2016	 0.195140404281545 
2017	 0.24769706071598 
2018	 0.191689443442945 
2019	 0.126065302955388 
2020	 0.227991797950064 
2021	 0.232102571727722 
2022	 0.103974346203385 
2023	-0.03869775096339 
2024	-7.60435683379481E-02 
2025	-0.147770481336899 
2026	-0.123717963575667 
2027	-0.033663911065619 
2028	 7.16801085371967E-02 
2029	 0.135628789020263 
2030	 0.125007239198045 
2031	 0.114425322840813 
2032	 9.33930339501274E-02 
2033	 4.28722287590259E-02 
2034	 4.10250209331166E-02 
2035	 2.59600696631348E-02 
2036	-9.84057480098386E-04 
2037	 2.01013785715328E-03 
2038	-6.10028722699078E-03 
2039	 2.28392420599251E-03 
2040	 5.12585115757368E-02 
2041	 8.21391780105246E-02 
2042	 0.114347015346817 
2043	 0.12342527874627 
2044	 0.135432041504612 
2045	 0.105124610484757 
2046	 6.13816424774678E-02 
2047	 4.43805050691812E-02 
2048	 4.41270192960451E-02 
2049	 4.92513219808573E-02 
2050	 8.51926469152458E-02 
2051	 7.04335421608398E-02 
2052	 3.21725592570679E-02 
2053	 7.61630646031324E-02 
2054	 7.24652123416611E-02 
2055	 6.22114361205631E-02 
2056	 7.85384996601927E-02 
2057	 0.115656479278148 
2058	 0.114906648525222 
2059	 0.118146900973146 
2060	 0.125614467991317 
2061	 0.119678399736393 
2062	 9.93964151832194E-02 
2063	 0.111246794863066 
2064	 0.109525482536856 
2065	 6.17358094950159E-02 
2066	 6.71877336153477E-03 
2067	-1.10850627482702E-02 
2068	-6.69356101396031E-03 
2069	 5.17070754525185E-04 
2070	 1.50859196481161E-02 
2071	-5.85866033672999E-03 
2072	-1.45004460304161E-02 
2073	-1.46783038103083E-02 
2074	-2.34603864127682E-02 
2075	-3.80601071443803E-03 
2076	 5.78411066469702E-02 
2077	 5.72672679144033E-02 
2078	 3.39166815581419E-02 
2079	 3.84183102358184E-02 
2080	 2.83387607806838E-02 
2081	 2.17980783651448E-02 
2082	 5.16029312223084E-02 
2083	 0.083029052652331 
2084	 7.50616247274071E-02 
2085	 6.29756045337144E-02 
2086	 5.04127146631333E-02 
2087	 3.40753961338552E-02 
2088	 3.62591000171599E-02 
2089	 3.92743377104544E-02 
2090	 2.50863707113605E-02 
2091	-4.86035588955043E-03 
2092	-9.95005863928961E-03 
2093	-9.17562180589534E-03 
2094	-7.63809643903642E-03 
2095	 1.62818281080129E-02 
2096	 2.98109103711121E-02 
2097	 2.92786591902198E-02 
2098	 3.12877474001829E-02 
2099	 0.034584367739577 
2100	 4.19435867880502E-02 
2101	 0.046394786631112 
2102	 5.41016053932844E-02 
2103	 4.27933784971721E-02 
2104	 3.64784534406841E-02 
2105	 4.84643629348107E-02 
2106	 0.045898561009678 
2107	 4.71667170580578E-02 
2108	 5.08782540927666E-02 
2109	 0.038468288348235 
2110	 2.35435118683566E-02 
2111	 1.12427156993631E-02 
2112	 8.23016368491918E-03 
2113	 2.33776232064283E-03 
2114	-1.58519842774879E-02 
2115	-1.25938524299948E-02 
2116	 6.70578575802149E-03 
2117	 1.52555766954613E-02 
2118	 3.36759299568673E-02 
2119	 0.04242362565802 
2120	 4.73748288410274E-02 
2121	 0.040867225140327 
2122	 3.14270615751662E-02 
2123	 2.80124769669023E-02 
2124	 2.01485925617151E-02 
2125	 1.40764229131925E-02 
2126	 1.97439245463184E-02 
2127	 3.08319539238588E-02 
2128	 4.27439162739034E-02 
2129	 4.55169370841282E-02 
2130	 4.67022315385183E-02 
2131	 5.06121901293872E-02 
2132	 3.32439586850899E-02 
2133	 2.86725414631067E-02 
2134	 2.66597210299022E-02 
2135	 2.27676244590945E-02 
2136	 1.94528022817715E-02 
2137	 2.04390297154621E-02 
2138	 2.38686058832097E-02 
2139	 2.89557278306589E-02 
2140	 3.68354107665417E-02 
2141	 5.37284694902977E-02 
2142	 6.13920603743069E-02 
2143	 0.065572938651952 
2144	 6.85940876036312E-02 
2145	 0.066822775850256 
2146	 7.10746852365423E-02 
2147	 7.85690283243536E-02 
2148	 7.68695352239015E-02 
2149	 8.07488242544206E-02 
2150	 8.18469064165519E-02 
2151	 6.91082796856873E-02 
2152	 6.36266571213299E-02 
2153	 5.16328654302938E-02 
2154	 2.20465746662726E-02 
2155	 1.12223332422596E-02 
2156	 1.04519821523929E-02 
2157	 8.53240135171084E-03 
2158	 1.28583251145806E-02 
2159	 0.016569869063148 
2160	 0.023178395126265 
2161	 2.43182912292384E-02 
2162	 2.66653380880726E-02 
2163	 2.83116925253749E-02 
2164	 2.67411395549842E-02 
2165	 2.14769207130005E-02 
2166	 6.53685495092961E-03 
2167	 3.48650068919309E-03 
2168	 1.60394592711757E-03 
2169	 7.33258951401739E-03 
2170	 2.44769390050153E-02 
2171	 4.52446621442023E-02 
2172	 5.82328237083487E-02 
2173	 6.26109478069912E-02 
2174	 6.33486909105547E-02 
2175	 0.058381721020004 
2176	 5.49045216667772E-02 
2177	 4.79561755569533E-02 
2178	 3.88688098634614E-02 
2179	 3.55487294997401E-02 
2180	 2.40372509158651E-02 
2181	 1.98362932803271E-02 
2182	 1.53369377416428E-02 
2183	 1.24398478394848E-02 
2184	 1.81487213415948E-02 
2185	 1.40936011897553E-02 
2186	 1.16874844222258E-02 
2187	 9.01453303479423E-03 
2188	 6.50856378527454E-03 
2189	 7.95872855011403E-04 
2190	-2.04113189807677E-03 
2191	-3.30371627406921E-03 
2192	-3.67393322039703E-03 
2193	 1.72145581991169E-03 
2194	 2.20814243492185E-03 
2195	-3.80384833615651E-03 
2196	 2.14885932142805E-03 
2197	 1.31194391889973E-02 
2198	 1.40695532338336E-02 
2199	 1.64024406178744E-02 
2200	 2.82868604525229E-02 
2201	 1.18533192475097E-02 
2202	 3.53554850114013E-03 
2203	 9.06862303323335E-03 
2204	 6.50216313418597E-03 
2205	 2.68943805476373E-02 
2206	 5.13571954518288E-02 
2207	 5.66625846614015E-02 
2208	 5.30364493335695E-02 
2209	 2.63824256514527E-02 
2210	-8.49384269160726E-03 
2211	-1.73948955093645E-02 
2212	 3.20106353185892E-03 
2213	 1.92551914519684E-02 
2214	 2.11033917140843E-02 
2215	 0.026129749136765 
2216	 0.017731119663887 
2217	 1.27462072607383E-02 
2218	 0.011887456051284 
2219	 8.72954464573091E-03 
2220	-2.81245217587094E-03 
2221	-5.20076280423397E-04 
2222	 1.03558229942839E-02 
2223	 2.18424622979877E-02 
2224	 4.09656380464372E-02 
2225	 0.046256856160941 
2226	 0.050346116719558 
2227	 4.80191924286773E-02 
2228	 0.034169837442165 
2229	 3.25187306248776E-02 
2230	 2.59832907124132E-02 
2231	 0.02635047948786 
2232	 3.81519682239329E-02 
2233	 4.94230616553236E-02 
2234	 6.83817692150975E-02 
2235	 7.47672203186957E-02 
2236	 6.88714555681555E-02 
2237	 7.90425628443737E-02 
2238	 8.36152341750315E-02 
2239	 6.19685327895979E-02 
2240	 5.84928205221512E-02 
2241	 6.24869286094675E-02 
2242	 6.46365853660615E-02 
2243	 0.115087804448682 
2244	 0.164523820759275 
2245	 0.156808987732625 
2246	 0.132464681396026 
2247	 9.03779351358717E-02 
2248	 5.98736063153713E-02 
2249	 6.23688698018045E-02 
2250	 6.76062526960625E-02 
2251	 7.62014719054928E-02 
2252	 6.79505058501971E-02 
2253	 5.63713656754876E-02 
2254	 0.037660138594319 
2255	 0.014951198688607 
2256	 1.59226149658068E-02 
2257	 1.85993212743041E-02 
2258	 7.0203814642283E-03 
2259	-7.58505461990546E-03 
2260	-6.3639138777614E-03 
2261	-1.07891925214453E-02 
2262	 1.18789386849597E-03 
2263	 5.75435775484951E-02 
2264	 6.38657399857517E-02 
2265	 4.62983180623935E-02 
2266	 2.90651036222534E-02 
2267	-2.59879063863933E-02 
2268	-3.99712277451875E-02 
2269	-2.85861913324352E-02 
2270	-3.67788200840014E-02 
2271	-4.49091227956855E-02 
2272	-3.42703598422003E-02 
2273	-1.60058812994113E-02 
2274	 7.46950376317516E-04 
2275	 5.53602432799088E-02 
2276	 6.27458024355112E-02 
2277	 2.15641199304286E-03 
2278	-2.82172964629081E-03 
2279	 2.31459503462445E-02 
2280	 3.12230057380151E-02 
2281	 5.41326332123932E-02 
2282	 6.64261877662391E-02 
2283	 7.55489884830868E-02 
2284	 5.46319592262709E-02 
2285	 4.83888290930474E-02 
2286	 7.52948792110457E-02 
2287	 6.39507765153001E-02 
2288	 0.056152730908636 
2289	 5.79865436607394E-02 
2290	 2.09661491034999E-02 
2291	-5.75348669726381E-03 
2292	-1.85591387594215E-02 
2293	-4.58699554692855E-02 
2294	-4.77748351319799E-02 
2295	-4.10311039898313E-02 
2296	-2.63846711138993E-02 
2297	-4.64384086012603E-03 
2298	-1.31838917087509E-02 
2299	-2.31445321610821E-02 
2300	-5.25684483474103E-02 
2301	-0.09268680844847 
2302	-4.66007586127719E-02 
2303	 4.41825850391226E-02 
2304	 7.81954767910044E-02 
2305	 0.159130585346504 
2306	 0.176896936273862 
2307	 7.99797183470485E-02 
2308	 4.11156911786682E-02 
2309	-0.019467246545955 
2310	-0.105010912684736 
2311	-0.07678761295905 
2312	-3.97423077760477E-02 
2313	-4.17141249225992E-02 
2314	-0.015150697272213 
2315	 2.70233494139376E-02 
2316	 5.90816189335885E-02 
2317	 3.77610373968179E-02 
2318	 2.13288589839792E-02 
2319	-9.22046242811542E-03 
2320	-0.133869232956879 
2321	-0.201839407816052 
2322	-0.224150173924131 
2323	-0.274807581096117 
2324	-0.292291512034951 
2325	-0.318000417696724 
2326	-0.2987269337246 
2327	-0.34790920130916 
2328	-0.384387944863861 
2329	-0.187082994917219 
2330	-5.34536896234925E-03 
2331	 5.51622820010378E-02 
2332	 0.1816925967179 
2333	 0.164823946386424 
2334	 4.76629369148556E-02 
2335	 8.70369250404231E-02 
2336	 0.154984912709003 
2337	 7.19652402006404E-02 
2338	-6.22862473761466E-02 
2339	-0.12270453271676 
2340	-0.119425752734033 
2341	 0.01737605953555 
2342	 0.250114785328375 
2343	 0.335787342592234 
2344	 0.161159282912999 
2345	-0.132385959003332 
2346	-0.115520438137698 
2347	-0.200346748755984 
2348	-0.137097394166211 
2349	 5.66790300702287E-02 
2350	-6.79416336123386E-02 
2351	-9.66114735256304E-02 
2352	-1.2706098886738E-03 
2353	 4.15054928698543E-02 
2354	 0.148860018842786 
2355	 0.247174357357901 
2356	 0.255515841435734 
2357	 0.27096039119422 
2358	 0.22034660600111 
2359	 4.71397933489451E-02 
2360	-0.114475533687815 
2361	-0.114849375491508 
2362	 5.43604881179901E-02 
2363	 0.150682501945777 
2364	 0.22396803700098 
2365	 0.129218786028597 
2366	-9.07641563777616E-03 
2367	-4.34386031577703E-02 
2368	 2.49116847569195E-03 
2369	 0.045142854112681 
2370	-9.12749630278007E-03 
2371	-6.87671974680102E-02 
2372	-0.146048042185725 
2373	-0.23199547178757 
2374	 3.22416610611413E-03 
2375	 0.392544562979839 
2376	 0.372556772543253 
2377	 5.97505135294028E-03 
2378	-0.339726826845157 
2379	-0.403768802902889 
2380	-0.15622591460789 
2381	 0.147547117075552 
2382	 0.369610312090993 
2383	 0.869307322183135 
2384	 1.40873894875136 
2385	 5.52566376201224 
2386	-1.59664888795771 
2387	-0.994788136884754 
2388	-1.44982103280188 
2389	 6.3785354583346 
2390	 4.60302327327119 
2391	 1.34587178194218 
2392	 3.32478253150214 
2393	-320.153439903338 
2394	 5.84529086969929 
2395	 373.760396881413 
2396	 19.9949580162041 
2397	 1.96073212144328 
2398	 24.6424909063845 
2399	-2.63852555648874 
2400	 16.2684257911496 
2401	-6.28975722292334 
2402	-2.03412049471997 
2403	-3.84759042125227 
2404	-6.92497961701558 
2405	-2.33505567775183 
2406	-2.40332419283531 
2407	-1.08456809606751 
2408	-3.01042705038324 
2409	-0.172086054926294 
2410	 0.615304557852276 
2411	 1.27277196286052 
2412	 1.20000342515704 
2413	 0.453071026015896 
2414	-0.290817630869075 
2415	-0.152490975433715 
2416	 1.52787232303386 
2417	 1.32965537417205 
2418	 0.821699455361576 
2419	 0.612507935194681 
2420	 0.575305005838691 
2421	 0.153543336164007 
2422	 0.124758896383156 
2423	 3.8098141690714 
2424	-1.96141515534606 
2425	-1.57621718076173 
2426	 9.91687233865299 
2427	 2.64794662727893 
2428	 4.43304121229041 
2429	 2.1037009420934 
2430	-1.42349969318627 
2431	-0.865132443044539 
2432	-0.716415108451976 
2433	-1.44089326579997 
2434	-0.442476138466386 
2435	 0.329723073863344 
2436	 0.32060353539372 
2437	 0.711518000133839 
2438	 2.33554955503655 
2439	 0.581063669018148 
2440	 0.359586228997503 
2441	 0.46051483839127 
2442	 2.92538279786286 
2443	 1.17294211698895 
2444	 1.72657258002651 
2445	 6.57654298724519 
2446	-3.40970113370161 
2447	-5.01092574132015 
2448	 1.60670246327564 
2449	 0.1065110328143 
2450	 0.10759784829101 
2451	-0.247525887568737 
2452	-0.80728968403338 
2453	 0.347291409146156 
2454	 0.122533955282641 
2455	 9.36353645757251E-02 
2456	 6.59650270768188E-02 
2457	 3.82600359957969E-02 
2458	 0.144244534365499 
2459	 0.163590906357937 
2460	 0.219410900051323 
2461	 0.303690885265495 
2462	 0.394427730122591 
2463	 1.12500785098521 
2464	 2.08764323131081 
2465	 1.65406769305311 
2466	 1.63692643717994 
2467	 1.15922705268604 
2468	 1.85594259157971 
2469	-33.2283454038734 
2470	-0.748202584230154 
2471	-0.317428576484869 
2472	-0.260872180722114 
2473	-2.77073445399511E-02 
2474	 0.132783205564497 
2475	-0.382544648847841 
2476	-1.87658794720353 
2477	-2.55891902750737 
2478	-1.3627227141152 
2479	-0.950158651409542 
2480	-1.11345625412381 
2481	-0.987924756399792 
2482	-1.64428490087274 
2483	-1.54927776048506 
2484	-1.1835773089938 
2485	-9.24193811496044 
2486	 3.81175867388204 
2487	 14.9318428354335 
2488	 5.12122770233198 
2489	 8.59215859711239 
2490	 3.44981362648377 
2491	 4.05548441722708 
2492	-0.858922489465983 
2493	-0.420955496978184 
2494	-0.975253372481098 
2495	 2.53907249907306 
2496	 1.24561300106727 
2497	 0.751115320278672 
2498	 0.785313058479324 
2499	 0.388801411351464 
2500	 0.382415098626728 
