Wavelength	rt0712EAST_FAR00002.asd
350	 0.058979683500387 
351	 5.91616469544264E-02 
352	 5.91246572910675E-02 
353	 5.99580792821914E-02 
354	 6.15399536565883E-02 
355	 6.04750032772106E-02 
356	 6.02620213489422E-02 
357	 6.04305809941862E-02 
358	 5.98020607848941E-02 
359	 5.98604083470115E-02 
360	 6.00893459560028E-02 
361	 6.01020386283659E-02 
362	 5.97764570585917E-02 
363	 0.060233160066558 
364	 6.05241932739459E-02 
365	 6.02255839548549E-02 
366	 0.060086406177711 
367	 5.99816643911117E-02 
368	 5.99930736800571E-02 
369	 0.060141027071621 
370	 6.00940957395009E-02 
371	 6.02791290114628E-02 
372	 6.03180296457761E-02 
373	 5.96041607236789E-02 
374	 5.98900677668049E-02 
375	 6.05223229299998E-02 
376	 6.08134680334934E-02 
377	 6.04394532494644E-02 
378	 6.07850691814978E-02 
379	 6.05822205738117E-02 
380	 5.93411949559563E-02 
381	 6.11026934989461E-02 
382	 6.20316648573133E-02 
383	 6.17435148810262E-02 
384	 6.14760919954327E-02 
385	 6.03615547185188E-02 
386	 6.04350530041749E-02 
387	 6.17277804142949E-02 
388	 6.19026482471777E-02 
389	 0.062177353197154 
390	 6.20353848443105E-02 
391	 0.06133781105089 
392	 6.15704447730151E-02 
393	 6.20298465798587E-02 
394	 6.21890984024579E-02 
395	 6.18461632856241E-02 
396	 6.19993355106792E-02 
397	 6.20645985188507E-02 
398	 6.21101838033544E-02 
399	 0.062759079123402 
400	 6.25148710422629E-02 
401	 6.20866390293794E-02 
402	 6.20832754296058E-02 
403	 6.21102685452132E-02 
404	 6.23194107878904E-02 
405	 6.24737047907043E-02 
406	 6.23026976685523E-02 
407	 6.21322645985699E-02 
408	 6.23150822967181E-02 
409	 6.26710881567743E-02 
410	 6.25512533352157E-02 
411	 6.24913970838529E-02 
412	 6.24394515945173E-02 
413	 6.23503617995966E-02 
414	 6.24694134233044E-02 
415	 6.25562891178492E-02 
416	 6.26457434068363E-02 
417	 6.28141552995625E-02 
418	 6.26692826332755E-02 
419	 6.24502584946365E-02 
420	 6.23747088953235E-02 
421	 6.25682185411617E-02 
422	 6.26300872436291E-02 
423	 6.27364220625163E-02 
424	 6.29840126090362E-02 
425	 6.28795357321816E-02 
426	 6.28440071951405E-02 
427	 6.28793708814177E-02 
428	 6.28387835709253E-02 
429	 6.31128536770253E-02 
430	 6.32594571716839E-02 
431	 6.31652368483962E-02 
432	 6.31892211285319E-02 
433	 6.32167772095973E-02 
434	 6.33445136490391E-02 
435	 6.36178762089286E-02 
436	 6.38586925775055E-02 
437	 6.38196055896025E-02 
438	 6.36827179295376E-02 
439	 6.38388231914899E-02 
440	 6.42071443964942E-02 
441	 6.43857234538887E-02 
442	 6.43267246774554E-02 
443	 6.45512933627666E-02 
444	 6.46904023021388E-02 
445	 6.48018332474119E-02 
446	 6.49984471907888E-02 
447	 6.51325634825774E-02 
448	 6.54157319006415E-02 
449	 6.56954364667141E-02 
450	 6.56107021678039E-02 
451	 6.57973169142697E-02 
452	 6.60233836210906E-02 
453	 6.60661536545512E-02 
454	 6.59650401451689E-02 
455	 6.60282918417182E-02 
456	 0.066188929313466 
457	 6.62594557156416E-02 
458	 6.62734696017274E-02 
459	 6.63419992504589E-02 
460	 6.63693184698478E-02 
461	 0.066086424987323 
462	 6.63277629383564E-02 
463	 6.66408849292589E-02 
464	 6.66276308670928E-02 
465	 6.67744657415996E-02 
466	 6.70391216848693E-02 
467	 0.06725733652756 
468	 6.72489565848778E-02 
469	 6.73096122446005E-02 
470	 0.067314256051953 
471	 6.73444615098466E-02 
472	 6.78073822329343E-02 
473	 6.77999152129368E-02 
474	 6.78524649752902E-02 
475	 0.068438362520909 
476	 6.83734634856733E-02 
477	 0.068590514536168 
478	 6.90540667055951E-02 
479	 6.91154697453158E-02 
480	 6.93347939844634E-02 
481	 6.96872364217967E-02 
482	 7.00243768995472E-02 
483	 7.01023933144158E-02 
484	 7.00602237066811E-02 
485	 7.02782830848713E-02 
486	 7.09600784716681E-02 
487	 7.09189465690156E-02 
488	 7.09304928736202E-02 
489	 7.13087423426152E-02 
490	 7.18001194244885E-02 
491	 7.20744587029109E-02 
492	 7.23188595064817E-02 
493	 7.26751605456127E-02 
494	 0.072807919581159 
495	 7.33102482630433E-02 
496	 7.39018759790717E-02 
497	 7.39836781440008E-02 
498	 7.44143596723907E-02 
499	 0.074780066127259 
500	 7.49488464967029E-02 
501	 7.54327120112014E-02 
502	 7.58134201727762E-02 
503	 7.61845712901498E-02 
504	 7.66697303753114E-02 
505	 7.68557262093577E-02 
506	 7.72825651231752E-02 
507	 7.79232344594963E-02 
508	 7.83208683643788E-02 
509	 7.88967015179657E-02 
510	 7.93842053511045E-02 
511	 7.96486046754277E-02 
512	 8.01144712319187E-02 
513	 8.04753112029242E-02 
514	 8.08426243926543E-02 
515	 8.14287106970281E-02 
516	 8.18235454932234E-02 
517	 8.23669310446943E-02 
518	 8.30147047253262E-02 
519	 8.31901631777801E-02 
520	 0.083781494513415 
521	 0.0844948496829 
522	 8.49232784466683E-02 
523	 8.52132375668025E-02 
524	 8.57631628126964E-02 
525	 8.65048469285096E-02 
526	 8.70528399248121E-02 
527	 8.75573416119501E-02 
528	 0.08805857417912 
529	 8.85668871208693E-02 
530	 8.90627603247101E-02 
531	 8.95376909848194E-02 
532	 9.00840772645747E-02 
533	 9.07867152511395E-02 
534	 9.14750606191801E-02 
535	 9.20946950203458E-02 
536	 9.26678923848993E-02 
537	 9.32871092010003E-02 
538	 9.39146070972349E-02 
539	 9.45544405114933E-02 
540	 0.095197980650334 
541	 9.57699268403059E-02 
542	 9.63483466722261E-02 
543	 9.69672783544681E-02 
544	 9.76275279567772E-02 
545	 9.82790100631113E-02 
546	 9.89002828588659E-02 
547	 9.95155573463257E-02 
548	 0.100246998919291 
549	 0.100748335734557 
550	 0.101274350438549 
551	 0.102150763631639 
552	 0.102803876134139 
553	 0.103334156177749 
554	 0.103871242895589 
555	 0.104522915476379 
556	 0.1050952142112 
557	 0.105671299596503 
558	 0.106307702771827 
559	 0.106763736020968 
560	 0.107251632955625 
561	 0.107695309616662 
562	 0.107893529267743 
563	 0.108337448573811 
564	 0.108756348925979 
565	 0.108941599260965 
566	 0.10898205498933 
567	 0.10914580007504 
568	 0.109414672867471 
569	 0.109647277059064 
570	 0.109795338861216 
571	 0.109849923730884 
572	 0.109845438264125 
573	 0.109855277419173 
574	 0.110003670927836 
575	 0.11001405118668 
576	 0.109705033964827 
577	 0.109477781104789 
578	 0.10939934967802 
579	 0.109305528796174 
580	 0.108935864445734 
581	 0.108643638521618 
582	 0.108408972090659 
583	 0.108133423043026 
584	 0.107668287538451 
585	 0.106964422539383 
586	 0.106185097846526 
587	 0.10551752953745 
588	 0.104659722302212 
589	 0.103998928541352 
590	 0.103585030261613 
591	 0.102987530930645 
592	 0.102600780112618 
593	 0.102171226554596 
594	 0.10145175807503 
595	 0.100519757808833 
596	 9.97312959756007E-02 
597	 9.90694907964384E-02 
598	 0.098306882625043 
599	 9.73350502309451E-02 
600	 9.63645488405353E-02 
601	 9.56261596495352E-02 
602	 0.095347710737795 
603	 9.49248137250174E-02 
604	 9.45119737532833E-02 
605	 9.43868680475343E-02 
606	 9.40864061081417E-02 
607	 0.093776937994914 
608	 9.35309678552161E-02 
609	 9.33008956384204E-02 
610	 9.32661674023849E-02 
611	 9.31300111927932E-02 
612	 9.26986932277191E-02 
613	 9.23392970195654E-02 
614	 9.22273843688574E-02 
615	 9.21934082604394E-02 
616	 0.091901263493954 
617	 9.15858273109407E-02 
618	 9.12221683667603E-02 
619	 0.090907876598467 
620	 9.10198946645583E-02 
621	 9.07492913307226E-02 
622	 9.03958463255243E-02 
623	 9.04598848111355E-02 
624	 9.05121269956459E-02 
625	 9.02807435013651E-02 
626	 8.98522009968684E-02 
627	 8.96490501943144E-02 
628	 8.93447068439385E-02 
629	 8.91208459718623E-02 
630	 8.90607357524007E-02 
631	 8.87765912217725E-02 
632	 8.84643017658161E-02 
633	 8.83544694920832E-02 
634	 8.85700169747355E-02 
635	 8.83032151373611E-02 
636	 0.088081621380947 
637	 8.81662409745559E-02 
638	 8.82701275554618E-02 
639	 8.80052887703766E-02 
640	 8.77093902344909E-02 
641	 8.77518939988085E-02 
642	 8.76354252807227E-02 
643	 0.087524859323429 
644	 8.73563164126825E-02 
645	 8.68772920102075E-02 
646	 8.62977986663959E-02 
647	 8.61031648455435E-02 
648	 8.63085911698948E-02 
649	 8.57213428326365E-02 
650	 8.53102125844352E-02 
651	 8.50328584227457E-02 
652	 8.45414737917883E-02 
653	 0.08390017009049 
654	 8.32443102230399E-02 
655	 8.25369211169484E-02 
656	 8.15964285261689E-02 
657	 8.08840625541889E-02 
658	 8.01568672048901E-02 
659	 7.92119854798516E-02 
660	 7.84444979205069E-02 
661	 7.77695149172378E-02 
662	 0.077038955376938 
663	 7.61346015728819E-02 
664	 7.55260738704904E-02 
665	 7.50617550354877E-02 
666	 7.46746682326631E-02 
667	 0.074627029739768 
668	 0.074565766757442 
669	 7.44694237467108E-02 
670	 7.44442109252782E-02 
671	 7.46341872488662E-02 
672	 7.47033085157213E-02 
673	 7.47131505682908E-02 
674	 7.50926105251748E-02 
675	 7.55772406193931E-02 
676	 7.60157867003624E-02 
677	 7.63750896463424E-02 
678	 7.68724214622662E-02 
679	 7.72478964716243E-02 
680	 7.74976034924209E-02 
681	 7.77902910171231E-02 
682	 7.85881735269258E-02 
683	 7.92228990366973E-02 
684	 7.95637147700228E-02 
685	 8.03999052960321E-02 
686	 8.13205985056619E-02 
687	 8.18141166410848E-02 
688	 8.16957125041898E-02 
689	 8.18208817970679E-02 
690	 8.19158594328516E-02 
691	 8.19915056495547E-02 
692	 8.21715814113157E-02 
693	 8.17773834178506E-02 
694	 8.15700047055372E-02 
695	 8.17471013844275E-02 
696	 8.13486551555184E-02 
697	 8.07103192296558E-02 
698	 8.00707339062793E-02 
699	 7.96635080269888E-02 
700	 7.90911759919104E-02 
701	 7.86148372675527E-02 
702	 7.80733359519447E-02 
703	 7.70236211699247E-02 
704	 7.64993854167337E-02 
705	 7.56953904480116E-02 
706	 7.43373269894589E-02 
707	 7.38525317917848E-02 
708	 7.27296571873321E-02 
709	 7.13715642133517E-02 
710	 7.06217830543989E-02 
711	 6.95862221804493E-02 
712	 0.068221391554067 
713	 6.66721274597793E-02 
714	 0.065207702194418 
715	 6.40343531558674E-02 
716	 6.28525102785213E-02 
717	 6.14930001487058E-02 
718	 6.04668721947054E-02 
719	 5.90506155416804E-02 
720	 5.78452853485133E-02 
721	 5.71259551255666E-02 
722	 5.60257847308106E-02 
723	 5.50610829133214E-02 
724	 5.44537495008375E-02 
725	 5.31801002790025E-02 
726	 5.20722160502267E-02 
727	 5.13072815924489E-02 
728	 5.07407573038431E-02 
729	 4.97137098625163E-02 
730	 0.049096665432673 
731	 4.86008749320353E-02 
732	 4.76561385313241E-02 
733	 4.72735630377416E-02 
734	 4.69290432775263E-02 
735	 4.64884970438402E-02 
736	 4.63769237047202E-02 
737	 4.61780781310053E-02 
738	 4.58615100618847E-02 
739	 4.56037455791975E-02 
740	 4.59321156714049E-02 
741	 4.60149606465996E-02 
742	 0.045861567490343 
743	 4.58798131667842E-02 
744	 4.59496366866681E-02 
745	 4.59788509441888E-02 
746	 4.59271820324999E-02 
747	 4.58228385742476E-02 
748	 4.58860678881765E-02 
749	 4.58513647413951E-02 
750	 4.55484994505343E-02 
751	 4.55371938682452E-02 
752	 4.55094698229102E-02 
753	 0.045402780787784 
754	 4.53115744420134E-02 
755	 4.54306745026613E-02 
756	 4.53790313560087E-02 
757	 4.50682855954564E-02 
758	 4.48710651293923E-02 
759	 4.46156458867729E-02 
760	 4.42792953365709E-02 
761	 4.41858924338913E-02 
762	 4.44730628554941E-02 
763	 4.47050991305487E-02 
764	 4.47066410526027E-02 
765	 4.45980113362073E-02 
766	 4.49388871748581E-02 
767	 4.51824365725209E-02 
768	 4.52009892976445E-02 
769	 4.51894973056877E-02 
770	 4.52769328615707E-02 
771	 4.52239102130115E-02 
772	 4.49723240550381E-02 
773	 4.51755528157349E-02 
774	 4.52073432352854E-02 
775	 4.51531119008081E-02 
776	 4.53292548446119E-02 
777	 4.54446022295884E-02 
778	 4.53771040054621E-02 
779	 4.52423042210606E-02 
780	 4.53662835739888E-02 
781	 4.56770657593131E-02 
782	 4.57782011472362E-02 
783	 4.55381466558697E-02 
784	 0.045556033809696 
785	 4.55932188265117E-02 
786	 4.56841110410319E-02 
787	 4.58515188867935E-02 
788	 4.55513243066991E-02 
789	 4.55219800122841E-02 
790	 4.58553251206774E-02 
791	 4.60479708129687E-02 
792	 4.61004491373042E-02 
793	 0.046078754717142 
794	 4.60049094454834E-02 
795	 0.045790368455095 
796	 0.046033793620563 
797	 4.63022452266298E-02 
798	 4.61641351475606E-02 
799	 4.62233309839579E-02 
800	 4.64389903731991E-02 
801	 4.66518601882075E-02 
802	 0.046641264374555 
803	 4.63158785417099E-02 
804	 4.63145738180418E-02 
805	 4.67281638064837E-02 
806	 0.047044338666602 
807	 4.69128724953762E-02 
808	 4.67700155811363E-02 
809	 4.68710637764491E-02 
810	 4.64330740918919E-02 
811	 4.58095220740632E-02 
812	 0.045438931022399 
813	 4.56947020959842E-02 
814	 4.56376281220148E-02 
815	 4.52265942292861E-02 
816	 4.49841462417353E-02 
817	 0.045487025621061 
818	 4.48293402843929E-02 
819	 4.46663412023158E-02 
820	 0.045129809579476 
821	 4.43569082359525E-02 
822	 4.43017579735135E-02 
823	 4.46745891463065E-02 
824	 4.46539332275074E-02 
825	 0.043743997979915 
826	 4.31287353625954E-02 
827	 0.042857122200956 
828	 4.26265534884085E-02 
829	 0.042779065519562 
830	 0.042529795308598 
831	 4.20332734411181E-02 
832	 4.20643607142081E-02 
833	 4.22314326364476E-02 
834	 4.22495486290174E-02 
835	 4.21062811710126E-02 
836	 4.20817053981049E-02 
837	 4.18656906473003E-02 
838	 4.17615276656783E-02 
839	 4.19271510147391E-02 
840	 0.041842042664086 
841	 4.20272779174013E-02 
842	 4.21088669196002E-02 
843	 4.17115514283808E-02 
844	 4.19434917775781E-02 
845	 4.20116881479222E-02 
846	 0.041777712887954 
847	 4.16212514203186E-02 
848	 4.19760135101631E-02 
849	 4.20543527168822E-02 
850	 4.16064640282305E-02 
851	 4.12673453602326E-02 
852	 4.14772804508291E-02 
853	 4.19252244770927E-02 
854	 4.22443018875066E-02 
855	 4.24274780525147E-02 
856	 4.19191621664472E-02 
857	 4.13537259308894E-02 
858	 4.13456578858632E-02 
859	 4.13002155975315E-02 
860	 4.08983086124149E-02 
861	 0.040796609053689 
862	 4.17567055898759E-02 
863	 4.20677142427586E-02 
864	 4.20064455568583E-02 
865	 4.18642336457655E-02 
866	 4.18058137912786E-02 
867	 4.16902050579192E-02 
868	 4.14712160250895E-02 
869	 4.11531648053317E-02 
870	 4.07957319742072E-02 
871	 4.08911178980485E-02 
872	 4.10894518073628E-02 
873	 4.10759129622167E-02 
874	 4.10837211397323E-02 
875	 4.06050248526443E-02 
876	 4.04466845412161E-02 
877	 4.12705920333727E-02 
878	 4.18408270872542E-02 
879	 4.12838646176113E-02 
880	 4.02460850536386E-02 
881	 4.00207721520753E-02 
882	 4.06896259785893E-02 
883	 4.08250267884009E-02 
884	 4.05871456882801E-02 
885	 0.041163369028866 
886	 4.08878567556042E-02 
887	 4.03510678855835E-02 
888	 4.00524128823218E-02 
889	 4.00669148078757E-02 
890	 4.04195515893949E-02 
891	 4.08528694680909E-02 
892	 4.09691983723636E-02 
893	 4.02072142436893E-02 
894	 4.01550800844841E-02 
895	 4.00276059272643E-02 
896	 3.85834382357897E-02 
897	 3.62476879466271E-02 
898	 3.65691557354451E-02 
899	 3.93721481138556E-02 
900	 4.17438798519876E-02 
901	 3.90327026715947E-02 
902	 3.75756680901569E-02 
903	 3.84908082710224E-02 
904	 4.02349648743255E-02 
905	 3.91756448538495E-02 
906	 3.75071573274856E-02 
907	 3.68349904235887E-02 
908	 3.78157972689817E-02 
909	 3.77714143864819E-02 
910	 3.78958780954457E-02 
911	 3.84542722817521E-02 
912	 3.85726978865755E-02 
913	 3.88530163680617E-02 
914	 3.90977371910245E-02 
915	 3.90982174088681E-02 
916	 0.038821812902693 
917	 3.85467430677102E-02 
918	 0.038097619172591 
919	 3.82937565375137E-02 
920	 0.041002008111098 
921	 3.99383950073097E-02 
922	 3.74933888592055E-02 
923	 3.62138558717218E-02 
924	 3.53641146285308E-02 
925	 3.69109351214557E-02 
926	 0.039408399786611 
927	 3.95730252824525E-02 
928	 3.21034775709841E-02 
929	 3.23287622541997E-02 
930	 3.38241597570352E-02 
931	 1.69754498427633E-02 
932	 0.022666210111705 
933	 0.038171372069692 
934	 2.77128066463324E-02 
935	-1.31013176914491E-02 
936	 3.62726006664299E-02 
937	 0.052402781200064 
938	 3.25897018362942E-02 
939	 1.18833616952065E-02 
940	 0.019059577662219 
941	 3.55094001754257E-02 
942	 3.92189997308116E-02 
943	 0.014814356654162 
944	 1.62956280795285E-02 
945	 1.40061046072503E-02 
946	 6.60251887105819E-03 
947	 1.05960292212978E-02 
948	 1.45313935331857E-02 
949	 1.32028194750524E-02 
950	 1.53291839694923E-02 
951	 2.99840737788705E-02 
952	 2.42972715389002E-02 
953	 9.50628885715382E-03 
954	 7.42225140066216E-03 
955	 3.16907627136451E-02 
956	 2.33063658278633E-02 
957	 2.18350733020606E-02 
958	 3.13319910062242E-02 
959	 3.24059117463486E-02 
960	 3.50365681362485E-02 
961	 3.54859999941119E-02 
962	 3.50828636359765E-02 
963	 3.77071683700759E-02 
964	 4.18665604494489E-02 
965	 4.16693621032181E-02 
966	 3.74763444234302E-02 
967	 3.35346750865532E-02 
968	 0.031655402033273 
969	 3.48019090641433E-02 
970	 3.99688664626797E-02 
971	 4.00141027772399E-02 
972	 3.24060580667789E-02 
973	 2.99461225811633E-02 
974	 0.035914170534032 
975	 4.06291964132183E-02 
976	 3.01489285517961E-02 
977	 2.80906294209611E-02 
978	 3.62352531141248E-02 
979	 3.67945362468678E-02 
980	 4.13898878237984E-02 
981	 3.79608777334617E-02 
982	 3.16223854025313E-02 
983	 3.74516770602764E-02 
984	 3.78654312430863E-02 
985	 3.55803242189179E-02 
986	 3.27890676913824E-02 
987	 3.04900795944257E-02 
988	 3.46531934682124E-02 
989	 3.24791256342245E-02 
990	 2.79116532049105E-02 
991	 3.44876640740006E-02 
992	 3.61562472597056E-02 
993	 3.73533480082052E-02 
994	 3.68158719420778E-02 
995	 3.17000660211443E-02 
996	 4.00371609883975E-02 
997	 3.67615034717249E-02 
998	 2.72677657060023E-02 
999	 0.032298674406446 
1000	 3.50768102275367E-02 
1001	 3.98360672983639E-02 
1002	 4.24520271763177E-02 
1003	 4.33206346238768E-02 
1004	 0.044719878775036 
1005	 4.45342340027828E-02 
1006	 4.25290191598174E-02 
1007	 4.04390696067501E-02 
1008	 3.91246147655142E-02 
1009	 3.88814262075024E-02 
1010	 4.02005731335637E-02 
1011	 4.07177373385681E-02 
1012	 0.040450329939751 
1013	 4.02831684215988E-02 
1014	 4.02903832285972E-02 
1015	 3.97253730208573E-02 
1016	 3.97253805636777E-02 
1017	 4.09526930611613E-02 
1018	 0.041339876919748 
1019	 0.040693637459011 
1020	 0.040825565758555 
1021	 4.19268378961214E-02 
1022	 0.041155389503531 
1023	 4.07404124395287E-02 
1024	 4.28230759088527E-02 
1025	 4.41173503381422E-02 
1026	 4.37133056997492E-02 
1027	 4.33517525012388E-02 
1028	 4.23616069465553E-02 
1029	 4.15472547521179E-02 
1030	 4.01085734549414E-02 
1031	 3.96769992283524E-02 
1032	 3.95852205375619E-02 
1033	 3.95101514554879E-02 
1034	 4.03360199681777E-02 
1035	 4.01751957941407E-02 
1036	 0.039557701945998 
1037	 3.89646528813827E-02 
1038	 3.70601805984154E-02 
1039	 3.66769668513106E-02 
1040	 3.71272944897859E-02 
1041	 3.84297295868524E-02 
1042	 0.039518579175414 
1043	 0.042192752092058 
1044	 4.24673233944219E-02 
1045	 4.14526066080847E-02 
1046	 4.09809129857587E-02 
1047	 0.039287430788503 
1048	 3.91652347471824E-02 
1049	 4.01104244637859E-02 
1050	 4.04416592829329E-02 
1051	 4.12978024184817E-02 
1052	 4.17012154705754E-02 
1053	 4.18541170707174E-02 
1054	 4.16668575948222E-02 
1055	 4.09015382630597E-02 
1056	 4.05659510773649E-02 
1057	 4.02620921964581E-02 
1058	 3.96701280753572E-02 
1059	 3.93933140856135E-02 
1060	 3.97582235182183E-02 
1061	 3.94244859099186E-02 
1062	 3.81803559856908E-02 
1063	 0.038252452359321 
1064	 3.89066452802597E-02 
1065	 3.93091132636315E-02 
1066	 4.10368907442198E-02 
1067	 4.12514215534007E-02 
1068	 0.040064990819598 
1069	 3.95675627883232E-02 
1070	 3.77895485780758E-02 
1071	 3.77238420034256E-02 
1072	 3.95352099233533E-02 
1073	 4.09764386147606E-02 
1074	 4.09853960249165E-02 
1075	 4.10254444816002E-02 
1076	 4.06680716887009E-02 
1077	 3.78284147713745E-02 
1078	 0.038038176476953 
1079	 4.10178723041887E-02 
1080	 4.12538365718936E-02 
1081	 4.10812947836108E-02 
1082	 4.09031381668313E-02 
1083	 3.85898526005408E-02 
1084	 3.82750332821088E-02 
1085	 3.99578912450644E-02 
1086	 4.04463291599074E-02 
1087	 4.10296304719356E-02 
1088	 4.12079405886661E-02 
1089	 3.98110905043254E-02 
1090	 4.04298123702181E-02 
1091	 0.040091309907365 
1092	 3.92113502604166E-02 
1093	 3.95762385736952E-02 
1094	 4.09007863967502E-02 
1095	 4.08501337576109E-02 
1096	 4.12560426767235E-02 
1097	 4.10740122455849E-02 
1098	 3.85166971877203E-02 
1099	 3.79795740977269E-02 
1100	 3.93177619122548E-02 
1101	 3.98583033317576E-02 
1102	 4.13056985708966E-02 
1103	 4.11961261128778E-02 
1104	 3.93836774369202E-02 
1105	 3.74894514807937E-02 
1106	 3.72271096179378E-02 
1107	 4.00359083391934E-02 
1108	 4.04760023390668E-02 
1109	 0.039569346719802 
1110	 0.04046454439476 
1111	 3.83657062728228E-02 
1112	 0.038616574216644 
1113	 4.55554599812309E-02 
1114	 4.74472971179751E-02 
1115	 4.36932778249147E-02 
1116	 4.40357348457625E-02 
1117	 4.06294513743074E-02 
1118	 4.54417425305943E-02 
1119	 7.76665110965263E-02 
1120	 8.82437151995547E-02 
1121	 0.081750351838673 
1122	 7.74203475703107E-02 
1123	 7.16896464454798E-02 
1124	 4.00895228264273E-02 
1125	 1.24756586015212E-02 
1126	 7.08447432940751E-02 
1127	 0.102625418499474 
1128	 3.95010277536867E-02 
1129	 0.039096071127871 
1130	 8.28934769658678E-02 
1131	 7.72858317896146E-02 
1132	 6.62775174329684E-02 
1133	 5.26374976107711E-02 
1134	 8.31779768709281E-03 
1135	 6.40277905560484E-04 
1136	 5.2463991845896E-03 
1137	 9.33488442053515E-03 
1138	 2.91280140841617E-02 
1139	 3.86276697318128E-02 
1140	 3.10670706691317E-02 
1141	 2.98703811228233E-02 
1142	 0.034725169230769 
1143	 5.58865630659434E-02 
1144	 7.62925035062438E-02 
1145	 0.074954901527585 
1146	 7.05640556230165E-02 
1147	 5.73136478659143E-02 
1148	 4.20081524307652E-02 
1149	 5.30080913502188E-02 
1150	 5.42959027554427E-02 
1151	 5.07395108785137E-02 
1152	 5.08309015996124E-02 
1153	 5.97124304124656E-02 
1154	 5.52039975271665E-02 
1155	 4.57206033302327E-02 
1156	 4.14111385533863E-02 
1157	 4.29952184893594E-02 
1158	 4.29648655152814E-02 
1159	 4.52178450822375E-02 
1160	 4.71949493767267E-02 
1161	 4.42500983638921E-02 
1162	 3.89677128891053E-02 
1163	 0.03702806604664 
1164	 4.01142861237191E-02 
1165	 4.09682585058123E-02 
1166	 3.97281139706918E-02 
1167	 4.02898570232984E-02 
1168	 3.91854294773851E-02 
1169	 0.037693762571853 
1170	 3.79674537827216E-02 
1171	 3.89414800578693E-02 
1172	 4.05841861119519E-02 
1173	 4.10103019272656E-02 
1174	 4.17177515004749E-02 
1175	 4.31060042521551E-02 
1176	 4.32136267266562E-02 
1177	 4.19469934090763E-02 
1178	 0.042006776453245 
1179	 4.26069134443046E-02 
1180	 4.22081871427577E-02 
1181	 4.11878341073161E-02 
1182	 4.17106556460656E-02 
1183	 4.32108928673585E-02 
1184	 4.34783463310559E-02 
1185	 4.34219670967947E-02 
1186	 4.22114617911206E-02 
1187	 4.01205776380264E-02 
1188	 4.02771486280256E-02 
1189	 4.18586016597708E-02 
1190	 4.18905229740442E-02 
1191	 4.04323735584699E-02 
1192	 4.01094346935532E-02 
1193	 3.85861907950813E-02 
1194	 3.85120902587865E-02 
1195	 0.040407871052694 
1196	 0.040977277361907 
1197	 4.01990197583999E-02 
1198	 3.99201295942169E-02 
1199	 3.97505096888822E-02 
1200	 3.98820632653296E-02 
1201	 4.06083427228614E-02 
1202	 4.09185543938012E-02 
1203	 4.04288910704174E-02 
1204	 4.17736876825732E-02 
1205	 4.38040230311497E-02 
1206	 4.31952476920164E-02 
1207	 4.12794493834288E-02 
1208	 4.04211370434012E-02 
1209	 4.06851239289321E-02 
1210	 4.05987003152538E-02 
1211	 4.08600181958906E-02 
1212	 4.12561311667627E-02 
1213	 4.03921250371644E-02 
1214	 4.01749989729316E-02 
1215	 4.03364161475933E-02 
1216	 4.13118363963137E-02 
1217	 4.10867580167633E-02 
1218	 4.01503151292567E-02 
1219	 4.00720194155489E-02 
1220	 4.01224948535776E-02 
1221	 3.96809869080982E-02 
1222	 4.04996161883208E-02 
1223	 0.041439318801389 
1224	 4.08558490503111E-02 
1225	 0.04062396501795 
1226	 4.07409374250164E-02 
1227	 4.00224458232236E-02 
1228	 3.97220522597069E-02 
1229	 4.00405551488927E-02 
1230	 4.07938719264929E-02 
1231	 0.040750100104148 
1232	 3.94857642218716E-02 
1233	 3.91971394627851E-02 
1234	 3.95686245635581E-02 
1235	 3.94153329725774E-02 
1236	 3.97921009596634E-02 
1237	 3.98351704694035E-02 
1238	 0.039595023068651 
1239	 3.86071832208801E-02 
1240	 3.79283703399878E-02 
1241	 3.84355254278484E-02 
1242	 3.91054109570751E-02 
1243	 3.89850698009495E-02 
1244	 3.86653749774129E-02 
1245	 3.91631302294956E-02 
1246	 0.039476963967888 
1247	 3.93693735471736E-02 
1248	 3.91234931255758E-02 
1249	 3.94866375855123E-02 
1250	 4.02302211814853E-02 
1251	 3.97255751636475E-02 
1252	 3.89943664489006E-02 
1253	 3.85425552302037E-02 
1254	 3.85924160197029E-02 
1255	 3.89505505354062E-02 
1256	 3.89270551735325E-02 
1257	 3.99071752581186E-02 
1258	 4.02533479623635E-02 
1259	 3.93690438737548E-02 
1260	 3.91968725433196E-02 
1261	 3.98204621284749E-02 
1262	 3.99441367820257E-02 
1263	 3.96833390154901E-02 
1264	 3.94732405294812E-02 
1265	 3.85859339122389E-02 
1266	 3.78976713089492E-02 
1267	 3.79994961065557E-02 
1268	 3.77874893855619E-02 
1269	 3.75666019750314E-02 
1270	 3.85615802809752E-02 
1271	 3.93608380955257E-02 
1272	 3.89245509489346E-02 
1273	 3.91337934861817E-02 
1274	 3.97841293866252E-02 
1275	 3.90930132840485E-02 
1276	 3.80435132679146E-02 
1277	 3.82409454561932E-02 
1278	 3.82066630217947E-02 
1279	 3.82786727720972E-02 
1280	 3.88910645786807E-02 
1281	 0.039323871476689 
1282	 4.02618509444295E-02 
1283	 4.02360276027769E-02 
1284	 3.90099683104446E-02 
1285	 3.91226464053342E-02 
1286	 3.95948944369995E-02 
1287	 3.94760045725341E-02 
1288	 3.98492929770465E-02 
1289	 4.04430499593649E-02 
1290	 4.09278766168983E-02 
1291	 4.06637100859345E-02 
1292	 4.04566058977323E-02 
1293	 0.04043875258466 
1294	 3.97021247629172E-02 
1295	 3.93000663902451E-02 
1296	 4.00613232264256E-02 
1297	 4.11041150470428E-02 
1298	 4.06908695134651E-02 
1299	 3.89465784168893E-02 
1300	 3.86387173326054E-02 
1301	 0.038752811379353 
1302	 3.91547339457442E-02 
1303	 4.06857421620642E-02 
1304	 4.09547497467165E-02 
1305	 4.00576803012174E-02 
1306	 4.00726557927147E-02 
1307	 4.08325242909098E-02 
1308	 4.09497382509931E-02 
1309	 4.08921119583364E-02 
1310	 4.11819524817974E-02 
1311	 4.20063819712391E-02 
1312	 4.12965273190233E-02 
1313	 3.85610541855411E-02 
1314	 3.86813083885256E-02 
1315	 3.88295787980689E-02 
1316	 3.92301050092705E-02 
1317	 4.50000506264618E-02 
1318	 4.63293711187411E-02 
1319	 4.14756770949275E-02 
1320	 0.04161903489168 
1321	 4.36473558806823E-02 
1322	 4.51964207307515E-02 
1323	 0.045744103446982 
1324	 4.34530308925766E-02 
1325	 3.97401090048211E-02 
1326	 3.46585591154321E-02 
1327	 3.26156193006595E-02 
1328	 3.90866768140549E-02 
1329	 4.51640674739474E-02 
1330	 4.49324963506816E-02 
1331	 4.79188738435829E-02 
1332	 5.14407135302158E-02 
1333	 4.44930639687261E-02 
1334	 3.70935508558724E-02 
1335	 3.58034984371406E-02 
1336	 3.31656425484888E-02 
1337	 3.57409481130669E-02 
1338	 5.39842563088573E-02 
1339	 5.61068320833434E-02 
1340	 0.044338696706156 
1341	 4.27709001713301E-02 
1342	 4.00500358325443E-02 
1343	 4.15844197745606E-02 
1344	 5.97053390472465E-02 
1345	 0.065897822944863 
1346	 5.53869973198658E-02 
1347	 6.02134137996361E-02 
1348	 8.32941806091751E-02 
1349	 9.43343870912836E-02 
1350	 0.111053938540977 
1351	 0.145939758671066 
1352	 0.121285647031656 
1353	 0.121597805013207 
1354	 0.232065527694908 
1355	 0.261692588041766 
1356	 0.228290844543243 
1357	 0.338106446853768 
1358	 9.60785928487879E-02 
1359	-1.02742372243532E-03 
1360	 0.117284588028553 
1361	 0.161762682525964 
1362	 0.472262671154921 
1363	 1.0398101094859 
1364	 0.18120437615659 
1365	 6.32698985146124E-02 
1366	 3.01875205851393E-02 
1367	 0.157081911518908 
1368	 0.283451725879745 
1369	 0.599785848636869 
1370	 1.02243808986365 
1371	 4.02438778567904 
1372	 5.2183858046368 
1373	 5.02152951343356 
1374	-24.2196147068911 
1375	 2.25771583090607 
1376	 1.25936161296256 
1377	 1.61264459509852 
1378	 1.97412157977212 
1379	 1.71810216382662 
1380	 1.22832202790288 
1381	 2.1627067044902 
1382	 2.05038876354872 
1383	 0.967919756972077 
1384	 0.679039400937359 
1385	 0.362297864074618 
1386	 0.379583933249449 
1387	 1.68709970479111 
1388	 1.19364081326314 
1389	-0.748789488166499 
1390	-1.1051149968456 
1391	-1.00583662255642 
1392	 0.13209944255534 
1393	 0.281737288523983 
1394	 0.482447312173638 
1395	 0.434508473264223 
1396	-0.17415589342376 
1397	-1.09986310945147 
1398	 109.422445594108 
1399	 8.93654526049919E-02 
1400	-6.63294674664638E-02 
1401	-1.80765429174108 
1402	 41.1619722744778 
1403	-3.37452866361024 
1404	-6.6164281349409 
1405	-42.0218423158572 
1406	 0.446073690704461 
1407	 1.1126545365047 
1408	 3.56855729311436 
1409	 20.7010206496886 
1410	-8.99866061659 
1411	-23.0018177922018 
1412	 2.80075022165064 
1413	 2.49780776194079 
1414	 6.19573671926868 
1415	 4.56954795746251 
1416	 1.99871023906436 
1417	 4.49203519271568 
1418	 7.8202166502171 
1419	 1.87502837850367 
1420	 0.876881730433558 
1421	 0.966628956855925 
1422	 0.55047202090829 
1423	 0.319441695865243 
1424	-0.255109951932173 
1425	-0.174561404302879 
1426	-0.928549217314042 
1427	-0.699981379685076 
1428	 0.818266395490389 
1429	 0.800842925660521 
1430	 0.174879379640289 
1431	 0.131001098673219 
1432	 0.364613126331576 
1433	 0.239716511397911 
1434	 0.189428375306125 
1435	 0.192136974420854 
1436	-2.07476886100163E-02 
1437	-0.25512983567535 
1438	-0.170469800266471 
1439	-0.176133763733904 
1440	-0.530984678087183 
1441	-0.463729981547198 
1442	 3.48432094591023E-02 
1443	 4.59576291731782E-02 
1444	-6.99663639349162E-02 
1445	-7.98183514263903E-02 
1446	-4.27636429819634E-03 
1447	 4.81333551285448E-02 
1448	 0.118816711332131 
1449	 0.147478468569271 
1450	 8.90562901302256E-02 
1451	 1.28258593775907E-02 
1452	-2.70368521366071E-02 
1453	-4.66114583058794E-03 
1454	 3.08720820752281E-02 
1455	 7.34059780290695E-02 
1456	 7.62360829479495E-02 
1457	 9.38696376409966E-02 
1458	 9.88260208886993E-02 
1459	 6.00521106784852E-02 
1460	 5.44119097477133E-02 
1461	 8.38107528137611E-02 
1462	 7.87614488434087E-02 
1463	 7.46977002618043E-02 
1464	 3.66793889397669E-02 
1465	-8.04062929075948E-02 
1466	-4.42824941851389E-02 
1467	 0.101679618411118 
1468	 9.23219317153585E-02 
1469	 7.31250384116802E-02 
1470	 0.105044771834641 
1471	 1.97440216082943E-02 
1472	-6.36218583698021E-04 
1473	 0.139999385518949 
1474	 0.134816746819046 
1475	 1.78211409363893E-02 
1476	-3.72197929751343E-03 
1477	 1.78573986887853E-02 
1478	 2.77498584483126E-03 
1479	-3.69444210630546E-02 
1480	-3.30120235358756E-02 
1481	-3.52482722224179E-02 
1482	-1.47257167818726E-02 
1483	 5.51443671921919E-02 
1484	 0.069532433692851 
1485	 5.76253664981547E-02 
1486	 6.88611969132492E-02 
1487	 0.082059376523286 
1488	 8.11783855704759E-02 
1489	 0.09075378605156 
1490	 8.42571999758754E-02 
1491	 5.79745005379122E-02 
1492	 4.68103922454956E-02 
1493	 3.96203476614738E-02 
1494	 3.29904403952439E-02 
1495	 2.50959863561254E-02 
1496	 2.39643030741429E-02 
1497	 2.61115273177816E-02 
1498	 2.72652896705901E-02 
1499	 3.40147012382119E-02 
1500	 3.68617008826476E-02 
1501	 3.50398196115117E-02 
1502	 3.58776077253747E-02 
1503	 4.16249258485315E-02 
1504	 0.040136876268047 
1505	 3.30325369182735E-02 
1506	 2.99982274831277E-02 
1507	 3.72462591740791E-02 
1508	 3.83587602527833E-02 
1509	 3.50618145463972E-02 
1510	 3.97848010808456E-02 
1511	 4.00843893050813E-02 
1512	 3.21023438073613E-02 
1513	 3.35880998695934E-02 
1514	 4.01741219509663E-02 
1515	 3.86878959263443E-02 
1516	 3.71576187755881E-02 
1517	 3.93831698492204E-02 
1518	 3.98916309081248E-02 
1519	 3.79899778133543E-02 
1520	 3.85832246003384E-02 
1521	 3.83125984354632E-02 
1522	 3.39761218263171E-02 
1523	 3.55383885974098E-02 
1524	 3.92551388484147E-02 
1525	 3.94060907108468E-02 
1526	 3.93474124199195E-02 
1527	 3.88091794708556E-02 
1528	 3.78902168236334E-02 
1529	 3.50741913463929E-02 
1530	 3.41591680052331E-02 
1531	 3.57268207269434E-02 
1532	 3.32388124400056E-02 
1533	 0.032729895524833 
1534	 3.57307184257378E-02 
1535	 3.63179715683218E-02 
1536	 3.66989784798531E-02 
1537	 3.65406103801715E-02 
1538	 3.70083142078331E-02 
1539	 4.07093670774758E-02 
1540	 4.19144283706971E-02 
1541	 0.040420064179265 
1542	 0.041315708086667 
1543	 4.08441591202086E-02 
1544	 3.77960964099753E-02 
1545	 3.75200179373745E-02 
1546	 3.93591425510868E-02 
1547	 0.039817369694143 
1548	 3.96510786801502E-02 
1549	 0.039954784650089 
1550	 3.90979872722873E-02 
1551	 3.71404035862499E-02 
1552	 3.64410015237321E-02 
1553	 0.036041940013561 
1554	 3.54790836029261E-02 
1555	 3.68509283332445E-02 
1556	 3.83542752063162E-02 
1557	 3.80327341072186E-02 
1558	 3.84282621341597E-02 
1559	 3.88868686489191E-02 
1560	 3.74808654376974E-02 
1561	 0.03823094037966 
1562	 4.02577803885113E-02 
1563	 4.01141970172941E-02 
1564	 3.92428788492307E-02 
1565	 3.87189105145835E-02 
1566	 3.96994112131048E-02 
1567	 4.04773163284966E-02 
1568	 0.039986207394866 
1569	 3.98013124351108E-02 
1570	 3.96332255372131E-02 
1571	 4.07035309300983E-02 
1572	 4.01453738476788E-02 
1573	 3.72357090930112E-02 
1574	 0.037524082823107 
1575	 3.76534203210186E-02 
1576	 3.78744071091823E-02 
1577	 4.06097713883505E-02 
1578	 3.95424272140505E-02 
1579	 3.57350701791092E-02 
1580	 3.58878509029332E-02 
1581	 3.93678112329419E-02 
1582	 3.97400710817789E-02 
1583	 3.73709031329851E-02 
1584	 3.77431308712448E-02 
1585	 3.93866168186993E-02 
1586	 3.90968175333661E-02 
1587	 3.94873174841463E-02 
1588	 4.05709611914163E-02 
1589	 3.81637341860278E-02 
1590	 3.59276367554134E-02 
1591	 3.78362404025391E-02 
1592	 3.88107786018108E-02 
1593	 3.76440610342672E-02 
1594	 3.73963918409099E-02 
1595	 3.94778040802286E-02 
1596	 4.06483907691966E-02 
1597	 3.81689125758307E-02 
1598	 3.68589959150886E-02 
1599	 3.67990767187256E-02 
1600	 0.035828515435306 
1601	 3.50518112918177E-02 
1602	 3.58079646954637E-02 
1603	 3.65089280387391E-02 
1604	 3.41844319591436E-02 
1605	 3.42650520663617E-02 
1606	 3.81127878045148E-02 
1607	 3.79327889842139E-02 
1608	 3.62101413278492E-02 
1609	 3.66410935563872E-02 
1610	 3.61734208717356E-02 
1611	 3.66584622731197E-02 
1612	 3.70124375833318E-02 
1613	 3.55966929438074E-02 
1614	 3.50560277079508E-02 
1615	 3.56734035869671E-02 
1616	 3.67908159705329E-02 
1617	 3.85306986087219E-02 
1618	 4.04072079984943E-02 
1619	 4.11112248449412E-02 
1620	 4.06732887939953E-02 
1621	 3.90499439618836E-02 
1622	 3.71116008334651E-02 
1623	 3.56454059109215E-02 
1624	 3.40139342152981E-02 
1625	 3.48705151491048E-02 
1626	 3.78000410918228E-02 
1627	 0.038275176125404 
1628	 3.81710132594305E-02 
1629	 3.94340136480915E-02 
1630	 3.83630620882461E-02 
1631	 3.56321713731581E-02 
1632	 3.52419648853285E-02 
1633	 0.035540815086191 
1634	 3.49433672163656E-02 
1635	 3.60090677588945E-02 
1636	 3.75587486388807E-02 
1637	 3.74047568017246E-02 
1638	 3.69730279823136E-02 
1639	 3.54539550435579E-02 
1640	 3.41350031571561E-02 
1641	 3.56124442639344E-02 
1642	 3.71045876104129E-02 
1643	 3.88046435362605E-02 
1644	 4.09589181224201E-02 
1645	 4.10322123905169E-02 
1646	 4.10770064858506E-02 
1647	 4.15494773086108E-02 
1648	 4.09557549277222E-02 
1649	 3.91043215237386E-02 
1650	 3.65807690174539E-02 
1651	 3.68167794475515E-02 
1652	 3.81232923193485E-02 
1653	 3.67452101236368E-02 
1654	 3.67388430030951E-02 
1655	 3.61365895180517E-02 
1656	 3.61179840496698E-02 
1657	 3.82704664732772E-02 
1658	 3.89255492289251E-02 
1659	 3.79097144325689E-02 
1660	 3.77348176824475E-02 
1661	 3.83311577804964E-02 
1662	 3.80708287234395E-02 
1663	 3.77761601827372E-02 
1664	 3.72454669841863E-02 
1665	 3.47508695920091E-02 
1666	 3.50643219337062E-02 
1667	 3.75969513689112E-02 
1668	 3.84112607771118E-02 
1669	 3.87783485726301E-02 
1670	 3.57503274466373E-02 
1671	 0.035004622847824 
1672	 3.48131208548314E-02 
1673	 3.40635134170407E-02 
1674	 3.71187092869852E-02 
1675	 3.74967458867184E-02 
1676	 3.61006583985256E-02 
1677	 3.81326236344224E-02 
1678	 3.71641988719775E-02 
1679	 0.033346885906397 
1680	 3.47385988892007E-02 
1681	 3.65984292713313E-02 
1682	 3.37651986366821E-02 
1683	 3.32238920818595E-02 
1684	 3.65352895662004E-02 
1685	 3.72131900938563E-02 
1686	 3.58787663223963E-02 
1687	 3.58051723522703E-02 
1688	 3.34016822591794E-02 
1689	 0.030189585269257 
1690	 3.27914052332031E-02 
1691	 3.72312853036811E-02 
1692	 3.84728286677042E-02 
1693	 0.038283791358156 
1694	 0.036913176210819 
1695	 3.80591311395836E-02 
1696	 4.01455216139383E-02 
1697	 3.86775824938425E-02 
1698	 3.88248730403362E-02 
1699	 3.77332961840293E-02 
1700	 3.20630378771993E-02 
1701	 3.16555987124992E-02 
1702	 3.54947535310783E-02 
1703	 3.64686599831113E-02 
1704	 3.67623080794373E-02 
1705	 3.72820282052686E-02 
1706	 3.65734240486269E-02 
1707	 0.036641552350215 
1708	 3.97832654630181E-02 
1709	 3.96028716898661E-02 
1710	 0.036844259561176 
1711	 0.036844289751926 
1712	 3.58796427522632E-02 
1713	 0.037576893470892 
1714	 3.80734644096008E-02 
1715	 3.33632915717244E-02 
1716	 0.034273809893044 
1717	 3.73777721388667E-02 
1718	 3.56651478801842E-02 
1719	 3.13636072696674E-02 
1720	 3.31810570288426E-02 
1721	 3.96263988001895E-02 
1722	 4.21762584862526E-02 
1723	 4.48450429133965E-02 
1724	 4.62078127847562E-02 
1725	 4.14983638843573E-02 
1726	 3.96079986488602E-02 
1727	 4.52419659608078E-02 
1728	 4.83870321032662E-02 
1729	 4.44604970537476E-02 
1730	 3.85239437714449E-02 
1731	 3.67026068254364E-02 
1732	 3.82247343035105E-02 
1733	 3.73167267607522E-02 
1734	 0.037856532280809 
1735	 4.06074104303944E-02 
1736	 3.78208274749721E-02 
1737	 3.65204311808967E-02 
1738	 4.04273823985299E-02 
1739	 0.039424107543787 
1740	 4.02482172088802E-02 
1741	 4.39493725887384E-02 
1742	 4.29550291459212E-02 
1743	 4.08102586443648E-02 
1744	 3.80489676709458E-02 
1745	 0.034328296127026 
1746	 3.92786310592287E-02 
1747	 0.039899090735942 
1748	 3.66387689781903E-02 
1749	 3.62909463203759E-02 
1750	 3.44644552992096E-02 
1751	 3.29200653195288E-02 
1752	 3.55024658851488E-02 
1753	 3.64404438086164E-02 
1754	 3.76085832838376E-02 
1755	 3.70997674828478E-02 
1756	 3.36288751114493E-02 
1757	 2.67557886758252E-02 
1758	 2.08566250606194E-02 
1759	 1.78203502214051E-02 
1760	 2.36263941237804E-02 
1761	 3.64149413775745E-02 
1762	 4.40209951235851E-02 
1763	 3.93961212880721E-02 
1764	 3.54904205037933E-02 
1765	 3.13924863935381E-02 
1766	 0.021002962516577 
1767	 2.82629088435218E-02 
1768	 3.57682248934587E-02 
1769	 3.60607824730625E-02 
1770	 5.56559926239586E-02 
1771	 6.24554674160968E-02 
1772	 5.70631619318274E-02 
1773	 5.56931481862732E-02 
1774	 4.59815934093289E-02 
1775	 4.32988864758691E-02 
1776	 4.16190071631154E-02 
1777	 4.11005607000202E-02 
1778	 0.039169282736063 
1779	 4.18016803584815E-02 
1780	 3.98996233989974E-02 
1781	 3.32180820520276E-02 
1782	 3.03340075452674E-02 
1783	 1.31231786268724E-02 
1784	 1.56028420662845E-02 
1785	 4.21501476884433E-02 
1786	 5.84533854136549E-02 
1787	 0.105335795140142 
1788	 9.81933692577633E-02 
1789	 3.10074261118044E-02 
1790	 1.58553926148321E-02 
1791	-3.33338230278954E-02 
1792	-3.37134879843668E-02 
1793	 1.62400894970561E-02 
1794	 3.16333778443028E-02 
1795	 5.13695933693805E-02 
1796	 0.073797873810854 
1797	 0.138922139019386 
1798	 0.172474525186525 
1799	 0.156898520578018 
1800	 0.223966413081479 
1801	 0.279658884490559 
1802	 0.449937549130914 
1803	 0.485763915486652 
1804	 0.367774808188812 
1805	 0.239508888152218 
1806	-0.32788343914822 
1807	-0.591234215661 
1808	-0.361263565118452 
1809	-0.223635656486232 
1810	 0.599494305572644 
1811	 0.74505314482319 
1812	 0.252810080906513 
1813	 0.175515495530219 
1814	-0.188763459590094 
1815	-0.08339088902743 
1816	 0.253445529074792 
1817	 0.448758523364305 
1818	 0.205864825550858 
1819	 0.117058554609999 
1820	 0.857172879736819 
1821	 2.2672137531646 
1822	 3.79977055055763 
1823	 0.949522029514515 
1824	-1.99774594114171E-03 
1825	-0.106562577535579 
1826	 8.68059697171888E-02 
1827	 1.38649217475388 
1828	 1.97135996037003 
1829	 1.9596517573845 
1830	 2.15227483972652 
1831	 2.05382604319817 
1832	 2.18521355027411 
1833	-1.99374685739269 
1834	-4.31562953028145 
1835	 5.46135405627412 
1836	 1.81412456235272 
1837	 4.09605628319272E-02 
1838	-0.225183643276443 
1839	-0.388964196165783 
1840	-6.2325403515633 
1841	 0.239002184748299 
1842	-7.12475165993681E-02 
1843	-0.338946683449988 
1844	-2.23713763760442 
1845	-4.13100911189389 
1846	 3.73033440563216 
1847	 2.82363812818474 
1848	-1.4426210668865 
1849	-1.13784678668075 
1850	-2.36345058432656 
1851	-1.14606031752145 
1852	-0.439317772059285 
1853	-0.132851707811554 
1854	-4.96238537799536E-02 
1855	 0.219168892816979 
1856	 0.157849817215462 
1857	-6.51566761252304E-02 
1858	-0.183840615610292 
1859	-0.257682314699732 
1860	-0.703539691768608 
1861	-1.19528770041668 
1862	-1.66677888071626 
1863	-2.46475232372378 
1864	-2.62889335823176 
1865	-2.69728703979346 
1866	-10.501125318124 
1867	-7.9510352325236 
1868	-15.9329314939306 
1869	-59.1220412435575 
1870	 48.6265317263302 
1871	 2.83651120566887 
1872	 1.43374285623047 
1873	 0.812152898961437 
1874	 0.594429618260221 
1875	 0.368473850068516 
1876	 0.334906336936405 
1877	 0.340999400430146 
1878	 0.196400128508641 
1879	 0.477597215503047 
1880	 0.391510667704326 
1881	 5.79436504118941E-02 
1882	-9.60392690513668E-02 
1883	-0.309189716226437 
1884	-1.01082284196847 
1885	-2.5349702889563 
1886	-6.70964350200695 
1887	 0.331312884473473 
1888	-1.60126251554547 
1889	-0.598333960914413 
1890	-0.443379763048162 
1891	-0.509281975593196 
1892	-0.604437756515078 
1893	-0.891898090362023 
1894	-2.09668912692873 
1895	-1.08051373226156 
1896	 1.68425643219679 
1897	 0.375082023747384 
1898	 0.198165194928389 
1899	 2.26364951367092 
1900	 11.8163455720622 
1901	-4.27864830950783 
1902	-4.35083615318139 
1903	-6.57326540019398 
1904	-8.40392021659356 
1905	 1.86038452414133 
1906	 0.960463321895305 
1907	-0.266618740437027 
1908	-0.714018719727055 
1909	-0.641904843666147 
1910	-2.07163520610158 
1911	 4.83408755209987 
1912	-1.26080449086892 
1913	 0.240480323613666 
1914	 0.718217728751195 
1915	 0.515170822875289 
1916	-0.635359493421191 
1917	-0.274804583280031 
1918	 1.32283030722872 
1919	-1.19843608201107 
1920	-1.31301577269275 
1921	-2.02314144533834 
1922	-2.00511267066801 
1923	-1.84208160144628 
1924	-1.63826624091507 
1925	-1.02908050237168 
1926	-0.549791737329917 
1927	 0.357997788255058 
1928	 1.51272323624617 
1929	 19.8046697994861 
1930	-4.97382312983857 
1931	-2.0562209676597 
1932	-1.28028336161508 
1933	-0.874851453724581 
1934	-0.94722872179852 
1935	-3.30008464466794 
1936	-5.77411883360412 
1937	-2.02484071537439 
1938	-0.836911804746487 
1939	-0.394554413421189 
1940	 0.143562541130119 
1941	 9.20381648062903E-02 
1942	 0.416417680844291 
1943	 0.865505784902247 
1944	 1.0632826276047 
1945	 1.61954504888447 
1946	 3.86906688836347 
1947	-145.559833512744 
1948	 2.05549928185105 
1949	 0.702685184640973 
1950	 0.771138583492174 
1951	 0.64124644282876 
1952	 0.755838790548227 
1953	 3.98470678566434 
1954	-4.25755462507291 
1955	-4.63505450816549 
1956	-2.14977148097472 
1957	-1.98276006919452 
1958	-3.09582886059859 
1959	-0.646964111103419 
1960	-0.109426380131675 
1961	-0.273123973616767 
1962	-0.193871076316402 
1963	-0.230278355895214 
1964	-0.87515087749072 
1965	-1.12991366189123 
1966	-1.33043909229956 
1967	-1.88167248908733 
1968	-1.76578744126923 
1969	-0.444097431984796 
1970	-9.48229226514372E-03 
1971	 0.283609478601197 
1972	 0.36862429758027 
1973	 0.175317829549962 
1974	 1.83429916113368E-02 
1975	-0.121650963051179 
1976	-0.15542466835328 
1977	-2.26538966169813E-02 
1978	-3.84203241865181E-02 
1979	-3.63832392114362E-02 
1980	-7.80917428817531E-02 
1981	-0.017682373980456 
1982	-8.04284723677003E-02 
1983	-5.52857129126436E-02 
1984	-4.58399537399582E-02 
1985	-0.144159807927411 
1986	-0.125265004697364 
1987	-2.73373087174675E-02 
1988	-1.53720477854977E-02 
1989	-0.125845038163723 
1990	-0.200706574569645 
1991	-0.29036369071827 
1992	-0.272812997407944 
1993	-9.96631946761207E-02 
1994	-4.77689592037779E-02 
1995	-2.32560682722829E-02 
1996	-1.04563643485194E-02 
1997	-0.048794014450241 
1998	-0.206674481539842 
1999	-0.15500216374677 
2000	 0.145886769393584 
2001	 0.264048096149319 
2002	 0.365931028373209 
2003	 0.736668029974756 
2004	 0.484095965758746 
2005	 0.438420472486346 
2006	 0.512790614498474 
2007	 0.226246415058753 
2008	 0.275190977855867 
2009	 0.177172901165418 
2010	-0.273970657961866 
2011	-0.583315854565438 
2012	-0.761700699924873 
2013	-0.56448525588463 
2014	-0.315278758341633 
2015	-0.293820004696111 
2016	-0.239805371667239 
2017	-0.106426075715288 
2018	-8.25575742508773E-02 
2019	-3.69803447925301E-02 
2020	-4.00094708580079E-02 
2021	-7.52920727177788E-02 
2022	-0.131275777705684 
2023	-0.167028452729 
2024	-0.173516829875043 
2025	-0.217002829016715 
2026	-0.188038425295375 
2027	-0.115849783821351 
2028	-5.59240388095733E-02 
2029	-4.49213254201126E-02 
2030	 1.15833137843379E-02 
2031	 0.070032841979983 
2032	 7.52278151899902E-02 
2033	 7.57863426883255E-02 
2034	 6.89481928540149E-02 
2035	 3.76156827643592E-02 
2036	 1.66988871044846E-02 
2037	-5.62400478206917E-03 
2038	-2.34694160462398E-02 
2039	-2.87028528186804E-02 
2040	-3.39087195537692E-02 
2041	-4.19736058143057E-02 
2042	-3.03010951130666E-02 
2043	-0.027115771591378 
2044	-3.88807831756516E-02 
2045	-3.49708709425019E-02 
2046	-1.48970801173019E-02 
2047	-1.28648968700006E-02 
2048	-1.35101141031191E-02 
2049	 7.50094155161602E-03 
2050	 3.78235680014099E-02 
2051	 7.40854301515984E-02 
2052	 0.100067905697298 
2053	 9.61031004361186E-02 
2054	 7.36644824155742E-02 
2055	 6.05114290881214E-02 
2056	 0.04259709574172 
2057	 0.014806278734952 
2058	 2.37992463051818E-02 
2059	 4.88347517044978E-02 
2060	 5.55024397382198E-02 
2061	 7.62473448085503E-02 
2062	 0.104473077737756 
2063	 0.10182449631659 
2064	 7.94261582506309E-02 
2065	 7.55296906320669E-02 
2066	 7.25048402086399E-02 
2067	 0.056605749084283 
2068	 5.65802321425037E-02 
2069	 6.67196911391609E-02 
2070	 6.39358074568721E-02 
2071	 0.061618780050847 
2072	 5.58459234819222E-02 
2073	 4.82263974704261E-02 
2074	 3.27034988117042E-02 
2075	 3.44343642371816E-02 
2076	 4.06166159933666E-02 
2077	 4.24621733917093E-02 
2078	 5.79776780123365E-02 
2079	 6.04643714788973E-02 
2080	 4.90398128740495E-02 
2081	 4.84991711986482E-02 
2082	 6.06072124372462E-02 
2083	 4.69210812664548E-02 
2084	 3.50305823602829E-02 
2085	 3.39614078737266E-02 
2086	 3.13016263326778E-02 
2087	 2.75399260803751E-02 
2088	 3.05504896177644E-02 
2089	 3.70393323168355E-02 
2090	 3.76961329868276E-02 
2091	 2.68965522244335E-02 
2092	 1.88528803293601E-02 
2093	 0.005242952003918 
2094	 1.04149487382198E-02 
2095	 2.56313655514977E-02 
2096	 2.77456998296904E-02 
2097	 3.82552042241512E-02 
2098	 4.01805376082263E-02 
2099	 2.16642523081936E-02 
2100	 1.99314321540872E-02 
2101	 0.038383093475732 
2102	 4.12190184380585E-02 
2103	 4.31601310165717E-02 
2104	 6.15758667240139E-02 
2105	 7.34568942981624E-02 
2106	 6.14460823179837E-02 
2107	 5.46844368083729E-02 
2108	 4.78040049626474E-02 
2109	 3.41856934518802E-02 
2110	 4.41037262412281E-02 
2111	 4.05527625828156E-02 
2112	 2.85235147823389E-02 
2113	 2.26468388612943E-02 
2114	 9.58785706012939E-03 
2115	 6.97190657754075E-04 
2116	 1.05479517822431E-03 
2117	-1.39501605915044E-03 
2118	-1.00024890715049E-02 
2119	-7.69220811924148E-03 
2120	 6.64494135972957E-03 
2121	 9.10640963612069E-03 
2122	 4.00234924102704E-03 
2123	 1.23353196996163E-02 
2124	 1.05304291721255E-02 
2125	-2.45678927560393E-04 
2126	-2.1992700596475E-03 
2127	-1.57714840126224E-02 
2128	-3.02838659415588E-02 
2129	-2.73403109176656E-02 
2130	-2.08692186701254E-02 
2131	-1.01827363255472E-02 
2132	-1.33249957670595E-02 
2133	-5.6611676268562E-03 
2134	 3.75323111028083E-03 
2135	 1.13142349600527E-02 
2136	 0.015257224928447 
2137	 2.50989839420976E-02 
2138	 2.83271250971559E-02 
2139	 2.42145316778228E-02 
2140	 2.80180000983613E-02 
2141	 4.14530537760134E-02 
2142	 4.50284733931613E-02 
2143	 4.53850354956514E-02 
2144	 3.60561710284508E-02 
2145	 0.041318252808774 
2146	 3.61002200049307E-02 
2147	 0.016168622886412 
2148	 1.18994302014251E-02 
2149	-2.30870921817558E-03 
2150	-2.62825587246797E-02 
2151	-2.41146751130094E-02 
2152	-1.39587589683787E-02 
2153	-1.08256622167266E-02 
2154	-6.21099318040631E-03 
2155	 4.98690243096127E-03 
2156	 1.45805354452772E-02 
2157	 1.77111230472837E-02 
2158	 1.95505434264997E-02 
2159	 2.44056231201784E-02 
2160	 2.19936556737628E-02 
2161	 2.31761049503791E-02 
2162	 3.05432024837929E-02 
2163	 4.04633404740393E-02 
2164	 4.80766435001992E-02 
2165	 6.13360580600597E-02 
2166	 9.15117310285437E-02 
2167	 9.86009231046222E-02 
2168	 9.56107059503489E-02 
2169	 9.37858727583869E-02 
2170	 8.07325039492444E-02 
2171	 6.47931429270586E-02 
2172	 0.068462548532815 
2173	 6.61605790994526E-02 
2174	 5.68278402734415E-02 
2175	 5.86250699614686E-02 
2176	 5.16980857930597E-02 
2177	 4.65993342266953E-02 
2178	 4.87746267897277E-02 
2179	 3.72083247346957E-02 
2180	 1.91790049501155E-02 
2181	 6.49802393393481E-03 
2182	 8.68664940946344E-04 
2183	 3.62878812294733E-03 
2184	 1.85501720261998E-02 
2185	 3.72580771050782E-02 
2186	 4.42907912925504E-02 
2187	 4.45957696113622E-02 
2188	 3.97580300903282E-02 
2189	 2.05940455963527E-02 
2190	 1.52865291925467E-02 
2191	 1.73143249024122E-02 
2192	 1.40199404815313E-02 
2193	 1.33913955779723E-02 
2194	 1.35819121607979E-02 
2195	 2.05006232639423E-03 
2196	-6.1557851810598E-04 
2197	 1.11399246995596E-02 
2198	 0.016272103206939 
2199	 1.84488371127653E-02 
2200	 2.81856429749625E-02 
2201	 2.58079473165404E-02 
2202	 1.19039469118302E-02 
2203	-7.46543536344653E-03 
2204	-1.45548625019348E-02 
2205	-1.49032315415905E-02 
2206	-2.59713343871758E-03 
2207	 3.54789381919506E-03 
2208	-2.53288160794293E-03 
2209	 1.37847978542965E-02 
2210	 1.37445249293851E-02 
2211	 2.45214724457219E-02 
2212	 5.49460716631866E-02 
2213	 6.25914361111723E-02 
2214	 7.87103899912418E-02 
2215	 8.94310426669013E-02 
2216	 8.59984381147121E-02 
2217	 8.38370482409519E-02 
2218	 7.79591052528384E-02 
2219	 6.89281529677181E-02 
2220	 5.50321881300505E-02 
2221	 4.26001185514861E-02 
2222	 2.41815058727315E-02 
2223	 9.70003066107676E-03 
2224	-5.63977842106323E-03 
2225	-8.66719245934106E-03 
2226	-6.46340370864242E-03 
2227	-3.18159163072899E-03 
2228	 1.89838082510838E-02 
2229	 2.48027452536295E-02 
2230	 1.54748588552292E-02 
2231	 0.023576034230294 
2232	 2.96390464478707E-02 
2233	 3.55091674292456E-02 
2234	 5.66364316563421E-02 
2235	 6.72669040332167E-02 
2236	 0.059257252854801 
2237	 6.65590961858318E-02 
2238	 5.85424904190082E-02 
2239	 7.23363922943039E-02 
2240	 8.62467465134466E-02 
2241	 6.78296392661745E-02 
2242	 4.84710217932809E-02 
2243	 2.31175139271186E-02 
2244	 7.3794493890309E-03 
2245	 1.22066273650885E-02 
2246	 0.027458327876204 
2247	 0.028355166026835 
2248	 7.04786632282915E-03 
2249	 4.2728537660586E-03 
2250	 6.5703613547123E-03 
2251	-2.25040435593074E-03 
2252	 0.009434030239872 
2253	-7.03848902688677E-03 
2254	-4.28667125821864E-02 
2255	-4.65257826431324E-02 
2256	-4.32135021278961E-02 
2257	-3.59098451946488E-02 
2258	-0.029857458093966 
2259	-1.78451941450465E-02 
2260	-1.38116675540618E-02 
2261	-2.80720076647287E-02 
2262	-2.84160823466878E-02 
2263	-3.20886470501396E-02 
2264	-1.57048392230283E-02 
2265	 1.88823898241215E-02 
2266	 3.92809802354135E-02 
2267	 8.26028545820772E-02 
2268	 8.93183763943021E-02 
2269	 0.073113265691536 
2270	 5.37813741813412E-02 
2271	-7.42018103997893E-04 
2272	-1.07674767589272E-02 
2273	-1.58289365048383E-02 
2274	-2.22436489125236E-02 
2275	 5.35426933661103E-03 
2276	 2.15308894911506E-02 
2277	 4.96617313424284E-02 
2278	 4.52515745818603E-02 
2279	 1.51251195634963E-02 
2280	 5.01482630080895E-04 
2281	-3.60662793856971E-02 
2282	-5.70167036912622E-02 
2283	-4.69596937278716E-02 
2284	-3.12157404208746E-02 
2285	-2.02138224276349E-02 
2286	 2.53101018638363E-03 
2287	 0.042469539822828 
2288	 8.46939015292978E-02 
2289	 9.08505625235747E-02 
2290	 7.68342116450813E-02 
2291	 0.069183164106444 
2292	 5.80455025836756E-02 
2293	 8.97151416814322E-02 
2294	 9.81429106848628E-02 
2295	 6.01300669075222E-02 
2296	 5.40545190621249E-02 
2297	 2.94879752700926E-02 
2298	 0.025869183163014 
2299	 8.55232156242131E-03 
2300	-4.21941719363709E-02 
2301	-7.88539767050987E-02 
2302	-0.162068952307124 
2303	-0.245803423203825 
2304	-0.257672574150005 
2305	-0.202768326537565 
2306	-0.131124134612145 
2307	-2.58944422293411E-02 
2308	 2.98209344404338E-02 
2309	-9.43128677395185E-03 
2310	 4.91239072775929E-03 
2311	 6.93535141556043E-03 
2312	 2.15806326481455E-02 
2313	 7.66709281853807E-02 
2314	 7.39316321066518E-02 
2315	 9.51245389916569E-02 
2316	 0.042773331952036 
2317	-3.03530910092573E-02 
2318	-2.89163999641917E-02 
2319	-9.22298081194539E-02 
2320	-0.227830356617031 
2321	-0.271313453039909 
2322	-0.348951394970116 
2323	-0.38338059003513 
2324	-0.217234393370899 
2325	-0.265794973659397 
2326	-0.287742633716259 
2327	-0.120593525626469 
2328	-0.148850599422125 
2329	-0.137464822810361 
2330	-0.093171319792498 
2331	-0.206941618080471 
2332	-0.229425865160923 
2333	-0.244740243619885 
2334	-0.357235672526546 
2335	-0.293756394980219 
2336	-0.262790244839603 
2337	-0.193926698227882 
2338	 0.060931162186369 
2339	 1.80206510426341E-02 
2340	-0.18700749463119 
2341	-0.114468932186078 
2342	 0.06989489663547 
2343	 0.141001370434905 
2344	 0.203282491653857 
2345	 0.16658142958523 
2346	 8.66061580405388E-03 
2347	-0.195910359282673 
2348	-0.254007964361166 
2349	-0.374595506046622 
2350	-0.582793071969036 
2351	-0.574689553520114 
2352	-0.468734469918658 
2353	-0.45336080022405 
2354	-0.348347660943712 
2355	-0.255388605196158 
2356	-0.215238691025382 
2357	-0.099944459750992 
2358	-0.10288950337882 
2359	-6.44384960634603E-02 
2360	 3.69549685194551E-02 
2361	-3.06342942100752E-02 
2362	 1.06162790108735E-02 
2363	 6.53218847986987E-02 
2364	-2.68897888266037E-02 
2365	-9.63135581620429E-02 
2366	-0.111708935361667 
2367	-0.231991624154754 
2368	-0.405285339490567 
2369	-0.54270096613084 
2370	-0.686713783224353 
2371	-0.77390947597085 
2372	-0.754345623539831 
2373	-0.602380498750621 
2374	-1.05704413526205 
2375	-2.24975649239025 
2376	-2.60572077105424 
2377	-1.66486116124282 
2378	-0.518295276457868 
2379	 0.344615344433893 
2380	 0.516269004407929 
2381	-0.200139605767456 
2382	-1.22769332078463 
2383	-5.33308826797946 
2384	-9.05445457989734 
2385	-20.3162724199234 
2386	 7.15639249701458 
2387	 3.53679384742402 
2388	 3.00387290554042 
2389	 1.95145568170041 
2390	-1.98535361621455 
2391	-1.24096754377324 
2392	-0.909279424853211 
2393	 17.1296973363621 
2394	 2.71062368751101 
2395	 571.013797224312 
2396	 25.807211087611 
2397	 2.42136160116952 
2398	 6.37417121167217 
2399	 5.53575200779377 
2400	-38.9720089621796 
2401	 8.90844863132788 
2402	 1.07797658512282 
2403	 0.503838554450957 
2404	 0.511620712717014 
2405	-0.160960523878676 
2406	-4.10753875788277 
2407	 4.39554464817021 
2408	 13.2468054892677 
2409	 2.90240399432026 
2410	 0.917649104896094 
2411	 0.678111338971873 
2412	 0.288753761589694 
2413	 0.137758120798224 
2414	 0.576728021095443 
2415	 2.07546234450612 
2416	-8.06433123244856 
2417	-2.77156904871695 
2418	-0.998909679521989 
2419	-0.492425021119889 
2420	 3.20511329962243E-02 
2421	 3.66791542539434E-03 
2422	-0.263951203725339 
2423	-1.63838463076152 
2424	 0.730475150016681 
2425	-0.190191661680357 
2426	-0.911114195222569 
2427	-1.34695445852785 
2428	-3.72335913443477 
2429	-6.96903873453955 
2430	 12.008301948509 
2431	-6.78121172081894 
2432	-2.28710037517103 
2433	-2.0860381979349 
2434	-0.894659741786037 
2435	-0.308709367863258 
2436	-0.330955765896738 
2437	-0.814639766249974 
2438	-3.85375982303912 
2439	 0.869491000642832 
2440	 0.314172714553887 
2441	 5.30513107751325E-02 
2442	-1.84514354834501 
2443	-0.354074869668086 
2444	-0.688068995985461 
2445	-2.49584872903928 
2446	 3.01000490483796 
2447	-0.571685560305461 
2448	 1.33235158199409 
2449	 0.23097588102808 
2450	 0.237839830151259 
2451	-0.519018521720209 
2452	-4.06224560791188 
2453	 1.58530920144846 
2454	 0.722183276460422 
2455	 0.269296988199232 
2456	 0.227832412256373 
2457	 0.130657833872169 
2458	 0.199022874666299 
2459	 0.238020776539179 
2460	 0.318620911894638 
2461	 0.65740134747044 
2462	 0.794893861157767 
2463	 1.74056085740161 
2464	 1.30937974093086 
2465	 0.932683014893756 
2466	 0.856554959166513 
2467	 0.506964793149998 
2468	 3.11020035256265 
2469	-66.5555359382871 
2470	-1.33333698824693 
2471	-0.583553095193022 
2472	-0.548915596317887 
2473	-0.373161638039087 
2474	-0.810404298979483 
2475	-3.75569055255764 
2476	-2.85395291225395 
2477	-1.74653321556399 
2478	-0.215422770282527 
2479	 0.382208226478673 
2480	 1.09546765663874 
2481	 0.781126463085302 
2482	 0.447226692459209 
2483	 0.446636768039858 
2484	 0.712165008257481 
2485	 7.71913990649761 
2486	-2.71668210046579 
2487	-0.308400833054291 
2488	 2.17728494754878 
2489	 5.94841739821183 
2490	 1.76073145152092 
2491	 6.17009619249631 
2492	-3.47280789377366 
2493	-3.45132768718806 
2494	-4.79589405431409 
2495	 4.52725624502522 
2496	 0.153287719457214 
2497	 0.325566443976769 
2498	 0.788594269478473 
2499	-0.074202505635036 
2500	 0.304806103203467 
