Wavelength	rt0712west_far00009.asd
350	 9.12195158299601E-02 
351	 9.13282290388604E-02 
352	 9.14841053573452E-02 
353	 9.14134590348544E-02 
354	 9.10764421174869E-02 
355	 9.07844455649308E-02 
356	 9.30788596735685E-02 
357	 9.43026698882238E-02 
358	 9.13955689441339E-02 
359	 9.24294847389245E-02 
360	 9.30684673449661E-02 
361	 9.27919240542707E-02 
362	 9.36790559070081E-02 
363	 9.30015422059398E-02 
364	 9.25751992741921E-02 
365	 9.30589514492354E-02 
366	 9.25186537801013E-02 
367	 9.28094166257912E-02 
368	 9.34697188760639E-02 
369	 0.093751708541293 
370	 9.42692665716312E-02 
371	 0.093825264914393 
372	 9.31131538992268E-02 
373	 9.36463546161591E-02 
374	 9.33821372682529E-02 
375	 9.33046769632748E-02 
376	 9.38454024048763E-02 
377	 9.42512945817337E-02 
378	 9.45495313181067E-02 
379	 9.49113865910865E-02 
380	 9.53756987243526E-02 
381	 9.54547785904579E-02 
382	 9.49957113755379E-02 
383	 9.47247999220733E-02 
384	 9.54595984919884E-02 
385	 0.095542982042612 
386	 9.52637623328027E-02 
387	 9.51203559556936E-02 
388	 0.095596572693691 
389	 9.57925300572487E-02 
390	 9.71146384766025E-02 
391	 9.95617092151824E-02 
392	 9.87716109123841E-02 
393	 9.76220666230962E-02 
394	 9.69192111302341E-02 
395	 9.66957581736248E-02 
396	 9.75681570984608E-02 
397	 9.82547973774183E-02 
398	 9.85441423530464E-02 
399	 9.91644152914875E-02 
400	 9.87166577691943E-02 
401	 9.82238505844038E-02 
402	 9.84762632967597E-02 
403	 9.90437366544177E-02 
404	 9.90638370858321E-02 
405	 9.90642468803786E-02 
406	 9.97849194187826E-02 
407	 9.98306234388704E-02 
408	 9.96994620933133E-02 
409	 9.98016770444385E-02 
410	 0.100294523145894 
411	 0.100459663659081 
412	 0.100827219936333 
413	 0.10156428383765 
414	 0.101406722421013 
415	 0.101123125024391 
416	 0.101282779020849 
417	 0.102107412250709 
418	 0.102290848456511 
419	 0.102419872838437 
420	 0.102728779005826 
421	 0.102925852548527 
422	 0.103060618132056 
423	 0.10347269105676 
424	 0.104194854584584 
425	 0.104223015234015 
426	 0.104450091372732 
427	 0.105024877136744 
428	 0.105672600529648 
429	 0.105988126846249 
430	 0.106282993788511 
431	 0.106648935936167 
432	 0.106837290511246 
433	 0.107202431856159 
434	 0.107749621582435 
435	 0.1082925420239 
436	 0.10826937239598 
437	 0.108641896111757 
438	 0.109354230384023 
439	 0.109806364541931 
440	 0.110116574188281 
441	 0.110580037785974 
442	 0.111205014482866 
443	 0.111556190399233 
444	 0.111728712374192 
445	 0.111988507351285 
446	 0.112552616587972 
447	 0.113326244621339 
448	 0.113555871044743 
449	 0.113447737225039 
450	 0.113871024904533 
451	 0.114407589315258 
452	 0.114833263643567 
453	 0.115038683128354 
454	 0.115044933495096 
455	 0.115479145524171 
456	 0.116016619062795 
457	 0.116136638982313 
458	 0.116396740441927 
459	 0.116558779731015 
460	 0.116656467988482 
461	 0.11700671683271 
462	 0.117101628999917 
463	 0.117251029231863 
464	 0.117686926333943 
465	 0.117996734584545 
466	 0.118058157188823 
467	 0.118170448920346 
468	 0.118717615115174 
469	 0.118909046842614 
470	 0.118994153106995 
471	 0.119167266005637 
472	 0.119411580648697 
473	 0.119325885198519 
474	 0.119514705056662 
475	 0.120370953978578 
476	 0.120574044202121 
477	 0.120837901807877 
478	 0.121249802579896 
479	 0.121492321135862 
480	 0.12194367617807 
481	 0.122228613289545 
482	 0.122261754308399 
483	 0.122737220613473 
484	 0.123278278430649 
485	 0.123525478466253 
486	 0.123390821835681 
487	 0.124156420185347 
488	 0.124969236733799 
489	 0.125366810784708 
490	 0.125424634155278 
491	 0.125971519670315 
492	 0.126593498389785 
493	 0.126922326804024 
494	 0.127453977994172 
495	 0.127820491229758 
496	 0.128167690451096 
497	 0.128832728918083 
498	 0.129447726910084 
499	 0.129688682228644 
500	 0.129712968535383 
501	 0.13041699630468 
502	 0.13099754632018 
503	 0.131327036015237 
504	 0.131590456241626 
505	 0.132316814700787 
506	 0.133251251663664 
507	 0.133967236287088 
508	 0.13403556703314 
509	 0.134602551103682 
510	 0.135342316328474 
511	 0.135888233253329 
512	 0.136296406705901 
513	 0.137214385609378 
514	 0.138140528585629 
515	 0.138298049276401 
516	 0.138990790046774 
517	 0.139908770125152 
518	 0.140676022214821 
519	 0.141038133847022 
520	 0.141726790846628 
521	 0.142573095288333 
522	 0.143298938159232 
523	 0.14404142388597 
524	 0.144711126403832 
525	 0.145383898719709 
526	 0.146230834926213 
527	 0.147030399895921 
528	 0.147755950558401 
529	 0.148473347776063 
530	 0.149392313977085 
531	 0.150144930849375 
532	 0.150881381295224 
533	 0.151841012860816 
534	 0.152549563866991 
535	 0.153341621542442 
536	 0.154281892100569 
537	 0.155071688042832 
538	 0.155837163384733 
539	 0.156538479824813 
540	 0.157186146307805 
541	 0.158088537185547 
542	 0.158872201178119 
543	 0.159619316031236 
544	 0.160649666184963 
545	 0.161431058528859 
546	 0.162422888583666 
547	 0.163738298025134 
548	 0.164609977480786 
549	 0.165414426891841 
550	 0.166278460907722 
551	 0.167222004091177 
552	 0.168108843371211 
553	 0.168944847225361 
554	 0.169692676200229 
555	 0.170257900391655 
556	 0.171069895110186 
557	 0.172038276405421 
558	 0.172918047336314 
559	 0.17345008128692 
560	 0.174053825913975 
561	 0.174761509301649 
562	 0.175376505310839 
563	 0.176067361151442 
564	 0.176753172603466 
565	 0.177309652225923 
566	 0.177557141691161 
567	 0.177962021200872 
568	 0.178532395393148 
569	 0.179076582473509 
570	 0.1794654909748 
571	 0.179906618997605 
572	 0.18035939223813 
573	 0.180499719108763 
574	 0.180817467482349 
575	 0.181298263086036 
576	 0.181760293794983 
577	 0.181895151744027 
578	 0.182132510867163 
579	 0.182485854659411 
580	 0.182696225461036 
581	 0.18253192663887 
582	 0.182507416824286 
583	 0.182682070448763 
584	 0.182094937180024 
585	 0.181566634362302 
586	 0.180868603625585 
587	 0.179542272478813 
588	 0.178566886184859 
589	 0.177671032992284 
590	 0.176946975067542 
591	 0.176836995315362 
592	 0.177133115349698 
593	 0.177041723360208 
594	 0.176108164372738 
595	 0.175105422186673 
596	 0.174453280895938 
597	 0.174009538098963 
598	 0.1733568854202 
599	 0.172646464179723 
600	 0.172097062153865 
601	 0.171688798507942 
602	 0.170991382829462 
603	 0.17052306972706 
604	 0.1703536821995 
605	 0.170355078672441 
606	 0.1701956200551 
607	 0.170027236143654 
608	 0.169863940923184 
609	 0.169576114850133 
610	 0.169786376929794 
611	 0.169861277879142 
612	 0.169424491364584 
613	 0.169690664086113 
614	 0.169708820949836 
615	 0.169391571519843 
616	 0.169162104619086 
617	 0.16925188969679 
618	 0.169241046484369 
619	 0.169054837728753 
620	 0.169319807932377 
621	 0.169168005502999 
622	 0.168848921614053 
623	 0.168795202643049 
624	 0.168364104709248 
625	 0.168125456753422 
626	 0.167954021515559 
627	 0.167076173952493 
628	 0.167150134638621 
629	 0.167440185509956 
630	 0.167301810741548 
631	 0.167644063571235 
632	 0.167691077807972 
633	 0.167460772719767 
634	 0.167309089225646 
635	 0.166999358392108 
636	 0.167158820967808 
637	 0.167684263878955 
638	 0.167360596857935 
639	 0.167118878563137 
640	 0.167162518829332 
641	 0.167298363303921 
642	 0.16657953047878 
643	 0.166211370020862 
644	 0.166063827929675 
645	 0.16488996470016 
646	 0.164043093084145 
647	 0.163805776717432 
648	 0.163978848200963 
649	 0.163881988341752 
650	 0.16382569718431 
651	 0.163700595816243 
652	 0.163346647063771 
653	 0.163222007310823 
654	 0.162373064457685 
655	 0.160881876481664 
656	 0.160556844977999 
657	 0.160364015012531 
658	 0.159830871578208 
659	 0.158939295789247 
660	 0.158562972652549 
661	 0.158357384828364 
662	 0.158046697257305 
663	 0.157465425719794 
664	 0.157145318348581 
665	 0.157055696150854 
666	 0.156953677910957 
667	 0.156336711307479 
668	 0.155999820641175 
669	 0.156097102646507 
670	 0.156373901026059 
671	 0.155739549070207 
672	 0.155439271927236 
673	 0.155680284039653 
674	 0.155621639960146 
675	 0.155495885106861 
676	 0.155479430597807 
677	 0.155653508314522 
678	 0.155911201749279 
679	 0.15588832820484 
680	 0.155560695400899 
681	 0.155193079635169 
682	 0.155713408128869 
683	 0.155996601419534 
684	 0.155608199943812 
685	 0.155222416333424 
686	 0.154803567492546 
687	 0.154560403675076 
688	 0.154573671155973 
689	 0.154406481986461 
690	 0.153986659756629 
691	 0.153295412352539 
692	 0.152349501854237 
693	 0.151164772816325 
694	 0.150740546801137 
695	 0.151096029999354 
696	 0.150911386074154 
697	 0.149679351719339 
698	 0.147974972830392 
699	 0.146885651039588 
700	 0.146198675959013 
701	 0.145419831603084 
702	 0.144297626155107 
703	 0.142789641032079 
704	 0.141807828051184 
705	 0.140642269141049 
706	 0.138976799154051 
707	 0.137702252233165 
708	 0.136107956802073 
709	 0.134344285046207 
710	 0.132809531805482 
711	 0.131211838792704 
712	 0.128935700740004 
713	 0.126252293022723 
714	 0.12435564485699 
715	 0.1211957770986 
716	 0.116720007681838 
717	 0.112571919730777 
718	 0.109683524282264 
719	 0.107914168668537 
720	 0.106802168325551 
721	 0.105566663707633 
722	 0.103556525846954 
723	 0.100397207682693 
724	 0.097052561049772 
725	 9.50364309102958E-02 
726	 0.0926693847376 
727	 9.00788774714971E-02 
728	 8.77110279149101E-02 
729	 8.59088063733792E-02 
730	 8.33911925236077E-02 
731	 8.07336470931508E-02 
732	 7.87543481095759E-02 
733	 7.81881140556912E-02 
734	 7.70815673526124E-02 
735	 7.52073081448643E-02 
736	 7.46687901810012E-02 
737	 7.39850741202536E-02 
738	 7.33888879021408E-02 
739	 7.32328941121025E-02 
740	 7.32041416063819E-02 
741	 7.28810049832859E-02 
742	 7.26264974636786E-02 
743	 7.30105929554536E-02 
744	 0.073145386638154 
745	 7.28152916689599E-02 
746	 7.23477735611416E-02 
747	 7.26697010630895E-02 
748	 7.28648346491537E-02 
749	 7.27626095526506E-02 
750	 7.24931350072301E-02 
751	 7.25056528242606E-02 
752	 7.24349254703652E-02 
753	 7.22752627224569E-02 
754	 7.22058154175356E-02 
755	 7.21662143166736E-02 
756	 7.19615242315114E-02 
757	 7.16584635495061E-02 
758	 7.18016134612439E-02 
759	 7.14234800503379E-02 
760	 6.95031521967134E-02 
761	 6.79377748365833E-02 
762	 6.89555449345018E-02 
763	 6.95962321598623E-02 
764	 7.00545190878895E-02 
765	 7.10847442936305E-02 
766	 7.15620753957473E-02 
767	 0.07181122426444 
768	 7.20398299776427E-02 
769	 7.23564392232368E-02 
770	 7.26222140010954E-02 
771	 7.27263800198491E-02 
772	 7.26867626673978E-02 
773	 7.28206073281195E-02 
774	 7.30974128993215E-02 
775	 7.34453810340262E-02 
776	 7.37281119237077E-02 
777	 7.35765027538892E-02 
778	 7.36914133782584E-02 
779	 7.41459698906577E-02 
780	 7.43230336324873E-02 
781	 7.44263048199644E-02 
782	 7.46918656901218E-02 
783	 7.51099231446635E-02 
784	 7.50337933268949E-02 
785	 7.53549175246509E-02 
786	 7.58270561943037E-02 
787	 7.58699699128166E-02 
788	 7.58277039721856E-02 
789	 7.59326246762037E-02 
790	 7.64698249469284E-02 
791	 7.75817692766403E-02 
792	 7.81123623694041E-02 
793	 7.81111152641098E-02 
794	 0.077912473382289 
795	 7.80349131028967E-02 
796	 7.86425230996285E-02 
797	 7.94433106540376E-02 
798	 7.99982310007987E-02 
799	 7.96954652646056E-02 
800	 7.96592104303867E-02 
801	 8.03426698393049E-02 
802	 8.14673723090689E-02 
803	 8.14340191563714E-02 
804	 8.14888917621507E-02 
805	 8.18968211257789E-02 
806	 8.17228615980073E-02 
807	 8.18800151298826E-02 
808	 0.081229634063035 
809	 7.94538773595674E-02 
810	 8.00286101671187E-02 
811	 8.03589992757202E-02 
812	 0.07973254034583 
813	 7.84286473376318E-02 
814	 7.75539496149344E-02 
815	 7.68435803624044E-02 
816	 7.60180399652514E-02 
817	 7.51001883497557E-02 
818	 7.55161156163604E-02 
819	 7.58921628101484E-02 
820	 7.55625356794876E-02 
821	 7.46319707068017E-02 
822	 7.31194763005632E-02 
823	 7.13213115300034E-02 
824	 6.98531029072912E-02 
825	 6.96103343848484E-02 
826	 6.82242761721914E-02 
827	 6.68360115089151E-02 
828	 6.71937587838287E-02 
829	 6.46539753948589E-02 
830	 6.29696200579845E-02 
831	 6.27023154461695E-02 
832	 6.20536316980183E-02 
833	 6.12299718540164E-02 
834	 6.10953933678836E-02 
835	 6.14211084389863E-02 
836	 6.07276029566554E-02 
837	 6.06681029411868E-02 
838	 6.11296237183806E-02 
839	 0.061553218671309 
840	 6.13086734462984E-02 
841	 0.060198495867558 
842	 0.059478201881638 
843	 6.01653158897804E-02 
844	 5.98585189078551E-02 
845	 5.95521116630875E-02 
846	 5.98612937331594E-02 
847	 6.07980873005498E-02 
848	 6.00670289478032E-02 
849	 5.93497905964098E-02 
850	 5.93716356008231E-02 
851	 5.90122106309339E-02 
852	 5.85433481112652E-02 
853	 0.058718826604471 
854	 5.94461871602619E-02 
855	 5.87647323707947E-02 
856	 5.81790676836776E-02 
857	 5.81860536813812E-02 
858	 5.86588337763829E-02 
859	 5.84150246729828E-02 
860	 0.058327077974015 
861	 5.83604745455649E-02 
862	 0.058087318299591 
863	 5.76276540588611E-02 
864	 0.058165433131037 
865	 0.058862929759094 
866	 0.057496636783019 
867	 5.79322857116531E-02 
868	 0.057934586980427 
869	 5.70015331317952E-02 
870	 5.78121844992457E-02 
871	 5.71647742747645E-02 
872	 0.056281961936917 
873	 5.63691294848903E-02 
874	 5.63707332587109E-02 
875	 5.67622961165862E-02 
876	 5.66787213423485E-02 
877	 5.56696315373549E-02 
878	 0.05628165345405 
879	 0.055895667529833 
880	 5.52947773097339E-02 
881	 5.62096723609409E-02 
882	 5.54857376916064E-02 
883	 5.50572008784727E-02 
884	 5.56452099302653E-02 
885	 5.65485167180269E-02 
886	 5.53982279929142E-02 
887	 5.51205170324531E-02 
888	 5.58507656605489E-02 
889	 5.40935431954603E-02 
890	 5.37771552177727E-02 
891	 5.35710887536788E-02 
892	 5.25640413963353E-02 
893	 0.052955757929782 
894	 5.27570270522551E-02 
895	 0.051640774227135 
896	 5.02236042373265E-02 
897	 4.99592338576952E-02 
898	 5.26324510741066E-02 
899	 5.50259119839242E-02 
900	 5.38156444985047E-02 
901	 5.16566059985794E-02 
902	 5.13325716325737E-02 
903	 5.13245970235094E-02 
904	 4.99564647889953E-02 
905	 5.33781819876853E-02 
906	 5.16941873148784E-02 
907	 4.77660867678593E-02 
908	 5.30799522495162E-02 
909	 4.90291526049252E-02 
910	 4.85895336340222E-02 
911	 5.26797023727984E-02 
912	 0.049360854630036 
913	 4.81981666316247E-02 
914	 4.88859852640048E-02 
915	 4.99236493379572E-02 
916	 5.00522229869832E-02 
917	 4.77170431514086E-02 
918	 4.72151968504659E-02 
919	 4.89020647277491E-02 
920	 4.81335087645074E-02 
921	 4.82114168975241E-02 
922	 4.96514100790281E-02 
923	 5.01221743768768E-02 
924	 4.15017085765162E-02 
925	 4.41812092145365E-02 
926	 5.24470948603997E-02 
927	 5.17635745259165E-02 
928	 3.76440857963913E-02 
929	 4.90223850330944E-02 
930	 7.37117838232443E-02 
931	 5.68414779028667E-02 
932	 0.062200648163321 
933	 6.63843188897807E-02 
934	 5.85808249243174E-02 
935	 4.69250226895156E-02 
936	 4.14559017601882E-02 
937	 6.27152483068607E-02 
938	 7.51702166973848E-02 
939	 5.28546467695376E-02 
940	 5.10103413492018E-02 
941	 7.19452916636473E-02 
942	 6.49958775575038E-02 
943	-1.55094312877244E-02 
944	 0.010240274990961 
945	 2.97879529155856E-02 
946	 2.55308699833845E-02 
947	 4.49284423129339E-02 
948	 0.047361249521709 
949	 4.23505919314433E-02 
950	 3.72863639484984E-02 
951	 3.62512638279455E-02 
952	 0.056556041741442 
953	 6.21740027349204E-02 
954	 4.72566286073047E-02 
955	 3.30258977278813E-02 
956	 6.63027906221289E-02 
957	 3.94640929768585E-02 
958	-3.10821377408118E-03 
959	 4.69722308405501E-02 
960	 6.39492319767654E-02 
961	 4.82937536797451E-02 
962	 3.70699793008106E-02 
963	 0.062195000204666 
964	 4.93905315721461E-02 
965	 0.035045939972787 
966	 3.65461783973085E-02 
967	 4.91955240967513E-02 
968	 5.69687009123809E-02 
969	 5.50397942076252E-02 
970	 5.00313830684809E-02 
971	 5.37164605192879E-02 
972	 4.72384504436632E-02 
973	 0.046690739955707 
974	 5.20261133586151E-02 
975	 4.64216161156906E-02 
976	 4.65609782707083E-02 
977	 5.02850819040653E-02 
978	 4.97114088816466E-02 
979	 3.90598180907378E-02 
980	 4.17531523227155E-02 
981	 4.54048522527084E-02 
982	 4.67302658941446E-02 
983	 0.050811365220383 
984	 5.58245074833486E-02 
985	 5.27750856213287E-02 
986	 0.048342459607123 
987	 5.66194561217075E-02 
988	 6.13028004893611E-02 
989	 4.96162502764739E-02 
990	 3.76332405007146E-02 
991	 5.28516539900431E-02 
992	 5.49846315954081E-02 
993	 5.06071850966687E-02 
994	 5.05403563145328E-02 
995	 6.00352840970149E-02 
996	 0.050682309889007 
997	 4.73041464497775E-02 
998	 5.29651256377314E-02 
999	 5.51218406944448E-02 
1000	 5.36422337089259E-02 
1001	 5.83164459680921E-02 
1002	 5.99658342317602E-02 
1003	 6.03054681351578E-02 
1004	 0.057929241315769 
1005	 5.75860797973307E-02 
1006	 5.94212276658465E-02 
1007	 5.93559765685506E-02 
1008	 0.057101443983609 
1009	 5.69525461791559E-02 
1010	 5.68306362743236E-02 
1011	 5.59516919600145E-02 
1012	 5.83726348122255E-02 
1013	 5.87553118878112E-02 
1014	 5.85223101251645E-02 
1015	 5.70844418557421E-02 
1016	 0.056792235108136 
1017	 5.51866018598474E-02 
1018	 5.60698690549387E-02 
1019	 6.08270029222785E-02 
1020	 0.061209943569992 
1021	 6.15136967403955E-02 
1022	 5.94370849541139E-02 
1023	 5.40030037795522E-02 
1024	 4.96003327727135E-02 
1025	 0.050704617257444 
1026	 5.21217054703836E-02 
1027	 5.23975248224519E-02 
1028	 5.46862170088371E-02 
1029	 5.52122473681697E-02 
1030	 0.053623518363707 
1031	 0.05309627241873 
1032	 5.33020469786534E-02 
1033	 0.05257643012512 
1034	 5.04238439851218E-02 
1035	 4.95485050390823E-02 
1036	 4.87782746205514E-02 
1037	 4.89430273474493E-02 
1038	 4.95247156440472E-02 
1039	 5.18004214526305E-02 
1040	 5.34837856482757E-02 
1041	 5.36836059088878E-02 
1042	 5.38061092452637E-02 
1043	 5.29245933350068E-02 
1044	 5.25360096619052E-02 
1045	 5.17928564539333E-02 
1046	 5.19603899947748E-02 
1047	 5.24846859101443E-02 
1048	 5.28984518611566E-02 
1049	 5.40416622177622E-02 
1050	 5.45558911509792E-02 
1051	 5.47377747499098E-02 
1052	 5.48837529824878E-02 
1053	 5.54564123454318E-02 
1054	 5.50052618217702E-02 
1055	 5.39020534544606E-02 
1056	 5.26352280839147E-02 
1057	 5.09083410758239E-02 
1058	 4.75587417253635E-02 
1059	 4.67692487894465E-02 
1060	 4.66272517268724E-02 
1061	 4.70130398506983E-02 
1062	 4.89049571433847E-02 
1063	 5.04413587895439E-02 
1064	 5.26300882003325E-02 
1065	 5.38872082008449E-02 
1066	 5.58816510898364E-02 
1067	 5.62683274170743E-02 
1068	 5.46048494878616E-02 
1069	 5.39046445635097E-02 
1070	 5.36367875935335E-02 
1071	 5.21667731455945E-02 
1072	 5.02838071547616E-02 
1073	 4.71843411127331E-02 
1074	 4.71779058045281E-02 
1075	 4.71812202059389E-02 
1076	 4.86522705081087E-02 
1077	 5.38227020093478E-02 
1078	 5.60486792120434E-02 
1079	 0.058217295852834 
1080	 5.77666679755175E-02 
1081	 5.50632004982394E-02 
1082	 5.37650870461237E-02 
1083	 0.04991280670697 
1084	 4.86623792494491E-02 
1085	 4.95310489135692E-02 
1086	 5.00011813673577E-02 
1087	 0.052325816647456 
1088	 5.29044662216815E-02 
1089	 5.31137558709475E-02 
1090	 5.28309058297231E-02 
1091	 5.16628749209632E-02 
1092	 4.71725384111101E-02 
1093	 4.85573221762839E-02 
1094	 5.40450610657957E-02 
1095	 5.51327992749836E-02 
1096	 5.90357082387614E-02 
1097	 5.87586074819731E-02 
1098	 4.92801273206508E-02 
1099	 4.69228997932887E-02 
1100	 4.96229555422458E-02 
1101	 4.84487289143227E-02 
1102	 4.81485305889869E-02 
1103	 4.71072171335295E-02 
1104	 4.13760940359949E-02 
1105	 3.61173144205212E-02 
1106	 4.36678591164415E-02 
1107	 5.11319568939433E-02 
1108	 6.10654366037708E-02 
1109	 6.67652838414444E-02 
1110	 6.95222898516777E-02 
1111	 5.95718513276956E-02 
1112	 6.09966619878609E-02 
1113	 7.31415767929167E-02 
1114	 7.71119428611243E-02 
1115	 0.07053931078091 
1116	 7.27562574315616E-02 
1117	 7.96631317433085E-02 
1118	 7.44018203436489E-02 
1119	 8.05534888748079E-02 
1120	 9.18770951745772E-02 
1121	 0.110171132804481 
1122	-8.94665611740809E-03 
1123	-1.53321577378446E-02 
1124	 5.24277430347561E-02 
1125	-5.19659551182854E-02 
1126	-7.53653182442383E-02 
1127	 1.78939858019361E-02 
1128	 0.069160562757791 
1129	 9.83852941371313E-02 
1130	 0.175720737436872 
1131	 0.158211093935658 
1132	 4.14122853579421E-02 
1133	-3.47480735267272E-03 
1134	-1.62905570950892E-02 
1135	 1.15980644820489E-03 
1136	 3.25743021491059E-02 
1137	 6.01562867958583E-02 
1138	 0.117005283652276 
1139	 0.14505435483409 
1140	 0.100374467756652 
1141	 7.07045966089949E-02 
1142	 8.60786339439393E-02 
1143	 7.17815368096055E-02 
1144	 6.30327901120054E-02 
1145	 0.118356084530309 
1146	 0.131993123917895 
1147	 7.49104271465273E-02 
1148	 6.19083372906139E-02 
1149	 2.09214214057786E-02 
1150	 2.15450866671366E-02 
1151	 6.48887365350074E-02 
1152	 7.44114479566357E-02 
1153	 7.68505537659444E-02 
1154	 7.26761058962881E-02 
1155	 6.88967063179857E-02 
1156	 4.29932269941986E-02 
1157	 2.89280631694963E-02 
1158	 4.94129282575464E-02 
1159	 5.97894770914384E-02 
1160	 4.71083799993183E-02 
1161	 0.042721944715548 
1162	 4.90380816191364E-02 
1163	 4.89011870010106E-02 
1164	 4.69606935004261E-02 
1165	 5.34583244025868E-02 
1166	 4.81793021594331E-02 
1167	 3.99689391652571E-02 
1168	 0.04693405837779 
1169	 5.17834514989704E-02 
1170	 4.95644350438756E-02 
1171	 4.85716792508644E-02 
1172	 4.72385080381668E-02 
1173	 4.59644147265472E-02 
1174	 4.09871366248568E-02 
1175	 4.49434190405228E-02 
1176	 5.17630516910722E-02 
1177	 5.56072375035923E-02 
1178	 0.058330621858037 
1179	 5.64794047416689E-02 
1180	 5.05660343273461E-02 
1181	 4.55903587965462E-02 
1182	 4.74603576013465E-02 
1183	 0.053793483513696 
1184	 0.058088000413894 
1185	 5.80005052675817E-02 
1186	 5.34107138528959E-02 
1187	 5.08438706833853E-02 
1188	 5.03473935030834E-02 
1189	 5.17543897551186E-02 
1190	 5.60832818597525E-02 
1191	 5.40713661102468E-02 
1192	 5.28514659753904E-02 
1193	 4.88851227340211E-02 
1194	 5.06033133801749E-02 
1195	 4.93065051498817E-02 
1196	 4.80443575423442E-02 
1197	 5.00467030474462E-02 
1198	 4.68504914420127E-02 
1199	 4.63846826087718E-02 
1200	 5.14637272614096E-02 
1201	 4.57202241842567E-02 
1202	 3.92401322372739E-02 
1203	 4.50526919261079E-02 
1204	 4.67632982194191E-02 
1205	 4.23328929251596E-02 
1206	 0.046003187599907 
1207	 4.92874923694147E-02 
1208	 4.74368537702796E-02 
1209	 5.21318346153416E-02 
1210	 5.38028262900353E-02 
1211	 4.76771881870808E-02 
1212	 4.61325437118138E-02 
1213	 4.82008736088866E-02 
1214	 4.84263637695568E-02 
1215	 5.09834547815073E-02 
1216	 0.053068923349781 
1217	 5.19829515600547E-02 
1218	 4.82458174922583E-02 
1219	 4.79088369184511E-02 
1220	 5.06789288177804E-02 
1221	 0.051709975742364 
1222	 5.20567838157877E-02 
1223	 5.21796505638411E-02 
1224	 5.00145224187691E-02 
1225	 4.49860556305914E-02 
1226	 4.33629122256573E-02 
1227	 4.86251573255377E-02 
1228	 5.28603031381759E-02 
1229	 0.053754056815927 
1230	 5.54372730836236E-02 
1231	 5.30819552458937E-02 
1232	 4.84456465237964E-02 
1233	 4.93246931093891E-02 
1234	 5.17248522503952E-02 
1235	 5.26861191425644E-02 
1236	 5.42076285835946E-02 
1237	 5.44288674497434E-02 
1238	 5.39028263020861E-02 
1239	 5.19922057629382E-02 
1240	 0.049666402729928 
1241	 4.85179802553721E-02 
1242	 4.73663313883249E-02 
1243	 4.72876260767937E-02 
1244	 4.93724346450562E-02 
1245	 5.04858398564284E-02 
1246	 5.19623502573337E-02 
1247	 5.40781934925896E-02 
1248	 5.44625147117659E-02 
1249	 5.53036829982703E-02 
1250	 5.38961478917932E-02 
1251	 5.01045722942067E-02 
1252	 4.95636305216455E-02 
1253	 5.03982723527103E-02 
1254	 5.15418811984719E-02 
1255	 5.21168520445141E-02 
1256	 5.20259843160093E-02 
1257	 4.94297049465409E-02 
1258	 4.84662516875809E-02 
1259	 4.74522328996702E-02 
1260	 4.81022640976032E-02 
1261	 5.10387510048781E-02 
1262	 5.10604996811903E-02 
1263	 5.05498326405424E-02 
1264	 5.00472530166325E-02 
1265	 4.85082171099875E-02 
1266	 4.73376683250036E-02 
1267	 5.00348057397158E-02 
1268	 5.59512005982307E-02 
1269	 5.80416026050526E-02 
1270	 5.45490472738471E-02 
1271	 5.35367592463262E-02 
1272	 5.54160318010465E-02 
1273	 5.26170533554392E-02 
1274	 5.16078855586527E-02 
1275	 5.28932976165794E-02 
1276	 4.91320912408369E-02 
1277	 4.98484538570292E-02 
1278	 0.054798834600263 
1279	 5.38594314981691E-02 
1280	 5.08647214178781E-02 
1281	 5.00090867293519E-02 
1282	 4.94210279213679E-02 
1283	 4.95717805749986E-02 
1284	 5.20264304319613E-02 
1285	 5.18777227959591E-02 
1286	 4.99203846221387E-02 
1287	 4.99347470130555E-02 
1288	 4.98286568055945E-02 
1289	 4.96914275754253E-02 
1290	 5.05717882864764E-02 
1291	 5.27059055544414E-02 
1292	 5.22428629975539E-02 
1293	 5.12211195978356E-02 
1294	 5.18842648786999E-02 
1295	 4.82575110612334E-02 
1296	 4.73282274505929E-02 
1297	 4.96910285139213E-02 
1298	 0.048053207982983 
1299	 5.03114220741616E-02 
1300	 0.056642485661307 
1301	 5.67686975852717E-02 
1302	 5.37897301471738E-02 
1303	 5.53337904591925E-02 
1304	 5.55980380878333E-02 
1305	 5.04495704267451E-02 
1306	 4.91767343817082E-02 
1307	 5.53152529687377E-02 
1308	 5.71605878675388E-02 
1309	 5.63916131290883E-02 
1310	 5.56250656084052E-02 
1311	 5.31949306500094E-02 
1312	 5.38092829231089E-02 
1313	 5.40236877115914E-02 
1314	 5.47648866031493E-02 
1315	 0.062572156994315 
1316	 6.50529007175922E-02 
1317	 0.061131599233331 
1318	 5.89699925218817E-02 
1319	 5.33731914147959E-02 
1320	 5.49999159154944E-02 
1321	 0.064918853615088 
1322	 0.067571168494519 
1323	 6.51940854185891E-02 
1324	 6.03832815803719E-02 
1325	 0.054471888619398 
1326	 5.57526262091236E-02 
1327	 4.79844504895233E-02 
1328	 4.89395941476041E-02 
1329	 7.48833994320317E-02 
1330	 6.25127112488131E-02 
1331	 3.44261358700965E-02 
1332	 5.98943782780356E-02 
1333	 7.55356187892123E-02 
1334	 6.40729084259597E-02 
1335	 0.051217772464725 
1336	 0.066210028068632 
1337	 7.45983449960144E-02 
1338	 3.29185335752608E-02 
1339	 2.33371934505218E-02 
1340	 5.85331634350468E-02 
1341	 0.12018887931529 
1342	 0.231278327432371 
1343	 0.25932795362274 
1344	 0.285566520254338 
1345	 0.315886827141264 
1346	 0.215611085830371 
1347	 0.140662238777877 
1348	 0.14648230783042 
1349	 0.14154657820787 
1350	-0.148327778696969 
1351	-0.266428023900461 
1352	 0.443968685456806 
1353	 0.631581285115239 
1354	 0.588755873582246 
1355	 0.575790244501541 
1356	-0.867438625598151 
1357	-1.012650243186 
1358	 0.48184746749927 
1359	-5.60894425960511 
1360	 2.44945025396862 
1361	 0.365758697432563 
1362	 1.12819692677839 
1363	 2.77696264814586 
1364	 0.31077702938263 
1365	 0.219311063027295 
1366	 0.204476982378542 
1367	 0.551681485780847 
1368	 1.91325006330636 
1369	-0.35033991216938 
1370	-0.721649401588247 
1371	-1.76193611566617 
1372	-5.11684593406712 
1373	 12.0446834168115 
1374	 93.3165767888277 
1375	-2.84120664483533 
1376	-13.8692632170511 
1377	 3.81430585175354 
1378	 4.89532230130394 
1379	 1.37413714708295 
1380	 1.13309011848266 
1381	 6.96551693084067 
1382	 8.21965306624153 
1383	 1.48416313589655 
1384	 1.23929076087405 
1385	 0.875674406046363 
1386	 0.779156366105024 
1387	 3.82071982122157 
1388	 7.92347899119947 
1389	 0.836526575543494 
1390	 0.792402342152881 
1391	 1.39977399442925 
1392	 0.933403522643408 
1393	 0.308811090185396 
1394	-1.72866877983305 
1395	-0.799312080926892 
1396	-0.941072319493535 
1397	-2.5220185470059 
1398	-1.42472802430637 
1399	-0.458656762766587 
1400	-0.375668805913662 
1401	-7.08612021458471E-02 
1402	 0.824097185908325 
1403	 0.434854965705504 
1404	-0.131864609153924 
1405	 0.529803023659683 
1406	-0.180122291117156 
1407	 0.413413584417876 
1408	 2.2496276783997 
1409	 2.27383232297219 
1410	-4.09566719318666E-02 
1411	-0.063120911679963 
1412	 1.93839754346423 
1413	 5.71994908293246 
1414	-2.57011857028478 
1415	-4.74977809914539 
1416	 1.64937232185247 
1417	 1.17415834224086 
1418	 0.708590638757652 
1419	 0.622329332164 
1420	 1.14088750302197 
1421	 1.62746477956054 
1422	 1.95723807976247 
1423	 3.2649858617845 
1424	-3.56224133568271 
1425	-2.18910770973247 
1426	 7.67059815792273 
1427	 1.87502811643338 
1428	 1.50667933153158 
1429	 0.826637362568047 
1430	-0.432597978286737 
1431	-0.551638678212977 
1432	-1.84147546901435 
1433	-2.52116725768824 
1434	-0.455079424819113 
1435	 1.44514828861457E-02 
1436	 2.9846960332056 
1437	 2.09905880268745 
1438	-0.333389959263873 
1439	-0.133658433750687 
1440	 19.0832777299069 
1441	-66.6261470841643 
1442	 2.34454931623977 
1443	 2.49292785634578 
1444	 2.54350641558774 
1445	 1.41514484515094 
1446	 2.21673738882583 
1447	 7.45942786160572 
1448	 5.98056571970187 
1449	 6.44662674731901 
1450	-8.23827768339471 
1451	-3.79000650719188 
1452	 34.0109291196925 
1453	 3.16782122494326 
1454	 2.44944938376865 
1455	 361.337405504541 
1456	 4.84470544138755 
1457	 0.842146981883776 
1458	 0.483433206118249 
1459	 0.828937312746602 
1460	 0.681582095277352 
1461	 0.363753290405226 
1462	 0.249332925125947 
1463	 0.13685708922027 
1464	 0.338159686921207 
1465	 0.538108783307613 
1466	 0.721036805725841 
1467	 0.265677715679212 
1468	 0.461137596201015 
1469	-1.71518277569751 
1470	-0.958215647279432 
1471	 18.7548831648134 
1472	 6.73709808054761 
1473	-65.4974107340092 
1474	 2.0016984441092 
1475	 1.2118874929893 
1476	 1.00250647858327 
1477	 0.691543216254469 
1478	 0.760470424299086 
1479	 1.17812495584473 
1480	-43.5337012251456 
1481	 124.506330111719 
1482	-27.83690064474 
1483	-17.2895967333675 
1484	 38.3150410708932 
1485	 4.60420994095246 
1486	 2.56685351108819 
1487	 1.09498102693902 
1488	 0.789664171876797 
1489	 0.371648254956894 
1490	 0.222482992001437 
1491	 0.432441107874771 
1492	 0.414664379881609 
1493	 0.516490141250104 
1494	 0.533688568708691 
1495	 0.491577577964919 
1496	 0.436299317545035 
1497	 0.41067947993465 
1498	 0.412878047188845 
1499	 0.508097140595989 
1500	 0.409995002878618 
1501	 0.112542156009135 
1502	 9.38472446152437E-02 
1503	 0.182486912890939 
1504	 0.141874807258112 
1505	 0.159940979217593 
1506	 0.278437487487722 
1507	 0.196551142561149 
1508	 0.142854713523979 
1509	 0.186966839110142 
1510	 0.170885385605766 
1511	 0.121585253467885 
1512	 0.107396341693147 
1513	 0.138950753619355 
1514	 0.160556925238827 
1515	 0.178137109846568 
1516	 0.20528146646121 
1517	 0.166632407458083 
1518	 0.12975376036373 
1519	 0.132602793997041 
1520	 0.138208889870012 
1521	 0.149958320331426 
1522	 0.134075752964669 
1523	 0.135322585450784 
1524	 0.138035376374989 
1525	 0.104781048887572 
1526	 0.104107775763287 
1527	 0.116358245826457 
1528	 7.86461577404456E-02 
1529	 6.88339833066217E-02 
1530	 9.69410102730689E-02 
1531	 0.133571605665748 
1532	 0.143069821225079 
1533	 8.71873448018452E-02 
1534	 5.74570394671118E-02 
1535	 6.20169312433964E-02 
1536	 4.39763867211748E-02 
1537	 5.61801118825704E-02 
1538	 8.73144413531739E-02 
1539	 8.33484955245696E-02 
1540	 6.08295459522294E-02 
1541	 6.53445505872321E-02 
1542	 9.14438374296906E-02 
1543	 9.02911404661092E-02 
1544	 9.91792755543519E-02 
1545	 0.100347572663809 
1546	 6.27945127626034E-02 
1547	 4.75894433149888E-02 
1548	 5.47369854881927E-02 
1549	 5.83914006695028E-02 
1550	 6.71674763021058E-02 
1551	 5.88115793323243E-02 
1552	 3.53167866661982E-02 
1553	 5.80080420013728E-02 
1554	 9.46405907486691E-02 
1555	 9.68458598780273E-02 
1556	 0.116167753862415 
1557	 0.111887475498969 
1558	 8.30976368190724E-02 
1559	 9.33423118641556E-02 
1560	 7.68577288133761E-02 
1561	 0.048022605103547 
1562	 5.13974917096187E-02 
1563	 4.72626187055491E-02 
1564	 3.99946813750784E-02 
1565	 3.34298369891978E-02 
1566	 4.47364194511375E-02 
1567	 4.92989380071997E-02 
1568	 2.10472604558123E-02 
1569	 2.91814449079785E-02 
1570	 4.66925109385272E-02 
1571	 3.79288938383948E-02 
1572	 5.49952784492022E-02 
1573	 7.65730454118028E-02 
1574	 6.33006131104287E-02 
1575	 3.10572734987217E-02 
1576	 3.22798873179827E-02 
1577	 4.75559912198915E-02 
1578	 4.00892966911572E-02 
1579	 5.41054317692403E-02 
1580	 7.83728142474656E-02 
1581	 9.05403354094467E-02 
1582	 8.70865626137701E-02 
1583	 5.58378528211391E-02 
1584	 0.041036198821107 
1585	 5.97692318629865E-02 
1586	 5.94831909932419E-02 
1587	 5.76133502037754E-02 
1588	 6.40109689897636E-02 
1589	 5.07357686450869E-02 
1590	 4.64619878850102E-02 
1591	 5.04971796952281E-02 
1592	 4.84870117888499E-02 
1593	 6.03357105663327E-02 
1594	 6.01078079965801E-02 
1595	 5.17099740339389E-02 
1596	 0.07657533407265 
1597	 7.62613193834937E-02 
1598	 0.041254122928539 
1599	 4.35021526576548E-02 
1600	 5.62231130057149E-02 
1601	 4.81433595307598E-02 
1602	 4.23944399801991E-02 
1603	 5.67242368911744E-02 
1604	 7.04703103823624E-02 
1605	 5.83121592017794E-02 
1606	 5.24973411468255E-02 
1607	 5.83634575808266E-02 
1608	 4.70944371247211E-02 
1609	 0.037208907003757 
1610	 5.14027945937612E-02 
1611	 5.92640017076508E-02 
1612	 5.25685706609541E-02 
1613	 4.81564057465921E-02 
1614	 4.83929137932196E-02 
1615	 4.76446426000698E-02 
1616	 4.01706271154947E-02 
1617	 4.38169180695834E-02 
1618	 5.40163929521703E-02 
1619	 5.62734328150662E-02 
1620	 5.69557170017732E-02 
1621	 0.062185644082951 
1622	 0.074116550867912 
1623	 8.02277128256247E-02 
1624	 6.37776019358047E-02 
1625	 4.45787002868419E-02 
1626	 4.85736353872162E-02 
1627	 4.51832585371542E-02 
1628	 3.81942454174522E-02 
1629	 5.80495435220448E-02 
1630	 7.33622559347323E-02 
1631	 7.42239236433799E-02 
1632	 8.03030842515988E-02 
1633	 8.45348956493543E-02 
1634	 7.24563354976983E-02 
1635	 6.09600920127861E-02 
1636	 6.73136246517238E-02 
1637	 7.33656681328479E-02 
1638	 5.77138692760362E-02 
1639	 3.66794773255278E-02 
1640	 3.43641996541539E-02 
1641	 3.60596373137899E-02 
1642	 0.038296275588595 
1643	 5.18028405558982E-02 
1644	 4.63518878497409E-02 
1645	 2.75299680120673E-02 
1646	 3.76361123791366E-02 
1647	 6.17280464921471E-02 
1648	 7.88152666915613E-02 
1649	 8.36395623025703E-02 
1650	 7.28158892616814E-02 
1651	 5.50447287679689E-02 
1652	 5.18234308107714E-02 
1653	 5.73204694834046E-02 
1654	 5.51155168730935E-02 
1655	 4.94952908913367E-02 
1656	 4.49470356440777E-02 
1657	 0.037280765948495 
1658	 4.01770756862077E-02 
1659	 4.59905807984397E-02 
1660	 4.85273839388174E-02 
1661	 6.68323568833442E-02 
1662	 6.66307703008543E-02 
1663	 4.12110166153775E-02 
1664	 4.15382107293986E-02 
1665	 0.053142722829453 
1666	 5.32998272590799E-02 
1667	 6.29890924198624E-02 
1668	 6.45630789753206E-02 
1669	 5.83840375309124E-02 
1670	 5.82534439585389E-02 
1671	 5.07327264506856E-02 
1672	 0.041781070509551 
1673	 3.44655739350513E-02 
1674	 2.36209052136605E-02 
1675	 4.00683595270285E-02 
1676	 6.72806116665883E-02 
1677	 0.068674701681473 
1678	 6.05576405134599E-02 
1679	 5.19438839820466E-02 
1680	 3.21582276806275E-02 
1681	 2.01228574268375E-02 
1682	 4.25725706016201E-02 
1683	 6.44959251711102E-02 
1684	 5.81157962631244E-02 
1685	 5.46787801156192E-02 
1686	 5.23107115857117E-02 
1687	 4.33733108102033E-02 
1688	 4.20580818533117E-02 
1689	 4.02022676477517E-02 
1690	 0.031725036488018 
1691	 2.97976043399117E-02 
1692	 4.77213674783246E-02 
1693	 0.055733536634595 
1694	 4.34720415186761E-02 
1695	 2.56290076980636E-02 
1696	 8.9435135416735E-03 
1697	 0.023549167498847 
1698	 5.46477075203229E-02 
1699	 6.26539464116926E-02 
1700	 6.26078458282234E-02 
1701	 6.09455803049243E-02 
1702	 4.38878211603127E-02 
1703	 4.08807243541618E-02 
1704	 6.34704996047261E-02 
1705	 7.65002742506352E-02 
1706	 6.96111023394549E-02 
1707	 6.58243935264339E-02 
1708	 6.37604642058136E-02 
1709	 5.23039458438669E-02 
1710	 0.052491237211716 
1711	 0.070847422707552 
1712	 6.90659501658589E-02 
1713	 3.83102335576819E-02 
1714	 4.05635663919004E-02 
1715	 5.51584589804866E-02 
1716	 5.49871513948669E-02 
1717	 7.79461680054884E-02 
1718	 6.66960176013498E-02 
1719	 3.25632235101478E-02 
1720	 3.68034223950568E-02 
1721	 3.77081933384407E-02 
1722	 4.01828983825794E-02 
1723	 7.79838566730428E-02 
1724	 6.07270788207019E-02 
1725	 2.36875529516741E-02 
1726	 4.80006484377908E-02 
1727	 3.41116996396808E-02 
1728	 5.11057186008717E-03 
1729	 3.91249076501505E-02 
1730	 0.059549809987895 
1731	 4.23617264117108E-02 
1732	 5.72021742341652E-02 
1733	 8.46206087602533E-02 
1734	 6.42104404926522E-02 
1735	 6.95352376080624E-02 
1736	 9.61008208286834E-02 
1737	 7.76095563063168E-02 
1738	 0.056124896703909 
1739	 3.53142426773116E-02 
1740	 4.00523305457037E-02 
1741	 6.78612072918871E-02 
1742	 6.42232764938644E-02 
1743	 7.59331085139049E-02 
1744	 9.67051466319692E-02 
1745	 8.01099699254244E-02 
1746	 8.87406494302889E-02 
1747	 9.44102504178555E-02 
1748	 7.74995540836438E-02 
1749	 8.52133065261174E-02 
1750	 0.136134341640351 
1751	 0.131215585270495 
1752	 0.103772652982331 
1753	 8.39176239944855E-02 
1754	 4.34411228060315E-03 
1755	-8.25696527702826E-03 
1756	 0.028155306748441 
1757	 4.17572757962838E-02 
1758	 8.58984538655686E-02 
1759	 6.71956075184024E-02 
1760	 5.04076889963836E-02 
1761	 8.91738860908909E-02 
1762	 0.087537142265575 
1763	 4.15438234054265E-02 
1764	 4.86260154989094E-02 
1765	 0.041884417700126 
1766	-1.60011544650843E-02 
1767	 2.05129879546129E-02 
1768	 9.61612952625376E-02 
1769	 8.14407006475616E-02 
1770	 7.47072581691118E-02 
1771	 9.31877328743558E-02 
1772	 4.20230762107274E-02 
1773	 6.37456461627555E-02 
1774	 0.222962662898166 
1775	 0.246049804965774 
1776	 0.239101138648987 
1777	 0.120149731226811 
1778	 9.10846373483197E-02 
1779	 6.83530189222644E-02 
1780	 6.06308595823831E-02 
1781	 0.20363260657135 
1782	 0.25526943990387 
1783	 0.259168224041643 
1784	 0.260917458416161 
1785	 0.209287904074636 
1786	 0.175817476102984 
1787	 4.67195793708639E-02 
1788	 6.26833192269491E-02 
1789	 0.20559055178101 
1790	 5.13166297597224E-02 
1791	 9.43107109324933E-02 
1792	 0.170224691184521 
1793	 0.415584514333012 
1794	 1.26745829186489 
1795	 1.27732306156787 
1796	 0.349929671985824 
1797	-5.43470543735305E-02 
1798	 0.435116267802297 
1799	 5.92164209840859 
1800	 2.12651010334412 
1801	 1.64503678828047 
1802	 0.435390442049759 
1803	 0.327418233003922 
1804	 0.483892055108902 
1805	 1.52980246034919 
1806	 15.714078146392 
1807	 204.486209310164 
1808	 2.00829458781203 
1809	 2.44826819123745 
1810	 0.327506556843706 
1811	 0.356727524563207 
1812	-0.277946526694774 
1813	-0.622692801885127 
1814	 1.89727798045677 
1815	 1.25262116642323 
1816	 0.565493063014226 
1817	 0.628333008275676 
1818	 1.06990142481582 
1819	 0.395158826375474 
1820	 15.5521538335814 
1821	-4.46495272114482 
1822	-3.19136967464771 
1823	 0.847376546342829 
1824	 2.40471795028531 
1825	-2.59904134141679 
1826	-2.22394892714722 
1827	-1.01250874418562 
1828	-0.996488814394352 
1829	 0.389853013682629 
1830	 0.33755403616834 
1831	-2.4403733584437 
1832	-5.48123782920345 
1833	 2.11868495536599 
1834	 1.14132489611527 
1835	-3.09220289151466 
1836	-50.2811118427208 
1837	 1.87084340926391 
1838	 1.62991925642591 
1839	 0.99949802148084 
1840	-13.0288799475791 
1841	 0.276218600769608 
1842	 1.21095563312242 
1843	 1.2407847584711 
1844	 3.69368559468462 
1845	 3.76158969169986 
1846	-0.635024284916743 
1847	-1.16578520246587 
1848	-4.58095080229281 
1849	-16.6161086102642 
1850	-0.735377006426099 
1851	-2.4448011794288 
1852	 1.47019263843323 
1853	 0.775285615116902 
1854	 0.650992961268557 
1855	 0.179546903963759 
1856	 0.107063413710603 
1857	 0.194631100542501 
1858	 0.169150592454643 
1859	-4.88522909044356E-02 
1860	 9.79636998581087E-02 
1861	 0.208714753473272 
1862	 0.255424637736135 
1863	 0.38964787096418 
1864	 0.224339647621693 
1865	 0.049451622134492 
1866	-0.397927739953282 
1867	-0.755454061792418 
1868	-4.69613521819249 
1869	 7.52835953934479 
1870	 1.47587935664062 
1871	 0.877709786424453 
1872	 0.512521503045231 
1873	 0.526368908193582 
1874	-0.497941971073216 
1875	-0.158958743480626 
1876	-1.70853178388124E-02 
1877	 0.133420004014549 
1878	 0.267391205523913 
1879	 0.442642916862592 
1880	 0.304582235062201 
1881	 4.13222448243235E-02 
1882	-0.560623805710667 
1883	-2.83330422635154 
1884	 2.4221325224795 
1885	 1.58250647721979 
1886	 1.84952937072748 
1887	-1.40717677470067 
1888	-2.82557181666924E-02 
1889	 8.49845612362297E-02 
1890	-2.27466064024863E-02 
1891	-1.90438575590659E-03 
1892	 0.102598373684508 
1893	 9.18294796829459E-02 
1894	-0.735689610421507 
1895	 0.125699679196936 
1896	-5.74285345752068E-02 
1897	-4.91837984807639E-02 
1898	-0.12021496362957 
1899	-0.289258974740979 
1900	-0.316870714111232 
1901	-0.173860506607989 
1902	-0.087598746823664 
1903	 0.134267394984389 
1904	 0.410174754744995 
1905	-0.648415005058847 
1906	 2.41221077645135 
1907	 0.65422085084888 
1908	 0.791477533892757 
1909	 0.659750935665066 
1910	 1.02222109360021 
1911	 1.73406309464425 
1912	 0.240791348111317 
1913	 0.610289397000328 
1914	 1.29834624153524 
1915	 1.73670561748726 
1916	 2.00193575617693 
1917	 1.61288956669447 
1918	 6.70266929220703 
1919	 19.8177173877636 
1920	 0.562255581183542 
1921	-0.35783032469115 
1922	 0.110948153936878 
1923	 8.50357240481917E-02 
1924	 0.156174294029613 
1925	 0.154538255936992 
1926	 0.261132334766253 
1927	 0.187239469068118 
1928	 0.262243573651511 
1929	 1.90305762697101 
1930	 12.0044111395294 
1931	 1.51415425491593 
1932	 1.10348605223794 
1933	 0.736543006387008 
1934	-0.194016094102281 
1935	 1.44426039100902 
1936	 0.492028201334069 
1937	 0.845791603552435 
1938	 1.3076791660176 
1939	 1.49977148739156 
1940	 2.19730135995939 
1941	 1.83401973030503 
1942	 1.28175509499339 
1943	 0.740635162980452 
1944	 8.87618187125651E-02 
1945	 8.70148296281526E-02 
1946	 3.82983660623653E-02 
1947	-0.564406622736313 
1948	-0.372167407664842 
1949	-0.575710142014866 
1950	-1.30451106993973 
1951	 0.853535787647112 
1952	-0.232224866377805 
1953	-1.00560416312908 
1954	-0.961211280836353 
1955	-0.906443356184995 
1956	-1.42953885366275 
1957	-0.354552082113124 
1958	-0.134229229708502 
1959	 3.532422351821 
1960	 0.895088115197006 
1961	-0.499536072662993 
1962	-0.64588040605206 
1963	-1.42750204452589 
1964	-4.01376087714618 
1965	-1.74794449417091 
1966	-0.888196977635097 
1967	 4.6459446803358 
1968	 0.57481898742908 
1969	-0.278669153779557 
1970	-1.46078784244908 
1971	-3.15668106211151 
1972	-1.80203490029341 
1973	-0.901622445309893 
1974	-1.7487977331191 
1975	-4.2830184996096 
1976	-0.836407058299501 
1977	-2.82061852445933 
1978	-0.973929444463513 
1979	-9.89530447607742E-02 
1980	 0.668796472814147 
1981	 13.0974641283259 
1982	 2.01341181666546 
1983	 0.600398592639212 
1984	 0.254072950552842 
1985	-0.165567506068206 
1986	-0.729703005451438 
1987	-0.800190155723959 
1988	-0.529771061022941 
1989	-0.779548930443637 
1990	-0.334753523055922 
1991	 0.121206738795411 
1992	 0.153000261086871 
1993	 0.211004731417942 
1994	 0.252000264313613 
1995	 0.440444102370221 
1996	 2.19866394171998E-03 
1997	 71.5232671517741 
1998	 1.96366288043575 
1999	 1.08220326392959 
2000	 0.884850940721262 
2001	 0.586137527648735 
2002	 0.687783055592215 
2003	 1.21535373315963 
2004	 2.75387669912156 
2005	 47.3780324017405 
2006	-121.731640657737 
2007	-9.40980516858374 
2008	-88.375116683317 
2009	 32.8240545292227 
2010	 4.60571378700462 
2011	 3.83510630317709 
2012	 1.68094082554905 
2013	-0.828087710977957 
2014	-1.04014520754126E-02 
2015	 0.433472297615609 
2016	 0.560340267343739 
2017	 0.345570663007168 
2018	-4.48623699818442E-02 
2019	-0.629034522334098 
2020	-3.9221574246779 
2021	 2.54881190000539 
2022	-3.56993917815974 
2023	-0.163950729589438 
2024	 2.46284626136254E-02 
2025	-0.099172147999844 
2026	-3.76206263566858E-02 
2027	 0.716284216381701 
2028	-0.473363347379698 
2029	-0.33704634670454 
2030	-0.889746723132377 
2031	-142.707906284133 
2032	 1.99134461794596 
2033	 0.694781556942728 
2034	 0.223923261467721 
2035	-0.64228131413007 
2036	-6.37714779825452 
2037	-5.25479312305223 
2038	-3.19620271094649 
2039	-3.08201090373539 
2040	-3.11269079126429 
2041	-2.4620022073527 
2042	-2.46497145281102 
2043	-1.66767432626206 
2044	-0.708308654738676 
2045	-0.622404504700159 
2046	-0.440004776795053 
2047	 5.23180565711029E-02 
2048	-0.288219001121859 
2049	 0.174318228254471 
2050	 0.661555982180357 
2051	-12.8651948246082 
2052	-0.842294232913093 
2053	-0.11659524249404 
2054	-0.128137247494506 
2055	 0.287279420678139 
2056	 0.262555032657547 
2057	-0.317762716769751 
2058	-0.586464139660982 
2059	-0.503876637657235 
2060	-0.841514757643828 
2061	-1.15396937982166 
2062	-0.928853768391403 
2063	-1.5781299018323 
2064	-2.64347613368947 
2065	-2.02400297482412 
2066	-1.20246685138945 
2067	-0.674915004243793 
2068	 4.51040481719837E-02 
2069	 0.393359490449604 
2070	 0.396451404606806 
2071	-4.61200562668808E-02 
2072	-0.437826764920955 
2073	-0.66428142168907 
2074	-2.07811797496834 
2075	-2.06317216935058 
2076	-0.379409662828913 
2077	 7.23817620342895E-02 
2078	 0.218842677811803 
2079	 0.329431641256489 
2080	 0.503120949247333 
2081	 0.797024650130175 
2082	 3.06463288329443 
2083	 49.4767761009544 
2084	 1.21401863591427 
2085	 0.352189239523872 
2086	 0.235688315349983 
2087	 0.221227533002524 
2088	 0.316760835219668 
2089	-4.53155720315283 
2090	 0.345996825982105 
2091	 1.64896788620285 
2092	 2.29439050877876 
2093	-1.48109466548255 
2094	-0.234339731599969 
2095	 0.128271449036547 
2096	 0.094067624679931 
2097	-0.346711684372732 
2098	-0.366916846686727 
2099	-0.172358516573996 
2100	-0.680428197223188 
2101	-0.365283259514767 
2102	 0.474027719399807 
2103	 0.893801095816209 
2104	 0.697698203736075 
2105	 0.571392081711195 
2106	 0.442543437805601 
2107	 0.10627811309271 
2108	-0.122299065979377 
2109	 2.49615824454107E-03 
2110	-0.121086400351023 
2111	-0.161397240933342 
2112	-0.243081032197365 
2113	-0.17387907917248 
2114	-7.67968268686296E-02 
2115	 4.80534033869765E-02 
2116	 0.216235275515973 
2117	 0.28922348775298 
2118	 0.313091790603542 
2119	 0.348109607421978 
2120	 0.443750386039499 
2121	 0.439537000026579 
2122	 0.20689434731114 
2123	 0.220083352127856 
2124	 6.44296259342954E-02 
2125	-0.126278797099661 
2126	-2.70558988343881E-02 
2127	 3.88336870657296E-03 
2128	 3.16243861682113E-02 
2129	 1.88300281516629E-02 
2130	-2.22054296910766E-02 
2131	 1.88247586783364E-02 
2132	-1.64629534976679E-02 
2133	 1.03939724862233E-02 
2134	 1.86493727530566E-02 
2135	-1.62550334312664E-02 
2136	 2.64813925623396E-03 
2137	 7.73587510418693E-02 
2138	 0.103144041469687 
2139	 0.178380942510269 
2140	 0.151829167888207 
2141	-2.40050379769456E-02 
2142	-8.54143115449234E-02 
2143	-0.142383207719243 
2144	-0.205263363028025 
2145	-0.232038540516171 
2146	-0.330813144127247 
2147	-0.332593352221669 
2148	-0.298388735235026 
2149	-0.308240119281745 
2150	-0.147842945101243 
2151	-0.023304821827691 
2152	-2.36714707623882E-02 
2153	 0.125731494685007 
2154	 0.199487285156805 
2155	 0.189883261604517 
2156	 0.203052582613238 
2157	 0.206192811116376 
2158	 0.214304608135631 
2159	 0.158426028540943 
2160	 8.65744164041006E-02 
2161	 6.29260747056009E-02 
2162	-5.37732616204657E-02 
2163	-4.31895073003645E-02 
2164	 8.59603122646076E-02 
2165	 0.079609767688474 
2166	 5.92618323970477E-02 
2167	 4.24929117027674E-02 
2168	-0.023954791984451 
2169	-4.42256282011563E-02 
2170	-4.43421529174223E-02 
2171	-5.70969624984069E-02 
2172	 1.57144054444942E-02 
2173	-3.18454276858505E-02 
2174	-0.225246943991576 
2175	-0.296424539824921 
2176	-0.143365948821904 
2177	-7.12400138431767E-02 
2178	 1.13067596608021E-02 
2179	 0.109981181070612 
2180	-0.075469982068185 
2181	-0.368757030770193 
2182	-0.468560480535762 
2183	-0.469815346013597 
2184	-0.302676858916866 
2185	-0.203120506775893 
2186	-0.159681093129016 
2187	-0.132734684044435 
2188	-0.114252683414929 
2189	-0.106567840112506 
2190	-0.11754755844445 
2191	-0.127847283108 
2192	-0.163931044000736 
2193	-0.298052978340386 
2194	-0.349143580670032 
2195	-0.363587625332969 
2196	-0.353189728658815 
2197	-0.281654741181926 
2198	-0.249212381622267 
2199	-0.227223655053968 
2200	-0.125672141263715 
2201	-0.135298986503366 
2202	-0.020227646642508 
2203	 0.198367825486831 
2204	 0.283411897844557 
2205	 0.266104558567647 
2206	 0.205897711030769 
2207	 2.52432466041652E-02 
2208	-2.71465521186307E-02 
2209	-3.80351502028817E-02 
2210	-7.73485861836158E-02 
2211	-5.12932425044445E-02 
2212	-5.28259447246667E-02 
2213	 2.56268496421403E-03 
2214	 0.160399454186079 
2215	 0.252232354627878 
2216	 0.205932562056077 
2217	 0.118444060079876 
2218	-0.095163987533685 
2219	-0.171040633525061 
2220	-0.240836212015556 
2221	-0.240265827963268 
2222	-0.144109349738576 
2223	-0.128206819237393 
2224	-0.137246264107267 
2225	-0.110845540789942 
2226	-7.65923517010762E-02 
2227	-4.35975415951158E-02 
2228	 6.34169396796859E-02 
2229	 3.93669047992656E-02 
2230	-0.134895652892115 
2231	-0.181462021978135 
2232	-0.280806844098029 
2233	-0.261343418055458 
2234	-4.19785518558601E-02 
2235	 2.70030745226581E-02 
2236	 6.56743107941362E-02 
2237	 0.192947757911735 
2238	 0.145982155631423 
2239	 3.26888750429728E-02 
2240	-2.39696840329319E-02 
2241	-0.132105130799633 
2242	-0.20829877099374 
2243	-0.245061794911688 
2244	-0.285438220739859 
2245	-0.234898809799256 
2246	 2.7328766600794E-03 
2247	 0.26979023656297 
2248	 0.310311041943592 
2249	 0.343299894677799 
2250	 0.233309900519442 
2251	 0.193373570269885 
2252	 0.484567636743802 
2253	 0.511872340633138 
2254	 0.512621642208235 
2255	 0.463779441131745 
2256	 0.324941440561372 
2257	 0.301262522838551 
2258	 0.420650538154976 
2259	 0.434187863473978 
2260	 0.246536480815433 
2261	-0.145238379148029 
2262	-0.198507693303591 
2263	-0.235598091421525 
2264	-0.317215066303861 
2265	-0.161424250060416 
2266	-9.76830113660285E-02 
2267	-0.727705537163446 
2268	-0.815803313760387 
2269	-9.57776840337082E-02 
2270	-0.128337888414548 
2271	-0.264910194571906 
2272	-0.262199251104097 
2273	-0.452889855660418 
2274	-0.478846495609567 
2275	-0.35070051466993 
2276	-0.253217615697494 
2277	-5.15073094077343E-02 
2278	 1.41500680059744E-02 
2279	-4.26647056376811E-02 
2280	-3.25121557255151E-02 
2281	-3.26756806573384E-02 
2282	-4.01067746392554E-02 
2283	-0.104937822006192 
2284	-0.356198699943565 
2285	-1.11269414845556 
2286	-2.69143364886697 
2287	 3.67519039428706 
2288	-253.053436913337 
2289	 0.45034924985351 
2290	 0.348075748097029 
2291	 0.237449784957618 
2292	 0.524766595410725 
2293	-2.67787408804014 
2294	-15.7032393924177 
2295	-10.6857395720579 
2296	-2.02668422880066 
2297	-1.02561808423994 
2298	-0.177214744707915 
2299	-0.243267925506475 
2300	-0.290768648976171 
2301	-0.401516256627448 
2302	-0.828364859330718 
2303	-1.61989676862541 
2304	-1.67081560154199 
2305	-1.05092230567389 
2306	-0.860232099414778 
2307	-0.437219363509531 
2308	-0.298488876098418 
2309	-0.333399073896048 
2310	-0.118964959693603 
2311	-0.430945327692888 
2312	-0.666264536351673 
2313	-0.341647811158515 
2314	-0.243729419463342 
2315	-0.391739972749391 
2316	-0.668825742890278 
2317	-1.21138527948788 
2318	-1.55738061063372 
2319	-1.41463033271684 
2320	-0.763251191808778 
2321	-0.594558584147106 
2322	-1.43151671733579 
2323	-2.50998017072691 
2324	-1.42313891574643 
2325	-0.692775653899307 
2326	-0.223800849964018 
2327	 0.193072657143109 
2328	-0.147830046501872 
2329	-0.7055045043745 
2330	-0.745874999914113 
2331	-0.59644305684926 
2332	-0.514580483740491 
2333	-0.271871548925876 
2334	 0.922163791260068 
2335	 1.55500118696628E-02 
2336	-0.913089166165761 
2337	-2.40010628620464 
2338	-3.94748584769414 
2339	-4.8185343800328 
2340	-3.12253121403149 
2341	-0.847569888900927 
2342	-0.521381829773096 
2343	-0.49813848160281 
2344	 1.28051359012298 
2345	 0.840485409481559 
2346	 0.686668272599751 
2347	 0.149022288488074 
2348	 0.357601246663346 
2349	 2.2198453687487 
2350	-2.00169377611101 
2351	-2.21182226630255 
2352	 2.97822085449939 
2353	 0.855271971537114 
2354	 0.455655028220304 
2355	 1.03810314618723 
2356	 1.39327802631431 
2357	-24.435766733024 
2358	-2.21842361355484 
2359	-3.60951812152162 
2360	-2.93492031108487 
2361	 16.5997761833329 
2362	 2.64113657494516 
2363	 1.52590041269333 
2364	 1.0505083496565 
2365	 1.64123423467816 
2366	 0.866258506510562 
2367	-76.7454818768056 
2368	-1.47278420230707 
2369	-3.66468129553919E-02 
2370	-0.204429276276894 
2371	-0.191998647418915 
2372	-0.416926174933135 
2373	-1.17155714809498 
2374	-1.2326684847011 
2375	-2.18264727509597 
2376	-4.93410234550344 
2377	-4.62573182768225 
2378	 2.27645929456862 
2379	 1.50702876536691 
2380	 1.64812154252747 
2381	 1.75614774088073 
2382	 6.6497157720356 
2383	-11.8518116573019 
2384	-3.82625294997688 
2385	-4.98042792803284 
2386	-15.9930559800277 
2387	-6.1709428647839 
2388	-12.0689071745397 
2389	 5.47568048135649 
2390	 3.85904584253794 
2391	 1.97471494609707 
2392	 3.24003572130446 
2393	-9.59783380905724 
2394	-4.46432441492279 
2395	-3.8977402458983 
2396	-2.14824365452498 
2397	-0.677723065349176 
2398	 0.897255203063011 
2399	 3.19223925100734 
2400	 7.18950105662531 
2401	-1.82964556725997 
2402	-1.60169360920051 
2403	 2.26754669530045 
2404	 1.77521125957067 
2405	 2.12788637405895 
2406	 1.14196451417887 
2407	 2.56711052160336 
2408	-5.5293637810619 
2409	 0.74760726903631 
2410	 0.184925142314267 
2411	-0.113410667881628 
2412	-3.56493684220377E-03 
2413	 0.56427926193212 
2414	 0.863590327520486 
2415	 0.928029192526633 
2416	 1.20084473681993 
2417	 1.72938892725227 
2418	 3.08805348579542 
2419	 5.10347510793971 
2420	 5.39627552465755 
2421	-4.05105656310956 
2422	-1.96962392225107 
2423	-1.78679585099871 
2424	-2.68893871476335 
2425	-2.25619501767245 
2426	-1.81780395099148 
2427	 3.28674617665277 
2428	 1.59522266481485 
2429	 0.331253332096624 
2430	 0.186081529236998 
2431	 0.285638462501488 
2432	 0.247511848419587 
2433	 1.55538404197228 
2434	 1.96809102404999 
2435	 2.68648570825593 
2436	-606.5778860314 
2437	-6.94013200454906 
2438	-2.14539511757956 
2439	-1.26881249464214 
2440	-1.17490731420569 
2441	-1.66278227666406 
2442	 7.46249882485035 
2443	 1.22109493755314 
2444	-0.828790471915834 
2445	 0.153249556551428 
2446	-0.296158623227669 
2447	-0.150530641753432 
2448	-0.45477352076166 
2449	-4.12366963388932 
2450	-9.90803805189263 
2451	 4.15438927338334 
2452	-10.8732075055213 
2453	-1.48801981281023 
2454	-1.39283187783477 
2455	-2.00692532118109 
2456	-14.0621373087121 
2457	 1.04271658533581 
2458	 1.01283759112683 
2459	 0.69547430058357 
2460	-0.26999068379687 
2461	 4.41775488339967 
2462	 110.420641717466 
2463	 34.1218033287067 
2464	 14.6549662581232 
2465	-175.33541312932 
2466	-4.13538551690397 
2467	-2.15667435188957E-02 
2468	-1.12383245986224 
2469	-0.548666975102751 
2470	-0.443767531966867 
2471	-0.79581266692913 
2472	-2.13523929500231 
2473	 3.22477769006191 
2474	 3.33039746222387 
2475	 4.35510058422914 
2476	 3.29476737393195 
2477	 0.728828815826407 
2478	-0.144411508288423 
2479	-0.167048103683167 
2480	 0.130901769975072 
2481	 0.768252454221673 
2482	 1.20384844439367 
2483	 1.23314121489884 
2484	 1.10685248359207 
2485	 1.09900356354325 
2486	 1.12784461934347 
2487	 0.764477019923767 
2488	 0.843203944737974 
2489	-2.33074631344231 
2490	-0.59267598151752 
2491	-1.02338816639194 
2492	-1.60353902845109 
2493	-1.34010932409318 
2494	-1.65728027273766 
2495	-37.4495475832868 
2496	-3.63055039257411 
2497	-2.56814576841175 
2498	-2.98072983433158 
2499	-1.33735825555486 
2500	-6.03514570441951 
