Wavelength	rt0712EAST_CLOSE00006.asd
350	 5.17765191177248E-02 
351	 5.17469567817529E-02 
352	 5.22163366890379E-02 
353	 5.29033679272345E-02 
354	 5.33707967805139E-02 
355	 0.053097419224607 
356	 5.29541254681506E-02 
357	 5.29915534778232E-02 
358	 5.29482430288573E-02 
359	 5.24181312023969E-02 
360	 5.25365751444406E-02 
361	 5.29754958025221E-02 
362	 5.25558681461012E-02 
363	 5.25971689260338E-02 
364	 5.27400385114229E-02 
365	 5.27116474488561E-02 
366	 5.26929812027874E-02 
367	 5.25940064863517E-02 
368	 5.25585892499093E-02 
369	 5.27593757305418E-02 
370	 5.33573917029367E-02 
371	 5.32157294931132E-02 
372	 5.26863193248342E-02 
373	 5.29158828358198E-02 
374	 0.053390332478755 
375	 5.36434476449745E-02 
376	 5.35150135905415E-02 
377	 5.32674411705256E-02 
378	 5.34171871194699E-02 
379	 5.36503072488095E-02 
380	 5.36611331241489E-02 
381	 5.38694460381998E-02 
382	 0.054264194171456 
383	 5.43711367046171E-02 
384	 5.37149619519817E-02 
385	 5.32720113342242E-02 
386	 5.38996612869497E-02 
387	 5.51557923327087E-02 
388	 5.53059335877854E-02 
389	 0.055966840111131 
390	 0.056335151413904 
391	 0.055848782441348 
392	 5.55394869286201E-02 
393	 5.59528472250267E-02 
394	 5.63732040088301E-02 
395	 5.59355317128328E-02 
396	 5.57164564554045E-02 
397	 5.55976322188517E-02 
398	 0.055770426892812 
399	 5.66561459693201E-02 
400	 0.056406362324 
401	 5.61297399117812E-02 
402	 5.65033795278187E-02 
403	 5.61526135759429E-02 
404	 5.61598901651185E-02 
405	 5.64752284724001E-02 
406	 5.66362922353415E-02 
407	 5.63857311863633E-02 
408	 5.66006543723133E-02 
409	 5.71540467126916E-02 
410	 5.69475283503255E-02 
411	 5.69884511286296E-02 
412	 5.71389540203382E-02 
413	 5.71902180371709E-02 
414	 5.72846150830019E-02 
415	 5.73321022919475E-02 
416	 5.74249220271076E-02 
417	 0.05764872326855 
418	 5.75782211342219E-02 
419	 5.75511894333385E-02 
420	 5.76838170222114E-02 
421	 5.77966827165176E-02 
422	 5.78814795433699E-02 
423	 5.81244952720885E-02 
424	 5.85221418292172E-02 
425	 5.84175602425171E-02 
426	 5.83201104841968E-02 
427	 5.84768380222846E-02 
428	 5.89113546636325E-02 
429	 5.91239800513546E-02 
430	 5.92460949394576E-02 
431	 5.93694424726405E-02 
432	 5.94617396082243E-02 
433	 5.95315971485555E-02 
434	 5.96947211355674E-02 
435	 6.00028186575024E-02 
436	 6.02933666499938E-02 
437	 6.03630621291233E-02 
438	 6.04125164268006E-02 
439	 6.07869458475703E-02 
440	 6.09283612390187E-02 
441	 6.11847844795996E-02 
442	 6.16294535250556E-02 
443	 6.17885004585938E-02 
444	 6.19695594700578E-02 
445	 6.21794785396684E-02 
446	 6.23932033620565E-02 
447	 6.27978231477729E-02 
448	 6.31382226086471E-02 
449	 6.32910217161513E-02 
450	 6.32776437427182E-02 
451	 6.34924904565464E-02 
452	 6.38005132046995E-02 
453	 6.39969648418853E-02 
454	 6.38754276011458E-02 
455	 6.40096051128261E-02 
456	 6.42617497255912E-02 
457	 6.43242400881381E-02 
458	 6.45552984187756E-02 
459	 6.46924872979318E-02 
460	 6.46292214891326E-02 
461	 6.44673702342126E-02 
462	 6.47527363175767E-02 
463	 6.51094957545366E-02 
464	 6.52042838021712E-02 
465	 6.53733480721992E-02 
466	 6.54872701944518E-02 
467	 6.55621568203309E-02 
468	 6.56955766981544E-02 
469	 6.60524270134996E-02 
470	 6.62942759057012E-02 
471	 6.63786553365394E-02 
472	 6.67177445787987E-02 
473	 6.67711862201726E-02 
474	 6.68806546811132E-02 
475	 6.73608148249712E-02 
476	 6.75761461644984E-02 
477	 0.067860876760905 
478	 6.82295910960188E-02 
479	 6.84822592083411E-02 
480	 6.86497835674823E-02 
481	 6.89025780041494E-02 
482	 6.92937457644906E-02 
483	 6.96087718671979E-02 
484	 6.98193008282953E-02 
485	 7.01392907477406E-02 
486	 7.07293672353057E-02 
487	 7.09457982829244E-02 
488	 7.11199219039584E-02 
489	 7.14632619889843E-02 
490	 7.19948991025737E-02 
491	 7.22355417226188E-02 
492	 7.25224476653079E-02 
493	 7.31060970337664E-02 
494	 7.35571163137651E-02 
495	 7.40004178670875E-02 
496	 7.44048228896775E-02 
497	 7.47177912514561E-02 
498	 7.53525393837911E-02 
499	 7.58270321171252E-02 
500	 7.60336149499048E-02 
501	 7.65932986090713E-02 
502	 7.69169243408852E-02 
503	 7.73557597856772E-02 
504	 7.82258866131264E-02 
505	 7.85457905367151E-02 
506	 7.91431327236948E-02 
507	 7.99195467871197E-02 
508	 8.01064822442135E-02 
509	 8.08629544938122E-02 
510	 8.16230190396761E-02 
511	 8.19653330826579E-02 
512	 0.082444811581053 
513	 8.28544567453047E-02 
514	 8.33899408287852E-02 
515	 8.42717322867868E-02 
516	 8.47016461665338E-02 
517	 8.53068246986332E-02 
518	 8.61918098538221E-02 
519	 0.086679142371666 
520	 8.72770981325574E-02 
521	 0.087914491713213 
522	 8.84816097519876E-02 
523	 8.92004265627547E-02 
524	 8.98667571610896E-02 
525	 9.04875859368959E-02 
526	 9.12165525422409E-02 
527	 9.19718245676455E-02 
528	 9.27689412832995E-02 
529	 9.35604400650734E-02 
530	 9.41295934294482E-02 
531	 9.48427591857284E-02 
532	 9.56266235705762E-02 
533	 0.096300337611635 
534	 9.71309520527504E-02 
535	 9.80122309888134E-02 
536	 9.88533262646326E-02 
537	 9.96067789950462E-02 
538	 0.1004555018455 
539	 0.101334922704125 
540	 0.102176762903052 
541	 0.103147828626062 
542	 0.103963075301224 
543	 0.104640236081714 
544	 0.105403980107522 
545	 0.106435165950508 
546	 0.107376092963466 
547	 0.108116589622989 
548	 0.109172966457759 
549	 0.110021796906203 
550	 0.110746623789777 
551	 0.111611520329134 
552	 0.112615056705311 
553	 0.113400359036685 
554	 0.114014807652078 
555	 0.114966372683334 
556	 0.115901079971614 
557	 0.116690642686803 
558	 0.117347141648786 
559	 0.118197435907626 
560	 0.118963089589275 
561	 0.119601822857347 
562	 0.120228434865999 
563	 0.120861565213728 
564	 0.121443094212919 
565	 0.121909187956059 
566	 0.122183811989257 
567	 0.122614546651145 
568	 0.123079725625195 
569	 0.123345099795579 
570	 0.123695539643469 
571	 0.124109315981022 
572	 0.124496683274289 
573	 0.124719498546483 
574	 0.12503684215494 
575	 0.125251567975732 
576	 0.125236961623104 
577	 0.125434927140713 
578	 0.125638765173077 
579	 0.125685911705074 
580	 0.125502389388297 
581	 0.12556648139648 
582	 0.125692448468517 
583	 0.125650608668793 
584	 0.12527073135548 
585	 0.124795657013657 
586	 0.124242844410813 
587	 0.123584403330306 
588	 0.123074869201836 
589	 0.122755648303603 
590	 0.122502175361533 
591	 0.122034385611284 
592	 0.121771626468744 
593	 0.121470990341698 
594	 0.120915172280025 
595	 0.1203211609172 
596	 0.119784554653524 
597	 0.11922695141754 
598	 0.118503021186232 
599	 0.117798429804618 
600	 0.11702620998558 
601	 0.116331743642352 
602	 0.116335892045937 
603	 0.116048663263979 
604	 0.115560658751122 
605	 0.115310215356195 
606	 0.115594106031664 
607	 0.115582515188768 
608	 0.115237610307097 
609	 0.115365904271033 
610	 0.115356858236844 
611	 0.115120483565513 
612	 0.114781391401985 
613	 0.114779101924805 
614	 0.114637094688117 
615	 0.114401080449437 
616	 0.114373310305414 
617	 0.114275628452838 
618	 0.114033564179841 
619	 0.113805688049278 
620	 0.114125432208449 
621	 0.113952140982839 
622	 0.113560772119455 
623	 0.113522022440281 
624	 0.113541315720447 
625	 0.113393803042972 
626	 0.113110657742027 
627	 0.11296964181239 
628	 0.112813812738759 
629	 0.112600977771543 
630	 0.112394857443498 
631	 0.112515555134139 
632	 0.112534927273531 
633	 0.112423543105557 
634	 0.112352362870883 
635	 0.112424245686162 
636	 0.112355979312266 
637	 0.112164374721061 
638	 0.112345294906181 
639	 0.112271427556763 
640	 0.112171899766147 
641	 0.112323414260591 
642	 0.112113067604894 
643	 0.112013693433993 
644	 0.111989922397797 
645	 0.111573543307895 
646	 0.110941992977594 
647	 0.110673408433878 
648	 0.110925011729935 
649	 0.110702307929038 
650	 0.110401374759803 
651	 0.110078898736632 
652	 0.109679664859236 
653	 0.108979265121991 
654	 0.108279428633409 
655	 0.107634350190029 
656	 0.106791147961067 
657	 0.105715681404259 
658	 0.104735612880559 
659	 0.104011147297875 
660	 0.103160069763946 
661	 0.102295589630208 
662	 0.101400278607488 
663	 0.100436098078903 
664	 9.97469499310838E-02 
665	 9.91626958720929E-02 
666	 9.85393514186955E-02 
667	 9.79003395740861E-02 
668	 0.097609662371168 
669	 0.097454503561285 
670	 9.71629309891958E-02 
671	 9.72422643560805E-02 
672	 0.097252465113146 
673	 9.71656777268187E-02 
674	 9.73657519413347E-02 
675	 0.09775061594121 
676	 9.82005702930938E-02 
677	 9.86311652619642E-02 
678	 9.90435936297535E-02 
679	 9.95788892269431E-02 
680	 0.100317952821815 
681	 0.101252470087806 
682	 0.102055104222074 
683	 0.102771183937759 
684	 0.103483348672833 
685	 0.10436316861839 
686	 0.105181445565012 
687	 0.105775805886847 
688	 0.106135063367859 
689	 0.106601435408401 
690	 0.106927644400159 
691	 0.107127606518333 
692	 0.107328299134344 
693	 0.10711844855447 
694	 0.106941848282187 
695	 0.106918084889168 
696	 0.106462209117699 
697	 0.105685646259077 
698	 0.104867352886607 
699	 0.104351203060373 
700	 0.103717746939688 
701	 0.102770628420121 
702	 0.101728246059298 
703	 0.100966539744525 
704	 0.100039245354847 
705	 9.89477890154134E-02 
706	 9.78014368146048E-02 
707	 9.66895703516066E-02 
708	 9.50318573078058E-02 
709	 9.33532385793837E-02 
710	 9.22910099178207E-02 
711	 9.04873857141625E-02 
712	 8.87635168233059E-02 
713	 8.72191797083706E-02 
714	 8.50323176282054E-02 
715	 8.33201135083515E-02 
716	 8.14279677439838E-02 
717	 7.87982081603969E-02 
718	 7.71880109773996E-02 
719	 0.074999099783425 
720	 7.30315190535878E-02 
721	 7.18005659186485E-02 
722	 7.02424545194692E-02 
723	 6.84098378336314E-02 
724	 6.66917367336877E-02 
725	 0.064921500701224 
726	 6.27863382965191E-02 
727	 6.07695903265073E-02 
728	 5.91175550427796E-02 
729	 5.68737881887413E-02 
730	 5.50925256865445E-02 
731	 5.35609937598388E-02 
732	 5.16299419128164E-02 
733	 5.06632607870329E-02 
734	 4.96522838978815E-02 
735	 4.84402485175031E-02 
736	 4.80515818486539E-02 
737	 4.73905875825856E-02 
738	 4.67549848148291E-02 
739	 4.65219349675325E-02 
740	 4.63516129215166E-02 
741	 4.63290474955601E-02 
742	 0.04628816943867 
743	 4.60394529854207E-02 
744	 4.62164104392822E-02 
745	 4.62680601527734E-02 
746	 4.60363728176681E-02 
747	 4.60279877668762E-02 
748	 4.61545472950762E-02 
749	 4.61706231349623E-02 
750	 4.59329136200557E-02 
751	 4.57664538775412E-02 
752	 4.57374166852695E-02 
753	 4.57171320843296E-02 
754	 4.55273308551962E-02 
755	 4.56056030922477E-02 
756	 4.54267983350452E-02 
757	 4.50301743792726E-02 
758	 4.55849332169229E-02 
759	 4.54192656134138E-02 
760	 4.48126486737209E-02 
761	 4.54838466656622E-02 
762	 4.49440250042481E-02 
763	 0.045108688726131 
764	 4.54315518378395E-02 
765	 0.045154605856041 
766	 0.045570819815146 
767	 4.58657078527287E-02 
768	 4.58971211250692E-02 
769	 4.60618174244397E-02 
770	 4.60624760681648E-02 
771	 4.60969530811073E-02 
772	 0.046298959788117 
773	 4.63700406874788E-02 
774	 0.04650645415972 
775	 4.67304569911499E-02 
776	 4.69633022228935E-02 
777	 0.046997518526852 
778	 4.71013221971399E-02 
779	 4.72910198472954E-02 
780	 4.73248811343348E-02 
781	 4.77411671548889E-02 
782	 4.80934954811829E-02 
783	 4.81238030819141E-02 
784	 4.84243452437828E-02 
785	 4.86725083663951E-02 
786	 4.89633148980821E-02 
787	 4.93819636773873E-02 
788	 4.91149018942709E-02 
789	 0.049187842323629 
790	 4.97838669904708E-02 
791	 5.02885328535968E-02 
792	 5.06375435899788E-02 
793	 0.050807689786789 
794	 5.08753298062753E-02 
795	 5.10228090329359E-02 
796	 5.15587742327876E-02 
797	 5.20443665543644E-02 
798	 5.20946126790332E-02 
799	 0.052115029051499 
800	 5.25323912479218E-02 
801	 5.31304121624485E-02 
802	 5.33636728271353E-02 
803	 0.05349954265573 
804	 5.36809235106911E-02 
805	 5.38260254188824E-02 
806	 5.36532950038398E-02 
807	 5.37647841853779E-02 
808	 0.053605160213692 
809	 5.28857207808978E-02 
810	 5.27819307658524E-02 
811	 5.24029415618943E-02 
812	 5.20793764136245E-02 
813	 5.25312145228938E-02 
814	 5.27056952497448E-02 
815	 5.21095797284622E-02 
816	 5.13291176564099E-02 
817	 5.14566395028451E-02 
818	 5.04453605728046E-02 
819	 4.99764275334986E-02 
820	 5.01077774904067E-02 
821	 4.88015194459585E-02 
822	 0.047956404586578 
823	 4.75499608306323E-02 
824	 4.69322213531523E-02 
825	 4.52611545526939E-02 
826	 0.044301416948972 
827	 4.36118778221683E-02 
828	 4.23217135464478E-02 
829	 0.042293749353637 
830	 4.12933956218752E-02 
831	 3.97832735730725E-02 
832	 3.99583511645198E-02 
833	 3.98149634599149E-02 
834	 3.96675665524145E-02 
835	 3.94697894942084E-02 
836	 3.84569503220021E-02 
837	 3.84206373315846E-02 
838	 3.86627511922109E-02 
839	 3.83826337965315E-02 
840	 3.78296622593573E-02 
841	 3.76809407471898E-02 
842	 3.77801609780983E-02 
843	 3.77508573840479E-02 
844	 3.78578980038179E-02 
845	 3.77469335165953E-02 
846	 3.75474243362099E-02 
847	 0.037642384447073 
848	 3.74832302009778E-02 
849	 3.72187562621926E-02 
850	 3.70422120892296E-02 
851	 3.70733594083339E-02 
852	 3.70987541221396E-02 
853	 3.71434560688507E-02 
854	 3.72324996390197E-02 
855	 3.73110448390285E-02 
856	 3.69264932247189E-02 
857	 3.65310038719769E-02 
858	 3.65923368226208E-02 
859	 3.67904751770384E-02 
860	 3.63766955030235E-02 
861	 3.60670830183057E-02 
862	 3.69099923634231E-02 
863	 3.72024037605908E-02 
864	 0.036631726890119 
865	 3.59171304784001E-02 
866	 3.63851577713253E-02 
867	 3.63728256120305E-02 
868	 3.58661000816486E-02 
869	 3.53245648725752E-02 
870	 3.54581131460047E-02 
871	 3.59903809872808E-02 
872	 3.58051018677374E-02 
873	 3.47867486015901E-02 
874	 3.54428069888397E-02 
875	 3.55000404404043E-02 
876	 3.51249424793938E-02 
877	 3.50915582087272E-02 
878	 3.54700666836105E-02 
879	 3.50856196236298E-02 
880	 0.034592139771855 
881	 3.50956062890363E-02 
882	 3.47728400439831E-02 
883	 0.034344200269258 
884	 0.034225883938696 
885	 3.44088296302089E-02 
886	 3.42936022010899E-02 
887	 3.43783867656393E-02 
888	 3.46488637418129E-02 
889	 3.44024101561028E-02 
890	 3.38158103967598E-02 
891	 3.38677635861292E-02 
892	 3.47551099178331E-02 
893	 3.46865232371507E-02 
894	 3.39365050364731E-02 
895	 3.32124104221603E-02 
896	 3.31715537581046E-02 
897	 3.32528721964184E-02 
898	 3.30198118699756E-02 
899	 0.033721012188047 
900	 3.55381001676447E-02 
901	 3.35114799521588E-02 
902	 3.23717776931284E-02 
903	 3.28556124128628E-02 
904	 3.39692294130695E-02 
905	 3.46268087184622E-02 
906	 3.34415243961161E-02 
907	 3.16980506594196E-02 
908	 3.25277646457161E-02 
909	 3.34738289287839E-02 
910	 3.30872800295853E-02 
911	 3.18966188817675E-02 
912	 3.19996000266925E-02 
913	 3.31117913135027E-02 
914	 3.26376998708984E-02 
915	 3.13426567077153E-02 
916	 3.33114340643447E-02 
917	 3.33373709327629E-02 
918	 3.23406470248049E-02 
919	 3.19711524869699E-02 
920	 3.35574046232111E-02 
921	 3.45356364866505E-02 
922	 3.35112598632664E-02 
923	 3.08507910079896E-02 
924	 3.03879606380432E-02 
925	 3.13151234773432E-02 
926	 3.22345814686587E-02 
927	 3.17112346980818E-02 
928	 3.01833188592596E-02 
929	 2.80451439606423E-02 
930	 2.37887569730927E-02 
931	 1.68564747697466E-02 
932	 2.33849412681202E-02 
933	 4.14007804559313E-02 
934	 3.77868935540188E-02 
935	 1.2302638775112E-04 
936	 2.92602098301798E-02 
937	 4.68608953919772E-02 
938	 3.65758654269899E-02 
939	 1.43594384976864E-02 
940	 3.92925664325088E-02 
941	 4.98823544818869E-02 
942	 3.44864210598474E-02 
943	 1.05081731455596E-02 
944	 1.71146739756637E-02 
945	 1.87534390424337E-02 
946	 1.70161866194125E-02 
947	 0.030145800602997 
948	 2.00645935611379E-02 
949	 1.57195939765934E-02 
950	 0.026373207454691 
951	 4.07913051946409E-02 
952	 2.66894791008851E-02 
953	 1.42826525505707E-02 
954	 1.98603951239032E-02 
955	 4.03431207110949E-02 
956	 4.57010958409062E-02 
957	 3.98862385920077E-02 
958	 2.97489587202654E-02 
959	 2.21706340794834E-02 
960	 3.51855047702434E-02 
961	 3.72707124137811E-02 
962	 3.08607290040748E-02 
963	 3.63495031683998E-02 
964	 0.038984184608959 
965	 3.36408653838378E-02 
966	 2.88392616979807E-02 
967	 3.58534264560935E-02 
968	 2.95870249684078E-02 
969	 2.63378342965702E-02 
970	 2.97687733711647E-02 
971	 3.06742770854085E-02 
972	 2.66149309634648E-02 
973	 0.027967489645637 
974	 3.37056647134167E-02 
975	 3.17953255281458E-02 
976	 2.81031407060208E-02 
977	 2.76941746734904E-02 
978	 2.99874852039225E-02 
979	 3.04794932252318E-02 
980	 3.31676063253606E-02 
981	 3.17372631997991E-02 
982	 2.86076476149088E-02 
983	 3.13454986705529E-02 
984	 3.19935578603196E-02 
985	 3.08113420116322E-02 
986	 0.030467334495751 
987	 3.33590284833533E-02 
988	 3.20699862493128E-02 
989	 2.76968276973539E-02 
990	 0.026306116010631 
991	 3.34269144323354E-02 
992	 0.032377116934001 
993	 3.18855846552416E-02 
994	 3.26717701090007E-02 
995	 3.00862334377806E-02 
996	 3.10581603522622E-02 
997	 2.99006744307809E-02 
998	 2.82109262877112E-02 
999	 3.03902991648875E-02 
1000	 2.71382734879609E-02 
1001	 2.92484236733754E-02 
1002	 3.05365861600438E-02 
1003	 3.08248758083638E-02 
1004	 3.11119003042049E-02 
1005	 3.12491634484968E-02 
1006	 3.10115522130395E-02 
1007	 3.00598010997499E-02 
1008	 2.94925209841081E-02 
1009	 2.97027190289738E-02 
1010	 0.030365217181096 
1011	 3.14081154865441E-02 
1012	 3.27161958103806E-02 
1013	 3.35000731520601E-02 
1014	 3.38947887598975E-02 
1015	 3.38238600563231E-02 
1016	 3.34739884363128E-02 
1017	 3.23933324866001E-02 
1018	 0.032149049026556 
1019	 3.16485090739438E-02 
1020	 0.031587303174665 
1021	 3.28629960895858E-02 
1022	 3.26887811673507E-02 
1023	 0.032151506139474 
1024	 3.24070139089165E-02 
1025	 3.13195181325069E-02 
1026	 3.11816801993736E-02 
1027	 3.09194756510011E-02 
1028	 3.05618339651332E-02 
1029	 0.030612885732289 
1030	 3.11219966402112E-02 
1031	 3.13485848010457E-02 
1032	 3.19776315496399E-02 
1033	 3.19240819710355E-02 
1034	 3.09805938325462E-02 
1035	 3.10335530960633E-02 
1036	 3.11368400929837E-02 
1037	 3.15079860638376E-02 
1038	 3.35379954243192E-02 
1039	 3.38502335191953E-02 
1040	 3.23810702741522E-02 
1041	 3.24137431182586E-02 
1042	 3.24263279025487E-02 
1043	 3.19395971028871E-02 
1044	 3.21231098002081E-02 
1045	 3.38017294063096E-02 
1046	 3.36698198523885E-02 
1047	 3.24187135167567E-02 
1048	 3.19025598896075E-02 
1049	 3.07420140119773E-02 
1050	 3.04901126789018E-02 
1051	 3.12612456776805E-02 
1052	 3.14360048420324E-02 
1053	 3.17684825347262E-02 
1054	 3.18643756776931E-02 
1055	 3.14987307234638E-02 
1056	 0.031263623491114 
1057	 3.10478795176959E-02 
1058	 3.05948661097138E-02 
1059	 3.09530539974851E-02 
1060	 3.18643918350819E-02 
1061	 3.23203083504001E-02 
1062	 3.32840092229798E-02 
1063	 3.36446842525956E-02 
1064	 3.33337343934741E-02 
1065	 3.33437699216977E-02 
1066	 3.38184207210433E-02 
1067	 3.34334980403179E-02 
1068	 3.16701334510837E-02 
1069	 3.14393596279016E-02 
1070	 3.19009351137358E-02 
1071	 3.18880417034295E-02 
1072	 3.24313686843001E-02 
1073	 3.35210011977257E-02 
1074	 3.35194403576424E-02 
1075	 3.20292474752137E-02 
1076	 3.20142262212525E-02 
1077	 3.29411860557365E-02 
1078	 3.26733388254799E-02 
1079	 3.22643847654513E-02 
1080	 3.18973499240486E-02 
1081	 2.98799346688547E-02 
1082	 2.98191831911134E-02 
1083	 3.21963307080822E-02 
1084	 3.24223459182195E-02 
1085	 3.23472850933299E-02 
1086	 3.21931136982937E-02 
1087	 2.97260091170442E-02 
1088	 2.88177109746056E-02 
1089	 2.86206255186919E-02 
1090	 3.00986974961736E-02 
1091	 3.01517178838247E-02 
1092	 2.99491110843004E-02 
1093	 3.06025044466043E-02 
1094	 3.13263616078298E-02 
1095	 3.16609610584037E-02 
1096	 3.37198043592704E-02 
1097	 3.35855967670168E-02 
1098	 3.01692842316943E-02 
1099	 0.029437969408362 
1100	 2.86979095916173E-02 
1101	 2.90095483591826E-02 
1102	 3.36457163017704E-02 
1103	 3.45146493222021E-02 
1104	 3.30144711053855E-02 
1105	 3.17521873330984E-02 
1106	 3.03701841577554E-02 
1107	 3.09098066622875E-02 
1108	 3.49742062201209E-02 
1109	 3.86173870333116E-02 
1110	 0.038696685433808 
1111	 3.34575063703106E-02 
1112	 3.19550952461085E-02 
1113	 2.71518440518608E-02 
1114	 2.66569277290296E-02 
1115	 3.54537408750535E-02 
1116	 3.65074400248186E-02 
1117	 3.41349699322582E-02 
1118	 0.034028828529851 
1119	 1.96405124080836E-02 
1120	 1.87624042548759E-02 
1121	 3.74427101737064E-02 
1122	 7.60632346789395E-02 
1123	 0.112819228228016 
1124	 0.105117897679669 
1125	 8.36866789017549E-02 
1126	 5.70684602251762E-02 
1127	 1.77179663726545E-02 
1128	 0.031179165608123 
1129	 3.41404955277767E-02 
1130	 3.39621014044839E-02 
1131	 3.27889919297934E-02 
1132	 5.04341124109504E-02 
1133	 4.45106529988212E-02 
1134	 1.79490262664396E-02 
1135	 1.66791614911177E-02 
1136	 2.31479800339414E-02 
1137	 2.12709804199807E-02 
1138	 2.24828406985695E-02 
1139	 2.96528513352673E-02 
1140	 3.13829474098751E-02 
1141	 2.77051190944842E-02 
1142	 2.43941369385143E-02 
1143	 2.28788535404677E-02 
1144	 2.03195470845536E-02 
1145	 1.56238876694148E-02 
1146	 1.73286603045063E-02 
1147	 3.01075323309304E-02 
1148	 3.22591678385994E-02 
1149	 3.43690460946537E-02 
1150	 3.46272631048695E-02 
1151	 2.93675190859556E-02 
1152	 2.76519182142662E-02 
1153	 2.72959677644289E-02 
1154	 2.60837857754345E-02 
1155	 2.21006257819742E-02 
1156	 0.028055723936436 
1157	 3.34859969408573E-02 
1158	 0.035105656807764 
1159	 3.29391739267479E-02 
1160	 3.17382957371426E-02 
1161	 3.22412200699987E-02 
1162	 3.13870835685238E-02 
1163	 3.01349491925445E-02 
1164	 3.02600953147788E-02 
1165	 0.030915654922879 
1166	 3.09833413213474E-02 
1167	 3.17847295599891E-02 
1168	 3.21496929721258E-02 
1169	 3.16134009065112E-02 
1170	 3.16552598182577E-02 
1171	 3.16344730111324E-02 
1172	 3.38034470266597E-02 
1173	 3.38006807584187E-02 
1174	 3.25977198619517E-02 
1175	 2.98789801430529E-02 
1176	 3.03154939037594E-02 
1177	 3.16722321454887E-02 
1178	 3.12090626818488E-02 
1179	 3.11504077598145E-02 
1180	 3.09287347215947E-02 
1181	 2.80247746474802E-02 
1182	 2.69321963989521E-02 
1183	 2.93763000232937E-02 
1184	 2.96194103856367E-02 
1185	 2.82645317614882E-02 
1186	 2.97744307799712E-02 
1187	 3.20447937561839E-02 
1188	 0.032844349524945 
1189	 3.32980909877629E-02 
1190	 3.30354529213495E-02 
1191	 3.20171332720939E-02 
1192	 3.13276930245868E-02 
1193	 3.04573517273042E-02 
1194	 3.12343978773578E-02 
1195	 3.26451566503096E-02 
1196	 3.28857001516608E-02 
1197	 3.21282150360658E-02 
1198	 3.14378450854657E-02 
1199	 3.09465985730214E-02 
1200	 0.030217616203757 
1201	 0.030051733081587 
1202	 3.12585353755682E-02 
1203	 3.22001506615573E-02 
1204	 3.21447849091075E-02 
1205	 3.14008666298084E-02 
1206	 3.05823859599024E-02 
1207	 3.05019252743561E-02 
1208	 3.01423575376167E-02 
1209	 3.01238890009106E-02 
1210	 3.09883915110169E-02 
1211	 3.10396833873825E-02 
1212	 3.04078704936227E-02 
1213	 3.05901373164672E-02 
1214	 3.03428691515855E-02 
1215	 2.99737909407926E-02 
1216	 2.84761081581642E-02 
1217	 2.86293374550877E-02 
1218	 3.01551976856223E-02 
1219	 3.10024076586673E-02 
1220	 3.21888158539174E-02 
1221	 3.30900332687691E-02 
1222	 3.19746736380458E-02 
1223	 3.08424625992649E-02 
1224	 3.15560744569865E-02 
1225	 3.19173611517891E-02 
1226	 3.14372591615483E-02 
1227	 3.16441952833378E-02 
1228	 0.031325378494896 
1229	 3.01808223694355E-02 
1230	 3.00713149131401E-02 
1231	 3.09264370607585E-02 
1232	 3.14486940448511E-02 
1233	 3.12089845666828E-02 
1234	 0.03061643389427 
1235	 3.09575190453783E-02 
1236	 3.17189975890174E-02 
1237	 3.14029519565339E-02 
1238	 3.09962628934293E-02 
1239	 3.18312148460382E-02 
1240	 3.15687814654151E-02 
1241	 3.03078275407734E-02 
1242	 3.06116465559981E-02 
1243	 3.09444784345582E-02 
1244	 2.97577469099499E-02 
1245	 2.94590688696983E-02 
1246	 3.03721770666609E-02 
1247	 3.01546400167261E-02 
1248	 3.00408328612442E-02 
1249	 3.07579891601036E-02 
1250	 3.07919951307933E-02 
1251	 3.00680771721682E-02 
1252	 2.95661551439267E-02 
1253	 2.99802031288041E-02 
1254	 3.05095765013955E-02 
1255	 3.07678709324893E-02 
1256	 3.09516160831563E-02 
1257	 3.11556770790494E-02 
1258	 3.11779009713979E-02 
1259	 3.09847079707242E-02 
1260	 3.09419413122074E-02 
1261	 3.09570728747808E-02 
1262	 0.030747813063185 
1263	 3.02450801100613E-02 
1264	 2.97662884888407E-02 
1265	 2.89962880798136E-02 
1266	 2.88691874702608E-02 
1267	 2.91495139981677E-02 
1268	 2.96444737584249E-02 
1269	 3.08426131003258E-02 
1270	 3.11214268851014E-02 
1271	 3.05996817915129E-02 
1272	 3.06845535366791E-02 
1273	 3.04063361490624E-02 
1274	 2.96972345486653E-02 
1275	 2.92983883998336E-02 
1276	 2.94867698240484E-02 
1277	 3.03865456241495E-02 
1278	 3.08412196858518E-02 
1279	 3.02908426177563E-02 
1280	 3.03937211283583E-02 
1281	 3.02760340813161E-02 
1282	 2.91531173078581E-02 
1283	 2.89497845952881E-02 
1284	 2.98811245603743E-02 
1285	 2.98369425693963E-02 
1286	 0.029532573655839 
1287	 2.95252405597054E-02 
1288	 2.86621854481158E-02 
1289	 2.87327388197745E-02 
1290	 2.92697245781498E-02 
1291	 3.06906141700616E-02 
1292	 3.02659908346771E-02 
1293	 3.01465448620315E-02 
1294	 0.030720905143831 
1295	 3.00537529627642E-02 
1296	 3.00582750058878E-02 
1297	 3.04847328304314E-02 
1298	 2.95885005479801E-02 
1299	 2.82960230010023E-02 
1300	 2.85140986504446E-02 
1301	 3.00806996662804E-02 
1302	 3.01795118277164E-02 
1303	 0.02962873440902 
1304	 3.09129956168171E-02 
1305	 3.12104501850121E-02 
1306	 3.08453520782724E-02 
1307	 3.01886360792604E-02 
1308	 3.09020167505366E-02 
1309	 3.11463921121264E-02 
1310	 3.11460094133517E-02 
1311	 3.28978445197518E-02 
1312	 3.36379309662039E-02 
1313	 3.17280978692259E-02 
1314	 3.16885697786294E-02 
1315	 0.035272296929777 
1316	 3.49175437951237E-02 
1317	 3.09053438127834E-02 
1318	 2.97589280397048E-02 
1319	 2.75680471679936E-02 
1320	 2.59061527255606E-02 
1321	 2.60321184521511E-02 
1322	 2.70234870566357E-02 
1323	 2.75944388381032E-02 
1324	 3.09301680491746E-02 
1325	 3.13936660481495E-02 
1326	 3.38497707025553E-02 
1327	 3.70259527028433E-02 
1328	 3.15144798771278E-02 
1329	 2.87375358629425E-02 
1330	 3.40122728826593E-02 
1331	 3.18333318274232E-02 
1332	 3.05781959749118E-02 
1333	 3.81127079191015E-02 
1334	 3.43459251036455E-02 
1335	 3.24245766558869E-02 
1336	 3.10229749191869E-02 
1337	 3.14283595505543E-02 
1338	 3.08338552074952E-02 
1339	 2.83477369867327E-02 
1340	 3.13970567216202E-02 
1341	 2.81986588439544E-02 
1342	 1.56781447508573E-03 
1343	-2.24556469514197E-03 
1344	 2.27412255167323E-02 
1345	 0.022156537926819 
1346	 0.019190393844664 
1347	 2.79160289084586E-02 
1348	-1.38200234882784E-04 
1349	-2.38200006440515E-02 
1350	 2.26619006773413E-03 
1351	 4.57757330012076E-02 
1352	 0.179156818079851 
1353	 0.200892474519741 
1354	 0.211073867750842 
1355	-3.10069041983365E-02 
1356	-0.583125000112303 
1357	-0.900056712068341 
1358	-0.725918646737379 
1359	-0.346505231788339 
1360	-1.78135463202269E-02 
1361	-0.10945859465316 
1362	-0.369569621159118 
1363	-0.441567901643382 
1364	-0.427958767448591 
1365	-9.91617043432106E-02 
1366	 0.313937413227755 
1367	 0.122549519091663 
1368	 0.046370099250855 
1369	-2.00649125174535E-02 
1370	 0.115471422260249 
1371	 0.18916950538209 
1372	 0.564667742170836 
1373	 6.28686200615192 
1374	-31.6073992638741 
1375	-0.103916102743578 
1376	 2.81983564626269E-02 
1377	 0.882614430254596 
1378	 1.25595739649639 
1379	 2.5178533528039 
1380	 1.95335490685983 
1381	 1.66651347152624 
1382	 0.924303988124547 
1383	-8.72030554312561E-02 
1384	-1.29606891688584E-02 
1385	 0.228111990413128 
1386	 0.333482558542298 
1387	 2.05867445040569 
1388	 2.69838485888093 
1389	 1.63177854652435 
1390	 1.83894102456438 
1391	 1.76267655159151 
1392	 0.350841201968 
1393	-6.94205070432804E-02 
1394	-0.193481153703129 
1395	 0.573962020184893 
1396	 0.874130269277755 
1397	 1.3636387362119 
1398	-195.113932186874 
1399	 0.87543145676257 
1400	-0.176037153073536 
1401	-0.242783971499936 
1402	-28.7097061633846 
1403	 0.180887216286955 
1404	 4.87587986555425 
1405	 47.2853824710984 
1406	 0.292728757689005 
1407	 0.134165815025254 
1408	-0.840698654824895 
1409	-5.45055458085968 
1410	 2.16531925071972 
1411	 4.42265807070693 
1412	 9.65594848796339E-02 
1413	 0.582164302443655 
1414	 1.46200772949758 
1415	 1.16202454198324 
1416	 1.80945241923814 
1417	 5.550510788459 
1418	 0.913087998988498 
1419	-0.199445659695372 
1420	-1.06619211713353 
1421	-0.109235562397015 
1422	 0.780785220310445 
1423	 0.775792113218069 
1424	 1.26641320987307 
1425	 1.84568527666766 
1426	 1.04308780924482 
1427	 0.518358598949194 
1428	 0.8965898804393 
1429	 0.831475345837679 
1430	 0.286294523372572 
1431	 0.21682357109656 
1432	 0.372381803037358 
1433	 0.567688708017152 
1434	 1.71633523398516 
1435	 1.80713678126861 
1436	 0.884927453504835 
1437	 0.393567365979904 
1438	 7.70924384839511E-02 
1439	-0.390938471825086 
1440	-0.258262679985321 
1441	-0.1179014436055 
1442	-0.187833793317057 
1443	-0.194650284556307 
1444	-0.107723619098627 
1445	-1.57429712448914E-02 
1446	-9.88151399327462E-02 
1447	-0.154558418253257 
1448	-5.45687350840978E-02 
1449	 9.41016392791554E-03 
1450	-0.025513503650638 
1451	-4.15903189967876E-02 
1452	-8.0966263106089E-03 
1453	-6.09230603955628E-03 
1454	 3.40772695680451E-02 
1455	 0.160613233685146 
1456	 0.148797890658465 
1457	 5.32357222616795E-02 
1458	 4.16589127151694E-02 
1459	 5.25903944821216E-03 
1460	-3.60378797448795E-03 
1461	 6.62396702182664E-02 
1462	 0.070561854037435 
1463	 0.040603285988022 
1464	 3.25513970975758E-02 
1465	 2.38355101252021E-02 
1466	 3.2191757496344E-03 
1467	-5.01932930514956E-02 
1468	-6.12563829696761E-02 
1469	-2.47855698618622E-02 
1470	-3.30891419864916E-02 
1471	-3.76793906274223E-02 
1472	-3.22617344951323E-02 
1473	-5.77555016010969E-02 
1474	-0.085396493562878 
1475	-0.133997720977435 
1476	-9.40569753227461E-02 
1477	 2.63712595716316E-02 
1478	 2.91028189508034E-02 
1479	 2.55102340853821E-02 
1480	 3.38379282459691E-02 
1481	-4.23930816806634E-02 
1482	-5.39840322126009E-02 
1483	 1.29563340918946E-02 
1484	 1.66559506533559E-02 
1485	-3.72254672362996E-02 
1486	-2.31994868564205E-02 
1487	 3.00936860510161E-02 
1488	 3.79007386634887E-02 
1489	 4.83876392832771E-02 
1490	 5.23454712520514E-02 
1491	 2.82848991975964E-02 
1492	 2.19991998270522E-02 
1493	 3.60386327449367E-02 
1494	 3.58367143044563E-02 
1495	 2.42280502220406E-02 
1496	 1.99402428569786E-02 
1497	 1.33629289758366E-02 
1498	 1.31776092236644E-02 
1499	 2.18989469692925E-02 
1500	 2.37621041830927E-02 
1501	 2.28505041521443E-02 
1502	 2.46783232237163E-02 
1503	 0.025817749188208 
1504	 0.026773120396555 
1505	 3.23588728206205E-02 
1506	 3.07477517405485E-02 
1507	 2.66550039023314E-02 
1508	 2.51726691523772E-02 
1509	 2.71859960521224E-02 
1510	 3.28897333739165E-02 
1511	 0.034347082972619 
1512	 3.20381451131687E-02 
1513	 2.91110453889163E-02 
1514	 2.37996907965389E-02 
1515	 2.02561015158481E-02 
1516	 2.07248341385236E-02 
1517	 2.01609264847248E-02 
1518	 1.98799786923159E-02 
1519	 2.19983495786669E-02 
1520	 2.23571703209672E-02 
1521	 2.22782376543285E-02 
1522	 2.35438979945653E-02 
1523	 2.52047408004073E-02 
1524	 2.70594108288391E-02 
1525	 2.74760128268053E-02 
1526	 2.70608163020781E-02 
1527	 2.78716965166983E-02 
1528	 2.79109435224049E-02 
1529	 2.70887331940484E-02 
1530	 2.77789088722176E-02 
1531	 2.79295739270278E-02 
1532	 2.71324843403139E-02 
1533	 2.81653721121438E-02 
1534	 2.90511678519739E-02 
1535	 2.57919401972942E-02 
1536	 2.17158192641477E-02 
1537	 2.15388181025394E-02 
1538	 2.27996899362649E-02 
1539	 2.32661183331527E-02 
1540	 0.025992554451481 
1541	 2.94601239846385E-02 
1542	 2.85019738774434E-02 
1543	 2.49551145169335E-02 
1544	 2.43259874905565E-02 
1545	 0.027305383274061 
1546	 2.81575279625106E-02 
1547	 2.73559713702458E-02 
1548	 2.88597370458225E-02 
1549	 2.80947986798941E-02 
1550	 2.56219515584669E-02 
1551	 2.56239525798075E-02 
1552	 0.026502997912626 
1553	 2.69913550080343E-02 
1554	 2.54208524883133E-02 
1555	 0.024376602243544 
1556	 2.54926772594423E-02 
1557	 2.48638017015067E-02 
1558	 2.54196620309258E-02 
1559	 2.62561891476237E-02 
1560	 2.44956769941496E-02 
1561	 2.41725618975538E-02 
1562	 2.43194624600536E-02 
1563	 2.58325064765576E-02 
1564	 2.80053649275818E-02 
1565	 2.71288941903401E-02 
1566	 2.59868230398099E-02 
1567	 2.70669056077069E-02 
1568	 2.60608897699386E-02 
1569	 2.21363102759819E-02 
1570	 2.26454476415308E-02 
1571	 2.21236498139242E-02 
1572	 2.01873814132196E-02 
1573	 2.43215279209069E-02 
1574	 2.52614448115764E-02 
1575	 2.15690178580052E-02 
1576	 2.35888484325075E-02 
1577	 2.81737465707246E-02 
1578	 2.70060199314256E-02 
1579	 2.49478477288925E-02 
1580	 2.48788442888992E-02 
1581	 2.44346872246269E-02 
1582	 2.59734484072733E-02 
1583	 0.026806024802295 
1584	 2.53577607326865E-02 
1585	 2.48816876801146E-02 
1586	 2.43909715995618E-02 
1587	 2.47306375553952E-02 
1588	 0.028408432271516 
1589	 2.98620576553348E-02 
1590	 2.68249246827717E-02 
1591	 2.71362872748459E-02 
1592	 2.91162316293388E-02 
1593	 2.72203789549568E-02 
1594	 2.70431407059386E-02 
1595	 2.95889478626664E-02 
1596	 2.96128645564174E-02 
1597	 2.79904727044222E-02 
1598	 2.66834381038194E-02 
1599	 2.58894830775901E-02 
1600	 2.50485447479978E-02 
1601	 2.41811850966104E-02 
1602	 2.46411128303006E-02 
1603	 2.43456463496747E-02 
1604	 2.36543545629482E-02 
1605	 2.44242527440173E-02 
1606	 2.49792244340993E-02 
1607	 2.65964533695355E-02 
1608	 2.70823802095368E-02 
1609	 2.55534599239026E-02 
1610	 2.66841633291674E-02 
1611	 2.83230437038411E-02 
1612	 2.69977691631976E-02 
1613	 2.57956570083224E-02 
1614	 2.71752734706742E-02 
1615	 2.57836773929455E-02 
1616	 2.47430726024979E-02 
1617	 0.027470199693224 
1618	 2.62732481238318E-02 
1619	 2.35657690263493E-02 
1620	 2.38546243006856E-02 
1621	 2.43927540414182E-02 
1622	 2.42481090084457E-02 
1623	 2.55717430246218E-02 
1624	 0.027178129862866 
1625	 2.63230783298812E-02 
1626	 2.57550604367577E-02 
1627	 2.61839774865966E-02 
1628	 0.02484465820128 
1629	 2.28276115341355E-02 
1630	 2.30720887353231E-02 
1631	 2.49469128909988E-02 
1632	 2.45268956865344E-02 
1633	 0.023315812974857 
1634	 2.49961336166947E-02 
1635	 2.50532161873472E-02 
1636	 2.39333921909009E-02 
1637	 0.026107743142717 
1638	 2.64864696033536E-02 
1639	 2.57766827909151E-02 
1640	 2.70135597049895E-02 
1641	 2.54489863248357E-02 
1642	 2.31664804819859E-02 
1643	 2.33548314769913E-02 
1644	 2.40171866399127E-02 
1645	 2.47483141344083E-02 
1646	 2.56624006917547E-02 
1647	 2.57676425910635E-02 
1648	 2.46950782672595E-02 
1649	 2.51137802181819E-02 
1650	 2.54002320976736E-02 
1651	 2.39416197100123E-02 
1652	 2.46554704773043E-02 
1653	 2.49454334273659E-02 
1654	 2.47963562986638E-02 
1655	 2.58140310583311E-02 
1656	 2.50974092088513E-02 
1657	 2.25026768048406E-02 
1658	 2.13571221597418E-02 
1659	 1.96171364994516E-02 
1660	 1.97680240872152E-02 
1661	 2.24215273340425E-02 
1662	 2.32594647179006E-02 
1663	 2.33281677880115E-02 
1664	 2.45564798545539E-02 
1665	 0.025551469220838 
1666	 0.0258393450088 
1667	 2.78590834748985E-02 
1668	 2.73363225875707E-02 
1669	 2.76788404785788E-02 
1670	 0.028288314053443 
1671	 2.69342496454185E-02 
1672	 2.80965133745757E-02 
1673	 2.80973600074569E-02 
1674	 2.52154669505134E-02 
1675	 2.50315636904138E-02 
1676	 2.57147349690872E-02 
1677	 2.53763351845784E-02 
1678	 2.69272714578841E-02 
1679	 2.93768648314138E-02 
1680	 2.79918094368831E-02 
1681	 2.34205069259011E-02 
1682	 2.29784215277924E-02 
1683	 2.50657331332249E-02 
1684	 2.35996759363237E-02 
1685	 2.50022790019812E-02 
1686	 2.80286323654655E-02 
1687	 2.50470006202744E-02 
1688	 2.35779499274882E-02 
1689	 2.55794736932327E-02 
1690	 2.53378206215944E-02 
1691	 0.02466680960019 
1692	 2.54702565831749E-02 
1693	 2.43487298558171E-02 
1694	 2.11947021317583E-02 
1695	 2.07828422745914E-02 
1696	 2.33582028779579E-02 
1697	 2.62379028962269E-02 
1698	 0.02567776544494 
1699	 2.40292537752213E-02 
1700	 2.31264572010799E-02 
1701	 2.06093755397986E-02 
1702	 2.27945687781555E-02 
1703	 2.66265187217929E-02 
1704	 2.53600982729476E-02 
1705	 0.025642459637252 
1706	 2.67111218890077E-02 
1707	 2.47495190258558E-02 
1708	 0.026369179874954 
1709	 2.98247488687802E-02 
1710	 2.75538446313012E-02 
1711	 2.44563340299156E-02 
1712	 2.34531299269852E-02 
1713	 2.27972533346603E-02 
1714	 2.26495722740543E-02 
1715	 2.76834942170549E-02 
1716	 2.97667929065872E-02 
1717	 2.64126929633546E-02 
1718	 2.72375535053236E-02 
1719	 2.62611731823344E-02 
1720	 0.023633281666646 
1721	 2.73926396781241E-02 
1722	 3.15590472111624E-02 
1723	 3.15761357933001E-02 
1724	 2.81559718495842E-02 
1725	 2.57455908503734E-02 
1726	 2.49221118595437E-02 
1727	 2.22633750467188E-02 
1728	 2.44769067863827E-02 
1729	 0.026218764114709 
1730	 2.70976154576067E-02 
1731	 3.46251055067003E-02 
1732	 3.35054014713679E-02 
1733	 2.82160746888963E-02 
1734	 2.99632242197095E-02 
1735	 2.83688531361453E-02 
1736	 3.03161046521921E-02 
1737	 3.73329368993157E-02 
1738	 3.36303234649758E-02 
1739	 2.65324651445154E-02 
1740	 2.56650781062466E-02 
1741	 2.46456631633936E-02 
1742	 2.80002334144786E-02 
1743	 0.031828817289779 
1744	 2.64731554468672E-02 
1745	 2.52942826953759E-02 
1746	 2.76966801391115E-02 
1747	 2.66246733817203E-02 
1748	 3.24609249535553E-02 
1749	 3.39263086969773E-02 
1750	 2.43009900308309E-02 
1751	 2.30901012415747E-02 
1752	 0.027235797674213 
1753	 2.76657221321379E-02 
1754	 3.17788846408408E-02 
1755	 3.49674578348054E-02 
1756	 0.035792866745054 
1757	 3.52746687833396E-02 
1758	 3.37726200066436E-02 
1759	 3.59400539459574E-02 
1760	 3.37880796622484E-02 
1761	 2.80965825750895E-02 
1762	 2.63995151654894E-02 
1763	 1.91420540666911E-02 
1764	 1.76123829620406E-02 
1765	 2.95115197782937E-02 
1766	 2.94298027084597E-02 
1767	 1.57394248590647E-02 
1768	 1.41284022094122E-02 
1769	 0.026077558913131 
1770	 3.12133405094891E-02 
1771	 3.86361142738327E-02 
1772	 5.11697794932282E-02 
1773	 3.52366095990943E-02 
1774	 1.44103418353122E-02 
1775	 1.75900992646983E-02 
1776	 1.38493727441077E-02 
1777	 1.48916431134511E-02 
1778	 1.42390315702712E-02 
1779	 4.49683215558008E-03 
1780	 8.52025029402657E-03 
1781	 2.61060029542864E-02 
1782	 2.55605546604142E-02 
1783	 2.76825901258198E-02 
1784	 2.53473197975823E-02 
1785	-1.14274062292446E-02 
1786	-6.35128506515741E-03 
1787	 4.00885316098712E-02 
1788	 4.56083399225758E-02 
1789	 4.81360930856393E-02 
1790	 0.052906097675437 
1791	 5.37937270986701E-02 
1792	 7.31872074650656E-02 
1793	 6.79918089897271E-02 
1794	 2.98661046639466E-02 
1795	-1.85949791215609E-02 
1796	-1.81302250654327E-02 
1797	 1.55226641398107E-02 
1798	 1.83603722812422E-02 
1799	 7.45198969235851E-02 
1800	 0.171998750732041 
1801	 0.175235600185432 
1802	 0.188580728146451 
1803	 0.166494074062107 
1804	-0.20196981683135 
1805	-0.279455434720226 
1806	-6.05714634439499E-02 
1807	 1.43148764565622E-02 
1808	 0.475940171091328 
1809	 0.594742678523522 
1810	 0.294708455906079 
1811	 0.1160854810065 
1812	-0.36617385218524 
1813	-0.428029670644238 
1814	-0.27559904586742 
1815	-0.046754212513892 
1816	 0.3496550709029 
1817	 0.275971388454128 
1818	 0.18579117763985 
1819	-5.84330923903123E-02 
1820	-0.314465938338722 
1821	-0.858421806257269 
1822	-1.4961270892622 
1823	-1.22821336606484 
1824	-2.04260448386109 
1825	-1.55078398561131 
1826	-1.08360548717083 
1827	-1.08700844687469 
1828	-0.619495323588147 
1829	 2.12138936571389 
1830	 2.67104581747554 
1831	-0.166059135238458 
1832	-0.854924828575081 
1833	-0.187589161199891 
1834	-0.71775541390875 
1835	 7.54137393651405 
1836	 6.04921426266776 
1837	 3.10492062632753 
1838	 2.95956055155825 
1839	 5.19901825902029 
1840	 29.5692621527763 
1841	-0.809545519471308 
1842	 3.58611985188249E-02 
1843	 0.329796206190374 
1844	-9.70982328188274E-02 
1845	-0.734512391508454 
1846	 2.11128079022494 
1847	 1.62321939876639 
1848	-1.60905708599287 
1849	-2.81795853668718E-02 
1850	 3.31160629178712 
1851	 6.9656863060978 
1852	 1.65061922227124 
1853	 0.752133960112341 
1854	 0.548897626643622 
1855	 0.314351703192544 
1856	 0.337059328292258 
1857	 0.581643937011241 
1858	 0.608200232511562 
1859	 0.58031414723533 
1860	 0.495026240349472 
1861	 0.433058287506114 
1862	-3.60317417671405E-02 
1863	-0.154155237380826 
1864	 0.243214948736726 
1865	-0.428427037578263 
1866	 12.0162174180822 
1867	 3.28913816707087 
1868	-0.812485740966301 
1869	-1.95592183458344 
1870	-1.88340804820153 
1871	 0.277190001314095 
1872	 0.36020583570225 
1873	 0.380712572684337 
1874	 1.27095275695238 
1875	 1.91682379328871 
1876	 2.35677355788973 
1877	 4.26319380239004 
1878	 3.80001544360204 
1879	 1.86994881223513 
1880	 1.23622917460645 
1881	 0.293260378044683 
1882	 3.77065125091529E-02 
1883	 0.429851635923279 
1884	 1.37252968821639 
1885	 5.40063634345728 
1886	 45.4212079369054 
1887	-0.204962949721415 
1888	-1.19015628226989 
1889	-0.564954241007733 
1890	-0.113562942684082 
1891	 0.18543700033133 
1892	 1.05750273640357 
1893	 3.41472553380883 
1894	 11.3079648309223 
1895	 18.2299874753869 
1896	 10.4383647641769 
1897	 2.94103093952955 
1898	 1.67332055790145 
1899	 2.94087741009083 
1900	 7.32492804052691 
1901	 0.679418024348221 
1902	 1.14177229073949 
1903	 0.048464503348777 
1904	-0.617216719667379 
1905	 1.09066169669003 
1906	 0.841573541235371 
1907	 0.80714841135693 
1908	 0.762421879020396 
1909	 0.78664461588309 
1910	 0.611867411839927 
1911	 2.69960320429422 
1912	-0.948242211062619 
1913	-6.78227530456051 
1914	 1.06612531481672 
1915	 0.556580937236358 
1916	-0.583328451478032 
1917	-0.841554018440006 
1918	-4.20624123831193 
1919	 3.37743938919466 
1920	 0.730587079555699 
1921	 0.340381987812981 
1922	-4.43839209701703E-02 
1923	-0.106535292459787 
1924	 0.129808055092413 
1925	 0.615347563583653 
1926	 0.827261381144902 
1927	 0.910063135315011 
1928	 0.790058614501812 
1929	 4.87517946618052 
1930	-0.476291416392755 
1931	-0.349171368323879 
1932	-0.497587508390874 
1933	-0.313337550113446 
1934	 1.55128014809537E-02 
1935	 0.519621097162834 
1936	 0.186855697022314 
1937	-1.0238383332853 
1938	-0.795242634659678 
1939	-0.674845109676532 
1940	-0.266635360854546 
1941	-1.69223153924443E-03 
1942	 0.134156735866677 
1943	-8.11643501938206E-02 
1944	-0.438483332422531 
1945	-0.699858570363781 
1946	-1.16804451286618 
1947	 18.0918845091559 
1948	 0.576442511854497 
1949	 0.446474699212575 
1950	-3.81403466770605E-03 
1951	-0.746946237862571 
1952	-1.31067254311089 
1953	-7.59162662025404 
1954	 4.80755070368 
1955	 2.2744247850845 
1956	 0.13661024400006 
1957	 0.37483543081166 
1958	 1.31311268801783 
1959	 0.752625211423111 
1960	 0.722469478316479 
1961	 0.534777253037618 
1962	 0.303849597380132 
1963	 0.517024696271134 
1964	 0.622755145403758 
1965	 0.389526911403166 
1966	 0.368982264966575 
1967	 0.42818038603696 
1968	 0.222809133884066 
1969	 0.538118298503887 
1970	 0.508992424795771 
1971	 0.265498685177877 
1972	 0.280074975328374 
1973	 0.143632963671051 
1974	-8.94698484358333E-02 
1975	 6.18867935031545E-02 
1976	 5.83618934274071E-02 
1977	-0.126077859312433 
1978	-7.85361050965629E-02 
1979	-1.30099651378484E-02 
1980	 6.29769542583183E-02 
1981	 7.67384599299637E-02 
1982	 0.170486082923782 
1983	 0.206064311568717 
1984	 0.189295478995896 
1985	 0.158735697344771 
1986	 0.120109486859144 
1987	 0.163480631380095 
1988	 0.146974305982479 
1989	-7.05235986721344E-02 
1990	-5.60003736680257E-02 
1991	 5.88532668372104E-02 
1992	 0.105647784064694 
1993	 0.221148012323201 
1994	 0.321493596511316 
1995	 0.556565723210944 
1996	 0.601780539544897 
1997	 0.519872835162624 
1998	 0.41863983410896 
1999	 0.138694710079133 
2000	 0.02297351741409 
2001	 6.44133763671496E-02 
2002	 0.12418716394152 
2003	 0.417468862516467 
2004	 0.588599589798439 
2005	 0.629450011432535 
2006	 0.69737627075761 
2007	 0.466098874494417 
2008	 0.413404033889172 
2009	 0.355863795415427 
2010	 1.66792173311883E-02 
2011	-0.297740088094173 
2012	-0.374732830407938 
2013	-8.17931025979312E-03 
2014	-2.01603259228151E-02 
2015	 8.38165745840024E-02 
2016	 0.125517083032032 
2017	 5.42760232838228E-03 
2018	-0.151280388914211 
2019	-0.119501455450774 
2020	 3.76956572292521E-02 
2021	 0.137654916072538 
2022	 0.186254566420663 
2023	 0.189705419828437 
2024	 0.145964937449385 
2025	 4.23819252940834E-03 
2026	-0.044454069455861 
2027	-0.070916416547117 
2028	-7.22161988291894E-02 
2029	-4.46406006736003E-02 
2030	-4.97945397744887E-03 
2031	 1.11956337814645E-02 
2032	 1.10575958387777E-02 
2033	 1.28662849919851E-02 
2034	 0.038987542518853 
2035	 5.92148222652589E-02 
2036	 8.68187719108662E-02 
2037	 0.117810407823124 
2038	 0.129161814647735 
2039	 0.125985658258649 
2040	 0.113400315142337 
2041	 9.80377620844856E-02 
2042	 5.70067230521824E-02 
2043	 4.39401622682254E-02 
2044	 2.79706901691588E-02 
2045	 5.55789948963411E-02 
2046	 0.117882994151964 
2047	 0.141573583939475 
2048	 0.149597102646324 
2049	 0.166708519349467 
2050	 0.135202763344215 
2051	 6.00850034608347E-02 
2052	 4.78752276771224E-02 
2053	 6.76744877609813E-02 
2054	 0.100881972082019 
2055	 0.144788509467391 
2056	 0.149349782445688 
2057	 9.92315522864782E-02 
2058	 9.62335324246265E-02 
2059	 9.68842720903382E-02 
2060	 0.106535003918176 
2061	 0.142732162507866 
2062	 0.177775141258716 
2063	 0.176758966187787 
2064	 0.153167866073932 
2065	 8.39506033045864E-02 
2066	 2.86194155358114E-02 
2067	 2.58708712828811E-02 
2068	 1.80936717300374E-02 
2069	 4.75993487107289E-02 
2070	 8.51280073287313E-02 
2071	 9.82015673649436E-02 
2072	 0.121843054747987 
2073	 0.123684554731222 
2074	 0.109478799702175 
2075	 9.66655127129963E-02 
2076	 7.39366325081631E-02 
2077	 5.62581701944668E-02 
2078	 2.48014065876714E-02 
2079	 2.76585066212648E-02 
2080	 5.24216208217897E-02 
2081	 6.32278076444572E-02 
2082	 8.27288024042485E-02 
2083	 0.10022891097267 
2084	 7.71248760298924E-02 
2085	 6.50554576724511E-02 
2086	 4.85306028258097E-02 
2087	 2.68427395793672E-02 
2088	 3.30523260591929E-02 
2089	 2.59417867763688E-02 
2090	 3.32389681201362E-03 
2091	 9.91717733376022E-03 
2092	 1.93101750268455E-02 
2093	 3.29060773688235E-02 
2094	 3.87479682553379E-02 
2095	 5.47764063853408E-02 
2096	 5.73049940941276E-02 
2097	 5.49670089922954E-02 
2098	 0.047597600238715 
2099	 2.91132710989664E-02 
2100	 2.54658833447232E-02 
2101	 0.019750401126393 
2102	-8.10494646752194E-03 
2103	-1.37390513942335E-02 
2104	-1.18490925326186E-02 
2105	-9.48949859139791E-03 
2106	 1.09195492240256E-02 
2107	 3.28928109614372E-02 
2108	 5.07704033095172E-02 
2109	 7.57756351598182E-02 
2110	 8.68051041103677E-02 
2111	 6.53760066719604E-02 
2112	 0.045522210822902 
2113	 3.80519923887803E-02 
2114	 2.08721472327084E-02 
2115	 1.41232143273259E-02 
2116	 3.53376877653722E-02 
2117	 3.78985656962474E-02 
2118	 2.33314308227066E-02 
2119	 1.90143837563868E-02 
2120	 2.04110362784206E-02 
2121	 1.62491103709018E-02 
2122	 1.09737574466641E-02 
2123	 0.023038817175864 
2124	 1.59441520726306E-02 
2125	 2.79305433680481E-03 
2126	-3.91884923836911E-03 
2127	-8.92802432410667E-03 
2128	-4.46277119796232E-03 
2129	 1.66016708160529E-02 
2130	 3.66431468659818E-02 
2131	 3.71638359162248E-02 
2132	 0.049741956068864 
2133	 5.97050822963965E-02 
2134	 5.49191136160894E-02 
2135	 3.80116796388606E-02 
2136	 2.99289455321654E-02 
2137	 9.9832118708973E-03 
2138	 3.8646528428245E-03 
2139	 1.31291728854397E-02 
2140	 1.64362073551012E-02 
2141	 1.29636769250336E-02 
2142	 1.63060669815359E-02 
2143	 2.26837479155145E-02 
2144	 3.45754016269809E-02 
2145	 3.86346024500409E-02 
2146	 5.26035148511488E-02 
2147	 6.26672607710624E-02 
2148	 4.85191564869574E-02 
2149	 4.97914729188526E-02 
2150	 5.76343369616879E-02 
2151	 3.98523205778303E-02 
2152	 4.01024620373445E-02 
2153	 4.68370135309906E-02 
2154	 3.90644585717344E-02 
2155	 4.62537436893462E-02 
2156	 4.82958701923204E-02 
2157	 4.73569821023258E-02 
2158	 3.79858034830284E-02 
2159	 3.67198978321735E-02 
2160	 3.43665628021444E-02 
2161	 3.66386848432027E-02 
2162	 5.21404574190294E-02 
2163	 4.87930000444973E-02 
2164	 3.48021292676367E-02 
2165	 3.15790105529805E-02 
2166	 1.84432330895885E-02 
2167	 1.29885280992976E-02 
2168	 2.14220695053883E-02 
2169	 2.49713007119798E-02 
2170	 3.07721904625865E-02 
2171	 2.55039064332571E-02 
2172	 1.97272788066415E-02 
2173	 3.05548970767036E-02 
2174	 3.45771785467322E-02 
2175	 3.69061175280361E-02 
2176	 4.20208340409154E-02 
2177	 3.97282634528174E-02 
2178	 0.04650076615062 
2179	 4.97307339940029E-02 
2180	 2.96676398218457E-02 
2181	 2.14202808112528E-02 
2182	 1.73778964673702E-02 
2183	-7.7402522117257E-03 
2184	-8.72883047655823E-03 
2185	 0.012400687230683 
2186	 1.73639047454283E-02 
2187	 1.69505792266573E-02 
2188	 2.20186721676298E-02 
2189	 1.75426945084994E-02 
2190	 2.28228464462903E-02 
2191	 4.10541924236497E-02 
2192	 5.77332141662833E-02 
2193	 0.086988675567989 
2194	 0.095419237477617 
2195	 8.89237831764059E-02 
2196	 8.45079110240654E-02 
2197	 6.74202599165898E-02 
2198	 5.79420971883257E-02 
2199	 5.30330415255717E-02 
2200	 5.16792887774701E-02 
2201	 0.047320418841317 
2202	 4.90703221026229E-02 
2203	 4.79421072506749E-02 
2204	 4.40074679458683E-02 
2205	 3.43371154942211E-02 
2206	 2.71654524344976E-02 
2207	 3.23306068590182E-02 
2208	 0.046231248143081 
2209	 5.63040921013397E-02 
2210	 5.59153742096976E-02 
2211	 0.057327811761505 
2212	 5.82618333709532E-02 
2213	 7.13176328974487E-02 
2214	 7.17100100286091E-02 
2215	 5.26613552170242E-02 
2216	 5.36357771612745E-02 
2217	 6.24960923581587E-02 
2218	 8.50605968901538E-02 
2219	 8.24841079328166E-02 
2220	 0.082402127469224 
2221	 7.51626729697035E-02 
2222	 0.030243459032498 
2223	 3.06829028361875E-02 
2224	 6.98570887013443E-02 
2225	 7.26046244527708E-02 
2226	 7.28865464810012E-02 
2227	 6.75370687705633E-02 
2228	 0.039731503299734 
2229	 3.16478743254456E-02 
2230	 3.62892048809933E-02 
2231	 3.19670645882388E-02 
2232	 3.00848915269037E-02 
2233	 2.29616178535616E-02 
2234	 3.02886972365007E-03 
2235	-4.13374522748833E-03 
2236	 0.012730610779203 
2237	 1.77432408170029E-02 
2238	 2.87925143164387E-02 
2239	 3.49951599596734E-02 
2240	 2.13220820874177E-02 
2241	 7.33431305613436E-03 
2242	 1.49476699293746E-03 
2243	 0.019354710947521 
2244	 3.00169613092373E-02 
2245	 3.36674215542074E-02 
2246	 0.04807514707156 
2247	 4.21335791679237E-02 
2248	 2.69731121429633E-02 
2249	 2.46956390279298E-02 
2250	 3.3368428625858E-03 
2251	-3.55254934285866E-02 
2252	-4.21947238703043E-02 
2253	-4.12085014223927E-02 
2254	-4.05572725953013E-02 
2255	-1.04995758347601E-02 
2256	-1.11019180876157E-03 
2257	-6.02259063829107E-03 
2258	-5.1896965295363E-03 
2259	 4.48508472470518E-03 
2260	 2.24475804033932E-02 
2261	 6.26320220699184E-02 
2262	 0.067204965473193 
2263	 5.97918371559548E-02 
2264	 5.30556834109664E-02 
2265	 2.28883555931263E-02 
2266	 2.29703511778981E-02 
2267	 5.31494485454985E-02 
2268	 0.053292408628682 
2269	 2.93672387069389E-02 
2270	 2.75834188044215E-02 
2271	 3.07077164893505E-02 
2272	 2.89026644265919E-02 
2273	 5.83858017776546E-02 
2274	 6.87197425291252E-02 
2275	 3.77304442459146E-02 
2276	 2.28679043365523E-02 
2277	 7.44340098774395E-03 
2278	 5.13767886883875E-03 
2279	 2.41281827411203E-02 
2280	 2.88105821254132E-02 
2281	 4.54363247992347E-02 
2282	 2.87363935295663E-02 
2283	 7.45373118569563E-03 
2284	 2.46247610764288E-02 
2285	 4.77816657953877E-02 
2286	 7.45390477708586E-02 
2287	 9.21307044752644E-02 
2288	 0.10222912216333 
2289	 0.108844390597201 
2290	 0.101889238694189 
2291	 9.24859629855165E-02 
2292	 5.44436503231375E-02 
2293	-2.00386826861091E-02 
2294	-6.08074815384959E-02 
2295	-5.19753731522259E-02 
2296	-4.08653465613895E-02 
2297	-1.59379821719771E-03 
2298	 1.23072773482078E-02 
2299	 3.21340757413348E-04 
2300	-3.50360232359253E-02 
2301	-8.59813484905994E-02 
2302	-7.64378617696364E-02 
2303	-6.35932787770024E-02 
2304	-4.13069303143342E-02 
2305	 2.22542667471399E-02 
2306	 4.87662429383686E-02 
2307	 1.46699106250352E-02 
2308	-3.00835289386676E-02 
2309	-5.67190550805412E-02 
2310	-5.14483552642972E-02 
2311	-2.26957266702129E-02 
2312	-9.42661034067777E-03 
2313	 8.82393248006469E-02 
2314	 0.129394098351615 
2315	 0.122848732162633 
2316	 0.157420013549051 
2317	 1.31634424587518E-02 
2318	-9.97853994661702E-02 
2319	-0.109959352898238 
2320	-0.132232222415553 
2321	-3.21142477623637E-02 
2322	-3.76759425428433E-02 
2323	-0.15024683568001 
2324	-0.162060862208597 
2325	-0.214946276767354 
2326	-0.212224341034808 
2327	-6.12515018877128E-02 
2328	 4.78426545573305E-03 
2329	-6.49342119064974E-03 
2330	-7.92027205349022E-02 
2331	-0.11496459607858 
2332	-0.149331758097138 
2333	-0.220587148299192 
2334	-0.194676194566017 
2335	-0.165054063686492 
2336	-0.194523124110419 
2337	-7.69076465195993E-02 
2338	 2.75738746499477E-02 
2339	 8.24513813775929E-03 
2340	-1.00197061012009E-02 
2341	 5.07491697427893E-02 
2342	 2.17709205691687E-02 
2343	 0.01118530527446 
2344	 0.213230083835837 
2345	 0.238125905369927 
2346	 0.144439884469188 
2347	 1.22161628774286E-02 
2348	-0.119867877541258 
2349	-0.110546752760057 
2350	-0.167752504613688 
2351	-0.119702489140927 
2352	-2.16558469719729E-04 
2353	 0.181934728886511 
2354	 0.456761238106431 
2355	 0.503624019632226 
2356	 0.394819511551734 
2357	 5.88214578467406E-02 
2358	-0.258464025660528 
2359	-0.419398411588188 
2360	-0.245893902203927 
2361	-0.127936376905928 
2362	-2.90367835135707E-03 
2363	 0.121105918475554 
2364	 2.34292140585542E-02 
2365	 1.18351989216016E-02 
2366	 0.137776402089802 
2367	 0.307040544693264 
2368	 0.34845928202596 
2369	 0.362303705466933 
2370	 0.392075455674837 
2371	 0.163805820829564 
2372	 0.07240828751309 
2373	 0.383028328800531 
2374	 0.342991146561026 
2375	 0.657369964095703 
2376	 0.869933733678701 
2377	 0.305091059625342 
2378	 1.55978730639596E-02 
2379	-0.163976108639027 
2380	-1.13257345182325E-02 
2381	 0.217186077325696 
2382	 0.232353401026102 
2383	 0.609104452971248 
2384	 1.39756185187483 
2385	 0.601189567194751 
2386	 0.567426689298748 
2387	-1.100397571093 
2388	-1.63461921351327 
2389	 0.904554979045574 
2390	-1.30091865165817 
2391	 0.34021427233122 
2392	 1.62723271112367 
2393	-54.9840099654208 
2394	 6.93077167733059E-02 
2395	 138.191842259653 
2396	 19.8220981793244 
2397	 2.75686185238015 
2398	 36.9458726009889 
2399	-3.81733232037385 
2400	 3.22773165344789 
2401	 0.549292123773097 
2402	 0.011411937062579 
2403	 0.191113570816951 
2404	 0.123856753384442 
2405	-0.129774092449202 
2406	-2.81582779422588 
2407	 2.51707487668606 
2408	 6.7860427896628 
2409	 1.5940148521237 
2410	 0.757587556073494 
2411	 1.1100341284948 
2412	 0.948145962576066 
2413	 0.406672311626428 
2414	-9.29536914025643E-02 
2415	-0.712062976311534 
2416	 3.73847188213842 
2417	 1.89587762145774 
2418	 0.514580428130696 
2419	 5.32394065763962E-02 
2420	 0.266185382507648 
2421	 0.100663846355045 
2422	 0.144937037477603 
2423	 3.03294916094118 
2424	-0.79524247263784 
2425	 0.111977508947064 
2426	-1.00607378500308 
2427	-0.977905363195764 
2428	-1.86255148071495 
2429	-0.710775141429361 
2430	 0.326608368764222 
2431	-0.389047744316705 
2432	-0.130828788542494 
2433	 0.754425650553558 
2434	 1.13962694724098 
2435	 0.941552678180305 
2436	 1.31318441414719 
2437	 1.62506953738251 
2438	 2.319571110028 
2439	-0.173954658156285 
2440	-5.12941181284189E-02 
2441	 5.06542234678028E-02 
2442	-2.43570454851293 
2443	 2.2029501285446 
2444	 0.770365802596545 
2445	 0.700716229621071 
2446	 0.828591843147156 
2447	 5.21659551592459 
2448	-6.06912933490173 
2449	-0.793895049238148 
2450	-0.209034339510533 
2451	-0.289587797923015 
2452	 4.70524453965694 
2453	-2.51351406325522 
2454	-0.919679348677541 
2455	-0.589488483747751 
2456	-0.437865438455071 
2457	-0.354348125443421 
2458	-0.326786313229498 
2459	-0.365857522193189 
2460	-0.366813054048664 
2461	 4.13647648194584E-02 
2462	 0.377602736821814 
2463	 1.73390950580491 
2464	 2.6474350744719 
2465	 1.52180765050904 
2466	 4.54739455477714E-02 
2467	-1.20237105790396 
2468	-3.49427690985142 
2469	 89.8626074277446 
2470	 1.95174474066966 
2471	-2.20084705629522E-02 
2472	-0.359081631798928 
2473	-0.578335015713755 
2474	-1.0781907938539 
2475	-2.05479013345296 
2476	-0.962875004871372 
2477	-0.9394122905663 
2478	-0.436140927971892 
2479	-0.336738284017575 
2480	 0.269254712647689 
2481	 1.16817006670137 
2482	 2.34427074283657 
2483	 1.51923931847221 
2484	 0.506221149660843 
2485	-0.267955211975779 
2486	 1.55068869935154 
2487	 11.2534025601039 
2488	 0.837949880504714 
2489	-1.233299891618 
2490	-1.0574508525981 
2491	 1.74836110965277 
2492	-0.426732888562983 
2493	-0.961601968057347 
2494	-2.58988175078655 
2495	 4.32108442396592 
2496	 1.21791500294427 
2497	 0.184678327329549 
2498	 1.03724824108749E-02 
2499	-4.56369786159669E-02 
2500	 0.253821408986445 
