Wavelength	rt0712west_close200007.asd
350	 7.89146246998782E-02 
351	 7.93567897908679E-02 
352	 8.00429423182675E-02 
353	 8.01579764642063E-02 
354	 7.97727926743073E-02 
355	 8.08023220538252E-02 
356	 8.16659163360327E-02 
357	 8.13003566680695E-02 
358	 7.97294017179408E-02 
359	 8.05968696465091E-02 
360	 8.08928865292864E-02 
361	 8.07596094968781E-02 
362	 0.082234214166427 
363	 8.16703900497193E-02 
364	 8.14994128553474E-02 
365	 8.23202404487284E-02 
366	 0.08080003421812 
367	 8.09569232233342E-02 
368	 8.16574289880685E-02 
369	 8.12799554303844E-02 
370	 8.16499620231283E-02 
371	 8.14133525556586E-02 
372	 8.08459484717449E-02 
373	 0.08107123730044 
374	 8.13548047553365E-02 
375	 0.08162306743025 
376	 8.19030853856081E-02 
377	 8.22743703590693E-02 
378	 8.24980553588681E-02 
379	 8.25796752366624E-02 
380	 8.26846954559902E-02 
381	 8.32903919010716E-02 
382	 8.34996656611191E-02 
383	 8.36648727460411E-02 
384	 8.44872889500424E-02 
385	 0.084506700184498 
386	 8.42696493846171E-02 
387	 8.42919626543803E-02 
388	 0.084811980608538 
389	 8.50976355161468E-02 
390	 0.085891024931614 
391	 8.70874839699211E-02 
392	 8.57075990973837E-02 
393	 8.52658504028179E-02 
394	 8.58487579396679E-02 
395	 8.62967888582554E-02 
396	 8.68313592924357E-02 
397	 8.66140160700227E-02 
398	 8.62695431575041E-02 
399	 8.74911855232218E-02 
400	 8.73227364441806E-02 
401	 8.69964303807521E-02 
402	 8.74696488181398E-02 
403	 8.76365963518789E-02 
404	 8.76124298381765E-02 
405	 8.75665401241789E-02 
406	 8.77132709727572E-02 
407	 8.83025898497835E-02 
408	 0.088344669917489 
409	 8.80464685459716E-02 
410	 8.87492856931497E-02 
411	 8.89957284578146E-02 
412	 8.89898661479547E-02 
413	 0.089146360314412 
414	 8.96757770804613E-02 
415	 8.98846332783258E-02 
416	 9.00936754335249E-02 
417	 9.07898189734457E-02 
418	 9.06830623989438E-02 
419	 9.06056051074549E-02 
420	 9.10446271715875E-02 
421	 9.19132862860035E-02 
422	 9.17666479142906E-02 
423	 9.18294097186522E-02 
424	 9.28507641908799E-02 
425	 9.25558902611381E-02 
426	 9.28334079499803E-02 
427	 0.093668357158904 
428	 9.41406733875484E-02 
429	 0.094052062156572 
430	 9.45478619261706E-02 
431	 9.56119372892573E-02 
432	 9.57594758483094E-02 
433	 9.57905193685492E-02 
434	 9.62510968978453E-02 
435	 0.097176226602423 
436	 9.72661997032427E-02 
437	 9.75003728789051E-02 
438	 9.80246692505331E-02 
439	 9.85029610497634E-02 
440	 9.88029214512123E-02 
441	 9.91824895113837E-02 
442	 9.97135537349006E-02 
443	 0.10013890709156 
444	 0.100293620855075 
445	 0.100546327840416 
446	 0.101201388649259 
447	 0.101765678325829 
448	 0.101918734016899 
449	 0.101915776133924 
450	 0.102367828905291 
451	 0.102660171174838 
452	 0.103006916314378 
453	 0.103450795519729 
454	 0.103394273063349 
455	 0.103802692505106 
456	 0.104228854003827 
457	 0.104035222116155 
458	 0.104562502176874 
459	 0.104735085354503 
460	 0.104441669589353 
461	 0.104637022370997 
462	 0.105169151293424 
463	 0.105402630651582 
464	 0.105153381517231 
465	 0.105823464924465 
466	 0.106012290982027 
467	 0.105825086551628 
468	 0.106025843598427 
469	 0.106162578995122 
470	 0.106400809814337 
471	 0.106683943725724 
472	 0.106592592110256 
473	 0.10673325537424 
474	 0.107126642114651 
475	 0.107554881005027 
476	 0.10753290864511 
477	 0.107888528840655 
478	 0.108425951872956 
479	 0.108368276126595 
480	 0.10894958215776 
481	 0.109300567597413 
482	 0.109126304679164 
483	 0.109878595880377 
484	 0.110372721156636 
485	 0.110555756346644 
486	 0.110808881546483 
487	 0.111429725090856 
488	 0.112044025653076 
489	 0.112424263664338 
490	 0.112552175046397 
491	 0.112941721210399 
492	 0.11357360107404 
493	 0.114215836262192 
494	 0.114333115622806 
495	 0.114894190161868 
496	 0.115655579941983 
497	 0.115869689728453 
498	 0.11628134988048 
499	 0.116827530053142 
500	 0.117347591507005 
501	 0.117652869543101 
502	 0.118228053262298 
503	 0.118755991432431 
504	 0.11893633782306 
505	 0.119497803341885 
506	 0.12051304320481 
507	 0.121529190038853 
508	 0.121805316035134 
509	 0.122267856355458 
510	 0.123041706529542 
511	 0.123960982108817 
512	 0.124480678474871 
513	 0.125458202131938 
514	 0.126383222735807 
515	 0.12644778437624 
516	 0.127326304628025 
517	 0.128344397018052 
518	 0.12907347298102 
519	 0.12966637408997 
520	 0.130219687335508 
521	 0.13096133735718 
522	 0.131953789449825 
523	 0.132609854020924 
524	 0.133345098363843 
525	 0.134298607281345 
526	 0.135372567841776 
527	 0.136229138416312 
528	 0.136908178397099 
529	 0.137622922250001 
530	 0.138868386448907 
531	 0.139667899984109 
532	 0.14031807680824 
533	 0.141446883022456 
534	 0.142551949279828 
535	 0.143531974693796 
536	 0.144415572054011 
537	 0.145338252837897 
538	 0.1461317402036 
539	 0.146987711461239 
540	 0.148041015259911 
541	 0.148957282226058 
542	 0.149803277875606 
543	 0.150744223137134 
544	 0.151948970481557 
545	 0.152849739237657 
546	 0.15402112658246 
547	 0.155554091088531 
548	 0.156331306798981 
549	 0.157288443994763 
550	 0.158466539479002 
551	 0.159615322425425 
552	 0.160710392714808 
553	 0.161819746973138 
554	 0.162838435947073 
555	 0.163465428752875 
556	 0.164386280807033 
557	 0.16551762349791 
558	 0.166559308800579 
559	 0.167204860886673 
560	 0.167968201982175 
561	 0.168909447704137 
562	 0.169806683412487 
563	 0.170751722953673 
564	 0.171529145875477 
565	 0.172041693041195 
566	 0.17246937677802 
567	 0.173000598011389 
568	 0.173522961555243 
569	 0.17391157484216 
570	 0.174798419103576 
571	 0.175534154663766 
572	 0.175956607529681 
573	 0.176500697403702 
574	 0.177046416394681 
575	 0.17772841272833 
576	 0.178567625542482 
577	 0.179089301209394 
578	 0.179628150899466 
579	 0.180206437799278 
580	 0.180664269608405 
581	 0.181035172708604 
582	 0.181400242834455 
583	 0.181696788837657 
584	 0.181580969476608 
585	 0.181272820744042 
586	 0.180614927440421 
587	 0.17942562920918 
588	 0.178480173339829 
589	 0.17782105516237 
590	 0.177590922501062 
591	 0.177965322948921 
592	 0.178325085281264 
593	 0.178585973922496 
594	 0.178732564047135 
595	 0.178577082767265 
596	 0.178543244428186 
597	 0.178681724160787 
598	 0.178843806575432 
599	 0.179122538178332 
600	 0.179292965805991 
601	 0.179245152948 
602	 0.179084936523334 
603	 0.178969862595828 
604	 0.178981437345525 
605	 0.179126771163065 
606	 0.179231642990329 
607	 0.17934484217294 
608	 0.179369970331092 
609	 0.179090190060589 
610	 0.179523241165078 
611	 0.179834110472017 
612	 0.179426603266321 
613	 0.179591225865361 
614	 0.179800921957158 
615	 0.179854725791193 
616	 0.179758118625457 
617	 0.17981322852031 
618	 0.179540709092968 
619	 0.179086672395243 
620	 0.179795652353742 
621	 0.179821620351214 
622	 0.17939954809693 
623	 0.179291055396662 
624	 0.179227776785487 
625	 0.178751467171241 
626	 0.178043763527158 
627	 0.177930604350098 
628	 0.17790690608663 
629	 0.177974243155706 
630	 0.178206572992186 
631	 0.178692624368726 
632	 0.178808538513066 
633	 0.178576568603603 
634	 0.178407705327211 
635	 0.178937781695129 
636	 0.179419366924649 
637	 0.17945380180217 
638	 0.179311644619086 
639	 0.179382068728761 
640	 0.179479284834311 
641	 0.179359795395474 
642	 0.179377289657457 
643	 0.179170846975087 
644	 0.178521752723937 
645	 0.177368848671971 
646	 0.176426093331669 
647	 0.176209961069536 
648	 0.176669115279238 
649	 0.176717711878474 
650	 0.176855287806836 
651	 0.177067930804657 
652	 0.177159724621294 
653	 0.177050748979578 
654	 0.176568887357256 
655	 0.175890112151985 
656	 0.175754517212494 
657	 0.175550467959466 
658	 0.175349688937469 
659	 0.175296444414572 
660	 0.17539168298507 
661	 0.175207414690498 
662	 0.17489983019516 
663	 0.174918447031542 
664	 0.174676888019183 
665	 0.174359540033982 
666	 0.174154718660684 
667	 0.17408966351891 
668	 0.174132595559601 
669	 0.174166655425906 
670	 0.174068539269741 
671	 0.173775595575961 
672	 0.17392703671835 
673	 0.174350521916883 
674	 0.174150021577451 
675	 0.174040305966355 
676	 0.174149458982371 
677	 0.174423819548609 
678	 0.17467730286661 
679	 0.174704770743412 
680	 0.174652053808817 
681	 0.174799890354361 
682	 0.175067433855808 
683	 0.175005142693207 
684	 0.174526226192637 
685	 0.173998790030493 
686	 0.173518601212409 
687	 0.17320987129071 
688	 0.173174990534688 
689	 0.173652851430094 
690	 0.173590448828648 
691	 0.172662670094813 
692	 0.171071541249011 
693	 0.170334195157387 
694	 0.170903596673092 
695	 0.172076110394746 
696	 0.172542496933617 
697	 0.17140064146411 
698	 0.169411559364149 
699	 0.168116774591722 
700	 0.167879699063058 
701	 0.16798841814362 
702	 0.167751916510674 
703	 0.16676993650933 
704	 0.165995987068697 
705	 0.165314571123883 
706	 0.164601889835438 
707	 0.164019463510195 
708	 0.162850953861853 
709	 0.161508949631551 
710	 0.1606130938942 
711	 0.159228264055834 
712	 0.157565585641406 
713	 0.155723873545337 
714	 0.153545781756913 
715	 0.149854732258159 
716	 0.144700793537388 
717	 0.139860555292887 
718	 0.136371572448193 
719	 0.135784600612861 
720	 0.136336286021957 
721	 0.13604663859184 
722	 0.133659954136964 
723	 0.130139468759068 
724	 0.127081118807422 
725	 0.124953519355722 
726	 0.122909135471788 
727	 0.120849554017366 
728	 0.118711964782072 
729	 0.116052581928814 
730	 0.112989251690158 
731	 0.110583584876006 
732	 0.109243196720721 
733	 0.108267361224541 
734	 0.106672527055702 
735	 0.104480832997871 
736	 0.103116556222574 
737	 0.10217271134451 
738	 0.101939794768571 
739	 0.102338469498501 
740	 0.101981483936801 
741	 0.101347286796113 
742	 0.101199845009198 
743	 0.102093451190263 
744	 0.102062558003225 
745	 0.101690904346325 
746	 0.101486939218744 
747	 0.101517932176157 
748	 0.101727221478645 
749	 0.101874343018167 
750	 0.101768568838573 
751	 0.101501040641987 
752	 0.101469753380694 
753	 0.101505003471629 
754	 0.10120912795229 
755	 0.101168946095889 
756	 0.101132631966682 
757	 0.10091246287853 
758	 0.100386575564202 
759	 9.85432068088991E-02 
760	 9.59051978838195E-02 
761	 9.62150668247195E-02 
762	 9.53115937772583E-02 
763	 9.58677346747865E-02 
764	 9.78764354298684E-02 
765	 0.100115679337579 
766	 0.100933230086117 
767	 0.101366277366339 
768	 0.101843696949107 
769	 0.102356575077362 
770	 0.102784248619633 
771	 0.103147769841389 
772	 0.103454551981589 
773	 0.103552598205577 
774	 0.103960141826237 
775	 0.104559415117096 
776	 0.104972366645878 
777	 0.105144895322159 
778	 0.105301111710845 
779	 0.105671966997644 
780	 0.106408907676256 
781	 0.106555002542768 
782	 0.106845940227925 
783	 0.10765438421805 
784	 0.107749964522592 
785	 0.107915913343837 
786	 0.108196292877193 
787	 0.108372582666318 
788	 0.108335886730542 
789	 0.108724478332568 
790	 0.109640702552108 
791	 0.110666654931941 
792	 0.11163620968128 
793	 0.11200951295852 
794	 0.111863825785743 
795	 0.112285176990234 
796	 0.11287009646398 
797	 0.11333306320182 
798	 0.113539973045843 
799	 0.113587670958668 
800	 0.113730266723254 
801	 0.11415421372739 
802	 0.114932272624703 
803	 0.115965217179413 
804	 0.116592267983987 
805	 0.116658676053708 
806	 0.116494502739629 
807	 0.116025072116623 
808	 0.115259671628928 
809	 0.114299351355612 
810	 0.113439988068032 
811	 0.112910104744335 
812	 0.112229746796623 
813	 0.110621314299759 
814	 0.108838646489645 
815	 0.106753512944736 
816	 0.105527189994074 
817	 0.106540688105837 
818	 0.106690406042067 
819	 0.106435286335225 
820	 0.106079564978733 
821	 0.105277810661098 
822	 0.102694353013845 
823	 0.100286532480756 
824	 9.93875678172607E-02 
825	 9.79377908219934E-02 
826	 9.54739183272636E-02 
827	 9.30119592714412E-02 
828	 9.18429130692483E-02 
829	 8.84860254390767E-02 
830	 8.66995702051179E-02 
831	 8.60128219182756E-02 
832	 8.35241295523725E-02 
833	 8.33291263868316E-02 
834	 8.32592804540113E-02 
835	 8.22311147261969E-02 
836	 0.081216004308298 
837	 8.04099195326923E-02 
838	 8.02430517098669E-02 
839	 8.04894359863061E-02 
840	 7.92467175764794E-02 
841	 0.078867060037414 
842	 7.90929263010077E-02 
843	 7.88738639372002E-02 
844	 7.81183149588687E-02 
845	 7.74626383569017E-02 
846	 7.73836346913269E-02 
847	 7.79900981893871E-02 
848	 7.75223527435771E-02 
849	 7.64937322734885E-02 
850	 7.57849322196896E-02 
851	 7.61818031729173E-02 
852	 7.49555895350096E-02 
853	 7.44294424956731E-02 
854	 7.54704212587881E-02 
855	 7.37102379727781E-02 
856	 7.36166838830308E-02 
857	 7.42370769142062E-02 
858	 7.38322710701748E-02 
859	 7.33485502928534E-02 
860	 7.29654255613267E-02 
861	 0.07255460631326 
862	 0.071932334613296 
863	 7.16669742771262E-02 
864	 7.18505344342818E-02 
865	 0.071837433113801 
866	 7.06508349463271E-02 
867	 7.05126194509491E-02 
868	 7.03724706374282E-02 
869	 6.97162123086187E-02 
870	 6.93005361947515E-02 
871	 6.84420990829555E-02 
872	 6.78713530063288E-02 
873	 0.067963113734983 
874	 6.76862807185923E-02 
875	 6.65697231475903E-02 
876	 6.58198609267093E-02 
877	 6.62714395483413E-02 
878	 6.53892169481624E-02 
879	 6.42479780312722E-02 
880	 6.34917218449881E-02 
881	 6.33556988980207E-02 
882	 6.33283096092738E-02 
883	 6.24190703280241E-02 
884	 6.14822597506355E-02 
885	 6.22842382881661E-02 
886	 6.14849842801387E-02 
887	 6.07568454392052E-02 
888	 0.06061352920738 
889	 5.96629795990043E-02 
890	 0.059347811145999 
891	 5.82136928092341E-02 
892	 5.62400519470937E-02 
893	 5.78222787545162E-02 
894	 5.80689868068558E-02 
895	 5.55103902825972E-02 
896	 5.17199279124556E-02 
897	 5.41786669286923E-02 
898	 0.055623095235643 
899	 5.43355124815091E-02 
900	 5.24612605911277E-02 
901	 0.054621911179575 
902	 5.23819510354857E-02 
903	 4.98907853852136E-02 
904	 5.31005761192401E-02 
905	 5.45590631934991E-02 
906	 5.08807662607179E-02 
907	 4.59571779313074E-02 
908	 4.88869290244694E-02 
909	 5.13482157212821E-02 
910	 5.00170690540199E-02 
911	 4.70223989132467E-02 
912	 0.048086866481687 
913	 4.78908033908441E-02 
914	 4.70689279429183E-02 
915	 4.70445655653614E-02 
916	 0.048531754714069 
917	 4.63735991918774E-02 
918	 4.44468188173263E-02 
919	 4.47614657554589E-02 
920	 4.58351699981363E-02 
921	 4.67919098569706E-02 
922	 4.60413493314467E-02 
923	 4.33346633022178E-02 
924	 4.17131530054977E-02 
925	 4.13924305846313E-02 
926	 4.37319289279248E-02 
927	 4.72294288155831E-02 
928	 3.59821100967387E-02 
929	 4.59612164405067E-02 
930	 6.08724159014864E-02 
931	 2.75417741899129E-02 
932	 4.16122899141062E-02 
933	 6.81263245357493E-02 
934	 7.14213843028756E-02 
935	 4.88931507984062E-02 
936	 5.44833488080413E-02 
937	 8.07871843025319E-02 
938	 9.08417501739344E-02 
939	 0.063400391581952 
940	 4.17053848679775E-02 
941	 6.07860349764884E-02 
942	 0.068503996713543 
943	-4.10849512711886E-03 
944	-7.45749080009009E-03 
945	 4.63524985583215E-02 
946	 8.71189838937237E-02 
947	 5.32312542418789E-02 
948	 2.37948774591603E-02 
949	 7.45638747221359E-03 
950	 1.31514712200474E-02 
951	 0.034504322822638 
952	 4.06205624170544E-02 
953	 3.55030420719512E-02 
954	 3.45500094740545E-02 
955	 4.93344606479404E-02 
956	 5.08428183273944E-02 
957	 2.89991005235581E-02 
958	 1.85270397610755E-02 
959	 5.68077772222019E-02 
960	 5.07697977383661E-02 
961	 3.17816806931658E-02 
962	 0.028768563213813 
963	 4.85744927319141E-02 
964	 0.031832524419875 
965	 2.51140637866891E-02 
966	 3.68870108099898E-02 
967	 4.63537947217182E-02 
968	 4.14709699909856E-02 
969	 4.36308221513197E-02 
970	 4.93464911458459E-02 
971	 0.038209596614696 
972	 4.03768895625707E-02 
973	 4.33186618071073E-02 
974	 4.04765867150708E-02 
975	 3.69304916328427E-02 
976	 3.77055916487883E-02 
977	 4.03088747512874E-02 
978	 4.14265181147948E-02 
979	 3.87416932865385E-02 
980	 3.20260336192083E-02 
981	 3.07089393393458E-02 
982	 3.56951295581084E-02 
983	 4.09148166883455E-02 
984	 3.97197557364689E-02 
985	 4.17842138947622E-02 
986	 0.043142796237838 
987	 3.36290455076932E-02 
988	 3.78125638172578E-02 
989	 3.89610501615605E-02 
990	 3.44179988695575E-02 
991	 3.37568199696907E-02 
992	 3.73739092063176E-02 
993	 3.87020010206004E-02 
994	 4.12197857946311E-02 
995	 5.05563679966917E-02 
996	 0.041494001204775 
997	 3.53401021245509E-02 
998	 3.73945573257643E-02 
999	 3.96604303830458E-02 
1000	 0.036645054633165 
1001	 3.17372499415787E-02 
1002	 3.49888198159602E-02 
1003	 3.56121001428664E-02 
1004	 3.80957788408062E-02 
1005	 3.88170612944998E-02 
1006	 3.73197655922752E-02 
1007	 3.52933357621687E-02 
1008	 3.70923885174543E-02 
1009	 3.82348771992426E-02 
1010	 3.67605372790076E-02 
1011	 3.77179939767124E-02 
1012	 0.039095441892057 
1013	 3.87927461846214E-02 
1014	 3.85837650868752E-02 
1015	 3.94904316418265E-02 
1016	 4.02469180246814E-02 
1017	 3.92336444342696E-02 
1018	 3.98413039792972E-02 
1019	 4.37887779271622E-02 
1020	 4.39391370539204E-02 
1021	 4.29265113658956E-02 
1022	 4.04340554726879E-02 
1023	 3.55201372424562E-02 
1024	 3.37692786227528E-02 
1025	 0.031509810023977 
1026	 3.01121090300167E-02 
1027	 3.06273655066358E-02 
1028	 3.33700943880421E-02 
1029	 3.41165835279797E-02 
1030	 0.036010417915509 
1031	 3.62707959780284E-02 
1032	 3.43861623393543E-02 
1033	 3.41213238196789E-02 
1034	 3.37902447382426E-02 
1035	 3.45809258244618E-02 
1036	 3.72286806611767E-02 
1037	 3.77378139852047E-02 
1038	 0.037720313533526 
1039	 3.83886411925532E-02 
1040	 3.41403014468976E-02 
1041	 3.41707881637288E-02 
1042	 0.034048575300585 
1043	 3.47143929933139E-02 
1044	 3.44406101223901E-02 
1045	 3.52970522035619E-02 
1046	 3.48420209499441E-02 
1047	 3.19494728738565E-02 
1048	 0.032174746235107 
1049	 0.034502347587849 
1050	 3.50923315481942E-02 
1051	 3.64588222140159E-02 
1052	 3.73597255733766E-02 
1053	 3.65090824748401E-02 
1054	 3.66454788913899E-02 
1055	 3.84011726634675E-02 
1056	 3.87018655581452E-02 
1057	 3.84710477015779E-02 
1058	 3.79139588571441E-02 
1059	 0.03678571402446 
1060	 3.38880669515059E-02 
1061	 3.32874779416492E-02 
1062	 0.033380655303432 
1063	 3.33657693301156E-02 
1064	 3.43354981306014E-02 
1065	 0.035161240477461 
1066	 0.03586509410089 
1067	 3.65973464775945E-02 
1068	 3.70763862581241E-02 
1069	 3.86629289917924E-02 
1070	 4.26495332754294E-02 
1071	 0.043385666881252 
1072	 4.09600950074034E-02 
1073	 4.32950560033908E-02 
1074	 4.14362430956998E-02 
1075	 3.41325627643838E-02 
1076	 3.45682505254855E-02 
1077	 0.039695143897577 
1078	 3.97673115780053E-02 
1079	 4.14881502218847E-02 
1080	 4.12504415497085E-02 
1081	 3.46241719001514E-02 
1082	 3.35326983560676E-02 
1083	 3.74037243788027E-02 
1084	 3.82474452380372E-02 
1085	 3.95325111231649E-02 
1086	 3.96986278084533E-02 
1087	 3.65282591960912E-02 
1088	 3.52986520858099E-02 
1089	 0.033791190189717 
1090	 3.64616204316167E-02 
1091	 3.44639831432444E-02 
1092	 2.99635292176619E-02 
1093	 0.030127535158447 
1094	 2.85448862798591E-02 
1095	 3.18382399571821E-02 
1096	 4.72278864321184E-02 
1097	 5.02081510325861E-02 
1098	 4.79232150520186E-02 
1099	 4.58590641914517E-02 
1100	 3.06811839523473E-02 
1101	 2.76210088359848E-02 
1102	 3.57700701161344E-02 
1103	 3.75152100088812E-02 
1104	 4.34091681870243E-02 
1105	 4.77601747903839E-02 
1106	 4.05675774909922E-02 
1107	 0.033207765393537 
1108	 2.90857240127356E-02 
1109	 2.16707112179909E-02 
1110	 2.14588040164717E-02 
1111	 3.45227584463468E-02 
1112	 3.55901875758522E-02 
1113	 0.034583967623514 
1114	 3.51167773894399E-02 
1115	 2.03139495081354E-02 
1116	 1.02794449642424E-02 
1117	 5.93539191297075E-03 
1118	 1.52198895324255E-02 
1119	 5.31452661881859E-02 
1120	 7.90161450899853E-02 
1121	 0.135708740434884 
1122	 0.230289239710122 
1123	 0.315880282236005 
1124	 0.309322207215487 
1125	 0.191884687722676 
1126	 0.119772261193095 
1127	 6.82090408466616E-02 
1128	 1.06170238065482E-02 
1129	 2.35793119375641E-02 
1130	 0.179037338299535 
1131	 0.228930062607439 
1132	 0.263665260940015 
1133	 0.236774205686769 
1134	 0.203937658164354 
1135	 0.20598997835251 
1136	 0.185169194692117 
1137	 0.147692251037793 
1138	 0.139512950371384 
1139	 9.38131478715492E-02 
1140	 6.39430468371815E-02 
1141	 9.30456324969171E-02 
1142	 0.034755179545642 
1143	-3.71890519436325E-02 
1144	 5.66227128797732E-03 
1145	 1.75968937049303E-02 
1146	 7.40174964195545E-02 
1147	 0.142349482121528 
1148	 0.119139972540737 
1149	 8.07927277972398E-02 
1150	 5.78625941839198E-02 
1151	 4.88904802507137E-02 
1152	 6.09093110785986E-02 
1153	 6.96595436939407E-02 
1154	 6.66879122129325E-02 
1155	 6.87442477699252E-02 
1156	 7.96282784902183E-02 
1157	 6.62568738230003E-02 
1158	 4.44014971917858E-02 
1159	 4.07034094581536E-02 
1160	 4.14652610654414E-02 
1161	 3.89920544711253E-02 
1162	 3.96816701317352E-02 
1163	 3.75671098747058E-02 
1164	 3.30067330248666E-02 
1165	 3.60843247479136E-02 
1166	 4.30585431320521E-02 
1167	 4.31512716905295E-02 
1168	 4.05945278723536E-02 
1169	 0.035884004561789 
1170	 3.23522327899359E-02 
1171	 3.14304777612429E-02 
1172	 3.49320377487454E-02 
1173	 3.48869478173978E-02 
1174	 3.39556985899906E-02 
1175	 3.46253939625957E-02 
1176	 3.25240732258036E-02 
1177	 3.03993146906485E-02 
1178	 2.96379143558973E-02 
1179	 2.86411274771414E-02 
1180	 0.029131144334152 
1181	 3.19589125194749E-02 
1182	 3.47166047771153E-02 
1183	 3.61134281608298E-02 
1184	 3.50094742063313E-02 
1185	 3.54857425513062E-02 
1186	 0.038249884603867 
1187	 3.68961024536318E-02 
1188	 3.64937164298457E-02 
1189	 3.64013311957149E-02 
1190	 3.14740825890154E-02 
1191	 3.10029017432327E-02 
1192	 3.25485413158758E-02 
1193	 3.70439272266484E-02 
1194	 3.73780761946667E-02 
1195	 3.68243954091038E-02 
1196	 3.84315279620252E-02 
1197	 3.64926502005047E-02 
1198	 3.50865675793219E-02 
1199	 4.04453416474085E-02 
1200	 4.21784807615109E-02 
1201	 3.84378291402214E-02 
1202	 3.69026395446555E-02 
1203	 3.74287325631799E-02 
1204	 3.57442481168142E-02 
1205	 3.67616121662635E-02 
1206	 3.91512148632895E-02 
1207	 3.71334388085218E-02 
1208	 3.60559788357025E-02 
1209	 0.035873059802219 
1210	 0.036989507774445 
1211	 3.74396833957603E-02 
1212	 3.52268385648369E-02 
1213	 3.52553365428037E-02 
1214	 3.52971346460562E-02 
1215	 3.44410782726963E-02 
1216	 3.42433091855572E-02 
1217	 3.62591673772253E-02 
1218	 3.69397638993919E-02 
1219	 3.60214392992933E-02 
1220	 3.37051962734343E-02 
1221	 3.31477508418983E-02 
1222	 0.034712899217521 
1223	 3.51385955075326E-02 
1224	 3.57442158087843E-02 
1225	 3.67460744040644E-02 
1226	 3.56079096296394E-02 
1227	 3.47499194226262E-02 
1228	 3.70765274494393E-02 
1229	 3.83142042446699E-02 
1230	 3.67588632071641E-02 
1231	 3.60563895409044E-02 
1232	 3.69553742561954E-02 
1233	 3.62635829148283E-02 
1234	 3.35768447486991E-02 
1235	 3.28801437346017E-02 
1236	 3.19571880719293E-02 
1237	 3.13245365055253E-02 
1238	 3.07254843298059E-02 
1239	 3.40217283209692E-02 
1240	 3.67230559226429E-02 
1241	 3.56889739162164E-02 
1242	 0.035441041348652 
1243	 3.66000998711564E-02 
1244	 3.70227833754655E-02 
1245	 0.036970588780043 
1246	 3.74914245579683E-02 
1247	 3.80100940131363E-02 
1248	 0.037231018617445 
1249	 3.59216053147441E-02 
1250	 3.62231410819365E-02 
1251	 3.66402383561767E-02 
1252	 3.53343058314281E-02 
1253	 3.55223471259294E-02 
1254	 3.67420106746984E-02 
1255	 3.72201613881384E-02 
1256	 0.036839742460199 
1257	 0.03623095687604 
1258	 0.035773364626721 
1259	 3.31804533370093E-02 
1260	 3.24206766326423E-02 
1261	 3.44435049927987E-02 
1262	 3.42484328433457E-02 
1263	 3.27495638020096E-02 
1264	 3.29081542339425E-02 
1265	 3.35610915226296E-02 
1266	 3.24564065323362E-02 
1267	 3.26093849702937E-02 
1268	 3.53247076267795E-02 
1269	 3.39654703742488E-02 
1270	 3.20560839226737E-02 
1271	 3.49754867305628E-02 
1272	 3.71129652735684E-02 
1273	 3.76508241554496E-02 
1274	 3.76105898896317E-02 
1275	 3.52003944792132E-02 
1276	 3.16261192461257E-02 
1277	 3.08209284337655E-02 
1278	 3.11780144397638E-02 
1279	 2.99458102970492E-02 
1280	 3.04876749581114E-02 
1281	 3.21710260092837E-02 
1282	 3.59580459565855E-02 
1283	 3.61880478088668E-02 
1284	 0.035104586712523 
1285	 3.57117522388816E-02 
1286	 3.51818169296053E-02 
1287	 3.43199907379548E-02 
1288	 3.64706391591236E-02 
1289	 3.66143952508433E-02 
1290	 3.38625694668866E-02 
1291	 2.98046578749659E-02 
1292	 3.00518760548197E-02 
1293	 3.01481334450218E-02 
1294	 2.90216110256041E-02 
1295	 3.01583021512345E-02 
1296	 3.09485405475849E-02 
1297	 3.23538048727797E-02 
1298	 3.30569920907712E-02 
1299	 3.05444912586841E-02 
1300	 2.69173765482207E-02 
1301	 2.47868662609033E-02 
1302	 0.030822651059836 
1303	 3.65520257560704E-02 
1304	 3.84278390642576E-02 
1305	 4.32364801764521E-02 
1306	 4.45588529304527E-02 
1307	 3.70157249594263E-02 
1308	 3.63274691282723E-02 
1309	 4.19320041342832E-02 
1310	 0.039914922409977 
1311	 3.02331801649279E-02 
1312	 3.13969067388432E-02 
1313	 3.93094601221937E-02 
1314	 3.77192484135182E-02 
1315	 3.87343468869811E-02 
1316	 3.84333641002131E-02 
1317	 2.33648424275488E-02 
1318	 1.77101619514927E-02 
1319	 2.34722515300938E-02 
1320	 2.66287770017029E-02 
1321	 2.79958922818312E-02 
1322	 3.71906912619308E-02 
1323	 3.53143605144757E-02 
1324	 3.10411635372597E-02 
1325	 3.47655684179481E-02 
1326	 2.75572983915794E-02 
1327	 3.20562544806415E-02 
1328	 4.15846382455362E-02 
1329	 0.045487909854836 
1330	 6.74817107276565E-02 
1331	 7.25497644753746E-02 
1332	 6.82774248656348E-02 
1333	 9.45127937689584E-02 
1334	 7.78934012692515E-02 
1335	 8.02370517173129E-02 
1336	 0.133432739291905 
1337	 0.14303798956218 
1338	 9.82412128101501E-02 
1339	 8.70317728087508E-02 
1340	 7.28997102430083E-02 
1341	 6.49935690631111E-02 
1342	 8.85276096849968E-02 
1343	 7.43541386679959E-02 
1344	 1.22551207757623E-02 
1345	-6.15403397500688E-03 
1346	-7.62878436427202E-03 
1347	-7.02887874898715E-02 
1348	-0.203870284254894 
1349	-0.222999051721856 
1350	-0.161029756355588 
1351	-0.256051533541896 
1352	-0.217722982971533 
1353	-0.133488589741676 
1354	-0.257518207400763 
1355	-1.06421182234863 
1356	-10.3010854721555 
1357	-2.78360508394373 
1358	-5.36069104445691 
1359	 4.75123173016183 
1360	-2.57981768095135 
1361	-0.644241169447216 
1362	-0.270999125712546 
1363	-1.03795713981387 
1364	-0.463759331692458 
1365	 0.309197792610963 
1366	-0.605054889946847 
1367	-18.7186181690831 
1368	 9.11864334698451 
1369	-0.303615838271343 
1370	-0.076496068619965 
1371	 1.18023831940229 
1372	 3.29189198877485 
1373	-6.26118162896619 
1374	-46.3756688225389 
1375	 1.2275484063512 
1376	-0.768706040752691 
1377	 2.55882959685745 
1378	 3.25155819102601 
1379	 0.818078975620362 
1380	 0.82421232365551 
1381	 1.30949508032488 
1382	 0.253884558188373 
1383	 0.920795216044696 
1384	 0.878412211617033 
1385	 0.267117100688482 
1386	-1.81083603336477E-02 
1387	-2.08061445638259 
1388	-4.91718350369517 
1389	-0.151032906563403 
1390	-0.15750567039586 
1391	 3.36785036947405 
1392	 0.864582780765613 
1393	-0.341605730511104 
1394	-2.27580874082476 
1395	-1.56160494176742 
1396	-2.1962684329454 
1397	-2.73267807887397 
1398	-1.62132391095904 
1399	-6.28902018341112 
1400	 0.325592341470333 
1401	 0.478603424464763 
1402	 0.298194818581939 
1403	-0.10978247339466 
1404	-0.730854841905009 
1405	-1.01461395313817 
1406	 0.187284777137883 
1407	 0.251470126664411 
1408	-0.259656961276626 
1409	-0.360232859736707 
1410	-1.4417934854202 
1411	-1.54906733552338 
1412	-1.04155215703356 
1413	-1.87959312053705 
1414	 0.28450478604161 
1415	 5.47756115276255E-02 
1416	 0.730662049619006 
1417	 0.262929596623689 
1418	-0.20532635039966 
1419	-0.124531162406229 
1420	 9.43154936903169E-02 
1421	 0.11271807455438 
1422	 0.222336290910954 
1423	 1.08077277774656 
1424	-0.869401110067965 
1425	-0.472494632402977 
1426	 3.0572034703806 
1427	 1.13428470214386 
1428	 0.65828540158194 
1429	 0.424155318073725 
1430	 0.373379267460168 
1431	 0.819714779621419 
1432	 2.94533995097807 
1433	 2.13919219558684 
1434	-1.85779302011108E-02 
1435	-0.138153724753617 
1436	-3.91458838149533 
1437	-9.00754461828448 
1438	-1.28790303221254 
1439	-0.603697137515808 
1440	 2.40630404464165 
1441	-10.676912497473 
1442	 0.156641995906975 
1443	 0.26554692622173 
1444	 0.4965848005134 
1445	-6.69891345917406E-02 
1446	-0.522827879132475 
1447	 3.04785674500872E-02 
1448	 1.47416851878963 
1449	-0.224368937495779 
1450	 5.28329098017076 
1451	 1.59800310355518 
1452	-8.33147848710846 
1453	-1.45195667611743 
1454	-1.59276199162411 
1455	-82.6631875280719 
1456	-1.17698339673582 
1457	-1.41555041010303 
1458	-1.12793823607878 
1459	 0.359288962861648 
1460	 0.118174201589502 
1461	-0.464492104143915 
1462	-0.532827718496315 
1463	-1.87690266848014 
1464	-1.54212182828026 
1465	-0.62885712221738 
1466	 0.534646918846575 
1467	 0.142620422655834 
1468	-0.163822807913528 
1469	 1.94101966974318 
1470	 0.581233105850752 
1471	-7.92942287668863 
1472	-2.97942004917273 
1473	-81.7281442386587 
1474	 3.74442573679282 
1475	 0.389450879810954 
1476	 0.17757825886107 
1477	 9.92260928137378E-02 
1478	 8.64967983219627E-02 
1479	 0.514485928658768 
1480	 13.0923731775672 
1481	-91.9805778002712 
1482	 11.82715012413 
1483	 3.22190521010909 
1484	-4.65504594253624 
1485	 1.77159266140758 
1486	 1.49050210665544 
1487	 0.418576466405636 
1488	 0.217445597493498 
1489	 0.8077639797709 
1490	 0.474198149974044 
1491	-0.311926425642911 
1492	-0.519207108038703 
1493	-0.396701472084517 
1494	-0.405498358408147 
1495	-0.620742055825144 
1496	-0.533129196854848 
1497	-0.344222404944582 
1498	-0.201627281378253 
1499	 0.143329687710954 
1500	 0.167971936390596 
1501	-2.38163750892123E-02 
1502	-0.016250227162336 
1503	 3.25173987948758E-02 
1504	 9.51883100967569E-03 
1505	 0.101036572884486 
1506	 0.128360608387953 
1507	 1.05075558168342E-02 
1508	-6.90389068971062E-02 
1509	-2.92634591344732E-02 
1510	 3.16889490559372E-03 
1511	 0.015451737613292 
1512	 5.63684667306319E-02 
1513	 0.108990505363322 
1514	 0.114145933628985 
1515	 0.098374266062625 
1516	 9.30586010149219E-02 
1517	 0.0621434844088 
1518	 0.039057262605135 
1519	 3.46303535890096E-02 
1520	 2.99851791891549E-02 
1521	 2.53527565589029E-02 
1522	 7.05575811798017E-03 
1523	 1.21262346904512E-02 
1524	 0.018713646487604 
1525	 1.64974693847771E-02 
1526	 5.76652833710802E-02 
1527	 7.63521999160165E-02 
1528	 4.61503805629734E-02 
1529	 4.57816590803407E-02 
1530	 2.76198502992363E-02 
1531	 1.02664084096025E-02 
1532	 1.29989764362087E-02 
1533	-1.27493117542887E-02 
1534	-5.75519789929719E-03 
1535	 3.46081714509018E-02 
1536	 4.11874837312984E-02 
1537	 3.37025265165935E-02 
1538	 3.88221709091495E-02 
1539	 4.89661142609161E-02 
1540	 7.07191835549344E-02 
1541	 8.07427564787822E-02 
1542	 5.70618658939421E-02 
1543	 0.020365034301839 
1544	 1.40248008488808E-02 
1545	 4.56103323151133E-02 
1546	 6.23976262489396E-02 
1547	 7.73887387562345E-02 
1548	 7.21106436495918E-02 
1549	 4.46022339130225E-02 
1550	 4.43977207532095E-02 
1551	 3.24061585461929E-02 
1552	 1.17755944557169E-02 
1553	 3.86637678545919E-02 
1554	 0.054710334207839 
1555	 0.054723677442029 
1556	 6.93252080241389E-02 
1557	 6.46917818678936E-02 
1558	 0.068029309362184 
1559	 7.66416872446461E-02 
1560	 6.53403467376178E-02 
1561	 0.062005526181874 
1562	 5.34215729359925E-02 
1563	 3.50660124333738E-02 
1564	 5.10622405402735E-02 
1565	 6.72822668831563E-02 
1566	 4.66684886901721E-02 
1567	 3.75722468592272E-02 
1568	 5.20905498950684E-02 
1569	 4.57300331344174E-02 
1570	 0.025147342299063 
1571	 3.57356545519179E-02 
1572	 0.049190041829347 
1573	 4.92232692623319E-02 
1574	 6.41080599366218E-02 
1575	 7.52019908084043E-02 
1576	 6.31039779943184E-02 
1577	 3.61141061725898E-02 
1578	 2.55114395405167E-02 
1579	 4.35214140883367E-02 
1580	 4.24109419466154E-02 
1581	 3.51604112287796E-02 
1582	 5.37940629940336E-02 
1583	 4.70971554433639E-02 
1584	 0.025798183112387 
1585	 4.28283171101299E-02 
1586	 5.17019741734413E-02 
1587	 3.89840303830273E-02 
1588	 3.61774867920228E-02 
1589	 3.80367004645699E-02 
1590	 4.08285974024553E-02 
1591	 2.71757234015905E-02 
1592	 1.25967858396446E-02 
1593	 2.90299940436798E-02 
1594	 2.72101669122331E-02 
1595	 1.04537214721741E-02 
1596	 1.51661485176883E-02 
1597	 2.23598880084737E-03 
1598	-3.16658280628673E-03 
1599	 2.16254486860832E-02 
1600	 2.91917047254284E-02 
1601	 2.99959137483346E-02 
1602	 2.63342671273074E-02 
1603	 1.97039536446868E-02 
1604	 4.07481837124621E-02 
1605	 5.39046351194331E-02 
1606	 5.70526606316594E-02 
1607	 6.01613624505573E-02 
1608	 3.75427279713902E-02 
1609	 2.25797959047509E-02 
1610	 2.91802736962314E-02 
1611	 3.46907408786319E-02 
1612	 3.98547222011767E-02 
1613	 0.04127914964937 
1614	 3.02269327239868E-02 
1615	 1.69769278315895E-02 
1616	 2.40021046767204E-02 
1617	 0.037208680174371 
1618	 3.84612747390318E-02 
1619	 4.08073905260471E-02 
1620	 3.51802806381513E-02 
1621	 2.52499292867309E-02 
1622	 3.58397903846545E-02 
1623	 4.70127579130676E-02 
1624	 5.46053894161137E-02 
1625	 0.062732141347906 
1626	 5.13919901797275E-02 
1627	 4.86436355393767E-02 
1628	 0.051875816024356 
1629	 3.81254434867203E-02 
1630	 2.42303555205855E-02 
1631	 2.16507771415531E-02 
1632	 2.98630504154261E-02 
1633	 4.27610881382777E-02 
1634	 6.01784369538436E-02 
1635	 5.12456743994874E-02 
1636	 2.33083491966938E-02 
1637	 1.62498270055199E-02 
1638	 1.68181119935917E-02 
1639	 1.77286920984366E-02 
1640	 2.33830380569524E-02 
1641	 3.13426519835118E-02 
1642	 4.61265241185207E-02 
1643	 5.12758091699357E-02 
1644	 4.90124062936345E-02 
1645	 4.06612105844735E-02 
1646	 1.80162264947633E-02 
1647	 1.12975761635163E-02 
1648	 2.43740546793804E-02 
1649	 0.037596882010543 
1650	 4.34077957270071E-02 
1651	 4.24111033204348E-02 
1652	 4.20333931722296E-02 
1653	 3.04325798131659E-02 
1654	 0.033701606413156 
1655	 5.77246474602617E-02 
1656	 6.12416289963997E-02 
1657	 5.17642273002644E-02 
1658	 0.051952801384728 
1659	 5.52076519180515E-02 
1660	 4.19474868390134E-02 
1661	 1.92819236341034E-02 
1662	 2.29133776083934E-02 
1663	 3.26408392214243E-02 
1664	 3.17520845585582E-02 
1665	 3.88275715948342E-02 
1666	 4.49307655963322E-02 
1667	 0.041533981224392 
1668	 3.48223464971581E-02 
1669	 0.039875598431974 
1670	 5.61700140442004E-02 
1671	 5.39406171176371E-02 
1672	 4.64858574057737E-02 
1673	 4.64437658345538E-02 
1674	 2.93011132079268E-02 
1675	 1.12908383463796E-02 
1676	 0.027293599879486 
1677	 5.15675299932168E-02 
1678	 4.94375219221562E-02 
1679	 3.90172884035136E-02 
1680	 3.19173913049107E-02 
1681	 3.21024591465024E-02 
1682	 4.27814583015129E-02 
1683	 4.58228272919897E-02 
1684	 4.45505053021167E-02 
1685	 4.16377697287284E-02 
1686	 3.62053716240364E-02 
1687	 3.77743601989411E-02 
1688	 3.91388117292708E-02 
1689	 3.38196803756394E-02 
1690	 3.44231172366242E-02 
1691	 3.85033938229179E-02 
1692	 3.66197269520294E-02 
1693	 4.54554304443303E-02 
1694	 4.78736937638508E-02 
1695	 4.34457018849244E-02 
1696	 6.48071346484551E-02 
1697	 6.85992102001466E-02 
1698	 4.94245858751556E-02 
1699	 0.052034967808792 
1700	 5.78039952867171E-02 
1701	 4.98261276137631E-02 
1702	 5.24985476009569E-02 
1703	 5.45821199553692E-02 
1704	 4.25950869895703E-02 
1705	 3.52039766206525E-02 
1706	 2.29000078438687E-02 
1707	 2.20100165336725E-02 
1708	 3.23996231578343E-02 
1709	 0.024135349821684 
1710	 2.16146881790373E-02 
1711	 2.56814837988252E-02 
1712	 1.47103551454945E-02 
1713	 2.91662183409253E-02 
1714	 3.27279181536255E-02 
1715	 1.99850352401192E-02 
1716	 1.00956257067224E-02 
1717	 4.07120456947739E-03 
1718	 1.77648317709424E-02 
1719	 4.68646544703323E-02 
1720	 4.54525813652596E-02 
1721	 4.48071161420946E-02 
1722	 5.74535411516043E-02 
1723	 0.06852626588945 
1724	 7.56001564970996E-02 
1725	 6.19651596024267E-02 
1726	 3.75578340740727E-02 
1727	 1.91857663849523E-02 
1728	 1.67646850690588E-02 
1729	 3.67130029799724E-02 
1730	 4.16298826300723E-02 
1731	 2.71573825419406E-02 
1732	 3.54522443176664E-02 
1733	 4.57869217029475E-02 
1734	 0.065734684236426 
1735	 9.36291810443196E-02 
1736	 7.75212163097244E-02 
1737	 4.14829587637003E-02 
1738	 0.013733068746698 
1739	-2.32150808682002E-03 
1740	 8.99397010014253E-03 
1741	 0.039533463805373 
1742	 6.29472903545003E-02 
1743	 6.39265072724427E-02 
1744	 7.56819891184057E-02 
1745	 0.109191321769241 
1746	 0.113343237680861 
1747	 0.114314924936277 
1748	 9.08084813500805E-02 
1749	 8.26628510089957E-02 
1750	 9.26849623140589E-02 
1751	 9.44429809815025E-02 
1752	 9.02459226136405E-02 
1753	 8.84163983862141E-02 
1754	 9.66373399036551E-02 
1755	 9.07652605841364E-02 
1756	 6.87212130904164E-02 
1757	 0.07089162470082 
1758	 0.069648000162838 
1759	 0.042776930559742 
1760	 2.48473828814502E-02 
1761	 2.92003167572593E-02 
1762	 6.51229421099325E-03 
1763	 1.92331391808153E-02 
1764	 9.77793451643892E-02 
1765	 9.85078140142342E-02 
1766	 6.13749444490708E-02 
1767	 2.62687907398543E-02 
1768	-2.60507544297587E-02 
1769	 8.10981384740742E-02 
1770	 0.180895965829178 
1771	 0.158810175588097 
1772	 0.208432919177892 
1773	 0.107374615030904 
1774	-0.111723922843731 
1775	-4.90983403323598E-02 
1776	-1.80303489748914E-02 
1777	 4.72381781725346E-02 
1778	 0.107518945782738 
1779	 0.265051822172507 
1780	 0.327805143671994 
1781	 0.255687352728807 
1782	 0.233936444968137 
1783	 0.160280144608949 
1784	 0.150814113616398 
1785	 0.211979677374894 
1786	 0.27978302898824 
1787	 0.437739744804089 
1788	 0.485185704259953 
1789	 0.437562299215832 
1790	 0.354453888760766 
1791	 0.104742042953734 
1792	-4.08349543219441E-02 
1793	-0.100034325649512 
1794	 0.598254261414036 
1795	 1.45745839307987 
1796	 1.57402450184976 
1797	 1.45992853320369 
1798	 1.03941943803287 
1799	-0.58812960425751 
1800	 1.73113316785057 
1801	 1.24803688413255 
1802	 0.388818828572549 
1803	 0.365106221408353 
1804	 0.339285532616025 
1805	 0.763393464805352 
1806	 15.3999362778792 
1807	 177.550619416413 
1808	 0.265129666518147 
1809	-0.106863274400808 
1810	 0.860326612492296 
1811	 0.574414748974494 
1812	-0.377713108996464 
1813	-0.873202230400457 
1814	 1.20745174470139 
1815	 0.653578748338103 
1816	 0.238792219480386 
1817	 0.787621149446018 
1818	 0.736170579104328 
1819	 1.303564814208 
1820	-14.3848875288348 
1821	-2.64286525340947 
1822	-2.59728795233099 
1823	-0.179420055961649 
1824	-7.73260295190518E-02 
1825	-0.721579405541145 
1826	-0.723289857421147 
1827	 0.41529823870958 
1828	 1.19212567329095 
1829	-0.186706500245655 
1830	-0.183557031761416 
1831	 2.79593812573177 
1832	 5.12336884827146 
1833	-3.09133067914056 
1834	-2.72161902775592 
1835	-4.07092213706954 
1836	-34.4593251902373 
1837	 0.502614778299809 
1838	 0.339253258044877 
1839	 0.773492386728502 
1840	-9.18216527696005 
1841	-1.01563422900797 
1842	-0.497817266308231 
1843	-0.398991998542077 
1844	-1.82461317708551 
1845	-2.61809030007437 
1846	-0.436093474774361 
1847	-0.571652606533844 
1848	-2.46771240289759 
1849	-8.17723084228589 
1850	-2.1201937518856 
1851	 8.23045588398183 
1852	-0.894975981237298 
1853	 8.48027003917906E-02 
1854	 1.05028568752931E-02 
1855	-0.517990235408483 
1856	-0.366602172083063 
1857	-0.144497585994267 
1858	-0.18278049908712 
1859	-9.87498179179225E-02 
1860	 2.82573690023379E-02 
1861	-0.59265464216967 
1862	-0.920335607699305 
1863	-0.118998082143078 
1864	-8.66622197389213E-02 
1865	-9.84673275814716E-02 
1866	-3.32649668478644E-02 
1867	-0.144573328080889 
1868	-2.87696369813042 
1869	 5.22708596312313 
1870	 1.00870709729842 
1871	 1.20725207327095 
1872	 1.23752522781837 
1873	 1.81769022174782 
1874	-3.38845367860727 
1875	-2.31750136226785 
1876	-1.75486168317686 
1877	-1.5807107713919 
1878	-1.48595084831628 
1879	-1.31945383827013 
1880	-1.22715418578214 
1881	-1.58660320612876 
1882	-1.72188801841985 
1883	-2.66834442985709 
1884	 1.48447639516955 
1885	 0.742525662404866 
1886	 0.857950985159519 
1887	-0.605244223076027 
1888	-0.193597192559941 
1889	-0.107878642648305 
1890	-6.51630117811582E-02 
1891	-2.95199379048206E-02 
1892	 5.72468958937383E-02 
1893	 0.276078106062053 
1894	 1.07990230091868 
1895	-0.585937618695921 
1896	-0.410946858133386 
1897	-0.57318401223193 
1898	-0.463007366948528 
1899	-0.778716262249723 
1900	-0.876926410935285 
1901	-0.849903064259231 
1902	-0.781790234252649 
1903	-0.926333586545989 
1904	-0.119816004501504 
1905	 1.13471155220138 
1906	-2.18704630364672 
1907	-0.493730229963504 
1908	-0.410786444317004 
1909	-0.418785198088441 
1910	-0.713486236433155 
1911	-0.873834771711711 
1912	 0.637208770171072 
1913	 0.175413032747892 
1914	 0.273458041008181 
1915	 0.531382947947073 
1916	 1.13638669423938 
1917	 0.72333692043634 
1918	 6.02102524294903 
1919	 21.1825315617929 
1920	-7.17579465071613E-02 
1921	 2.32475172089083 
1922	 0.414906648102052 
1923	 6.14744797791631E-02 
1924	 0.011653251748227 
1925	-0.215701537139185 
1926	-8.37170494940221E-02 
1927	 0.209066520368996 
1928	 0.530551343510712 
1929	 1.90417603321503 
1930	 12.0135210145616 
1931	 1.68928069961358 
1932	 0.641811114201366 
1933	 0.229528871137787 
1934	 0.448967954102027 
1935	-4.18779143574826 
1936	-0.488813385015696 
1937	-0.156954195545732 
1938	 0.654938567257304 
1939	 0.793427160825532 
1940	 1.13759910362023 
1941	 9.40957769655551E-02 
1942	 0.245008303815993 
1943	-0.209533356187551 
1944	-0.864202115815235 
1945	-0.446187934966773 
1946	-0.829173472093445 
1947	-1.40940996489066 
1948	-1.09037566332206 
1949	-0.868897608408595 
1950	-1.7549487803357 
1951	 2.53057304554592 
1952	 1.06504727335291 
1953	 0.502753063387077 
1954	 0.228615999800372 
1955	 0.090907984448555 
1956	-0.397277737771503 
1957	-0.498272268265112 
1958	-1.06248554941972 
1959	 3.54690845830114 
1960	 1.12039445756896 
1961	 0.239269635962249 
1962	 0.208214844767585 
1963	 0.771933403368667 
1964	 0.394876938312113 
1965	 0.58936022638294 
1966	 0.542734995339163 
1967	-0.325884767629764 
1968	 3.28270456040031 
1969	 3.16063396671705 
1970	 7.5645540430886 
1971	-5.34795927995876 
1972	-9.92188389427938E-02 
1973	 0.825736078175806 
1974	 1.95597807502478 
1975	 5.1825863589541 
1976	 0.735018704715699 
1977	 2.36664932009801 
1978	 1.65400662444737 
1979	 1.23178175683047 
1980	 0.912215645439101 
1981	 9.96444196623964 
1982	 1.0595891469408 
1983	-9.72899460086029E-03 
1984	-1.04350398115594 
1985	-1.31579085312095 
1986	-1.19478363865801 
1987	-0.845694640393426 
1988	-1.03693446049857E-02 
1989	 0.462702709475991 
1990	 0.202626420275011 
1991	 0.102141780788941 
1992	-2.58162035459245E-02 
1993	-0.186123356685533 
1994	-0.33605488985561 
1995	-0.591488967082264 
1996	-1.4412111571068 
1997	 33.0651591028387 
1998	 4.46647167943908E-02 
1999	-0.184577044234931 
2000	-0.749928612899904 
2001	-0.236240485248268 
2002	 0.388474989470021 
2003	 1.10992784245826 
2004	 2.80895795840908 
2005	 36.9536927636779 
2006	-98.7968806136036 
2007	-8.56874555537503 
2008	-58.3521536485868 
2009	 20.5702526592559 
2010	 5.31986734291958 
2011	 4.7042190954111 
2012	 1.23435031222333 
2013	-0.145387644850129 
2014	 0.535812901896291 
2015	 1.23880989017692 
2016	 0.66721963505611 
2017	 0.354571176059181 
2018	 0.367018249053161 
2019	-0.284030869217327 
2020	-1.43810632969384 
2021	-0.340501710124403 
2022	-0.988012395460576 
2023	-0.342352194555345 
2024	-0.243797993037288 
2025	 2.38333772621848E-02 
2026	-0.404265023576132 
2027	-4.07936979274275 
2028	 2.23415059976159 
2029	 1.25245727862589 
2030	 2.01860145791084 
2031	 98.6092563591854 
2032	-0.533149267141031 
2033	-0.336948596808533 
2034	-0.431484517680995 
2035	-0.555438578743575 
2036	-1.62201990217991 
2037	-1.24929578201589 
2038	 0.348732913407329 
2039	 0.629518944396315 
2040	 0.423731878494875 
2041	 0.568546209471086 
2042	 1.00952925614347 
2043	 0.499568341049414 
2044	-4.00450763136428E-02 
2045	-9.70122836632348E-02 
2046	-0.256280886013138 
2047	-9.06727401303434E-02 
2048	 1.01335331551441 
2049	-2.3564938607448 
2050	-2.15912722479652 
2051	 8.68893830353163 
2052	 0.515678000366339 
2053	 3.16167615888931E-02 
2054	 7.97165643691533E-02 
2055	 0.207095748540481 
2056	 0.277666984436686 
2057	 0.719627438314208 
2058	 0.723680127117792 
2059	 0.380121604598329 
2060	 0.20322474175731 
2061	-0.220145645782779 
2062	 3.21748716735053E-02 
2063	 0.344570126487484 
2064	-0.170490225179685 
2065	-0.906655229343772 
2066	-1.15565114728671 
2067	-1.63112470035775 
2068	-1.74652756670146 
2069	-0.999884879606109 
2070	-0.757266141495918 
2071	-0.634411750699359 
2072	-0.371891200473011 
2073	-0.295763074974894 
2074	-1.15875908769354 
2075	-0.762345418997618 
2076	 0.793538058059142 
2077	 0.908142184130688 
2078	 0.246743229288609 
2079	 0.182141756581823 
2080	 4.37621696962153E-02 
2081	-0.368406115791948 
2082	-2.73301672410691 
2083	-6.73518023798097 
2084	 0.392355802819031 
2085	 1.82639142548564E-03 
2086	-5.67623381641103E-02 
2087	-0.227596470352069 
2088	-0.84332050109275 
2089	 23.9390718517357 
2090	 3.18215505788141 
2091	 4.58361462858903 
2092	 6.73072626290131 
2093	-18.2879882050512 
2094	-4.33965571350968 
2095	-1.05276510781547 
2096	-0.801809148737861 
2097	-0.8163438614929 
2098	-0.534759956216276 
2099	-0.613121230987453 
2100	-0.988992682728532 
2101	 1.62909942824938 
2102	 1.91986225181635 
2103	 0.951421047162629 
2104	 0.369454744587947 
2105	 0.204777466672003 
2106	 0.122205971919973 
2107	 0.106817570162065 
2108	 0.286720347239761 
2109	 0.206601993167396 
2110	-0.20498522601113 
2111	-0.231246791544164 
2112	-1.0096462732084 
2113	-1.15187098760484 
2114	-0.556719774591423 
2115	-0.43006550646701 
2116	-0.432865289106709 
2117	-0.321556987227958 
2118	-1.63699079238159E-02 
2119	 4.14469859635423E-02 
2120	-8.01346445525942E-02 
2121	 3.74632413325839E-02 
2122	 8.53420858228137E-02 
2123	-0.183296623587953 
2124	-1.37228338868731E-03 
2125	 0.113165947739998 
2126	-3.40895409163693E-02 
2127	 9.17791465525459E-02 
2128	 0.133416546958019 
2129	-2.20356014804877E-03 
2130	 0.137956284772382 
2131	 0.224534747898605 
2132	 5.84601831782441E-02 
2133	 3.92705510448771E-02 
2134	 2.25415930323109E-03 
2135	-4.22075006518702E-02 
2136	-0.128713093701078 
2137	-0.304209375122716 
2138	-0.3411070633527 
2139	-0.294116336798838 
2140	-0.396353588852211 
2141	-0.422202570077996 
2142	-0.455530453063156 
2143	-0.664917533329384 
2144	-0.960300530967136 
2145	-0.799491471834558 
2146	-0.56778800255065 
2147	-0.403890698385828 
2148	-0.307455660130769 
2149	-0.286753283527553 
2150	-0.356734612453486 
2151	-0.353884121142965 
2152	-0.125897731687222 
2153	 3.94711058640285E-02 
2154	 0.107988097672949 
2155	 0.258694172910438 
2156	 0.252286184614001 
2157	 0.222078452305877 
2158	 0.149320851592962 
2159	 0.11770655249239 
2160	 4.10663824652312E-02 
2161	 5.17680415426808E-02 
2162	 0.127498990248898 
2163	 0.109995576773459 
2164	 1.44210990892839E-02 
2165	 1.73235448443699E-02 
2166	 6.48900746084363E-02 
2167	 5.43127185800122E-02 
2168	 0.118271834218728 
2169	 0.1032302800675 
2170	-8.25366990169935E-02 
2171	-0.16153360422715 
2172	-0.104677609314296 
2173	 1.44847721772929E-02 
2174	 0.187939131431364 
2175	 0.17818598490761 
2176	 0.177024310681834 
2177	 8.74362233856134E-02 
2178	-2.42107473885305E-02 
2179	-5.19473220687291E-02 
2180	-0.160747168832941 
2181	-0.365605703211781 
2182	-0.354540303251418 
2183	-0.276221612914378 
2184	-0.231421660982747 
2185	-0.154272830935689 
2186	-0.126952433020791 
2187	-0.147080063091736 
2188	-0.109362689888777 
2189	-5.05758782467708E-02 
2190	-3.69094047621873E-02 
2191	-5.89973622239516E-03 
2192	 2.36104091492253E-02 
2193	 7.53394156617528E-02 
2194	 1.20665758105538E-02 
2195	-0.129761918155739 
2196	-0.22620467961989 
2197	-0.517981371853182 
2198	-0.629928449693621 
2199	-0.559855515138954 
2200	-0.524802947888078 
2201	-0.377773272507339 
2202	-0.261082662329995 
2203	-0.352477691473811 
2204	-0.497232184651189 
2205	-0.446496927932467 
2206	-0.34422898750016 
2207	-0.214841611111157 
2208	-5.67706590039197E-02 
2209	 0.104529676279038 
2210	 0.105602921750374 
2211	 0.119805330219615 
2212	 0.28374133537083 
2213	 0.169111856423126 
2214	 2.67389881344872E-02 
2215	-7.83225812283521E-02 
2216	-0.249731175373239 
2217	-0.318448343004484 
2218	-0.397589573970907 
2219	-0.347391640758626 
2220	-0.179722139957914 
2221	-0.120644106911144 
2222	 1.05277407461392E-03 
2223	-1.29166573009838E-03 
2224	-0.156543003289304 
2225	-0.196577977692995 
2226	-0.304007718766091 
2227	-0.295715583858996 
2228	-0.098202731932241 
2229	 4.97940422653738E-02 
2230	 0.314670606392432 
2231	 0.414940726464852 
2232	 0.395195030460543 
2233	 0.353009376753096 
2234	 0.182366229837426 
2235	-4.75639094617771E-02 
2236	-0.118144578344008 
2237	-0.177110176949394 
2238	-0.274256786054796 
2239	-0.303945479902831 
2240	-0.447095127002017 
2241	-0.402117547138122 
2242	-0.161207008640495 
2243	-0.130742653703079 
2244	-2.64743494991382E-02 
2245	 0.146111519087865 
2246	 0.252965462164398 
2247	 0.303124452546724 
2248	 0.352341781875469 
2249	 0.311957929551777 
2250	 0.061335865554256 
2251	-1.53573029603123E-02 
2252	-3.96465018842204E-02 
2253	-0.113508667716501 
2254	-0.257354283162008 
2255	-0.311411765860342 
2256	-0.238305388269114 
2257	-0.300245727159898 
2258	-7.19661684319261E-02 
2259	 0.153796623719683 
2260	 0.126911725503034 
2261	-1.90551980958695E-02 
2262	-8.66681619406915E-02 
2263	-0.316904281534045 
2264	-0.432722502049289 
2265	-0.572515718841199 
2266	-0.812698204215078 
2267	-1.35426272047286 
2268	-1.18587777889816 
2269	-0.405883787162109 
2270	-0.255736333796369 
2271	-5.72591458683547E-02 
2272	-1.30416364058657E-02 
2273	-0.214980460110031 
2274	-0.2912184974733 
2275	-0.340397495195553 
2276	-0.353785672315778 
2277	-0.397323459855475 
2278	-0.445248057676889 
2279	-0.421788247333395 
2280	-0.330739284581042 
2281	-0.328954865181681 
2282	-9.45348349416267E-02 
2283	 2.57383748038516E-02 
2284	 9.57225811252211E-02 
2285	 0.429555644496185 
2286	-0.476484374880403 
2287	 2.41110307585417 
2288	-571.348829126165 
2289	-1.60479805645215 
2290	-1.06599863124989 
2291	-0.340476214536693 
2292	 0.53073065000408 
2293	 0.213490397858295 
2294	-13.6322023163662 
2295	-10.3023519783576 
2296	-1.38019410973624 
2297	-0.577669956874502 
2298	 0.198583265505879 
2299	 0.22423923070849 
2300	 0.196920505111661 
2301	 0.154902086730417 
2302	 0.185770094824751 
2303	 0.326470573522114 
2304	 0.237411767463833 
2305	 0.376981872863434 
2306	 0.245955861619792 
2307	 0.110130154941566 
2308	 4.51673101710287E-02 
2309	-4.73306383301744E-02 
2310	 7.33300770466387E-02 
2311	-0.152279877714239 
2312	-0.451751151117121 
2313	-0.381088646167903 
2314	-0.354499239463192 
2315	-0.362787960079221 
2316	-0.213154562575821 
2317	-5.93525298264874E-02 
2318	-0.163385090662138 
2319	-0.201585441426529 
2320	 0.317168641910147 
2321	 1.20291519398131 
2322	 0.951700939976491 
2323	 0.480201670869251 
2324	 0.361436785067371 
2325	-0.467568888365377 
2326	-1.05218628683838 
2327	-0.967208465520594 
2328	-1.22320925455671 
2329	-0.511415233286797 
2330	-7.26938474539231E-02 
2331	-0.325627713701679 
2332	-0.592791017281186 
2333	-1.24963537448744 
2334	-3.24667382869715 
2335	-2.24325166370659 
2336	-2.29699392572971 
2337	-2.65725245679995 
2338	-2.31829439323571 
2339	-2.19907202777237 
2340	-1.38589185509311 
2341	-1.36950343672285 
2342	-1.2810858026141 
2343	-1.66017820428176 
2344	-3.18696299171238 
2345	-15.9893657640325 
2346	 3.14109421340253 
2347	 2.91772573670803 
2348	 4.91583486263723 
2349	 6.22481526033982 
2350	-2.64314072871854 
2351	-0.961918011168643 
2352	 0.86483290128576 
2353	-0.144679685294035 
2354	-0.209772796759321 
2355	 0.564993358426364 
2356	 1.78485020330244 
2357	-53.3309679156603 
2358	-5.73722397409116 
2359	-6.0122084762678 
2360	-4.12848456851913 
2361	 26.8588118340809 
2362	 3.44014429876826 
2363	 2.28539637299057 
2364	 1.54478457394126 
2365	 1.59633509642847 
2366	 1.70938724828424 
2367	-134.255861242258 
2368	-4.22909232791296 
2369	-1.72522476778671 
2370	-0.664591952019709 
2371	-0.385150458673926 
2372	-0.863912846979764 
2373	-2.00191566601447 
2374	-0.669720149453319 
2375	-1.56343193895205 
2376	-4.05815512704869 
2377	-2.7296957484704 
2378	 1.70346837490323 
2379	 0.85617186756202 
2380	 0.605549478015418 
2381	 0.222174657977057 
2382	 3.1415338483909 
2383	-12.979041215847 
2384	-3.92418782159519 
2385	-3.70163814017458 
2386	-7.54858600821402 
2387	-0.32404155745665 
2388	-0.975733873123326 
2389	 0.954350719422843 
2390	 0.585420749199514 
2391	 0.30425231948645 
2392	 0.316982269820778 
2393	-4.50556601442109 
2394	-6.19139007969984 
2395	-10.1623475818655 
2396	 5.90514122858323 
2397	 1.59193446824498 
2398	 0.52601698074545 
2399	 1.09776409949505 
2400	 1.4816139500489 
2401	 0.438605580907573 
2402	-0.175539089099506 
2403	 1.3874250287294 
2404	 3.13447669246158 
2405	 3.75368836749424 
2406	 2.02776198129244 
2407	 5.84479379576963 
2408	-8.22630136467363 
2409	 1.76957422735028 
2410	 0.872724157294419 
2411	 1.19298596325401 
2412	 0.620693841877406 
2413	 0.416600290827033 
2414	 0.488954031216197 
2415	 9.44352744449909E-02 
2416	 4.44789044714347E-02 
2417	 1.37886412291554 
2418	 3.74207053826497 
2419	 9.84935890853565 
2420	 17.0410146155917 
2421	-4.78788250443584 
2422	-1.1726187131067 
2423	-0.746357517004893 
2424	-0.250296640295166 
2425	 0.215076820385415 
2426	 0.109729523984928 
2427	 0.146520577755977 
2428	 0.548096479320297 
2429	 0.701150803360597 
2430	 0.614730413562573 
2431	 0.847801264349027 
2432	 1.39873655025537 
2433	 2.02287633180683 
2434	 1.20981494746251 
2435	 1.1038988283723 
2436	-167.524756876667 
2437	-3.31882458203324 
2438	-1.70935503906038 
2439	-1.21607903240365 
2440	-2.13241067200379 
2441	-3.63914182869817 
2442	 16.8572859139758 
2443	 4.62022071739045 
2444	-13.5885829400638 
2445	-2.51569221057063 
2446	-0.749705338101272 
2447	-0.112400494383285 
2448	 4.58533574632759E-02 
2449	-1.26928284586935 
2450	-4.28733789855588 
2451	 2.28257118664431 
2452	-0.972877843116137 
2453	 0.941608095010216 
2454	 2.6384523030702 
2455	 2.68499817190833 
2456	 7.77142536564774 
2457	 0.838594084179775 
2458	 1.54177492663887 
2459	 1.65270471919361 
2460	 1.78162857786074 
2461	 1.86502937438947 
2462	-41.9656063751868 
2463	-18.6003585375863 
2464	-5.98364863840237 
2465	 109.372200844216 
2466	 3.98014888626353 
2467	-3.52399191728062 
2468	-1.86028972320226 
2469	-1.03085962300585 
2470	-0.818682056299698 
2471	-0.145242128210171 
2472	 0.555018562924105 
2473	 0.345595121569559 
2474	-0.199457551743447 
2475	-0.402260933604582 
2476	-0.177001466518392 
2477	-0.143537911723854 
2478	 0.292892282206906 
2479	 0.613977579128803 
2480	 1.28875429528014 
2481	 2.7029872488767 
2482	 2.10907236665815 
2483	 2.45306965679023 
2484	 1.57350305234126 
2485	 0.807806574438571 
2486	 0.61356822324524 
2487	 0.17241791031136 
2488	 0.543713198510023 
2489	-4.04256620891077 
2490	-0.757921724843815 
2491	-0.719089359181406 
2492	-0.395794726266692 
2493	-9.74385189434512E-02 
2494	 0.818648398176332 
2495	 5.11243045166733 
2496	-1.36437915523643 
2497	-1.60844064974898 
2498	-3.46791991999727 
2499	-3.40028727725427 
2500	-8.90318861265399 
