Wavelength	rt0712EAST_FAR00003.asd
350	 5.94280135444988E-02 
351	 6.11133648997882E-02 
352	 6.10916620074992E-02 
353	 6.08954378018429E-02 
354	 6.16502973509556E-02 
355	 6.19156236454793E-02 
356	 6.17765208478002E-02 
357	 0.061528521710093 
358	 6.14062830694733E-02 
359	 6.08295511006068E-02 
360	 0.060960707417747 
361	 0.061412823964039 
362	 0.060908408664643 
363	 6.08375335755535E-02 
364	 6.13213949509467E-02 
365	 6.18556021644902E-02 
366	 6.12648900001031E-02 
367	 6.07825060397592E-02 
368	 6.07844924653772E-02 
369	 6.12010862861783E-02 
370	 6.13419118503845E-02 
371	 6.13951145096627E-02 
372	 6.12411949062091E-02 
373	 6.07226024740573E-02 
374	 0.060825459845334 
375	 6.15800774471804E-02 
376	 6.22187694737343E-02 
377	 6.11357720207633E-02 
378	 6.09641919314978E-02 
379	 6.09775389577183E-02 
380	 6.05277879303368E-02 
381	 6.20527069239771E-02 
382	 6.22547623144819E-02 
383	 6.16518141950144E-02 
384	 6.21845798540116E-02 
385	 6.10831350699256E-02 
386	 6.09683013926332E-02 
387	 6.22308051655212E-02 
388	 6.23952280449021E-02 
389	 6.29290506956824E-02 
390	 6.32665692066997E-02 
391	 6.29385629548968E-02 
392	 6.25070225077588E-02 
393	 6.27091110866256E-02 
394	 6.31107914716096E-02 
395	 6.30012856992794E-02 
396	 6.28432789029209E-02 
397	 6.28929184765762E-02 
398	 6.31462605302823E-02 
399	 0.063384988519078 
400	 6.32681230365279E-02 
401	 6.29554392055493E-02 
402	 6.27359266914493E-02 
403	 6.30586879743208E-02 
404	 6.30613027128429E-02 
405	 6.29458737378961E-02 
406	 0.063161060150046 
407	 6.29934398230907E-02 
408	 6.32282001964332E-02 
409	 6.36971216361844E-02 
410	 0.063301124821738 
411	 6.32507881210734E-02 
412	 6.31725713461813E-02 
413	 6.28772674701028E-02 
414	 6.34069224284948E-02 
415	 6.34411513563109E-02 
416	 6.32492073879811E-02 
417	 6.35636333511783E-02 
418	 6.35939233320482E-02 
419	 6.35490591374856E-02 
420	 6.35499648606885E-02 
421	 0.063545318612569 
422	 6.34458020131395E-02 
423	 6.36758488040407E-02 
424	 0.06425518233554 
425	 6.37494143428458E-02 
426	 6.34916973613072E-02 
427	 0.063676661528365 
428	 6.39010974539728E-02 
429	 6.39235574172069E-02 
430	 6.39343025556804E-02 
431	 6.40277826403749E-02 
432	 6.41283527764214E-02 
433	 6.41996693755423E-02 
434	 6.43003956932547E-02 
435	 6.44387035171023E-02 
436	 6.43842738832897E-02 
437	 6.44659959426254E-02 
438	 6.46400864195519E-02 
439	 6.46925268213193E-02 
440	 0.064907072321792 
441	 6.51424457826659E-02 
442	 6.52872023490221E-02 
443	 6.53342222838235E-02 
444	 6.56371279103842E-02 
445	 0.065847099398143 
446	 6.56983698065065E-02 
447	 6.60333407451934E-02 
448	 6.64359332363274E-02 
449	 6.66138193869376E-02 
450	 6.64483291260296E-02 
451	 6.65060074337205E-02 
452	 6.67051899538515E-02 
453	 6.68446724094968E-02 
454	 6.66592600550414E-02 
455	 6.67968008739546E-02 
456	 6.70229501798217E-02 
457	 6.69342003867844E-02 
458	 6.71388220697632E-02 
459	 6.72407358492758E-02 
460	 6.70821479439143E-02 
461	 6.68205560183824E-02 
462	 6.71030243758131E-02 
463	 0.067443706310171 
464	 6.74168485623309E-02 
465	 6.74056195926027E-02 
466	 6.76070179619764E-02 
467	 6.78390518960466E-02 
468	 6.78091112093052E-02 
469	 6.80742509360717E-02 
470	 6.82740937373213E-02 
471	 6.82951560816576E-02 
472	 6.84641673441662E-02 
473	 6.85928775385174E-02 
474	 6.87970194222915E-02 
475	 0.069140922572281 
476	 6.92262861037492E-02 
477	 6.94280807742505E-02 
478	 6.97246539035676E-02 
479	 6.98546237873793E-02 
480	 7.01826007929805E-02 
481	 7.05503231187833E-02 
482	 7.07698799946708E-02 
483	 7.07044482882593E-02 
484	 7.08084408396326E-02 
485	 0.071198870053439 
486	 7.17341293619425E-02 
487	 7.17773470957569E-02 
488	 7.18017378111025E-02 
489	 7.21050825380493E-02 
490	 7.27130040341637E-02 
491	 7.28299046129844E-02 
492	 7.28964358013588E-02 
493	 7.33252570539664E-02 
494	 7.37639236129332E-02 
495	 7.41899176378077E-02 
496	 7.45833255097005E-02 
497	 7.49306632977919E-02 
498	 7.51470244076009E-02 
499	 7.54912378267354E-02 
500	 7.60198320112714E-02 
501	 7.64331448693583E-02 
502	 7.65138167206818E-02 
503	 7.67672904389271E-02 
504	 7.75617882998286E-02 
505	 7.77696419027449E-02 
506	 7.82577733923599E-02 
507	 7.89722115609433E-02 
508	 7.91644194867161E-02 
509	 7.96121737402468E-02 
510	 8.01133444436886E-02 
511	 8.04949843962558E-02 
512	 8.10522979495527E-02 
513	 8.13974163544609E-02 
514	 8.16778474557775E-02 
515	 8.22086550089714E-02 
516	 8.26550635108707E-02 
517	 8.32688273540892E-02 
518	 8.39693681107592E-02 
519	 8.42308194636224E-02 
520	 8.46496746168101E-02 
521	 8.51979785929374E-02 
522	 8.57454448140902E-02 
523	 8.63729539623822E-02 
524	 8.67502736799985E-02 
525	 0.087066251988408 
526	 8.78174174569668E-02 
527	 8.84094696235461E-02 
528	 8.89399963011786E-02 
529	 8.95135112016678E-02 
530	 9.00471744212941E-02 
531	 9.05805403721495E-02 
532	 9.10732636229393E-02 
533	 9.15249467645489E-02 
534	 9.23616239016447E-02 
535	 9.30558972893159E-02 
536	 9.34893784522115E-02 
537	 9.40652843212047E-02 
538	 9.47263902957188E-02 
539	 9.53899367627532E-02 
540	 9.60096425725694E-02 
541	 9.67238536193646E-02 
542	 9.74068117792213E-02 
543	 9.80518134528988E-02 
544	 9.87185991498583E-02 
545	 9.92562476273989E-02 
546	 9.98094575043905E-02 
547	 0.100471901569105 
548	 0.101181667198316 
549	 0.101833071853262 
550	 0.102425619151937 
551	 0.103015040341515 
552	 0.103711083278031 
553	 0.104308753119051 
554	 0.104824952387899 
555	 0.1055358831766 
556	 0.106218492831831 
557	 0.106818406659778 
558	 0.107326318291563 
559	 0.107751380487183 
560	 0.108232196003729 
561	 0.108723112611658 
562	 0.109082100113428 
563	 0.109466952031384 
564	 0.109811487593037 
565	 0.11003913725929 
566	 0.110090280149953 
567	 0.110245544327226 
568	 0.110435293206929 
569	 0.110509441028404 
570	 0.110750726828343 
571	 0.110808937147011 
572	 0.110710036258529 
573	 0.110907912117106 
574	 0.111090737740392 
575	 0.111052065871621 
576	 0.1107641482219 
577	 0.110673554937528 
578	 0.110590077381432 
579	 0.110382478156785 
580	 0.10999001020418 
581	 0.109659661012991 
582	 0.109370662454997 
583	 0.109017870821156 
584	 0.10839900172538 
585	 0.107697410104827 
586	 0.107050430755836 
587	 0.10648860955606 
588	 0.105433951426533 
589	 0.104674759933394 
590	 0.104397750066819 
591	 0.103926072586045 
592	 0.103397042898213 
593	 0.102762478641082 
594	 0.102015156273569 
595	 0.101283276807348 
596	 0.100531880696119 
597	 9.97685899264608E-02 
598	 9.89983586111576E-02 
599	 9.79171127760234E-02 
600	 9.68804141226017E-02 
601	 9.61659729612055E-02 
602	 9.58252524495693E-02 
603	 9.53622522467656E-02 
604	 0.094908753470415 
605	 9.47289506492791E-02 
606	 9.46130690416018E-02 
607	 9.43701684060685E-02 
608	 9.40805563854387E-02 
609	 9.40809990011733E-02 
610	 9.38318956266546E-02 
611	 9.34370910334902E-02 
612	 9.30973002386022E-02 
613	 9.28727573476213E-02 
614	 9.26381226939591E-02 
615	 0.092428081353586 
616	 9.23352634260535E-02 
617	 9.20984577437926E-02 
618	 9.17094099355799E-02 
619	 9.13514868105054E-02 
620	 9.15009696302057E-02 
621	 0.09130414798863 
622	 9.09631985065116E-02 
623	 9.09044259113768E-02 
624	 9.08086873219175E-02 
625	 9.06274242984379E-02 
626	 9.03121186462685E-02 
627	 8.98380710903803E-02 
628	 8.96965519427882E-02 
629	 8.96343341180438E-02 
630	 8.93967282558408E-02 
631	 8.91357227408617E-02 
632	 8.89375248453969E-02 
633	 8.88706038729913E-02 
634	 8.89303759748593E-02 
635	 8.87337934734076E-02 
636	 8.85656135422113E-02 
637	 8.85578882307353E-02 
638	 8.85390048914998E-02 
639	 8.83637077724997E-02 
640	 8.82033409542997E-02 
641	 8.82106279926728E-02 
642	 8.80342169251196E-02 
643	 8.78393970213682E-02 
644	 8.75705091411182E-02 
645	 8.69942071767029E-02 
646	 8.63631044000026E-02 
647	 8.62031874558218E-02 
648	 8.65321774092363E-02 
649	 8.61244957494751E-02 
650	 8.56908462023039E-02 
651	 8.53287583530183E-02 
652	 8.49281864795498E-02 
653	 8.42960253207891E-02 
654	 8.36437765989195E-02 
655	 8.29692027942678E-02 
656	 8.20357808893372E-02 
657	 8.11434200116355E-02 
658	 8.02387881047527E-02 
659	 7.92863432026559E-02 
660	 7.86484606073523E-02 
661	 7.79593940937918E-02 
662	 7.71964870511034E-02 
663	 7.65693792552501E-02 
664	 7.61632189483182E-02 
665	 7.57710309944338E-02 
666	 7.52736150955435E-02 
667	 7.47590844232462E-02 
668	 7.46693534212745E-02 
669	 7.47972686637508E-02 
670	 7.47946639549705E-02 
671	 7.48475339520077E-02 
672	 7.49508030867751E-02 
673	 7.51706465178069E-02 
674	 0.075622269156686 
675	 7.59184666903834E-02 
676	 7.61986324134562E-02 
677	 7.66117468008278E-02 
678	 7.70576060197422E-02 
679	 7.75567617344173E-02 
680	 7.79779690875882E-02 
681	 7.82251369964269E-02 
682	 7.89355047270042E-02 
683	 7.96098902410552E-02 
684	 8.00536461019488E-02 
685	 0.080666189982045 
686	 8.15615017730285E-02 
687	 8.21474762899661E-02 
688	 8.20101665176907E-02 
689	 8.21777419704381E-02 
690	 8.22405360368685E-02 
691	 8.22579707878761E-02 
692	 8.25127155469978E-02 
693	 8.22768995308689E-02 
694	 8.19401915969339E-02 
695	 8.17538711385085E-02 
696	 8.14038106415759E-02 
697	 8.08738791874804E-02 
698	 8.02715492574304E-02 
699	 0.079780433034065 
700	 0.079220180660579 
701	 7.87033442844224E-02 
702	 7.81266389599619E-02 
703	 7.72239478696087E-02 
704	 7.64554838261961E-02 
705	 7.56010483781041E-02 
706	 7.45897801676677E-02 
707	 7.38224687766502E-02 
708	 7.26067601215964E-02 
709	 0.071375034178958 
710	 7.07189183276601E-02 
711	 6.95687518272087E-02 
712	 6.83059130225053E-02 
713	 6.70674776617001E-02 
714	 6.56228177050378E-02 
715	 6.43766913126096E-02 
716	 6.31426332451746E-02 
717	 6.18566616096465E-02 
718	 6.08991746522462E-02 
719	 5.93163632571292E-02 
720	 5.80689523958635E-02 
721	 5.76724168957221E-02 
722	 5.65984909847537E-02 
723	 5.54253673493117E-02 
724	 5.46845066050112E-02 
725	 5.39120369748253E-02 
726	 5.30226577966157E-02 
727	 5.21291279755531E-02 
728	 5.13108033834616E-02 
729	 5.03299454392282E-02 
730	 4.99176897590877E-02 
731	 0.049631141286647 
732	 4.87915400223158E-02 
733	 4.82907130449271E-02 
734	 4.78859384811884E-02 
735	 4.75251288038308E-02 
736	 4.74404309549855E-02 
737	 4.70081357866801E-02 
738	 0.046658522420079 
739	 4.67418064121568E-02 
740	 4.67039554879616E-02 
741	 4.66218828799881E-02 
742	 4.66181070017592E-02 
743	 0.046781515654065 
744	 4.67272270424203E-02 
745	 4.66979120320782E-02 
746	 4.67271706670389E-02 
747	 4.64922393333159E-02 
748	 4.66599405269747E-02 
749	 4.67724971361943E-02 
750	 4.64142325904881E-02 
751	 4.62547698161248E-02 
752	 4.63006301584638E-02 
753	 4.63301089782851E-02 
754	 0.046097492141252 
755	 4.63762829532568E-02 
756	 0.046226665809876 
757	 4.55721609917918E-02 
758	 4.59545231569394E-02 
759	 4.56843120560954E-02 
760	 4.48573046387473E-02 
761	 4.52245427291056E-02 
762	 4.50608575825188E-02 
763	 4.56334661705623E-02 
764	 4.60161969056633E-02 
765	 4.54762285814341E-02 
766	 4.58241776437168E-02 
767	 4.59740705501801E-02 
768	 4.58025340731409E-02 
769	 4.59867115207045E-02 
770	 0.045967670466378 
771	 4.58721839192993E-02 
772	 0.045879556858763 
773	 4.59408791595178E-02 
774	 4.61133092493984E-02 
775	 4.61308463342638E-02 
776	 4.57724599925861E-02 
777	 4.59327943990472E-02 
778	 4.61219448348464E-02 
779	 4.60805356386876E-02 
780	 4.59164545627631E-02 
781	 4.61705398456972E-02 
782	 4.63932043947352E-02 
783	 4.62558769981416E-02 
784	 4.61173805789859E-02 
785	 4.61436363338657E-02 
786	 4.64094975869247E-02 
787	 4.68142967869599E-02 
788	 0.046728605318198 
789	 4.63986750882472E-02 
790	 4.62203641945389E-02 
791	 4.65563367539281E-02 
792	 4.70110012135245E-02 
793	 4.70209019679963E-02 
794	 4.65731643161594E-02 
795	 4.65516983209976E-02 
796	 4.70520660013339E-02 
797	 4.74340432173664E-02 
798	 4.71620573496161E-02 
799	 4.66557471354616E-02 
800	 4.68259791566085E-02 
801	 4.73751784591235E-02 
802	 4.73940214260334E-02 
803	 4.76215647288107E-02 
804	 4.76649689516538E-02 
805	 4.74469838323856E-02 
806	 4.72961008711339E-02 
807	 4.75358101441888E-02 
808	 4.75335364189691E-02 
809	 4.69775996120224E-02 
810	 4.71374087395092E-02 
811	 4.64369264694822E-02 
812	 4.56075873792645E-02 
813	 4.62581808804051E-02 
814	 4.69616499933664E-02 
815	 4.65687514968724E-02 
816	 4.57657962455077E-02 
817	 0.046356758199828 
818	 4.57567925039272E-02 
819	 4.52967221678745E-02 
820	 4.54585750213897E-02 
821	 4.55051528820973E-02 
822	 0.045099642619669 
823	 4.49619925947572E-02 
824	 4.53375447880485E-02 
825	 4.48915651991149E-02 
826	 4.45771033987935E-02 
827	 4.41873551843651E-02 
828	 4.34306969913708E-02 
829	 4.39053171959849E-02 
830	 0.043579701576043 
831	 4.26389811819131E-02 
832	 4.28043164920938E-02 
833	 4.33925919048826E-02 
834	 0.043592473221431 
835	 4.31513526707229E-02 
836	 4.24744488192579E-02 
837	 4.26296848193058E-02 
838	 4.29767890626763E-02 
839	 4.29119338807498E-02 
840	 0.042885375418784 
841	 4.28725909256629E-02 
842	 4.27217523648703E-02 
843	 4.24271034066787E-02 
844	 0.042895931259776 
845	 4.30159283080207E-02 
846	 4.26084535716747E-02 
847	 4.22565660886758E-02 
848	 4.28784587089897E-02 
849	 4.31515709820494E-02 
850	 0.042666082249589 
851	 4.25042315281271E-02 
852	 4.23215565840757E-02 
853	 4.26002566028545E-02 
854	 4.33141710564627E-02 
855	 4.31775953203154E-02 
856	 4.25935160137405E-02 
857	 4.21399066533921E-02 
858	 4.22203952733204E-02 
859	 4.24886396467904E-02 
860	 4.26649109947168E-02 
861	 4.28721098594853E-02 
862	 0.043280850218583 
863	 4.29731480111331E-02 
864	 4.26172766858811E-02 
865	 4.25478943043073E-02 
866	 4.26187309495351E-02 
867	 4.22118257373705E-02 
868	 4.19675155394849E-02 
869	 4.21607805481238E-02 
870	 4.23683753594345E-02 
871	 4.21823865733485E-02 
872	 4.21140533048464E-02 
873	 4.23586465782597E-02 
874	 4.19097195227608E-02 
875	 4.17841099832553E-02 
876	 4.19039970729924E-02 
877	 4.19117758303769E-02 
878	 4.18110492346285E-02 
879	 4.15487721606925E-02 
880	 0.041588394531927 
881	 4.22050545488973E-02 
882	 4.12904203025471E-02 
883	 4.08904337440771E-02 
884	 4.12521517641456E-02 
885	 4.12151004659839E-02 
886	 4.17728837803656E-02 
887	 4.17413730086559E-02 
888	 4.10671133776302E-02 
889	 4.11796848998482E-02 
890	 4.16780414488882E-02 
891	 4.18242822570306E-02 
892	 4.13099773563905E-02 
893	 4.09269643633742E-02 
894	 4.13265959634246E-02 
895	 4.12385948682122E-02 
896	 3.96821750487677E-02 
897	 3.94854407540223E-02 
898	 3.97010132359097E-02 
899	 4.06856825080443E-02 
900	 4.19540808397983E-02 
901	 3.90781674268749E-02 
902	 3.89132996413305E-02 
903	 4.04020324277885E-02 
904	 4.03631968441556E-02 
905	 4.08556354077275E-02 
906	 3.93092339926472E-02 
907	 3.81696448322062E-02 
908	 0.042258528065263 
909	 3.95075499144288E-02 
910	 3.86058379392212E-02 
911	 4.09691022912568E-02 
912	 3.99421912334794E-02 
913	 4.02082801516878E-02 
914	 0.038781051634338 
915	 3.69215727953124E-02 
916	 4.02422387469596E-02 
917	 3.85004176150174E-02 
918	 3.83164916601291E-02 
919	 4.11884275251613E-02 
920	 4.01953564992954E-02 
921	 3.96664885546009E-02 
922	 3.93552880663823E-02 
923	 3.85213174844561E-02 
924	 3.70716129193834E-02 
925	 3.94892417341813E-02 
926	 4.09743082933394E-02 
927	 0.036353658546871 
928	 3.54620229304416E-02 
929	 3.25576044220018E-02 
930	 2.53709691314947E-02 
931	 1.83670999088439E-02 
932	 4.12268881795549E-02 
933	 5.47003093652976E-02 
934	 0.034725001002282 
935	-1.28373323762784E-04 
936	 1.36269731685093E-02 
937	 3.85437036688352E-02 
938	 0.043546831063058 
939	 2.01904225091269E-02 
940	 2.63439677703397E-02 
941	 4.23746166655884E-02 
942	 4.59063528218682E-02 
943	 2.17451238713311E-02 
944	 2.53894919483936E-02 
945	 2.56600244642116E-02 
946	 1.81163366081408E-02 
947	 1.72461846094022E-02 
948	 0.019519839644305 
949	 1.63679353642489E-02 
950	 2.06743243698563E-02 
951	 4.61659633746874E-02 
952	 4.28843570957872E-02 
953	 2.95814063248967E-02 
954	 2.56669406894208E-02 
955	 3.94632541024558E-02 
956	 3.50921380333442E-02 
957	 3.40770210286842E-02 
958	 0.036316457570815 
959	 2.94326353121617E-02 
960	 3.17246571947742E-02 
961	 3.67151582282987E-02 
962	 3.98374811842404E-02 
963	 0.040481186233812 
964	 4.43073117325497E-02 
965	 4.07716944436547E-02 
966	 3.42967017370988E-02 
967	 0.036249339277198 
968	 3.51367143396258E-02 
969	 3.68339958769275E-02 
970	 3.98198701204778E-02 
971	 0.037014357851117 
972	 3.60363851955993E-02 
973	 0.034814533951661 
974	 3.63744725053573E-02 
975	 4.56584899013412E-02 
976	 3.75363984364535E-02 
977	 2.95084150460597E-02 
978	 3.11450100163918E-02 
979	 3.74926194127126E-02 
980	 3.54213070403328E-02 
981	 3.55548026257523E-02 
982	 3.92389292125092E-02 
983	 3.99769385698059E-02 
984	 4.13489839009119E-02 
985	 4.03651046698178E-02 
986	 3.72809418994268E-02 
987	 3.52792556593048E-02 
988	 3.73656381489587E-02 
989	 3.71231269614634E-02 
990	 3.47398382751999E-02 
991	 3.53374192895195E-02 
992	 3.77873323447913E-02 
993	 3.95136915202225E-02 
994	 0.037969965553917 
995	 0.033497398412481 
996	 0.04104733311189 
997	 4.12706306288903E-02 
998	 3.47703623317544E-02 
999	 3.42952231922828E-02 
1000	 3.62095405839175E-02 
1001	 0.041520778803652 
1002	 4.14429776683866E-02 
1003	 4.20034668487097E-02 
1004	 4.15022383079422E-02 
1005	 4.16880763414228E-02 
1006	 4.34951779985596E-02 
1007	 0.044101539238196 
1008	 4.28404724915601E-02 
1009	 4.29610987572275E-02 
1010	 4.23762641922933E-02 
1011	 4.13324526745052E-02 
1012	 4.16024117379539E-02 
1013	 4.15138744422208E-02 
1014	 4.10766337235009E-02 
1015	 3.98209200813978E-02 
1016	 3.99962744690514E-02 
1017	 4.08525630336365E-02 
1018	 4.11463098992638E-02 
1019	 4.25017429147274E-02 
1020	 4.28129887766115E-02 
1021	 4.25239505951625E-02 
1022	 4.10659545158149E-02 
1023	 4.03596987916314E-02 
1024	 3.99463153243634E-02 
1025	 3.91897642531981E-02 
1026	 3.97865199060241E-02 
1027	 4.01540511318213E-02 
1028	 4.08279589833552E-02 
1029	 4.16647432629552E-02 
1030	 4.33015442061926E-02 
1031	 4.34974710399852E-02 
1032	 0.043361973245832 
1033	 4.30082846075852E-02 
1034	 0.041360253524272 
1035	 4.07090170836651E-02 
1036	 4.02511781001734E-02 
1037	 0.040121207590033 
1038	 4.12163104945131E-02 
1039	 4.06084130520204E-02 
1040	 4.00361369201969E-02 
1041	 4.11010524864248E-02 
1042	 4.10532998572956E-02 
1043	 4.02880183404494E-02 
1044	 4.06428389946569E-02 
1045	 4.13332663267403E-02 
1046	 4.18940847862313E-02 
1047	 4.35660777348349E-02 
1048	 4.37201032509601E-02 
1049	 4.29600051801871E-02 
1050	 0.042433760205727 
1051	 4.07890083654633E-02 
1052	 4.02160276986085E-02 
1053	 4.02604707404606E-02 
1054	 4.02179702110906E-02 
1055	 4.07768399425953E-02 
1056	 4.10127752316389E-02 
1057	 4.11690109124843E-02 
1058	 4.10954262801192E-02 
1059	 4.14374288474598E-02 
1060	 4.19054981898339E-02 
1061	 4.23053708082379E-02 
1062	 4.33531687482552E-02 
1063	 4.32485016671527E-02 
1064	 4.23386050594218E-02 
1065	 4.18455468416026E-02 
1066	 4.02700339740782E-02 
1067	 4.00298724969027E-02 
1068	 4.13916144363447E-02 
1069	 4.15219565969952E-02 
1070	 4.14981438706981E-02 
1071	 4.16255422957889E-02 
1072	 4.17908032208658E-02 
1073	 4.03806049810862E-02 
1074	 4.05853905556591E-02 
1075	 4.17304365497698E-02 
1076	 4.19654157694878E-02 
1077	 4.24674540490037E-02 
1078	 4.24893356206959E-02 
1079	 4.16497304716942E-02 
1080	 4.16583144926139E-02 
1081	 4.18948354271267E-02 
1082	 4.18614390427792E-02 
1083	 0.042368954241979 
1084	 4.22935659886265E-02 
1085	 4.12864136739237E-02 
1086	 4.11594929981823E-02 
1087	 4.13740523496012E-02 
1088	 4.14769236294852E-02 
1089	 4.27785813263552E-02 
1090	 4.25022884075818E-02 
1091	 4.23168861235726E-02 
1092	 4.15892347850258E-02 
1093	 4.09155382756446E-02 
1094	 3.92045918322019E-02 
1095	 3.95628720568312E-02 
1096	 4.13230120202821E-02 
1097	 0.042249620498947 
1098	 4.49793924454164E-02 
1099	 4.55532222248012E-02 
1100	 4.36784999027611E-02 
1101	 4.27642155538282E-02 
1102	 4.07361855617228E-02 
1103	 4.03306892334448E-02 
1104	 4.21069334116777E-02 
1105	 4.19853399433992E-02 
1106	 4.30105106228848E-02 
1107	 4.19252730549746E-02 
1108	 3.77660633998768E-02 
1109	 3.77456923274353E-02 
1110	 3.87647646342981E-02 
1111	 4.38356846445827E-02 
1112	 4.56641725914307E-02 
1113	 4.71055827703507E-02 
1114	 4.77299619323103E-02 
1115	 4.65459056404636E-02 
1116	 4.51120337209449E-02 
1117	 4.09252958780587E-02 
1118	 4.40034658100797E-02 
1119	 5.13725989717778E-02 
1120	 5.44831555778813E-02 
1121	 6.48042129132758E-02 
1122	 9.12683793767943E-02 
1123	 7.75896565695473E-02 
1124	 0.073847219480596 
1125	 8.93388892892397E-02 
1126	 0.081935161573382 
1127	 0.114267739591708 
1128	 0.133113807381693 
1129	 0.116768549216049 
1130	 0.06992768816448 
1131	 6.45429025916053E-02 
1132	 4.88345166213695E-02 
1133	 4.46975483615375E-02 
1134	 7.28946876684779E-02 
1135	 7.39549159900106E-02 
1136	 5.75765449711553E-02 
1137	 5.22875319977165E-02 
1138	 0.051657447229532 
1139	 3.34699578287114E-02 
1140	 3.03580458657801E-02 
1141	 3.85656917424428E-02 
1142	 3.10265802775881E-02 
1143	 2.41394734933484E-02 
1144	 3.05054471784757E-02 
1145	 4.49890154576189E-02 
1146	 4.69191228215228E-02 
1147	 4.36791448092178E-02 
1148	 4.77712124395337E-02 
1149	 4.77899099864197E-02 
1150	 4.44625687751387E-02 
1151	 4.55992981506318E-02 
1152	 4.89828352598565E-02 
1153	 4.82951621972382E-02 
1154	 4.50671938376793E-02 
1155	 4.40640538924273E-02 
1156	 4.53342752232242E-02 
1157	 4.12762740010154E-02 
1158	 3.84653688235927E-02 
1159	 3.74786265967189E-02 
1160	 3.93879834593894E-02 
1161	 4.32824110366483E-02 
1162	 4.36382954012271E-02 
1163	 4.42906336420987E-02 
1164	 4.53886789391987E-02 
1165	 4.38407760505229E-02 
1166	 4.25759773902038E-02 
1167	 4.17056489684131E-02 
1168	 4.23608985401344E-02 
1169	 0.042860010044388 
1170	 4.05121342458052E-02 
1171	 4.02450176262851E-02 
1172	 4.17627724066858E-02 
1173	 4.15748021701415E-02 
1174	 4.03566771474748E-02 
1175	 4.10034015270073E-02 
1176	 4.17376632764024E-02 
1177	 0.039739443930173 
1178	 0.039328514560061 
1179	 4.06313974033916E-02 
1180	 4.03996682666204E-02 
1181	 3.91330409338041E-02 
1182	 3.87956946884502E-02 
1183	 3.85853695483945E-02 
1184	 3.75170673596089E-02 
1185	 0.038299367061142 
1186	 0.039206433010827 
1187	 3.81829606704419E-02 
1188	 3.71879816751838E-02 
1189	 3.66440096900161E-02 
1190	 3.61568407442712E-02 
1191	 3.58026289492091E-02 
1192	 3.62530977027537E-02 
1193	 3.82817517933585E-02 
1194	 3.94487664715921E-02 
1195	 0.038645273978815 
1196	 3.95031632408784E-02 
1197	 4.07962428432948E-02 
1198	 0.040391728064145 
1199	 4.01553087686188E-02 
1200	 3.92503373359991E-02 
1201	 3.77229305522263E-02 
1202	 3.83587983959705E-02 
1203	 4.03039023129961E-02 
1204	 4.08539179006519E-02 
1205	 4.01891202294372E-02 
1206	 3.96056005423909E-02 
1207	 3.96167836815405E-02 
1208	 4.02980666935087E-02 
1209	 4.08141650569263E-02 
1210	 0.041046899624809 
1211	 4.10730044629087E-02 
1212	 0.040863249565423 
1213	 4.08611816824656E-02 
1214	 0.040730287641006 
1215	 4.02942205558533E-02 
1216	 3.99032592759609E-02 
1217	 0.03995943851712 
1218	 4.01521630893084E-02 
1219	 4.04160935532854E-02 
1220	 3.95722494972468E-02 
1221	 3.89730693461166E-02 
1222	 3.92494812909704E-02 
1223	 3.94310898032873E-02 
1224	 0.040154932266569 
1225	 0.040947928766038 
1226	 4.01594184123323E-02 
1227	 3.94890845264674E-02 
1228	 3.96451266594045E-02 
1229	 3.88188929209403E-02 
1230	 3.86848756675566E-02 
1231	 3.89992780866818E-02 
1232	 3.83038646733675E-02 
1233	 3.81241603007726E-02 
1234	 3.88473510530129E-02 
1235	 3.90156632926086E-02 
1236	 3.88895886162539E-02 
1237	 3.91540097347113E-02 
1238	 3.95960676866667E-02 
1239	 3.96716281346838E-02 
1240	 3.94557919282992E-02 
1241	 4.01460008917359E-02 
1242	 4.07055915911804E-02 
1243	 3.99199096435746E-02 
1244	 4.02092866335788E-02 
1245	 4.14780509737264E-02 
1246	 0.040933643616579 
1247	 3.96904939279621E-02 
1248	 0.038862243684953 
1249	 3.79419622834708E-02 
1250	 3.81082647632121E-02 
1251	 3.94510639915707E-02 
1252	 3.93323330359127E-02 
1253	 3.82339606653582E-02 
1254	 3.85485598640635E-02 
1255	 3.94183125749641E-02 
1256	 3.96011445518353E-02 
1257	 4.09054721846276E-02 
1258	 4.12508232771592E-02 
1259	 3.94537633523584E-02 
1260	 3.88982622954694E-02 
1261	 0.039774617979051 
1262	 4.01215990520587E-02 
1263	 4.02127178248256E-02 
1264	 0.040441903776575 
1265	 4.03048662977709E-02 
1266	 3.91217741187912E-02 
1267	 3.83673916677952E-02 
1268	 3.76483296011284E-02 
1269	 3.78034699009364E-02 
1270	 3.85599639448593E-02 
1271	 0.038515846664342 
1272	 3.86978781201526E-02 
1273	 3.93588807225199E-02 
1274	 3.95939771317688E-02 
1275	 4.00850838132749E-02 
1276	 4.12860233669854E-02 
1277	 4.07980644257107E-02 
1278	 3.90186481715545E-02 
1279	 3.89727893025346E-02 
1280	 3.92773796092403E-02 
1281	 3.92105633737013E-02 
1282	 0.040366689672882 
1283	 4.08717970698206E-02 
1284	 4.02536891824517E-02 
1285	 3.98259761794286E-02 
1286	 3.99843935989937E-02 
1287	 3.98400138069819E-02 
1288	 3.84058915094303E-02 
1289	 3.84537675609005E-02 
1290	 3.97017919600796E-02 
1291	 4.03628890835754E-02 
1292	 4.05819673728241E-02 
1293	 0.040574715790025 
1294	 4.02128242980938E-02 
1295	 4.01785119387436E-02 
1296	 3.95046230531928E-02 
1297	 3.90526120164104E-02 
1298	 3.90996809892969E-02 
1299	 0.038556287250895 
1300	 3.86867274498433E-02 
1301	 3.92918369347476E-02 
1302	 3.98751595156097E-02 
1303	 4.00092869660499E-02 
1304	 3.95925178472456E-02 
1305	 4.13420622171024E-02 
1306	 4.20946196940149E-02 
1307	 0.041477683359735 
1308	 4.10012159899143E-02 
1309	 0.040920498050906 
1310	 4.07836070330501E-02 
1311	 4.08405033020133E-02 
1312	 4.09317997209636E-02 
1313	 4.12611588558861E-02 
1314	 4.05543533781554E-02 
1315	 3.70584408944385E-02 
1316	 3.67023269931749E-02 
1317	 3.88589168321951E-02 
1318	 3.95114598200662E-02 
1319	 4.33987188069407E-02 
1320	 4.39986975333406E-02 
1321	 4.08292226534628E-02 
1322	 3.72377776878402E-02 
1323	 3.67200113588038E-02 
1324	 3.56905199928368E-02 
1325	 3.32862396492144E-02 
1326	 3.51276329113142E-02 
1327	 3.91400281723918E-02 
1328	 3.94117916226047E-02 
1329	 3.91847039510144E-02 
1330	 3.65420098893625E-02 
1331	 2.93754961288613E-02 
1332	 2.81577466104764E-02 
1333	 3.52410344359016E-02 
1334	 3.53476444585725E-02 
1335	 3.87496655610581E-02 
1336	 0.046980900282461 
1337	 4.59227580246929E-02 
1338	 3.69275831191794E-02 
1339	 4.11900251316243E-02 
1340	 0.045296239045033 
1341	 4.41645576722533E-02 
1342	 5.39175606763619E-02 
1343	 6.04410511100373E-02 
1344	 5.83300059861215E-02 
1345	 5.51163552108545E-02 
1346	 4.68958630767337E-02 
1347	 5.09313340748135E-02 
1348	 0.059664759529385 
1349	 5.66535105589093E-02 
1350	 5.81686882197592E-02 
1351	 0.102913734812743 
1352	 0.221761668961964 
1353	 0.244562534451787 
1354	 0.216330580576984 
1355	 0.237399427090712 
1356	 0.403057628673634 
1357	 0.379803338217252 
1358	 0.263068256651008 
1359	 0.369475781367951 
1360	 0.071713519427356 
1361	-0.407755656911528 
1362	-6.84376960726685E-02 
1363	 1.53903614680146 
1364	 0.912707671332061 
1365	 0.573862752384898 
1366	 0.649815817683473 
1367	 0.595224740412942 
1368	 0.589693996447116 
1369	 0.90294784038604 
1370	 1.17517525767518 
1371	 1.7979318646941 
1372	 1.20431511331271 
1373	 0.958649552705905 
1374	 6.00653807033281 
1375	-2.39915778370304 
1376	-1.19437087109778 
1377	-0.120744135825081 
1378	-3.01417211850125E-02 
1379	 0.723554461063819 
1380	 1.19185884581968 
1381	 1.78242769037435 
1382	 1.64862822167813 
1383	 0.794599298806836 
1384	 0.779056980523047 
1385	 0.591143270071055 
1386	 0.765226923737302 
1387	 3.9106854116555 
1388	 4.52395308218903 
1389	 2.64432702256422 
1390	 3.13968977779295 
1391	 3.34834543982498 
1392	 0.770850490660043 
1393	 0.418367698967983 
1394	 0.597120466710494 
1395	 0.612303963314249 
1396	 0.116738535750263 
1397	 0.16386450220843 
1398	-17.0114407032038 
1399	 0.533331336517084 
1400	 1.31209864693138 
1401	 3.23922935793875 
1402	-84.3319378681566 
1403	-0.225960647663994 
1404	-8.75473943617618 
1405	-114.721218425748 
1406	 1.41022032568511 
1407	 1.23280776496821 
1408	 1.78366039256635 
1409	 7.02199941116701 
1410	-1.84890626848757 
1411	-4.33113633315758 
1412	 1.2649758272212 
1413	 0.974542753887068 
1414	-0.210323238441562 
1415	-0.316467158753722 
1416	-1.72789186994596 
1417	-5.00430968408296 
1418	 4.63209106290158 
1419	 2.0139994854564 
1420	 1.61922301760745 
1421	 1.08818253421668 
1422	 0.171795868044771 
1423	 8.08743029244979E-02 
1424	 7.32402203504879E-02 
1425	 0.167417543373646 
1426	 0.782192970778874 
1427	 0.562679987686809 
1428	 4.91557680850356E-02 
1429	 2.91360118510813E-02 
1430	 0.128046638420296 
1431	 6.29980095632066E-02 
1432	-0.236943003408957 
1433	-0.186306124189463 
1434	 9.13250276012801E-02 
1435	 2.74669681720026E-02 
1436	-4.18042678565605E-02 
1437	 6.97413313580568E-02 
1438	 0.202478730757902 
1439	 3.78083595282438E-02 
1440	-0.276849059987179 
1441	-0.340277746229127 
1442	-0.282447250367697 
1443	-0.380776120996992 
1444	-0.122481622715954 
1445	 0.184588557209731 
1446	 0.142489547156223 
1447	 0.045194397666741 
1448	 7.06727924157408E-03 
1449	-0.037922236220698 
1450	 8.69096898100074E-02 
1451	 0.193047986994375 
1452	 0.156827437813322 
1453	 0.140333878982137 
1454	 0.141893040122724 
1455	 0.103767462500396 
1456	 9.62319944229088E-02 
1457	 0.138862708890613 
1458	 0.108175990149612 
1459	 6.89230084321077E-03 
1460	 6.65363330093328E-03 
1461	 6.82800052670505E-02 
1462	 5.96643903291745E-02 
1463	 6.09143741529823E-02 
1464	 5.57759132690319E-02 
1465	-4.17624035550372E-02 
1466	-4.56335925606699E-02 
1467	 4.97598695146175E-02 
1468	 8.59890534718701E-02 
1469	 0.116083566717606 
1470	 0.151223416174397 
1471	 0.19678997771765 
1472	 0.181839667147362 
1473	 0.110133203525757 
1474	 9.80710747432276E-02 
1475	 0.087468964847244 
1476	 8.35815968292138E-02 
1477	 0.120200125744469 
1478	 0.117588902780645 
1479	 9.33321603021726E-02 
1480	 6.14801909578522E-02 
1481	 6.80204470283006E-03 
1482	 4.11755175000282E-03 
1483	 2.51566911444018E-02 
1484	 2.15179796328948E-02 
1485	 2.47845674573234E-02 
1486	 3.21684952479029E-02 
1487	 3.06306846696165E-02 
1488	 3.13926350806373E-02 
1489	 4.29237986540697E-02 
1490	 4.07488401953651E-02 
1491	 2.48588682211647E-02 
1492	 2.25493937068291E-02 
1493	 0.022864866997075 
1494	 2.85473466641118E-02 
1495	 4.50675460447589E-02 
1496	 4.62968223563232E-02 
1497	 4.11227934246829E-02 
1498	 0.040181767266052 
1499	 3.07073319944685E-02 
1500	 3.03800466468823E-02 
1501	 0.044107699368815 
1502	 4.59387894532425E-02 
1503	 3.95309709453142E-02 
1504	 4.08300696940863E-02 
1505	 4.48659160257096E-02 
1506	 4.13122763148391E-02 
1507	 4.00547542520613E-02 
1508	 4.53575347353409E-02 
1509	 4.81146934990476E-02 
1510	 4.63298352438495E-02 
1511	 4.41262841647733E-02 
1512	 4.50974838168922E-02 
1513	 0.044876879799583 
1514	 4.39101178354522E-02 
1515	 4.37493528438198E-02 
1516	 4.20013406853363E-02 
1517	 3.95736875389493E-02 
1518	 3.57729644530745E-02 
1519	 3.34223583438477E-02 
1520	 3.25854978942052E-02 
1521	 0.033484069745362 
1522	 3.58687401799369E-02 
1523	 3.54803276637757E-02 
1524	 3.58272082395516E-02 
1525	 3.53346310416541E-02 
1526	 0.032652840027965 
1527	 3.44597871677688E-02 
1528	 3.89733817346571E-02 
1529	 4.12522816682393E-02 
1530	 0.040608866077735 
1531	 3.85758596482202E-02 
1532	 3.93336945241312E-02 
1533	 4.04474885377333E-02 
1534	 3.98140071656218E-02 
1535	 0.041666391710191 
1536	 4.34151529374602E-02 
1537	 0.04197629545939 
1538	 4.08973529145343E-02 
1539	 4.28961481574446E-02 
1540	 4.32805356155701E-02 
1541	 0.038683786688786 
1542	 3.75886615498489E-02 
1543	 4.02855517333182E-02 
1544	 0.038547590646678 
1545	 3.83636110059348E-02 
1546	 4.13993373837009E-02 
1547	 4.05696341057552E-02 
1548	 3.93426861677842E-02 
1549	 4.04155901920046E-02 
1550	 4.18802438828963E-02 
1551	 4.21741373305465E-02 
1552	 4.05448042258916E-02 
1553	 3.95308135995758E-02 
1554	 3.84579600645964E-02 
1555	 3.62134949517966E-02 
1556	 0.034844913585167 
1557	 0.036566139226019 
1558	 0.039643206415007 
1559	 4.05906990756891E-02 
1560	 4.10501895019659E-02 
1561	 4.14861950323011E-02 
1562	 4.08300190272155E-02 
1563	 3.93961672241042E-02 
1564	 3.90645169561414E-02 
1565	 3.93587529472411E-02 
1566	 0.037623353699645 
1567	 3.66422642897513E-02 
1568	 3.84636919943687E-02 
1569	 3.94671368969879E-02 
1570	 3.82962231022115E-02 
1571	 3.85804634542055E-02 
1572	 3.92961355782115E-02 
1573	 0.037867368161842 
1574	 0.036611702577776 
1575	 3.71125254905878E-02 
1576	 0.036969415953029 
1577	 3.52328972786306E-02 
1578	 3.49041617515209E-02 
1579	 3.71563507271751E-02 
1580	 0.038500656744055 
1581	 3.90956367891396E-02 
1582	 4.13340374795075E-02 
1583	 4.04248001436724E-02 
1584	 3.82863292175187E-02 
1585	 3.67324657786271E-02 
1586	 3.59493815649674E-02 
1587	 3.83176023067258E-02 
1588	 3.73883111086186E-02 
1589	 3.62860257032629E-02 
1590	 3.93992104801326E-02 
1591	 4.11907083346196E-02 
1592	 4.06869813010685E-02 
1593	 3.99290448887647E-02 
1594	 3.98550197979362E-02 
1595	 3.88979635927732E-02 
1596	 3.73492807432122E-02 
1597	 3.86193033802593E-02 
1598	 3.90904474407725E-02 
1599	 3.67663743718161E-02 
1600	 3.76558728817327E-02 
1601	 4.07322904468494E-02 
1602	 4.06072812214485E-02 
1603	 0.038425711604119 
1604	 3.74980027385061E-02 
1605	 3.65794414427645E-02 
1606	 3.52600508357832E-02 
1607	 3.65973213857608E-02 
1608	 3.85400567042565E-02 
1609	 3.64395073382843E-02 
1610	 3.43814883772076E-02 
1611	 3.39591942151123E-02 
1612	 3.37873303679484E-02 
1613	 0.035665020451142 
1614	 3.65480914340895E-02 
1615	 3.66115083675187E-02 
1616	 3.64747773849856E-02 
1617	 3.66645330557938E-02 
1618	 3.77064802344029E-02 
1619	 3.62607171404915E-02 
1620	 0.034755377714673 
1621	 3.59754755061578E-02 
1622	 3.70347676383031E-02 
1623	 3.75266068609511E-02 
1624	 3.86916335911503E-02 
1625	 3.93334651004296E-02 
1626	 3.89768748318126E-02 
1627	 3.73269158300363E-02 
1628	 3.71788382218722E-02 
1629	 3.86565568827023E-02 
1630	 3.77267992103317E-02 
1631	 3.80382182674334E-02 
1632	 4.04882436696393E-02 
1633	 3.98377081079378E-02 
1634	 0.037047780066582 
1635	 3.74505581890954E-02 
1636	 0.039489844479048 
1637	 0.038414088903665 
1638	 0.036957780448249 
1639	 0.03697083597583 
1640	 3.76043422992064E-02 
1641	 3.73197043461685E-02 
1642	 3.61844070041526E-02 
1643	 3.69484684154315E-02 
1644	 3.73108513108941E-02 
1645	 3.68867144547755E-02 
1646	 3.86520754874301E-02 
1647	 3.99034357947697E-02 
1648	 3.72980785884891E-02 
1649	 3.53968357995626E-02 
1650	 3.71096813207746E-02 
1651	 3.83203388876789E-02 
1652	 3.81480802743063E-02 
1653	 3.71244014089503E-02 
1654	 3.75504172459999E-02 
1655	 3.99492438881955E-02 
1656	 4.07135311768551E-02 
1657	 4.00268993061833E-02 
1658	 4.11067687121912E-02 
1659	 4.22304497702041E-02 
1660	 0.042713322713609 
1661	 0.046508886029576 
1662	 4.56030161747724E-02 
1663	 3.91430483562216E-02 
1664	 3.80284897509692E-02 
1665	 3.80890388901927E-02 
1666	 3.76333199871878E-02 
1667	 3.94334332705874E-02 
1668	 3.75098492719888E-02 
1669	 3.62699662450532E-02 
1670	 3.45728126489443E-02 
1671	 3.79216176881927E-02 
1672	 4.27172434814226E-02 
1673	 4.16420874690634E-02 
1674	 4.01732006953257E-02 
1675	 3.90034471738818E-02 
1676	 3.52703618668807E-02 
1677	 3.51851013508142E-02 
1678	 3.75335798507343E-02 
1679	 3.61049120959609E-02 
1680	 3.50741999631024E-02 
1681	 3.59158696018088E-02 
1682	 3.67446733748348E-02 
1683	 3.83590574970009E-02 
1684	 3.97671695696666E-02 
1685	 3.90219496372397E-02 
1686	 3.90824460159262E-02 
1687	 4.09771417018542E-02 
1688	 3.93674241930758E-02 
1689	 0.038336030771094 
1690	 4.03771634884904E-02 
1691	 3.85096557502777E-02 
1692	 3.60522963411209E-02 
1693	 3.78249088940928E-02 
1694	 0.037993079499228 
1695	 3.83768169812802E-02 
1696	 4.16421147396908E-02 
1697	 4.05249968642849E-02 
1698	 3.64346114860646E-02 
1699	 3.59959856128875E-02 
1700	 3.90096541902236E-02 
1701	 4.04228714847455E-02 
1702	 3.90416075562923E-02 
1703	 3.78621578257107E-02 
1704	 3.62007115708248E-02 
1705	 3.56857819220128E-02 
1706	 3.90674966443558E-02 
1707	 4.02232953489471E-02 
1708	 3.68288187594495E-02 
1709	 3.62039312216826E-02 
1710	 3.59974025572238E-02 
1711	 3.41391854404511E-02 
1712	 3.62194015990421E-02 
1713	 3.30491751062153E-02 
1714	 3.52447903989068E-02 
1715	 4.21222679507147E-02 
1716	 4.25052422159308E-02 
1717	 4.48109487252136E-02 
1718	 4.37464395668488E-02 
1719	 3.89040378612561E-02 
1720	 3.76536554653968E-02 
1721	 3.96604774618368E-02 
1722	 3.70535830989118E-02 
1723	 3.58660496337548E-02 
1724	 3.94769398735205E-02 
1725	 3.56868042029093E-02 
1726	 3.49703292625076E-02 
1727	 4.11067966988183E-02 
1728	 4.00878281541654E-02 
1729	 4.30826275327283E-02 
1730	 0.046374442070948 
1731	 3.90113884007365E-02 
1732	 3.49692847428401E-02 
1733	 3.52973778204822E-02 
1734	 3.68974654362099E-02 
1735	 4.21214593468116E-02 
1736	 4.32210338014324E-02 
1737	 0.040749617621188 
1738	 4.07478451318976E-02 
1739	 4.10603303815174E-02 
1740	 4.46166747950832E-02 
1741	 4.79425982717962E-02 
1742	 4.22286886122783E-02 
1743	 3.85927986237188E-02 
1744	 3.78137260529956E-02 
1745	 0.034254231212883 
1746	 4.61053750901119E-02 
1747	 4.74913490231773E-02 
1748	 4.08583563780025E-02 
1749	 3.93323368778662E-02 
1750	 3.37522083903691E-02 
1751	 3.34609524948498E-02 
1752	 4.20285660967204E-02 
1753	 4.47951269349569E-02 
1754	 4.48570632258149E-02 
1755	 4.63228815564126E-02 
1756	 4.74165028626619E-02 
1757	 3.96438688391181E-02 
1758	 3.53985160793312E-02 
1759	 3.48264364698448E-02 
1760	 3.25044052328355E-02 
1761	 3.96821126019218E-02 
1762	 5.57773292547207E-02 
1763	 4.80147785906259E-02 
1764	 0.036216831551462 
1765	 3.79596521373041E-02 
1766	 2.22237424242721E-02 
1767	 1.76399290371809E-02 
1768	 3.14496660116585E-02 
1769	 3.14540184125054E-02 
1770	 4.26804569852865E-02 
1771	 0.05116363599057 
1772	 4.12321240795454E-02 
1773	 3.33163153495259E-02 
1774	 2.13127331945786E-02 
1775	 4.00944083945523E-02 
1776	 4.89927144442511E-02 
1777	 6.33987409499296E-02 
1778	 6.39505942138035E-02 
1779	 3.26740795923371E-02 
1780	 2.26321922468974E-02 
1781	 0.022536886829579 
1782	 0.026467263293749 
1783	 5.72847556010713E-02 
1784	 5.78356390403679E-02 
1785	 3.15518704397426E-02 
1786	 0.024399719147655 
1787	-4.0674955925188E-03 
1788	 5.22847802056787E-03 
1789	 7.78096104062485E-02 
1790	 8.70420269101254E-02 
1791	 9.05860113760603E-02 
1792	 7.36418616881238E-02 
1793	-2.11988776589127E-02 
1794	-3.97265789801745E-02 
1795	-1.59938620184026E-02 
1796	-1.89907248769472E-02 
1797	 5.85170576514146E-02 
1798	 2.54645835045082E-02 
1799	-1.72407680999466E-02 
1800	-2.12616296949518E-02 
1801	-0.043430718656777 
1802	 4.13959587618891E-02 
1803	 6.92078869109046E-02 
1804	-2.24781630906849E-03 
1805	 3.41426459353046E-02 
1806	 0.140512560530264 
1807	 0.219570403839756 
1808	 0.336124674274455 
1809	 0.387091005598912 
1810	 0.454491024843015 
1811	 0.558685164673303 
1812	 0.473866074368996 
1813	 0.511454416145084 
1814	 0.513146154351579 
1815	 0.632816400795927 
1816	 0.890974456001706 
1817	 1.08436048535333 
1818	 0.478341952547307 
1819	 8.72368062797912E-02 
1820	-0.421393509059262 
1821	-1.22783898350549 
1822	-2.33451000853275 
1823	-1.24908971683135 
1824	-2.07182273344516 
1825	-1.94789614533834 
1826	-1.80011051329902 
1827	-2.90633713395483 
1828	-3.30936226369265 
1829	-1.72019908145932 
1830	-0.946527311821796 
1831	 5.83970704670493 
1832	 11.6375461699367 
1833	 2.29807971180981 
1834	 1.64315706442243 
1835	 12.0926182990168 
1836	 7.99376707485445 
1837	 1.46873954493805 
1838	 1.57268247742622 
1839	 2.97373149751317 
1840	 24.8142343464672 
1841	-2.07721982969754 
1842	-2.53834237463131 
1843	-2.76257479179314 
1844	-3.04533371292202 
1845	-4.81688550893596 
1846	 5.46752955332581 
1847	 4.13722474387109 
1848	-5.15020605312863 
1849	-4.69322540345619 
1850	-5.99473475434977 
1851	-5.70857676496962 
1852	-3.03471389840883 
1853	-2.32969387780842 
1854	-1.81505062203761 
1855	-1.1613733255503 
1856	-0.914550125862665 
1857	-0.468964445464455 
1858	-0.340034854858326 
1859	-0.44490916149321 
1860	-0.361670668572822 
1861	-0.359786458001153 
1862	-0.181193999465192 
1863	 0.589913885656636 
1864	 2.05433823305142 
1865	 3.47154382338239 
1866	 11.7365224834122 
1867	 7.68882448175882 
1868	 15.9044723038211 
1869	 66.0185744336395 
1870	-64.7770590916468 
1871	-3.80852501157131 
1872	-2.2047598138424 
1873	-1.59270299782764 
1874	-0.936653079576593 
1875	-0.305101304903463 
1876	-0.16383765348222 
1877	-0.317419608597081 
1878	 0.208787089621372 
1879	 0.309563382726355 
1880	 0.275895952746245 
1881	 0.599498834490202 
1882	 0.184231568164891 
1883	-0.330347818130811 
1884	-1.69549733535034 
1885	-3.83903081380233 
1886	 0.707199227859944 
1887	 4.76693206457877E-02 
1888	-3.00381179592073 
1889	-1.48382987179533 
1890	-1.42727815945092 
1891	-1.57721451874075 
1892	-1.40696382475518 
1893	-2.34129535185587 
1894	-5.26571465935024 
1895	-5.84881886801174 
1896	-3.62512763181167 
1897	-1.28002457086226 
1898	-0.681725256522962 
1899	-0.574261371479221 
1900	 1.19093137152995 
1901	-2.68948152376977 
1902	-2.89058136658605 
1903	-3.12749845290291 
1904	-4.31335820991164 
1905	-0.208948216639481 
1906	-0.619646027041017 
1907	-0.525816574272595 
1908	-0.585839011265953 
1909	-0.541842817598992 
1910	-1.25703859599458 
1911	 10.7247848356128 
1912	-10.3593594585671 
1913	-44.2642254382036 
1914	 0.157611278624094 
1915	-0.207214386088084 
1916	-1.02387071763778 
1917	-1.33548147408498 
1918	 0.369721508870072 
1919	-0.255281528252469 
1920	 7.61742729680347E-02 
1921	 0.423262676188895 
1922	 0.776944235009823 
1923	 0.459007997020672 
1924	 0.525312569738632 
1925	 0.554547929522069 
1926	 0.35544551938712 
1927	-0.286165110010357 
1928	-0.994234961283565 
1929	-13.4294485652417 
1930	 4.26648720143434 
1931	 2.51639655285685 
1932	 2.12626261894347 
1933	 2.0463234764505 
1934	 1.47643873005784 
1935	 3.79238312402213 
1936	 12.9504782227343 
1937	 3.23093626952587 
1938	 1.76969291462735 
1939	 1.49865225170422 
1940	 0.990561492452562 
1941	 0.751461842957912 
1942	 0.500624131099783 
1943	 0.598129056635575 
1944	 1.07649838886252 
1945	 0.935879386333363 
1946	 1.27941942805504 
1947	-61.0673351015905 
1948	-0.382826007543068 
1949	-0.144930440607118 
1950	 0.378201639832949 
1951	 0.360334348376526 
1952	 0.634351817726342 
1953	 4.623212551695 
1954	-3.88081390204462 
1955	-3.43213727651018 
1956	-1.34234283643954 
1957	-0.806530882264117 
1958	-0.355615316006468 
1959	 0.352253197238758 
1960	 0.33259339840481 
1961	 0.199036287211434 
1962	 0.167620953124422 
1963	 0.116494063011355 
1964	-0.913099593413247 
1965	-1.24217057961385 
1966	-1.4358852792152 
1967	-2.09577080124193 
1968	-2.39523698267937 
1969	-0.287950268293858 
1970	 0.245497890539426 
1971	 0.42708289066829 
1972	 0.518697507520932 
1973	 0.422597187665986 
1974	 0.236838110050763 
1975	 6.40534410579796E-02 
1976	-4.08676130054493E-03 
1977	-0.078466590188325 
1978	-0.189457404835574 
1979	-0.223288162817925 
1980	-0.285907480503321 
1981	-0.367684212280493 
1982	-0.179033084242878 
1983	 3.03181305247695E-03 
1984	 9.47708203214937E-03 
1985	-9.67728981806584E-03 
1986	-8.14376382875437E-02 
1987	-0.201157042758358 
1988	-0.137260896948308 
1989	-9.72077353329242E-02 
1990	-6.64528428720442E-02 
1991	 5.45428818724078E-02 
1992	 0.097729155967423 
1993	 0.151015010306047 
1994	 0.167043509787169 
1995	 0.20111913330904 
1996	 0.184790105538121 
1997	 0.123223807424832 
1998	-1.05953699685914E-02 
1999	-6.38151304749758E-02 
2000	-0.321035545905836 
2001	-0.534439303617646 
2002	-0.553007136341192 
2003	-0.833690179975335 
2004	-0.536498134115651 
2005	-0.209158820296947 
2006	-0.146995882110722 
2007	-0.166692335982942 
2008	-0.203013246575577 
2009	-5.79845814254491E-02 
2010	 0.528504054946558 
2011	 0.659745254244924 
2012	 1.23280781348942 
2013	 0.349797900282252 
2014	-4.05869008603743E-02 
2015	-0.11908662992286 
2016	-0.15679569313685 
2017	-0.118737230395165 
2018	 2.25000437290003E-02 
2019	 3.31747259899182E-02 
2020	 2.02537224360903E-02 
2021	 0.10542925338639 
2022	 0.110486396333837 
2023	 5.58636676498888E-02 
2024	 6.53246327247007E-02 
2025	 0.12496145879586 
2026	 0.124415680019708 
2027	 0.110538291595124 
2028	 0.112016649066278 
2029	 8.78556292453083E-02 
2030	 5.63899791290753E-02 
2031	 3.92088648373425E-02 
2032	 4.26524959489384E-02 
2033	 3.50026428668814E-02 
2034	 0.026715465882663 
2035	 5.44092816967739E-02 
2036	 5.95962924244438E-02 
2037	 5.84691150861964E-02 
2038	 5.20571894346973E-02 
2039	 5.07515746685741E-02 
2040	 3.83233667825744E-02 
2041	 2.59586148081201E-02 
2042	 2.47141527546437E-02 
2043	 1.96091544230081E-02 
2044	-1.24456185293915E-03 
2045	-3.06906365242616E-02 
2046	-2.05082997009641E-02 
2047	-5.86993506503616E-03 
2048	 2.62195290698685E-02 
2049	 7.65767455873701E-02 
2050	 9.66208832214344E-02 
2051	 0.109946021559557 
2052	 0.109915835244075 
2053	 7.36705729749317E-02 
2054	 4.11410518296286E-02 
2055	 3.62672638951804E-02 
2056	 2.40667828528302E-02 
2057	 9.73142525990277E-03 
2058	-8.49890701979759E-03 
2059	-4.56731618757562E-02 
2060	-5.23621680629287E-02 
2061	-0.049152516836095 
2062	-2.05289881824133E-02 
2063	-6.98049123118602E-03 
2064	 1.39072106687156E-02 
2065	 1.68498054209659E-02 
2066	-1.50277385771627E-02 
2067	-2.65700678489415E-02 
2068	-9.54585847490871E-03 
2069	-0.019443636384234 
2070	-5.08371455615203E-02 
2071	-5.68601927308266E-02 
2072	-0.053119229182823 
2073	-3.85789930848149E-02 
2074	 2.87115597469735E-02 
2075	 2.85513680371646E-02 
2076	-1.55191220119714E-02 
2077	-1.67104139287612E-02 
2078	-2.74910279370229E-02 
2079	-3.68124303259532E-02 
2080	-2.75755820816437E-02 
2081	-9.01731207985861E-03 
2082	-1.80194046979709E-02 
2083	-5.66958263572256E-03 
2084	 1.57384515532031E-02 
2085	 1.45177168805001E-02 
2086	 1.56559253872308E-02 
2087	 1.74441321070377E-02 
2088	 1.96608024429647E-02 
2089	 1.97151679998957E-02 
2090	 7.44595730939181E-03 
2091	-1.17849476678385E-02 
2092	-1.98595367390798E-02 
2093	-2.41351391284675E-02 
2094	-1.63459930839909E-02 
2095	 4.77907638914496E-03 
2096	 1.19147037822597E-02 
2097	 1.69155957403971E-02 
2098	 2.36277430303676E-02 
2099	 2.43031323306233E-02 
2100	 3.34163026065842E-02 
2101	 3.09630423856931E-02 
2102	 3.69122227915674E-02 
2103	 3.48698132124224E-02 
2104	 1.75919201478858E-02 
2105	 2.22129101237059E-02 
2106	 1.80233339829113E-02 
2107	 4.16978824415856E-03 
2108	 1.2231467481081E-03 
2109	-1.80909315683263E-03 
2110	-6.69590361684238E-03 
2111	-9.88940892210985E-03 
2112	 7.78889301806448E-03 
2113	 2.03665063826554E-02 
2114	 3.58720989736078E-02 
2115	 4.70483248538908E-02 
2116	 6.54812984151283E-02 
2117	 0.063532662724472 
2118	 4.56189874658126E-02 
2119	 4.18423274393011E-02 
2120	 3.38996940117791E-02 
2121	 2.89004405302308E-02 
2122	 3.67783397474573E-02 
2123	 2.99472428824331E-02 
2124	 1.17855771489033E-02 
2125	-8.68436624742701E-03 
2126	-2.64558471206774E-02 
2127	-3.01575729428909E-02 
2128	-3.41248624260286E-02 
2129	-2.94704178113129E-02 
2130	-2.89597037668442E-02 
2131	-0.032277683175112 
2132	-1.47280486446922E-02 
2133	-3.91422802768712E-03 
2134	 4.24155924571447E-03 
2135	 1.66987181826558E-02 
2136	 2.46466504888956E-02 
2137	 2.31476699107762E-02 
2138	 3.03075357906588E-02 
2139	 4.65532700509266E-02 
2140	 5.30323224843834E-02 
2141	 6.27195867117446E-02 
2142	 6.06592386214832E-02 
2143	 4.60788849422667E-02 
2144	 3.25911164881182E-02 
2145	 2.70094673168751E-02 
2146	 1.48571340835145E-02 
2147	 1.52377438110984E-02 
2148	 7.7035808250058E-03 
2149	 1.53641033530233E-04 
2150	 4.57868545233008E-03 
2151	 9.13659767849309E-03 
2152	 1.96480587573301E-02 
2153	 1.71952000163672E-02 
2154	 1.84899065672782E-02 
2155	 1.55603636708373E-02 
2156	 1.56757186299771E-02 
2157	 1.31113595028296E-02 
2158	 5.11014309224986E-03 
2159	 4.58172366652164E-03 
2160	 4.92900069834139E-03 
2161	 1.02442417453306E-02 
2162	 3.12785604981713E-02 
2163	 3.99262343000487E-02 
2164	 0.045386629744629 
2165	 4.22602120792982E-02 
2166	 2.31885368385917E-02 
2167	 2.06780816817103E-02 
2168	 2.25931883507888E-02 
2169	 2.17608906090241E-02 
2170	 0.031571654429068 
2171	 3.35925373080904E-02 
2172	 2.19584603159246E-02 
2173	 1.68584463356981E-02 
2174	 9.54247655635566E-03 
2175	 1.29811106357885E-02 
2176	 2.17669301351524E-02 
2177	 1.82289661329321E-02 
2178	 6.53821363090201E-03 
2179	-0.013739632721473 
2180	-3.75074783155978E-02 
2181	-4.66474894393034E-02 
2182	-3.76298268575476E-02 
2183	-3.90761015467683E-02 
2184	-2.88809706511685E-02 
2185	-1.72018947539942E-02 
2186	-1.55020878187582E-02 
2187	-2.55037538342736E-02 
2188	-1.48224319930178E-02 
2189	 9.33838693563645E-03 
2190	 1.27445263862293E-02 
2191	 0.020068780074205 
2192	 2.88272794372748E-02 
2193	 1.14332863528671E-02 
2194	 8.74524617189134E-03 
2195	 3.20546140506352E-02 
2196	 2.82398900873004E-02 
2197	 7.72200932451316E-03 
2198	-2.33285722890552E-03 
2199	-2.36162673171515E-02 
2200	-0.034113192757531 
2201	-3.12000001824679E-02 
2202	-2.40964553112069E-02 
2203	 2.55611682462342E-03 
2204	 1.10071821389567E-02 
2205	 1.37604998330623E-02 
2206	 1.23149750123363E-02 
2207	 5.54412505320046E-03 
2208	 2.85437555287349E-02 
2209	 5.14860362889326E-02 
2210	 3.84433176373148E-02 
2211	 1.58541097804375E-02 
2212	 1.42200820629313E-04 
2213	-1.00859689677534E-02 
2214	 8.47279613708742E-03 
2215	 1.00594626338086E-02 
2216	-1.02543999153729E-02 
2217	-1.30276116852659E-02 
2218	-2.56797063767389E-02 
2219	-0.02199974536546 
2220	 9.24792230297273E-03 
2221	 0.012548030453693 
2222	-3.74824366331144E-04 
2223	 6.53994284500414E-03 
2224	 1.69682453386167E-02 
2225	 2.33026541228153E-02 
2226	 0.048277410030876 
2227	 4.65636160009298E-02 
2228	 0.014785992537104 
2229	 2.1935570220368E-03 
2230	-1.57941481173743E-02 
2231	-2.40315249522483E-02 
2232	-1.53407042620378E-02 
2233	-1.26855013350764E-02 
2234	-7.20086551166997E-03 
2235	-7.62508417489555E-03 
2236	-5.25314790952409E-03 
2237	-8.09011850767136E-03 
2238	-8.33227375580849E-03 
2239	 2.79155376963166E-03 
2240	 4.46379412600736E-03 
2241	 1.09631673480041E-02 
2242	 1.46643440919729E-02 
2243	 0.01457879601132 
2244	 1.24578936755097E-02 
2245	 2.51448915322276E-03 
2246	 1.31555326059607E-02 
2247	 5.83032604511448E-03 
2248	-6.4832003332035E-03 
2249	 0.026832457816233 
2250	 2.68526714920836E-02 
2251	 0.016647503069745 
2252	 0.020085444196351 
2253	-8.57863820271037E-03 
2254	-1.72999090929468E-03 
2255	 0.016630324333455 
2256	 0.043601362398251 
2257	 9.50735853632029E-02 
2258	 0.102847343069578 
2259	 0.114342225268676 
2260	 0.124845537911251 
2261	 0.118860251326003 
2262	 0.106314597739574 
2263	 9.59103190103025E-02 
2264	 8.76359176720402E-02 
2265	 6.86109346999871E-02 
2266	 5.56481330407241E-02 
2267	 4.92740587006561E-02 
2268	 4.02337351230542E-02 
2269	 2.88488922014922E-02 
2270	 1.51357582275096E-02 
2271	 9.02403993603324E-03 
2272	-8.38408458853998E-03 
2273	-6.52661817905081E-02 
2274	-0.069560613265499 
2275	-3.30368886123283E-02 
2276	-2.60646397144428E-02 
2277	 6.12946206621279E-03 
2278	 9.76380838084173E-03 
2279	-3.60742677168216E-02 
2280	-3.40421855524399E-02 
2281	-5.29241258865275E-03 
2282	 1.01547724007822E-02 
2283	 1.81895568529618E-02 
2284	 3.65197195031051E-02 
2285	 3.53360293647998E-02 
2286	 2.85348495224324E-02 
2287	 2.53407106563431E-02 
2288	 1.58389181874821E-02 
2289	 2.10067367049523E-02 
2290	 4.41402151354648E-02 
2291	 7.80434194397394E-02 
2292	 9.12832677086583E-02 
2293	 7.50676804604181E-02 
2294	 3.25479349801897E-02 
2295	 2.56815365832734E-03 
2296	-5.71778393838074E-02 
2297	-9.02949611051624E-02 
2298	-5.63571699228146E-02 
2299	-6.62115299247556E-02 
2300	-2.52189592200083E-02 
2301	 8.66257707966092E-03 
2302	-2.73253387563997E-02 
2303	-8.02785661733511E-02 
2304	-0.120441925592398 
2305	-0.110606278618191 
2306	-0.118441227493558 
2307	-0.139104284612733 
2308	-0.12262555244173 
2309	-0.103718939620215 
2310	-9.13579994324365E-02 
2311	 5.02388670165896E-03 
2312	 9.40270581453054E-02 
2313	 0.131499131170447 
2314	 0.163621833200324 
2315	 0.131742505443863 
2316	 0.136410686144823 
2317	 0.191022515651745 
2318	 0.204136386532187 
2319	 0.188646482623707 
2320	 0.150212793206136 
2321	 5.77972406176272E-02 
2322	 4.78517792645772E-02 
2323	 4.91767412337369E-02 
2324	-1.38491790039847E-02 
2325	 3.28098014579251E-02 
2326	 4.11857025811976E-03 
2327	 1.31924417874393E-02 
2328	 7.60031028043014E-02 
2329	 8.49689205597995E-03 
2330	-5.22352232958007E-02 
2331	-0.150417986367847 
2332	-0.146720815025491 
2333	-3.60406351584208E-02 
2334	-3.60684670012324E-02 
2335	-8.90177958622041E-02 
2336	-0.151094742757447 
2337	-0.213851497799226 
2338	-0.191824336955686 
2339	-0.208535079260687 
2340	-0.162007748241085 
2341	-0.112447315616919 
2342	-0.143402808826158 
2343	-7.24960663021977E-02 
2344	 1.08599513194278E-02 
2345	 4.63400716179545E-02 
2346	 0.207385533811398 
2347	 0.141934272161286 
2348	-7.25835337577322E-02 
2349	-0.047706384838793 
2350	-0.119285549882945 
2351	-3.68328928903618E-02 
2352	 0.258776440623609 
2353	 0.433019630465803 
2354	 0.483301043238725 
2355	 0.336936037212832 
2356	 0.157124802295231 
2357	-0.042925470149357 
2358	-0.365821975718968 
2359	-0.504772712706359 
2360	-0.579355750195608 
2361	-0.857314760821107 
2362	-0.686676340447477 
2363	-0.598547398885339 
2364	-0.601938217148909 
2365	-0.248909149326993 
2366	-0.205710910730018 
2367	-0.187635747745881 
2368	-8.67488910598174E-03 
2369	-2.65797351887243E-02 
2370	-0.112077055838653 
2371	-0.101021122864375 
2372	-0.216532056117979 
2373	-0.161257142965602 
2374	-0.164219614675629 
2375	-1.00071168484842 
2376	-0.846007722729117 
2377	-0.519718976673898 
2378	-0.349967846080052 
2379	 5.37272114447079E-02 
2380	 9.06378779917857E-02 
2381	 5.52579288988314E-02 
2382	 0.367890749251261 
2383	 1.16036368521547 
2384	 2.92895317403419 
2385	 9.616267106522 
2386	-3.69390631459396 
2387	-1.89072412980194 
2388	-1.50032896401132 
2389	-1.11629468767704 
2390	 0.141097768749662 
2391	-0.712181923726314 
2392	-0.712523791873696 
2393	-78.200368178618 
2394	 2.45068680419999 
2395	 353.923404506161 
2396	 5.21751346441479 
2397	-2.0067931466584 
2398	-27.2216847911079 
2399	 1.87391790370383 
2400	-0.577767296282605 
2401	-8.7775371201925 
2402	-2.61826795543395 
2403	-1.85245254362013 
2404	-2.38062702696132 
2405	 0.258569748052537 
2406	 3.3405816137094 
2407	-0.731663991358035 
2408	 0.107578448835036 
2409	 0.999073317984642 
2410	 1.2505813461117 
2411	 1.75714905126804 
2412	 1.6507084683897 
2413	 1.25086450621758 
2414	 0.761807037282621 
2415	 0.65159427861478 
2416	-5.5126858414749 
2417	-4.74594746246885 
2418	-1.83404585786873 
2419	-1.0830731020622 
2420	 0.142639482482434 
2421	 0.596631876395225 
2422	 0.873498737319671 
2423	-4.54332605112765E-02 
2424	 2.06057040814654 
2425	 1.63597199795272 
2426	-8.05076748141245 
2427	-2.3553068295288 
2428	-2.95692847927506 
2429	 0.322132934554947 
2430	-2.20847013928949 
2431	 1.86791888836125 
2432	 1.12508042089389 
2433	 1.03845487426314 
2434	 0.391594008297766 
2435	 0.20169474963184 
2436	-0.201399791996364 
2437	-0.586404966540642 
2438	-3.14545298249892 
2439	 0.516400849279372 
2440	 6.14580007303883E-02 
2441	 9.53531910494327E-02 
2442	-2.10281483278325 
2443	 1.30065766786243 
2444	 0.265113101574289 
2445	 0.727954432723537 
2446	 0.741992161182652 
2447	 5.02446365229705 
2448	-3.1087591953829 
2449	 0.503680244855845 
2450	 0.895558977943223 
2451	 1.19853495781639 
2452	 9.98433670413311 
2453	-2.4013365137844 
2454	-0.829943248581828 
2455	-0.223796145629329 
2456	 0.239805527729979 
2457	 0.555079369383642 
2458	 0.400708369142801 
2459	 0.380500051976579 
2460	 0.548995642250624 
2461	 0.323896191436569 
2462	 0.469949205631226 
2463	 2.25859294021885 
2464	 1.93309637719893 
2465	 0.731994487301713 
2466	 0.804884393184975 
2467	-0.087285296936393 
2468	-1.54606664519745 
2469	 20.1316745760866 
2470	-6.41295564290861E-02 
2471	-0.218411557591213 
2472	-7.22283486590227E-02 
2473	 0.157299650668805 
2474	 0.4025211669257 
2475	 1.41350395053036 
2476	-0.345964094758459 
2477	-1.4558870168489 
2478	-0.475246224201312 
2479	 2.63278483646395E-03 
2480	 0.488826888858545 
2481	-0.22052383772892 
2482	-1.51783012775286 
2483	-1.35945410661503 
2484	-1.29128294108073 
2485	-3.83696996622574 
2486	-0.905724968001448 
2487	-4.45477459440304 
2488	 1.9793481486618 
2489	 7.9770100992212 
2490	 14.7383051275943 
2491	 15.2884732446888 
2492	-4.1367997593405 
2493	-3.74340681261772 
2494	-4.9730493399183 
2495	 6.00908620443885 
2496	 1.51293715951401 
2497	 0.557036198533928 
2498	-0.448513595243764 
2499	-0.48993581389786 
2500	 0.192310168787387 
