Wavelength	rt0712EAST100005.asd
350	 5.49346781310188E-02 
351	 5.56456721442254E-02 
352	 5.54320992201044E-02 
353	 5.59665084196149E-02 
354	 5.76154191284539E-02 
355	 5.67987333669042E-02 
356	 5.64752542346574E-02 
357	 0.056699251680284 
358	 0.056625126276065 
359	 5.55931598064801E-02 
360	 0.055823635060522 
361	 0.056936536715656 
362	 0.056888685900701 
363	 5.67007871409842E-02 
364	 0.056471600082675 
365	 0.056247378607972 
366	 5.61447971948524E-02 
367	 5.61225183402326E-02 
368	 5.63714001893123E-02 
369	 5.69339334699607E-02 
370	 5.72227654587054E-02 
371	 5.70636613934659E-02 
372	 5.65469228374157E-02 
373	 5.60218924189096E-02 
374	 5.63433806222811E-02 
375	 5.68949158352765E-02 
376	 5.71068356383143E-02 
377	 5.67440171051903E-02 
378	 5.69030413458221E-02 
379	 5.66433220934183E-02 
380	 0.055695083887434 
381	 5.76033901212767E-02 
382	 5.79629121694799E-02 
383	 5.70899199550907E-02 
384	 0.057286197737178 
385	 5.65417466545446E-02 
386	 5.64029490223786E-02 
387	 5.72920165626639E-02 
388	 5.80784942514988E-02 
389	 5.86445785894082E-02 
390	 0.058643332314869 
391	 5.81233017258248E-02 
392	 5.79766291948768E-02 
393	 5.83930066036819E-02 
394	 0.05864674167135 
395	 5.80545104073081E-02 
396	 5.79969194344405E-02 
397	 5.82180701669221E-02 
398	 5.84822442637842E-02 
399	 5.86686242471013E-02 
400	 0.058406542992036 
401	 5.84053362262749E-02 
402	 5.88633789485249E-02 
403	 5.84700707604152E-02 
404	 5.82037775187496E-02 
405	 5.82217088633629E-02 
406	 5.83375677617505E-02 
407	 5.82437223797667E-02 
408	 5.85701379386604E-02 
409	 5.89926838139657E-02 
410	 5.83196799030991E-02 
411	 5.83721688572385E-02 
412	 5.86239081175444E-02 
413	 5.85428192114133E-02 
414	 5.86756839481084E-02 
415	 5.86910993213957E-02 
416	 5.87003134712902E-02 
417	 5.88917915040258E-02 
418	 5.87764514933439E-02 
419	 5.86625975706234E-02 
420	 5.86707868732224E-02 
421	 5.86589856695282E-02 
422	 5.86578761965913E-02 
423	 5.87871156860758E-02 
424	 5.90391242358198E-02 
425	 5.90076997150809E-02 
426	 5.89020968599662E-02 
427	 0.058926257803842 
428	 0.059194682241881 
429	 5.92211461980446E-02 
430	 5.92237262836687E-02 
431	 5.93195816916935E-02 
432	 0.059424470877805 
433	 5.93894856412473E-02 
434	 5.95156537435658E-02 
435	 5.99041979101425E-02 
436	 5.97601220454249E-02 
437	 0.059641832339642 
438	 5.97277617164925E-02 
439	 5.99463933017475E-02 
440	 6.00681276419941E-02 
441	 6.02229949388982E-02 
442	 6.04315160849969E-02 
443	 6.04832034385552E-02 
444	 6.07923270784194E-02 
445	 6.10322082794761E-02 
446	 6.09372191803189E-02 
447	 6.13158871281445E-02 
448	 6.15941702523193E-02 
449	 6.16232813260683E-02 
450	 6.16052805076208E-02 
451	 0.061673671395787 
452	 6.18484058939793E-02 
453	 6.20146184768302E-02 
454	 6.17990231444305E-02 
455	 6.18505409028505E-02 
456	 6.20968357576239E-02 
457	 6.22282585002777E-02 
458	 0.062257054962984 
459	 6.22916701011654E-02 
460	 6.22678523900546E-02 
461	 6.19771906403639E-02 
462	 6.22179637136114E-02 
463	 6.25918756855296E-02 
464	 6.26842691036895E-02 
465	 6.27268231655862E-02 
466	 6.28195150262748E-02 
467	 6.29682214376549E-02 
468	 6.31137211514789E-02 
469	 6.31892561598932E-02 
470	 6.32360442480359E-02 
471	 6.33286042152879E-02 
472	 6.35695397352034E-02 
473	 6.35608937245408E-02 
474	 6.36602009267953E-02 
475	 6.41550246591456E-02 
476	 6.43380318608258E-02 
477	 6.46479888952817E-02 
478	 6.49570023797552E-02 
479	 6.48398946165128E-02 
480	 6.51952160215073E-02 
481	 6.55732373565419E-02 
482	 6.56509695301607E-02 
483	 6.57226467670428E-02 
484	 6.57803913985868E-02 
485	 6.60613283154169E-02 
486	 6.66841311130484E-02 
487	 6.67755432598853E-02 
488	 6.68340466433872E-02 
489	 0.067107746434758 
490	 6.75125312038685E-02 
491	 6.78251219733423E-02 
492	 6.80785273891181E-02 
493	 6.83534250992972E-02 
494	 6.86978715650539E-02 
495	 6.91246336407557E-02 
496	 6.95282264648564E-02 
497	 6.97762771808477E-02 
498	 7.00718290469409E-02 
499	 7.03695065594103E-02 
500	 7.06542752147627E-02 
501	 7.09993415592188E-02 
502	 7.13175755067641E-02 
503	 7.16952953629394E-02 
504	 7.21936491705809E-02 
505	 7.25598434618277E-02 
506	 0.072994565308828 
507	 7.35128846415355E-02 
508	 7.39701626556426E-02 
509	 7.42244148112417E-02 
510	 7.45278187240844E-02 
511	 7.50270049166422E-02 
512	 7.55078516412022E-02 
513	 7.58497247656558E-02 
514	 7.61975029276057E-02 
515	 7.67515623525917E-02 
516	 7.71094609865736E-02 
517	 7.76577974159893E-02 
518	 7.83420811858972E-02 
519	 7.85047210175838E-02 
520	 7.90143799347987E-02 
521	 7.96204722167766E-02 
522	 8.00037890918699E-02 
523	 8.05364415394864E-02 
524	 8.11216859887793E-02 
525	 8.16562093866988E-02 
526	 8.20583602902227E-02 
527	 8.24953540907519E-02 
528	 8.30234055200707E-02 
529	 8.36153323937455E-02 
530	 8.41270028627349E-02 
531	 8.46348273964887E-02 
532	 8.51494060925283E-02 
533	 8.56671123565541E-02 
534	 8.62411464995048E-02 
535	 8.68117942020383E-02 
536	 8.73544196816488E-02 
537	 8.78891334590994E-02 
538	 8.84136641693336E-02 
539	 8.90034749839793E-02 
540	 0.089675792862544 
541	 9.02050661130744E-02 
542	 9.07466063076883E-02 
543	 9.13285905378619E-02 
544	 9.19063647789416E-02 
545	 9.25589910483957E-02 
546	 9.31870493155492E-02 
547	 9.37329267558467E-02 
548	 0.094255670058415 
549	 9.47892217894135E-02 
550	 0.095331603756875 
551	 9.58756079474474E-02 
552	 9.64927513721822E-02 
553	 9.70104502846166E-02 
554	 9.74467054745765E-02 
555	 9.80393570770753E-02 
556	 9.85674720172699E-02 
557	 9.91044696448944E-02 
558	 9.96813384694291E-02 
559	 9.99512063737739E-02 
560	 0.100415332836007 
561	 0.100967375410588 
562	 0.101177364828591 
563	 0.101549410772729 
564	 0.101887770248975 
565	 0.102045325593196 
566	 0.10213815808803 
567	 0.10224500024031 
568	 0.102349846417659 
569	 0.102421671255089 
570	 0.102627233525709 
571	 0.102668628151347 
572	 0.102577661980024 
573	 0.10275421661538 
574	 0.102829380697515 
575	 0.102739518995554 
576	 0.102549361061118 
577	 0.102489552964464 
578	 0.102408459498138 
579	 0.102241923859727 
580	 0.101988832314713 
581	 0.101685991572622 
582	 0.101406623427808 
583	 0.101117602681344 
584	 0.100574626402552 
585	 0.10008288648306 
586	 9.94959024321016E-02 
587	 0.098580098027084 
588	 9.77660926749367E-02 
589	 9.72928400317442E-02 
590	 9.69889976367345E-02 
591	 9.62630508853612E-02 
592	 9.58243223998298E-02 
593	 0.095389425251717 
594	 9.46774410847543E-02 
595	 9.39618443397416E-02 
596	 9.32727118511928E-02 
597	 9.25140492089392E-02 
598	 9.15493560093819E-02 
599	 9.05021221818953E-02 
600	 8.95615386616999E-02 
601	 8.88999919907665E-02 
602	 8.86945536228577E-02 
603	 8.81988229798856E-02 
604	 8.77147372464187E-02 
605	 0.087702397563329 
606	 0.087520098426132 
607	 0.087395589165615 
608	 8.73004789284308E-02 
609	 8.69243836211218E-02 
610	 8.66653316809476E-02 
611	 8.64317386812196E-02 
612	 8.61218740164044E-02 
613	 0.085926750476184 
614	 8.57448111135542E-02 
615	 0.085538304441344 
616	 8.53138754178518E-02 
617	 8.51318458061758E-02 
618	 8.48367947939337E-02 
619	 8.45038180855673E-02 
620	 8.46405190366889E-02 
621	 8.45839287295825E-02 
622	 8.43602811903722E-02 
623	 8.41820205912837E-02 
624	 8.39799913820062E-02 
625	 8.36712728469999E-02 
626	 8.33450043516428E-02 
627	 8.32499527287178E-02 
628	 8.31243101690723E-02 
629	 8.29487067249239E-02 
630	 8.27667328062249E-02 
631	 8.26842021243953E-02 
632	 8.23999550250852E-02 
633	 8.21960573837084E-02 
634	 8.24680088648767E-02 
635	 8.22248508850176E-02 
636	 8.18636304677935E-02 
637	 8.17323324147184E-02 
638	 8.19291115152454E-02 
639	 0.081614476786942 
640	 8.12336269442102E-02 
641	 8.13450754717615E-02 
642	 8.12576469814391E-02 
643	 0.08133530189815 
644	 8.13351443898028E-02 
645	 8.05346538624916E-02 
646	 0.079797280477018 
647	 7.96468652435919E-02 
648	 7.99840074040169E-02 
649	 7.94849855357573E-02 
650	 7.91692282862953E-02 
651	 7.90561246443946E-02 
652	 7.87804127864882E-02 
653	 7.78941572598081E-02 
654	 7.70842185665699E-02 
655	 0.076575387134107 
656	 7.58933328327871E-02 
657	 7.50330640356485E-02 
658	 7.41531493110284E-02 
659	 7.33677266565275E-02 
660	 0.072657927901082 
661	 7.20711254211703E-02 
662	 7.14819440218672E-02 
663	 7.07265279146819E-02 
664	 7.02524777314424E-02 
665	 7.00209175186689E-02 
666	 6.98146546598895E-02 
667	 6.91994272165369E-02 
668	 6.89823179476602E-02 
669	 6.90837040874328E-02 
670	 6.91649090289515E-02 
671	 6.92288168088092E-02 
672	 6.93275886981568E-02 
673	 6.95125263391528E-02 
674	 6.98244244572802E-02 
675	 0.070235999901248 
676	 7.05430677112772E-02 
677	 7.07061873637828E-02 
678	 7.11747616584427E-02 
679	 7.16657212008277E-02 
680	 7.20334320534989E-02 
681	 7.22691329957039E-02 
682	 7.28521986488364E-02 
683	 0.073541852480344 
684	 7.41310046941963E-02 
685	 7.45923823668521E-02 
686	 7.53895315815571E-02 
687	 7.58916017099664E-02 
688	 7.56330147349362E-02 
689	 7.60134361678358E-02 
690	 7.60225918745051E-02 
691	 7.57427244385079E-02 
692	 7.58589069758522E-02 
693	 7.55449837819297E-02 
694	 7.53456877712456E-02 
695	 7.53987899230544E-02 
696	 7.49201040215846E-02 
697	 7.43595979395917E-02 
698	 7.38418932042462E-02 
699	 7.34364693262412E-02 
700	 7.28979512148661E-02 
701	 7.22819238378665E-02 
702	 0.071659515529927 
703	 7.10408519956676E-02 
704	 7.04112678749834E-02 
705	 6.95858662910049E-02 
706	 6.86241943343932E-02 
707	 6.81214854843677E-02 
708	 6.69503013711665E-02 
709	 6.56268153325407E-02 
710	 6.49703363885995E-02 
711	 6.37456621719872E-02 
712	 6.25469125972323E-02 
713	 6.15359977536903E-02 
714	 6.02926108394905E-02 
715	 5.91448657242029E-02 
716	 5.80071071698689E-02 
717	 5.69311888698645E-02 
718	 5.61307107394975E-02 
719	 0.05450267445346 
720	 5.31438717261038E-02 
721	 0.05272709170531 
722	 5.17989409337702E-02 
723	 0.050949403215253 
724	 5.04377950458201E-02 
725	 4.92745308561167E-02 
726	 4.85949054938525E-02 
727	 4.81163964846747E-02 
728	 4.73914222424836E-02 
729	 4.63328421342732E-02 
730	 4.57721711228526E-02 
731	 4.53901498846819E-02 
732	 0.044574198954529 
733	 4.42495618567069E-02 
734	 4.38089368468713E-02 
735	 0.043302157583027 
736	 4.36840044213458E-02 
737	 0.043323601978548 
738	 4.27996658281716E-02 
739	 4.28014553060037E-02 
740	 4.28539339010578E-02 
741	 4.29758281471241E-02 
742	 4.30279078575425E-02 
743	 0.042861524099349 
744	 4.27829607633544E-02 
745	 4.28694638784097E-02 
746	 0.043023243095508 
747	 4.29555031674927E-02 
748	 4.28541852366176E-02 
749	 4.27022684075821E-02 
750	 4.25018345712118E-02 
751	 4.24575839279914E-02 
752	 4.25384821210204E-02 
753	 4.25849643948224E-02 
754	 4.24284115730064E-02 
755	 4.24724820317372E-02 
756	 4.22187413078575E-02 
757	 4.17040884522362E-02 
758	 4.19812209011224E-02 
759	 4.17904634525706E-02 
760	 4.11545399848207E-02 
761	 4.14106229993072E-02 
762	 4.16582553409605E-02 
763	 0.041850639498596 
764	 4.18477566745597E-02 
765	 4.17015296166014E-02 
766	 4.19927587173452E-02 
767	 4.21693315545027E-02 
768	 0.04216120214673 
769	 4.22794712258809E-02 
770	 4.23547915866595E-02 
771	 4.22308129244456E-02 
772	 4.19637064347939E-02 
773	 4.21859965626759E-02 
774	 4.22843509618084E-02 
775	 4.21842082113699E-02 
776	 4.20713950673565E-02 
777	 4.21070669310237E-02 
778	 4.23083571557102E-02 
779	 4.24008739421163E-02 
780	 4.19236119265197E-02 
781	 4.22644454165385E-02 
782	 4.25420386969241E-02 
783	 4.21947846440949E-02 
784	 4.23816548256865E-02 
785	 4.25014908012537E-02 
786	 4.25540613535028E-02 
787	 4.26527729182387E-02 
788	 0.042314611211289 
789	 4.23373060345749E-02 
790	 4.26785883082465E-02 
791	 4.26215918800092E-02 
792	 4.27301685525605E-02 
793	 0.042903307942588 
794	 4.29822995195883E-02 
795	 4.28205404474042E-02 
796	 4.29698882081061E-02 
797	 4.31653204553678E-02 
798	 4.30863313082497E-02 
799	 4.30467092428391E-02 
800	 0.043183476183389 
801	 4.33848555600526E-02 
802	 4.33993564475703E-02 
803	 4.31830713442444E-02 
804	 4.33178837331735E-02 
805	 4.36618185070259E-02 
806	 4.33485450786784E-02 
807	 4.34399246295579E-02 
808	 0.043503277152118 
809	 4.31688449199074E-02 
810	 0.043149184980611 
811	 4.27426846889644E-02 
812	 4.22232615160733E-02 
813	 0.04227677174518 
814	 0.042590278289273 
815	 4.24379319275207E-02 
816	 4.20756052880319E-02 
817	 4.24069678030922E-02 
818	 4.19452800879175E-02 
819	 4.18013955258776E-02 
820	 4.20447307871741E-02 
821	 4.13560445178186E-02 
822	 4.11377280286794E-02 
823	 4.13772981639494E-02 
824	 4.15480308524985E-02 
825	 0.041115823170541 
826	 4.06300251975459E-02 
827	 4.01696289064517E-02 
828	 3.97729746208668E-02 
829	 3.99637121915143E-02 
830	 3.96337106607223E-02 
831	 3.90220016396526E-02 
832	 3.92260986919075E-02 
833	 3.93222015404909E-02 
834	 3.96827223571017E-02 
835	 4.00612532803933E-02 
836	 3.93495905936935E-02 
837	 3.93264868303074E-02 
838	 3.94542786895122E-02 
839	 3.92163636986108E-02 
840	 3.94569477951537E-02 
841	 3.92159165641017E-02 
842	 3.88982036451716E-02 
843	 3.91825680776674E-02 
844	 3.97018308793297E-02 
845	 3.94858940589554E-02 
846	 3.89167130459569E-02 
847	 3.91557212202179E-02 
848	 3.94877252743467E-02 
849	 3.93536554142629E-02 
850	 3.88871150529781E-02 
851	 3.90345393527257E-02 
852	 3.94586869781087E-02 
853	 3.93576288429434E-02 
854	 3.87448603208182E-02 
855	 3.94899796259184E-02 
856	 3.95726432001628E-02 
857	 3.90439013675503E-02 
858	 3.86064244383771E-02 
859	 3.90995322804008E-02 
860	 0.039280846968668 
861	 3.91878297961237E-02 
862	 3.94321110305758E-02 
863	 3.97384320084593E-02 
864	 3.94567554034441E-02 
865	 3.88443785454038E-02 
866	 3.89002306262345E-02 
867	 3.89491174299365E-02 
868	 3.86936929557345E-02 
869	 3.82961008021657E-02 
870	 3.84043572729145E-02 
871	 3.85831784894827E-02 
872	 3.85401155175394E-02 
873	 3.82903375760089E-02 
874	 3.84731297541232E-02 
875	 3.83279796315156E-02 
876	 0.038034216008686 
877	 3.80113450537987E-02 
878	 3.84490958821625E-02 
879	 3.82392060019095E-02 
880	 0.037680063713537 
881	 3.76815038849294E-02 
882	 3.82142807376189E-02 
883	 3.82236644526274E-02 
884	 3.77745720654513E-02 
885	 3.77472762440488E-02 
886	 3.76435913399111E-02 
887	 3.78735501861664E-02 
888	 3.82681070399349E-02 
889	 3.79891158428402E-02 
890	 0.038018163178633 
891	 3.81614150298186E-02 
892	 3.80660676409236E-02 
893	 3.75040569918131E-02 
894	 3.74483317595267E-02 
895	 3.72040634267614E-02 
896	 3.60725722427457E-02 
897	 3.55144820336899E-02 
898	 3.73778135647756E-02 
899	 3.90493224593242E-02 
900	 3.78176429874688E-02 
901	 3.64370047972026E-02 
902	 3.72044534789226E-02 
903	 3.76298218363356E-02 
904	 0.035214098381747 
905	 3.64850741341067E-02 
906	 3.69244933002997E-02 
907	 3.59572666911496E-02 
908	 3.62148421078214E-02 
909	 3.66020151622858E-02 
910	 3.71917397096774E-02 
911	 3.69231587735185E-02 
912	 3.45120229272814E-02 
913	 3.72387061297693E-02 
914	 0.036967869115155 
915	 3.35654840327803E-02 
916	 0.036852718480659 
917	 3.77988541168283E-02 
918	 3.60449098758381E-02 
919	 3.43125327913587E-02 
920	 0.037049140532602 
921	 3.64768239092306E-02 
922	 3.59170369339668E-02 
923	 3.74726890276507E-02 
924	 3.58226235285644E-02 
925	 3.58234505824297E-02 
926	 3.63905598851988E-02 
927	 3.47935032869509E-02 
928	 3.03519713904396E-02 
929	 3.65916739460517E-02 
930	 4.04472950075122E-02 
931	 1.36236690926144E-02 
932	 1.70966688099406E-02 
933	 3.87455956544332E-02 
934	 0.037684487998393 
935	-1.24705878419308E-03 
936	 2.69467077351153E-02 
937	 3.82351507810016E-02 
938	 2.56932859266487E-02 
939	 1.26765458784761E-02 
940	 4.23831041408565E-02 
941	 4.40150823321726E-02 
942	 2.61633166157014E-02 
943	 0.032304485844709 
944	 4.79178524685971E-02 
945	 0.034954085981445 
946	 0.012144035254103 
947	 2.28608753964574E-02 
948	 2.98160755040565E-02 
949	 2.69347052251128E-02 
950	 2.50002503229997E-02 
951	 3.66453603084859E-02 
952	 3.25741406047446E-02 
953	 2.51494067287635E-02 
954	 2.78902695849053E-02 
955	 4.41226919760599E-02 
956	 2.82935811717014E-02 
957	 2.66651234853186E-02 
958	 3.87845346145463E-02 
959	 3.77060582554304E-02 
960	 4.92072578496474E-02 
961	 4.76449102444287E-02 
962	 3.68460838080933E-02 
963	 3.65100066269705E-02 
964	 3.64352978878532E-02 
965	 0.0368414054661 
966	 3.75526670427756E-02 
967	 0.037673499457112 
968	 3.57802044470546E-02 
969	 3.57050721094306E-02 
970	 3.66036387946378E-02 
971	 3.41258421810118E-02 
972	 0.029783402935694 
973	 3.09959162838649E-02 
974	 3.60623541040753E-02 
975	 3.53104193194821E-02 
976	 3.67004411731768E-02 
977	 3.33414760151474E-02 
978	 0.029977016967522 
979	 3.74371233597992E-02 
980	 3.57689377028962E-02 
981	 3.16155196960259E-02 
982	 3.12630780824398E-02 
983	 0.036677177307381 
984	 0.03958478029454 
985	 4.01805762687663E-02 
986	 3.83302007178833E-02 
987	 3.43060015608528E-02 
988	 3.68868388749885E-02 
989	 3.55563574032242E-02 
990	 3.18330343122093E-02 
991	 0.034904142498389 
992	 3.38569342203816E-02 
993	 3.75549813772432E-02 
994	 4.16625961687828E-02 
995	 3.57031251791182E-02 
996	 3.50921187725197E-02 
997	 3.23722047533461E-02 
998	 3.02580439369224E-02 
999	 3.49738625696326E-02 
1000	 3.12783413096091E-02 
1001	 3.86539991790878E-02 
1002	 3.92569868944857E-02 
1003	 3.90847288717961E-02 
1004	 3.78892241287383E-02 
1005	 0.03777989724191 
1006	 3.82881408727253E-02 
1007	 3.78998858521057E-02 
1008	 3.80027080080983E-02 
1009	 3.71788905159615E-02 
1010	 3.56986575188272E-02 
1011	 0.035228149442424 
1012	 3.51510424551235E-02 
1013	 0.03462281323649 
1014	 3.41908803437709E-02 
1015	 3.38911762327837E-02 
1016	 3.35404353063302E-02 
1017	 3.25731468748529E-02 
1018	 3.27590132030486E-02 
1019	 3.34021460399284E-02 
1020	 3.40038167574991E-02 
1021	 3.56682507134591E-02 
1022	 0.036853128835702 
1023	 3.55423732993537E-02 
1024	 3.58282561394299E-02 
1025	 3.65167474290842E-02 
1026	 3.63422843142287E-02 
1027	 3.61105819695751E-02 
1028	 3.68457866592477E-02 
1029	 3.64529918575235E-02 
1030	 3.39408866065348E-02 
1031	 3.38642991590726E-02 
1032	 3.49868840806087E-02 
1033	 3.56113762018838E-02 
1034	 3.73347539627046E-02 
1035	 3.81242568888581E-02 
1036	 0.038526879598632 
1037	 0.038637896739537 
1038	 3.80839820801966E-02 
1039	 0.03773984832552 
1040	 3.81864389084053E-02 
1041	 3.87050965407284E-02 
1042	 3.84452919844444E-02 
1043	 3.87217198626526E-02 
1044	 3.79115887686154E-02 
1045	 3.47405991412693E-02 
1046	 3.44399128633748E-02 
1047	 3.55105118885371E-02 
1048	 3.58889458886932E-02 
1049	 3.76694330775896E-02 
1050	 3.83711937414693E-02 
1051	 3.80780751534388E-02 
1052	 0.037992027054713 
1053	 0.037867061481134 
1054	 3.76322036463379E-02 
1055	 3.71979965552215E-02 
1056	 3.67280146323733E-02 
1057	 3.62147393550865E-02 
1058	 3.51551639033255E-02 
1059	 0.035751062545726 
1060	 3.72425847512307E-02 
1061	 3.79987904819407E-02 
1062	 4.04104695129186E-02 
1063	 0.040428908958335 
1064	 3.81592809434919E-02 
1065	 3.73285388296249E-02 
1066	 3.53901082936949E-02 
1067	 3.51720303668663E-02 
1068	 3.71840930016282E-02 
1069	 3.77127224364306E-02 
1070	 3.86618938988041E-02 
1071	 3.89509977839103E-02 
1072	 3.87005880310355E-02 
1073	 0.036613628313739 
1074	 3.68167455973289E-02 
1075	 3.81060334457003E-02 
1076	 3.79192439802909E-02 
1077	 3.81151865291388E-02 
1078	 3.78859077665437E-02 
1079	 3.59247114180287E-02 
1080	 3.54224981079382E-02 
1081	 3.62721391243766E-02 
1082	 3.61499154839121E-02 
1083	 3.52482994526773E-02 
1084	 3.55201761347745E-02 
1085	 3.64386495901748E-02 
1086	 3.68395298920985E-02 
1087	 3.80356632070714E-02 
1088	 3.86502955006605E-02 
1089	 3.86660910402853E-02 
1090	 3.84476508427829E-02 
1091	 3.76503432158661E-02 
1092	 3.60780464438066E-02 
1093	 3.57372019158135E-02 
1094	 3.50613464719263E-02 
1095	 3.51608386086363E-02 
1096	 3.74425743914222E-02 
1097	 3.78668219454357E-02 
1098	 0.036967689939791 
1099	 3.65948538938567E-02 
1100	 3.53473983849247E-02 
1101	 3.49436328027323E-02 
1102	 3.59183445611776E-02 
1103	 3.64326818412959E-02 
1104	 3.70172507173879E-02 
1105	 3.71107515156263E-02 
1106	 3.95638612743554E-02 
1107	 0.040247464565951 
1108	 3.88016299660525E-02 
1109	 3.92702325552979E-02 
1110	 4.08988037325979E-02 
1111	 0.042292514704726 
1112	 0.043252207481219 
1113	 5.04072949221227E-02 
1114	 5.01327630171414E-02 
1115	 3.54720915914844E-02 
1116	 3.13331715825097E-02 
1117	 3.03686151856023E-02 
1118	 2.93716887655236E-02 
1119	 4.93972303417532E-02 
1120	 5.64413608456558E-02 
1121	 4.52708128229972E-02 
1122	 3.55508547029096E-02 
1123	 7.68225852806707E-03 
1124	-1.37906135270295E-02 
1125	 7.12194743206035E-02 
1126	 0.124082160879152 
1127	 0.066735724024347 
1128	 8.22816194699229E-02 
1129	 8.07344257186892E-02 
1130	 6.45072959616168E-04 
1131	 2.03881079753535E-03 
1132	 9.04982847761912E-02 
1133	 7.72838871530603E-02 
1134	 1.08880004996792E-02 
1135	 1.31783905132965E-02 
1136	 1.97045579706508E-02 
1137	 0.024784952137832 
1138	 6.11290636798007E-02 
1139	 8.56668909871259E-02 
1140	 0.055298246767948 
1141	 1.84188161274307E-02 
1142	 1.69329511990017E-02 
1143	 0.022338620073732 
1144	 0.035901449697189 
1145	 6.46068870469524E-02 
1146	 7.27009025000552E-02 
1147	 5.32576261045672E-02 
1148	 5.34157364778921E-02 
1149	 6.54876352659862E-02 
1150	 6.26706433662237E-02 
1151	 6.01002315576796E-02 
1152	 5.41788850019356E-02 
1153	 3.59908276410668E-02 
1154	 3.34342447217609E-02 
1155	 3.60187127847331E-02 
1156	 3.75798127626482E-02 
1157	 3.91384057378919E-02 
1158	 4.04943593613565E-02 
1159	 3.71482114477293E-02 
1160	 3.55267707675724E-02 
1161	 3.70984591906401E-02 
1162	 3.64668460176213E-02 
1163	 3.68089937975118E-02 
1164	 3.71143359627579E-02 
1165	 3.54623099654841E-02 
1166	 3.57849569855163E-02 
1167	 3.61307263850743E-02 
1168	 3.70409640508112E-02 
1169	 3.90653651312304E-02 
1170	 3.96545064899401E-02 
1171	 3.96776309505327E-02 
1172	 0.039074282181261 
1173	 3.80260549570878E-02 
1174	 0.035610506842633 
1175	 3.54048316077289E-02 
1176	 3.51040515736468E-02 
1177	 3.46308677131037E-02 
1178	 3.60980456627344E-02 
1179	 3.58271697738229E-02 
1180	 3.38909110526602E-02 
1181	 3.50817499008495E-02 
1182	 3.56096171248479E-02 
1183	 3.53463585991779E-02 
1184	 3.84877842634903E-02 
1185	 3.92260845360883E-02 
1186	 3.66612182821656E-02 
1187	 3.65581766588209E-02 
1188	 3.65724023016399E-02 
1189	 3.62014750448725E-02 
1190	 3.75109958764232E-02 
1191	 3.82923765230292E-02 
1192	 3.86888968507572E-02 
1193	 3.83589268732627E-02 
1194	 3.75682896834393E-02 
1195	 3.68096009993935E-02 
1196	 3.70080503204362E-02 
1197	 3.65054554711473E-02 
1198	 3.65524915476767E-02 
1199	 3.78809607120231E-02 
1200	 3.71639003868402E-02 
1201	 3.54744667013704E-02 
1202	 3.55689115673354E-02 
1203	 3.57911762824836E-02 
1204	 3.59359836921093E-02 
1205	 3.71399672186849E-02 
1206	 3.83774367229695E-02 
1207	 3.75483211124436E-02 
1208	 3.67652975274696E-02 
1209	 3.75453751984728E-02 
1210	 3.75925881911001E-02 
1211	 3.71493163156121E-02 
1212	 3.66395631727145E-02 
1213	 0.036097228098083 
1214	 0.036237145730091 
1215	 3.63062038344504E-02 
1216	 3.72267328257142E-02 
1217	 3.75718603290539E-02 
1218	 3.69468987263983E-02 
1219	 3.69654025059186E-02 
1220	 3.72147187383716E-02 
1221	 3.71213403048447E-02 
1222	 3.72799024671385E-02 
1223	 3.68425020737675E-02 
1224	 3.59016721809193E-02 
1225	 3.56262985883858E-02 
1226	 0.036147630529709 
1227	 3.68977375205041E-02 
1228	 3.69287752668959E-02 
1229	 3.67398195451925E-02 
1230	 3.63353737305255E-02 
1231	 0.035738717616248 
1232	 0.035637732323806 
1233	 3.56010627060456E-02 
1234	 3.57484733996541E-02 
1235	 3.59704858924758E-02 
1236	 3.58764180770354E-02 
1237	 0.035668980121738 
1238	 3.53697723047828E-02 
1239	 3.61124219464212E-02 
1240	 3.58760705787245E-02 
1241	 3.57523392088246E-02 
1242	 3.66420765960824E-02 
1243	 3.65453945587102E-02 
1244	 3.63931885261217E-02 
1245	 3.72500752430458E-02 
1246	 3.77505369421354E-02 
1247	 3.77014077417141E-02 
1248	 3.76975261517396E-02 
1249	 3.70968889739841E-02 
1250	 3.63823509028567E-02 
1251	 3.68904733623116E-02 
1252	 0.036906364621064 
1253	 3.62690800492846E-02 
1254	 3.58613999201191E-02 
1255	 3.46224193017659E-02 
1256	 3.42613877419622E-02 
1257	 3.52744707137506E-02 
1258	 3.52391554951514E-02 
1259	 3.49182331069736E-02 
1260	 3.47449799899373E-02 
1261	 0.033848848018557 
1262	 3.34893528511848E-02 
1263	 3.33303283905815E-02 
1264	 3.38752825219254E-02 
1265	 3.47400100518802E-02 
1266	 3.47200260099733E-02 
1267	 3.50837532611138E-02 
1268	 3.57861207475153E-02 
1269	 3.57533210549183E-02 
1270	 3.61349831032622E-02 
1271	 3.64913431498785E-02 
1272	 3.60621494258168E-02 
1273	 3.53824507912785E-02 
1274	 3.52471300816749E-02 
1275	 3.57419346720509E-02 
1276	 3.64983705294094E-02 
1277	 3.70774261387009E-02 
1278	 3.69732698810338E-02 
1279	 3.63569633521722E-02 
1280	 3.61490759065146E-02 
1281	 3.58767831989045E-02 
1282	 3.53778541936233E-02 
1283	 3.49562450782854E-02 
1284	 3.43239690337666E-02 
1285	 3.47628662489494E-02 
1286	 3.60743570069478E-02 
1287	 3.62295851439375E-02 
1288	 3.69563137815334E-02 
1289	 3.73112698079205E-02 
1290	 3.62354208070432E-02 
1291	 3.57071033790209E-02 
1292	 3.67321261403693E-02 
1293	 3.68818818851983E-02 
1294	 3.61093906607589E-02 
1295	 3.59979501336102E-02 
1296	 3.62876115456552E-02 
1297	 3.51318602104965E-02 
1298	 3.39233787076307E-02 
1299	 3.47179600305431E-02 
1300	 3.62908709733518E-02 
1301	 3.70532995355318E-02 
1302	 0.037143382456293 
1303	 3.69047615896858E-02 
1304	 3.61554212175288E-02 
1305	 3.73690990124644E-02 
1306	 3.78459753801194E-02 
1307	 3.85168729973353E-02 
1308	 0.039437254581154 
1309	 4.13253454662778E-02 
1310	 4.14858879600005E-02 
1311	 4.01368812838891E-02 
1312	 4.07776210027569E-02 
1313	 4.18208014251423E-02 
1314	 4.16247797296129E-02 
1315	 4.26095815975837E-02 
1316	 4.35857772755925E-02 
1317	 4.30590696754138E-02 
1318	 0.041389987999623 
1319	 3.93218963455908E-02 
1320	 3.90588498110549E-02 
1321	 3.99550834686059E-02 
1322	 0.035874380443787 
1323	 0.035149174681505 
1324	 3.99465202119973E-02 
1325	 4.09102673343874E-02 
1326	 3.81225216516079E-02 
1327	 3.80920813724678E-02 
1328	 3.80074811344916E-02 
1329	 3.82864982234217E-02 
1330	 4.37428001597799E-02 
1331	 4.61393174224441E-02 
1332	 4.48394644798069E-02 
1333	 4.22727444704278E-02 
1334	 3.90953599261587E-02 
1335	 0.037184054633364 
1336	 3.55403705890283E-02 
1337	 3.49345573490216E-02 
1338	 0.038189161783293 
1339	 3.68707387254647E-02 
1340	 3.07951654667252E-02 
1341	 0.032818152025402 
1342	 4.00432572293888E-02 
1343	 3.89036261853066E-02 
1344	 3.72416205442039E-02 
1345	 4.39460935346917E-02 
1346	 5.61687556162068E-02 
1347	 4.87419865324719E-02 
1348	 2.39693228333798E-02 
1349	 2.61565269429981E-02 
1350	-1.70434368563488E-02 
1351	-0.046201603753287 
1352	 0.106582436910647 
1353	 0.1964914512175 
1354	 0.154941585591532 
1355	 0.322973449523936 
1356	 0.258306475973509 
1357	 7.97749204330978E-02 
1358	 0.383493936122421 
1359	 0.384045614799605 
1360	 0.112841641288607 
1361	 9.26000932122578E-02 
1362	 0.321749849348232 
1363	 0.716697754118808 
1364	 0.383433887328903 
1365	 0.384976754532906 
1366	 0.219153493730413 
1367	-0.240740666367326 
1368	-0.247515169537927 
1369	 0.356788976712475 
1370	 0.680092903521609 
1371	 2.12549724590902 
1372	 3.61074911534405 
1373	 8.00655104359365 
1374	-33.3870770805163 
1375	 1.07419130371623 
1376	 0.812437826593058 
1377	 0.921833619955826 
1378	 0.866852719047323 
1379	 1.78041248075073 
1380	 1.75011400782059 
1381	 1.85789235735966 
1382	 1.31777084259365 
1383	 0.574031666531636 
1384	 0.674179178317291 
1385	 0.735345682716857 
1386	 0.809288579204855 
1387	 3.07989984612024 
1388	 3.50060124158903 
1389	 1.16855676626105 
1390	 1.06990668031043 
1391	 2.1374792687005 
1392	 0.91823097778085 
1393	 0.381971592679424 
1394	 0.416656890633965 
1395	 1.12330291618332 
1396	 1.19245869180699 
1397	 1.86056142009997 
1398	-281.489838004088 
1399	 3.21311922503291 
1400	 1.57523119375248 
1401	 3.26558815727184 
1402	-212.823049504332 
1403	-1.4951839235259 
1404	 5.02792286303105 
1405	 65.682901151396 
1406	 0.527959566869646 
1407	 0.656344439462413 
1408	 3.21327289273353 
1409	 24.3917475652598 
1410	-5.8567783811909 
1411	-12.7665565071399 
1412	 1.89203354242947 
1413	 2.21025444250671 
1414	 4.4645187255076 
1415	 2.79494634877308 
1416	 3.16618385609384 
1417	 14.0970156301886 
1418	 5.64421534838315 
1419	 1.82004472719712 
1420	 3.84045985099652 
1421	 3.59521066527961 
1422	 1.62077865282908 
1423	 1.33948353287817 
1424	 2.01762124975853 
1425	 1.86124444725877 
1426	 0.817732792902641 
1427	-0.202383708502436 
1428	-7.69196314784666E-02 
1429	-1.18945910730181E-02 
1430	-1.85302680258407E-02 
1431	-0.1954812336852 
1432	-0.412566575684377 
1433	-0.371202733812937 
1434	-0.912823831692654 
1435	-1.03608131471999 
1436	-0.329887863483677 
1437	 0.211105131132956 
1438	 3.96100489844404E-02 
1439	-0.039896484254086 
1440	 0.285143078081535 
1441	 0.536843866941967 
1442	 0.608050932844103 
1443	 0.71503761426031 
1444	 0.523178812176897 
1445	 0.203963216414595 
1446	 7.53400622378812E-02 
1447	 7.54678180002972E-02 
1448	 0.127481168306399 
1449	 0.181840217118913 
1450	 0.119499631802035 
1451	 0.119611637608406 
1452	 0.162944419176262 
1453	 0.16635847386484 
1454	 0.146640214245967 
1455	 0.15229720621456 
1456	 0.111892741276428 
1457	-9.7406915795724E-03 
1458	 1.41328925502699E-02 
1459	 9.96066377547262E-02 
1460	 0.123685816818908 
1461	 0.207428654890143 
1462	 0.198540064477853 
1463	 8.60513440079111E-02 
1464	 4.50858418285781E-02 
1465	-1.4056475674805E-03 
1466	 2.13110850746479E-02 
1467	 0.117405685760143 
1468	 0.148765298630709 
1469	 0.226613801866621 
1470	 0.23528054787197 
1471	 0.120187892381766 
1472	 9.88024382725288E-02 
1473	 0.14794604359167 
1474	 0.116203710066597 
1475	 6.28105012796019E-02 
1476	 5.55752327289099E-02 
1477	 1.82559043899812E-02 
1478	 2.57858057111848E-02 
1479	 0.107657293420547 
1480	 0.103186856230135 
1481	 5.35882503018662E-02 
1482	 5.51484447927591E-02 
1483	 6.08516340019432E-02 
1484	 5.76917329277839E-02 
1485	 7.64773860580464E-02 
1486	 0.077335485225221 
1487	 5.55821972470894E-02 
1488	 4.38095403525761E-02 
1489	 0.031961380396279 
1490	 0.031868815603883 
1491	 3.75898343262522E-02 
1492	 3.84544752488771E-02 
1493	 5.00199218706867E-02 
1494	 4.88235518272816E-02 
1495	 0.027159779136606 
1496	 2.69298791063215E-02 
1497	 4.36989915711003E-02 
1498	 4.35503972935666E-02 
1499	 3.71455582886688E-02 
1500	 3.98137410678068E-02 
1501	 4.10169060348264E-02 
1502	 3.79585795879384E-02 
1503	 3.87144488247748E-02 
1504	 0.041949725147619 
1505	 4.59449041848028E-02 
1506	 4.07800950774946E-02 
1507	 3.30523048532556E-02 
1508	 3.03785372862648E-02 
1509	 3.26416817635484E-02 
1510	 3.60024032460399E-02 
1511	 3.87259085935012E-02 
1512	 4.11875524700354E-02 
1513	 3.98253426534242E-02 
1514	 3.30525436781745E-02 
1515	 3.11072609316642E-02 
1516	 3.67275257358781E-02 
1517	 3.77373805603108E-02 
1518	 3.24911069818985E-02 
1519	 2.90811636218695E-02 
1520	 2.97450923487986E-02 
1521	 3.15030255322753E-02 
1522	 3.15100295168929E-02 
1523	 3.34177944575226E-02 
1524	 3.67533823596082E-02 
1525	 3.67435330058287E-02 
1526	 3.55804949556744E-02 
1527	 0.033103795843855 
1528	 3.01169505558065E-02 
1529	 0.031613874303371 
1530	 3.31829204205722E-02 
1531	 3.30709763603373E-02 
1532	 3.64922418700891E-02 
1533	 4.00652859304291E-02 
1534	 0.040393167574572 
1535	 3.88600278914927E-02 
1536	 3.65482920531101E-02 
1537	 3.53059184588916E-02 
1538	 3.54363346511788E-02 
1539	 3.72875758439164E-02 
1540	 0.039666424186576 
1541	 3.82083102900163E-02 
1542	 3.56580067549938E-02 
1543	 3.50646594090377E-02 
1544	 3.34190802377407E-02 
1545	 3.31236654940751E-02 
1546	 3.44715464134034E-02 
1547	 3.57805188978519E-02 
1548	 3.80188024557846E-02 
1549	 3.77358502900909E-02 
1550	 3.53082334912707E-02 
1551	 3.53990816173179E-02 
1552	 3.63711873190167E-02 
1553	 3.74576148300403E-02 
1554	 3.94765693418806E-02 
1555	 3.77626412946994E-02 
1556	 3.44618976615159E-02 
1557	 3.66123101622358E-02 
1558	 4.03249924788304E-02 
1559	 4.00199064632682E-02 
1560	 3.93167741815862E-02 
1561	 4.03554233117541E-02 
1562	 3.99496667025302E-02 
1563	 3.83031512036153E-02 
1564	 3.83360632333349E-02 
1565	 3.92900106607265E-02 
1566	 3.87214610240154E-02 
1567	 3.79473282447106E-02 
1568	 3.92097552249832E-02 
1569	 3.99949646710387E-02 
1570	 0.037152746973965 
1571	 3.41273470590895E-02 
1572	 3.43567557143154E-02 
1573	 3.44226455848344E-02 
1574	 3.36843790997139E-02 
1575	 3.42890468890973E-02 
1576	 3.47652042189831E-02 
1577	 3.46836846398356E-02 
1578	 3.41575609082487E-02 
1579	 3.51223336731266E-02 
1580	 3.59900391074946E-02 
1581	 3.41263063125629E-02 
1582	 3.32388306518536E-02 
1583	 3.26155507895983E-02 
1584	 3.31650219262615E-02 
1585	 3.52004507830176E-02 
1586	 0.034583326887457 
1587	 3.47147246441459E-02 
1588	 3.68857279217314E-02 
1589	 3.77414946975688E-02 
1590	 3.76060077264726E-02 
1591	 3.65012122807483E-02 
1592	 3.58164135215126E-02 
1593	 3.58041918122259E-02 
1594	 3.53712708776223E-02 
1595	 0.037081621368906 
1596	 3.81319050875239E-02 
1597	 3.80771442882581E-02 
1598	 3.80229542551602E-02 
1599	 3.54788294121135E-02 
1600	 3.34028075251456E-02 
1601	 3.15457334494469E-02 
1602	 3.11860906821721E-02 
1603	 3.46832974690237E-02 
1604	 3.59357417535578E-02 
1605	 3.27377972783292E-02 
1606	 3.06325293124603E-02 
1607	 3.11538064366418E-02 
1608	 3.22466871500454E-02 
1609	 3.48148505295151E-02 
1610	 3.65073351626865E-02 
1611	 3.58681454330735E-02 
1612	 3.52142978863039E-02 
1613	 3.51655753800588E-02 
1614	 3.61803979884144E-02 
1615	 3.57085476690462E-02 
1616	 3.38875016279028E-02 
1617	 3.35825766165056E-02 
1618	 3.43073877990801E-02 
1619	 3.59260309626504E-02 
1620	 3.61728787035651E-02 
1621	 3.48274735870421E-02 
1622	 0.034872016431316 
1623	 3.43276275737484E-02 
1624	 3.31858895859787E-02 
1625	 3.35900491182694E-02 
1626	 3.39796746870652E-02 
1627	 3.33936376835374E-02 
1628	 0.032252621613364 
1629	 3.31872211857617E-02 
1630	 3.52613254891814E-02 
1631	 3.54420554722826E-02 
1632	 3.56626187418487E-02 
1633	 3.43427516888969E-02 
1634	 3.24992718087524E-02 
1635	 3.41890758598322E-02 
1636	 3.66965672211699E-02 
1637	 3.81557777719973E-02 
1638	 3.80257496954761E-02 
1639	 3.62708145167768E-02 
1640	 3.44592611326093E-02 
1641	 3.38374118227792E-02 
1642	 3.46659437428899E-02 
1643	 3.40511639439961E-02 
1644	 3.29024714118621E-02 
1645	 3.37298004584593E-02 
1646	 3.37043600313115E-02 
1647	 3.26225352428074E-02 
1648	 3.24575054658824E-02 
1649	 3.41315954243179E-02 
1650	 3.55566346393854E-02 
1651	 3.48626962269347E-02 
1652	 3.52003337923939E-02 
1653	 0.031662260641785 
1654	 3.04208603184911E-02 
1655	 3.43195638814032E-02 
1656	 3.54902763743471E-02 
1657	 3.43822354703649E-02 
1658	 0.034091747350902 
1659	 0.032742361938355 
1660	 3.29787937394815E-02 
1661	 3.48930460285811E-02 
1662	 3.47613361091587E-02 
1663	 3.52566016771201E-02 
1664	 3.60190912577351E-02 
1665	 3.53980839118965E-02 
1666	 3.57383945220909E-02 
1667	 3.61630819959475E-02 
1668	 3.20869971084846E-02 
1669	 3.27921621354886E-02 
1670	 3.44742468230876E-02 
1671	 0.03559299934565 
1672	 3.73570715482873E-02 
1673	 0.038564621889304 
1674	 3.85707104289512E-02 
1675	 3.77031388281583E-02 
1676	 3.74271814254589E-02 
1677	 3.69615648534878E-02 
1678	 3.49424098741655E-02 
1679	 3.62156882012323E-02 
1680	 3.76730802927339E-02 
1681	 3.35830583556752E-02 
1682	 3.19769417645399E-02 
1683	 3.37421676469459E-02 
1684	 3.30341720240679E-02 
1685	 0.033463199607982 
1686	 3.45482261486409E-02 
1687	 3.25006993984726E-02 
1688	 3.30889977505813E-02 
1689	 3.54530684535712E-02 
1690	 3.48638263940143E-02 
1691	 3.50819447040974E-02 
1692	 3.43931527441308E-02 
1693	 0.033881433065496 
1694	 3.69527806393642E-02 
1695	 3.71497587953162E-02 
1696	 3.53023154667645E-02 
1697	 3.53726297072967E-02 
1698	 3.52128326332266E-02 
1699	 3.64501592350053E-02 
1700	 3.74049641533846E-02 
1701	 3.57048043065666E-02 
1702	 3.49004128784398E-02 
1703	 0.03487586126648 
1704	 3.30415999815395E-02 
1705	 3.40802417962616E-02 
1706	 3.87853263278843E-02 
1707	 0.038145718588616 
1708	 3.59860868776085E-02 
1709	 3.71700168721516E-02 
1710	 3.33287316331119E-02 
1711	 3.12509720957706E-02 
1712	 3.52804723301795E-02 
1713	 3.56175493848275E-02 
1714	 3.52891735838376E-02 
1715	 0.033060436142897 
1716	 3.16993993596547E-02 
1717	 3.36784716506173E-02 
1718	 3.33878817360433E-02 
1719	 2.85679218377186E-02 
1720	 0.027880716699688 
1721	 2.97660290593762E-02 
1722	 3.23804806998792E-02 
1723	 3.74986704818253E-02 
1724	 3.89251403705637E-02 
1725	 3.57911761387671E-02 
1726	 3.32668458212712E-02 
1727	 3.28140175129428E-02 
1728	 3.69002048502462E-02 
1729	 4.09921111315328E-02 
1730	 3.73116379068363E-02 
1731	 3.39005502736512E-02 
1732	 3.36354492924092E-02 
1733	 3.04875985721965E-02 
1734	 3.26240082479681E-02 
1735	 3.81743465079816E-02 
1736	 3.38048350594599E-02 
1737	 3.04562941329248E-02 
1738	 3.81461411316403E-02 
1739	 4.08140653709252E-02 
1740	 3.99020841061822E-02 
1741	 4.32612440135242E-02 
1742	 0.038905486791306 
1743	 3.55799282843555E-02 
1744	 4.20708492525213E-02 
1745	 4.42923624102083E-02 
1746	 4.15559726535007E-02 
1747	 4.23031529485617E-02 
1748	 4.36632317249247E-02 
1749	 4.34587382016551E-02 
1750	 4.57724129154532E-02 
1751	 4.40016895520723E-02 
1752	 3.47188604325254E-02 
1753	 3.35760883928444E-02 
1754	 3.68707691153924E-02 
1755	 3.56922277591855E-02 
1756	 3.42841009265179E-02 
1757	 0.036319081078803 
1758	 4.13986986605422E-02 
1759	 4.81886614426564E-02 
1760	 5.19062659828025E-02 
1761	 4.23409717685538E-02 
1762	 0.031182691448684 
1763	 3.11935068116445E-02 
1764	 3.14065760528861E-02 
1765	 3.93020136497273E-02 
1766	 4.60294854633385E-02 
1767	 3.70119187433204E-02 
1768	 3.67395363295579E-02 
1769	 4.28214237301616E-02 
1770	 4.26055679904238E-02 
1771	 0.045575110208993 
1772	 4.92983950866091E-02 
1773	 4.97833539591701E-02 
1774	 5.93341419074938E-02 
1775	 6.51786951248145E-02 
1776	 6.71341514878643E-02 
1777	 5.99062892613343E-02 
1778	 5.44215358846196E-02 
1779	 4.95799738377164E-02 
1780	 5.31339824693392E-02 
1781	 6.34916275538959E-02 
1782	 5.51698558655733E-02 
1783	 3.84087373371086E-02 
1784	 4.41444856064997E-02 
1785	 4.30355142823662E-02 
1786	 5.70068446722691E-02 
1787	 0.121978818388503 
1788	 0.122496174871943 
1789	 7.28054416836587E-02 
1790	 7.78920209995341E-02 
1791	 0.056873491890101 
1792	 8.84651782153132E-02 
1793	 0.111839061023124 
1794	 8.49037586053181E-02 
1795	 8.91252679057548E-02 
1796	 9.70089644422616E-02 
1797	 0.117068384662286 
1798	 0.150638203021863 
1799	 0.149917135060901 
1800	 9.65305640663763E-02 
1801	 0.105187993928255 
1802	 0.173497239591683 
1803	 0.214302891138397 
1804	 0.277077125025162 
1805	 0.393500791997755 
1806	 0.611610416642577 
1807	 0.799729725041757 
1808	 0.976902817883618 
1809	 1.06517392168276 
1810	 0.789909048458503 
1811	 0.954681774792005 
1812	 1.5246144195383 
1813	 1.42061211562809 
1814	 1.62077105095415 
1815	 1.19195993806727 
1816	 0.260163783219121 
1817	 7.99995135473897E-02 
1818	-0.23084319751165 
1819	-3.80928201566718E-02 
1820	-3.19670500244438E-04 
1821	-0.886790873167163 
1822	-1.35052754334555 
1823	 0.640224356703886 
1824	 1.63875411817659 
1825	 1.40306516955096 
1826	 1.26956152301026 
1827	 0.660061922594672 
1828	 0.536194568923262 
1829	 1.13260087605016 
1830	 0.642700197589377 
1831	 8.88952626875497 
1832	 16.559372497307 
1833	 4.41064216678695 
1834	 4.79906736870675 
1835	 7.37277786320224 
1836	 8.16640586644902 
1837	 3.16646620287918 
1838	 3.02777645640122 
1839	 3.08256113638079 
1840	 24.6406458102639 
1841	-1.11068503127204 
1842	 0.209558022541066 
1843	 0.471753481856961 
1844	 1.13511985637921 
1845	 0.941498278741222 
1846	 2.38144694953519 
1847	 2.81483016992578 
1848	-5.70311199230323 
1849	-2.84308605833773 
1850	-5.45204118195916 
1851	-7.12380029935135 
1852	-0.725540789169984 
1853	-0.623202079938674 
1854	-0.326112147330927 
1855	 0.119573713175828 
1856	 0.235412766112937 
1857	 0.322791706825548 
1858	 0.408726881765495 
1859	 0.537601794874233 
1860	 0.448482723175565 
1861	 0.769660227990517 
1862	 0.741800510161962 
1863	 0.824327382205507 
1864	 2.18666445512657 
1865	 3.23396860405924 
1866	 8.30019013402551 
1867	 3.68657224413906 
1868	 5.83883958215083 
1869	 17.6903892707671 
1870	-2.44702240755817 
1871	 1.58430023970326 
1872	 1.35435570156384 
1873	 1.25670086433511 
1874	 1.16132576608005 
1875	 1.2123134369832 
1876	 1.41793804295167 
1877	 2.78562094511526 
1878	 2.65558058518945 
1879	 1.75589802696633 
1880	 1.43413009415149 
1881	 0.62904994958376 
1882	 0.573523573151484 
1883	 0.419529597149099 
1884	 1.08031963414795 
1885	 5.08113926755869 
1886	 38.9556605599085 
1887	-2.3089952622006 
1888	 4.32530256632223 
1889	 0.652798189432331 
1890	-0.816998341851144 
1891	-0.954350282689048 
1892	-0.688860286343578 
1893	-1.09712678161867 
1894	-1.97955072591647 
1895	 2.21359462164454 
1896	 0.905253287602159 
1897	-7.57508565432784E-02 
1898	 0.144828972746811 
1899	 0.669736473887988 
1900	 2.36550388220168 
1901	-0.31482944144319 
1902	-0.271787044292182 
1903	-8.36219224015702E-02 
1904	 0.75809550447852 
1905	 0.520435200878318 
1906	 1.59614461393013 
1907	 2.70919861355987 
1908	 3.5232961500058 
1909	 3.81118577520409 
1910	 6.23911275058098 
1911	-0.393245089937132 
1912	-11.2555458306351 
1913	-83.5819150485599 
1914	 4.09209665463944 
1915	 3.53853365451143 
1916	 3.10711086874464 
1917	 2.57961389905056 
1918	 0.899324171900712 
1919	 1.02777014662949 
1920	 0.436116212778062 
1921	 0.106659044587644 
1922	-0.236100324940814 
1923	-0.98289252957097 
1924	-1.67452505966717 
1925	-1.05388813750003 
1926	-0.956438428644035 
1927	-0.854201993179121 
1928	-1.18562531036764 
1929	-8.66682556004208 
1930	 1.22790777377213 
1931	-5.95725881381902E-02 
1932	-0.750521911024297 
1933	-1.59215615713486 
1934	-2.30661601910269 
1935	-4.54477731544558 
1936	-2.43103892313586 
1937	 0.236690914725723 
1938	-4.20798230234741E-02 
1939	-3.78484400019966E-02 
1940	-5.29531770944887E-02 
1941	-9.93682891249998E-02 
1942	-5.57869010846833E-02 
1943	-4.70613974074234E-02 
1944	-0.191768887898086 
1945	-0.783215046012081 
1946	-1.88031265476782 
1947	 54.3450804071143 
1948	-0.623396061584462 
1949	-0.149310731262746 
1950	 0.469644017056571 
1951	 0.376843921793099 
1952	 0.340231214822769 
1953	-0.51363581133624 
1954	-1.22442485083859 
1955	-0.442306072811651 
1956	-2.78580855329951E-02 
1957	-0.589351029963471 
1958	-0.397776120920514 
1959	-0.186221422764999 
1960	-0.163527270396039 
1961	 3.98667608829895E-02 
1962	 2.49829577165139E-02 
1963	 2.54112651566706E-03 
1964	 0.219765336043088 
1965	-0.153621352721008 
1966	-0.367191522280889 
1967	-0.742493576049595 
1968	-0.981707275474613 
1969	-0.521565309861631 
1970	-0.149724673866513 
1971	-0.196262627479848 
1972	-0.247396033229075 
1973	-0.162048581641337 
1974	-0.236088043233432 
1975	-0.145299249428129 
1976	 9.57596302546633E-02 
1977	 0.139767161604249 
1978	 0.147346934907251 
1979	 0.15598004066064 
1980	 0.12995375166567 
1981	 6.93810277487337E-02 
1982	 0.173039731456286 
1983	 0.22199468001644 
1984	 0.168287705670263 
1985	 0.19386193351939 
1986	 0.208225958790274 
1987	 0.23592842641784 
1988	 0.381439883826299 
1989	 0.376303827725373 
1990	 0.222033543923196 
1991	 0.165597700224656 
1992	 0.12522205635606 
1993	 0.136625297170794 
1994	 0.150997895892344 
1995	 0.21246694237015 
1996	 0.266367964477638 
1997	 0.393255580209295 
1998	 0.34632217391309 
1999	 0.37537630878832 
2000	 0.407568960381971 
2001	 4.42673120148138E-02 
2002	-7.13721903938359E-04 
2003	 7.89985439277067E-02 
2004	-6.03342519635604E-02 
2005	 8.10302694691692E-03 
2006	 0.199860381825237 
2007	-4.86820219037468E-03 
2008	-9.84900471262865E-03 
2009	 0.064206068111276 
2010	 0.178763518350839 
2011	 0.3171992974708 
2012	 1.14154067237461 
2013	 0.442785848157927 
2014	 0.204140834128292 
2015	 0.275045397433727 
2016	 0.246928161766014 
2017	 0.37530313562751 
2018	 0.551386559246933 
2019	 0.455543579595477 
2020	 0.408399166409139 
2021	 0.308890092622599 
2022	 0.224569171336851 
2023	 0.230624856649844 
2024	 0.179030698580511 
2025	 7.96556212484893E-02 
2026	 6.89745536788522E-02 
2027	 7.61880746053478E-02 
2028	 0.103125965854992 
2029	 0.107724744240011 
2030	 0.100966098989179 
2031	 0.104102786233498 
2032	 6.46373208561178E-02 
2033	 6.02262134910274E-02 
2034	 6.74075183729292E-02 
2035	 6.50183404094187E-02 
2036	 6.96945869654793E-02 
2037	 5.50395513665874E-02 
2038	 5.59767563700256E-02 
2039	 0.061648148864016 
2040	 8.27039721418056E-02 
2041	 0.07065096599485 
2042	 4.13158694736721E-02 
2043	 3.05170331675068E-02 
2044	 8.44171794646956E-03 
2045	-1.66388999075053E-02 
2046	-1.09307812551513E-02 
2047	 2.45001897661613E-03 
2048	 6.03683196027165E-03 
2049	 3.15961744201057E-03 
2050	 2.73735015678693E-02 
2051	 4.90980902060881E-02 
2052	 3.39241456927152E-02 
2053	-2.46372787189509E-03 
2054	-4.05857745446306E-02 
2055	-5.34989847479304E-02 
2056	-5.08330219184362E-02 
2057	 6.2737254912711E-03 
2058	 3.03217231076391E-02 
2059	 0.032262508009042 
2060	 3.94135565848932E-02 
2061	 4.02615461464415E-02 
2062	 0.059082814258702 
2063	 4.64942421223398E-02 
2064	 5.24677135499803E-02 
2065	 5.51170556653592E-02 
2066	 7.83378327992037E-03 
2067	-1.71071491188918E-02 
2068	 2.73498347833064E-03 
2069	 3.11119193286984E-02 
2070	 5.97917291883278E-02 
2071	 0.100812492868299 
2072	 0.113947095351527 
2073	 9.80023021331417E-02 
2074	 2.49548445098782E-02 
2075	 1.06601192102968E-02 
2076	-2.79325400631789E-03 
2077	 4.16934091945807E-03 
2078	 5.40203971192022E-02 
2079	 0.078151293009456 
2080	 0.100655967757572 
2081	 0.108374813416021 
2082	 0.111445262931624 
2083	 8.72133638147809E-02 
2084	 5.73359277634941E-02 
2085	 5.88591369534429E-02 
2086	 5.72162534784536E-02 
2087	 5.00517463498093E-02 
2088	 5.99350998268716E-02 
2089	 4.22361119456854E-02 
2090	 0.015017191826015 
2091	 3.04364213279313E-02 
2092	 3.23941067040289E-02 
2093	 3.46354055016593E-02 
2094	 3.57727020533864E-02 
2095	 2.97773492818063E-02 
2096	 2.91530001731391E-02 
2097	 3.33225124341397E-02 
2098	 3.84654749233275E-02 
2099	 4.31537374118511E-02 
2100	 6.76486841469939E-02 
2101	 6.97790213632235E-02 
2102	 0.061635376217677 
2103	 0.048603495009626 
2104	 3.11558321790588E-02 
2105	 3.42595781088818E-02 
2106	 4.96677790563042E-02 
2107	 7.24674741607099E-02 
2108	 8.86154854235925E-02 
2109	 9.76635232491785E-02 
2110	 9.38284669370861E-02 
2111	 7.79950173523568E-02 
2112	 7.18438217251495E-02 
2113	 6.88625439447495E-02 
2114	 0.068844802103364 
2115	 7.02034239708404E-02 
2116	 8.04437448019329E-02 
2117	 8.27141274444467E-02 
2118	 7.75544211947362E-02 
2119	 0.071162447165397 
2120	 0.060125666946664 
2121	 5.94459461102149E-02 
2122	 5.49146171176289E-02 
2123	 5.07048142309942E-02 
2124	 5.17295881606502E-02 
2125	 5.42189189166128E-02 
2126	 0.035167453105601 
2127	 3.39267526460602E-02 
2128	 5.01310192107982E-02 
2129	 3.55392516958986E-02 
2130	 2.88869702744709E-02 
2131	 3.93211569477086E-02 
2132	 3.25818711118597E-02 
2133	 2.19155947049842E-02 
2134	 2.55205808184899E-02 
2135	 4.03042805325354E-02 
2136	 4.68753978620928E-02 
2137	 6.18324512602709E-02 
2138	 6.47533408099966E-02 
2139	 5.89089360261684E-02 
2140	 6.06467579954207E-02 
2141	 5.99467196594171E-02 
2142	 5.72684418471035E-02 
2143	 6.16984650369886E-02 
2144	 0.051900433675891 
2145	 3.75940244940003E-02 
2146	 3.59971094389212E-02 
2147	 3.18939899929299E-02 
2148	 2.42641558095866E-02 
2149	 2.97492546099577E-02 
2150	 3.49210732856285E-02 
2151	 5.48012360985148E-02 
2152	 6.71421494413796E-02 
2153	 4.84757972275098E-02 
2154	 4.46315351146004E-02 
2155	 3.58872577535199E-02 
2156	 1.51525496506688E-02 
2157	 1.37792266941127E-02 
2158	 2.75448250266522E-02 
2159	 0.031233255534353 
2160	 4.00003348444749E-02 
2161	 4.74584567297833E-02 
2162	 5.26463264997587E-02 
2163	 5.95013388885905E-02 
2164	 7.44707226275801E-02 
2165	 7.45397393183827E-02 
2166	 6.40688315291122E-02 
2167	 0.056278026321175 
2168	 2.92733260592163E-02 
2169	 2.60780326833299E-02 
2170	 4.55569517562563E-02 
2171	 5.00485977158957E-02 
2172	 4.68719248313382E-02 
2173	 3.95359757107343E-02 
2174	 1.74324528325183E-02 
2175	 2.29322536061226E-02 
2176	 4.96077877056876E-02 
2177	 6.88469414230628E-02 
2178	 0.074273882081322 
2179	 6.00088314016601E-02 
2180	 5.09916181829196E-02 
2181	 5.22189629818149E-02 
2182	 6.03722880255072E-02 
2183	 5.81232430762754E-02 
2184	 3.72731955238956E-02 
2185	 0.021242502481454 
2186	 1.48043330502591E-02 
2187	 1.50141801556943E-02 
2188	 1.95757758772788E-02 
2189	 4.15168370666767E-02 
2190	 4.22847122764108E-02 
2191	 3.10571179532602E-02 
2192	 2.81200401067448E-02 
2193	 1.95157545775577E-02 
2194	 2.00336326095149E-02 
2195	 2.81835572145848E-02 
2196	 3.73709487175773E-02 
2197	 5.26593442323067E-02 
2198	 5.74506563230986E-02 
2199	 5.27733181871674E-02 
2200	 6.54673664711758E-02 
2201	 8.85855041530431E-02 
2202	 9.73946264625092E-02 
2203	 9.70999458873635E-02 
2204	 8.07919375155394E-02 
2205	 4.65063693954114E-02 
2206	 3.28816091649584E-02 
2207	 3.49068825725899E-02 
2208	 4.66086532323079E-02 
2209	 4.84036891842669E-02 
2210	 3.30583997898285E-02 
2211	 2.17786580409483E-02 
2212	 1.64520765152096E-02 
2213	 1.95366317839822E-02 
2214	 1.84394560005263E-02 
2215	 2.60702325413287E-02 
2216	 3.68485867410995E-02 
2217	 4.01567996026857E-02 
2218	 4.68088717591131E-02 
2219	 5.01746958606992E-02 
2220	 3.47591246938467E-02 
2221	 3.92245701225188E-02 
2222	 5.77310694533286E-02 
2223	 6.61516504183318E-02 
2224	 8.76541018461974E-02 
2225	 9.36474920316627E-02 
2226	 8.68620611482765E-02 
2227	 7.84425021392314E-02 
2228	 5.28126055027312E-02 
2229	 4.80222481269182E-02 
2230	 0.054741012364827 
2231	 0.049638864383174 
2232	 6.15196642014378E-02 
2233	 5.26227274565722E-02 
2234	 1.36490702580153E-02 
2235	-5.38691405885198E-03 
2236	-7.8583073081785E-03 
2237	-1.35164633295486E-02 
2238	 0.025302819219361 
2239	 8.61122625501272E-02 
2240	 0.134831633061721 
2241	 0.148357707984231 
2242	 0.120646279630967 
2243	 7.70424331123083E-02 
2244	 0.043138176683848 
2245	 4.00346506301081E-02 
2246	 4.35700302932157E-02 
2247	 5.28093302171876E-02 
2248	 4.53743373055007E-02 
2249	 0.02117479470221 
2250	 1.43854023636885E-02 
2251	 8.57211677507764E-05 
2252	-1.31188610603609E-02 
2253	 1.14370857514988E-02 
2254	 5.34711722364164E-02 
2255	 8.89841315624546E-02 
2256	 0.108478655641021 
2257	 8.67709037469948E-02 
2258	 0.065120562040229 
2259	 5.39246401576721E-02 
2260	 3.98589088178546E-02 
2261	 0.044588033754998 
2262	 4.28372169502381E-02 
2263	 2.04314372787529E-02 
2264	 2.26214153802795E-02 
2265	 4.80966753273369E-02 
2266	 4.87335307454925E-02 
2267	 4.55568978775803E-02 
2268	 4.09304007881916E-02 
2269	 0.016042047674187 
2270	 0.013969039105087 
2271	 3.28994518395054E-02 
2272	 4.67663366086236E-02 
2273	 7.59265353663146E-02 
2274	 8.38259155978453E-02 
2275	 7.71056568933348E-02 
2276	 7.53898217597613E-02 
2277	 5.21411127478843E-02 
2278	 5.36959226965465E-02 
2279	 7.56613935891156E-02 
2280	 7.65431875406778E-02 
2281	 7.90533535123409E-02 
2282	 7.95537616297012E-02 
2283	 5.32656166656753E-02 
2284	 7.13838016530866E-02 
2285	 9.16586812806431E-02 
2286	 0.104746971818842 
2287	 0.135288276351221 
2288	 0.124233974662334 
2289	 7.71948309214647E-02 
2290	 3.35625513629735E-02 
2291	 3.44187934875301E-02 
2292	 3.56075789346102E-02 
2293	 9.99147409902175E-03 
2294	 4.17929519681758E-02 
2295	 4.16633069849031E-02 
2296	-9.50966185119382E-03 
2297	 2.81714478396904E-02 
2298	 7.97583293342304E-02 
2299	 0.117274304564178 
2300	 0.177201664416267 
2301	 0.213782112972085 
2302	 0.189756279027579 
2303	 0.117884583755579 
2304	 3.56284156348207E-02 
2305	-4.06748921333707E-02 
2306	-4.75885581304319E-02 
2307	-3.02582557943457E-02 
2308	-2.34909500442244E-02 
2309	-9.29980645658561E-03 
2310	 7.12073480446238E-02 
2311	 0.117760523503368 
2312	 0.138356038385569 
2313	 0.248889299597304 
2314	 0.233749392801754 
2315	 0.164161018463057 
2316	 0.175483348392114 
2317	 0.168325159927652 
2318	 6.15853381877787E-02 
2319	-1.33507573340032E-02 
2320	-3.36547310713409E-02 
2321	-0.135661744691645 
2322	-0.164509251785719 
2323	-0.059842135800924 
2324	 3.45631514660804E-02 
2325	 0.174634720830993 
2326	 0.29850837951115 
2327	 0.308394598252312 
2328	 0.201791568255342 
2329	 8.24339100720716E-02 
2330	 0.147382169738751 
2331	 0.180666872924813 
2332	 0.166605216233979 
2333	 0.190538530770925 
2334	 0.175495398935532 
2335	 0.151819813532996 
2336	 0.224185087331361 
2337	 0.264178581579991 
2338	 0.205844393082632 
2339	 0.210425437656573 
2340	 2.04381273000169E-02 
2341	-0.108607908514819 
2342	-0.125567885287892 
2343	-0.20663196758053 
2344	-9.11344458461743E-02 
2345	-0.150608412992526 
2346	-0.236376667619698 
2347	-0.155288589698824 
2348	-0.341367986272988 
2349	-0.341399767560229 
2350	-0.280312043842927 
2351	-0.315590571038682 
2352	-0.263201508258631 
2353	-9.21605179540455E-02 
2354	 3.97003195917184E-02 
2355	 3.6167249557099E-03 
2356	 0.201722206224828 
2357	 0.301717051618028 
2358	 0.205585141052447 
2359	 0.15001957997964 
2360	-7.02142127866664E-02 
2361	-0.413805040271562 
2362	-0.48096936663051 
2363	-0.351712110476241 
2364	-0.150742086194494 
2365	 8.52440863882662E-02 
2366	 0.11175047454109 
2367	 0.218830892563254 
2368	 0.260738148348188 
2369	 0.22780906990396 
2370	 7.31527062701452E-02 
2371	-0.168931577435688 
2372	-0.285234205116927 
2373	-0.314389406773337 
2374	-0.211068874849416 
2375	-7.87982572077868E-02 
2376	 0.352016921940353 
2377	 2.63883082673436E-02 
2378	-9.21744307616016E-02 
2379	 5.54808835373954E-02 
2380	-0.203733265050148 
2381	-0.291570160266225 
2382	-0.109934581372985 
2383	 0.208695692886252 
2384	 0.858176159181961 
2385	 2.32708732089319 
2386	-2.26078502054498 
2387	-2.42717809435019 
2388	-6.27885710414377 
2389	-27.2436262240702 
2390	-13.3746395913255 
2391	-1.57249370781549 
2392	-2.17069353047867 
2393	 68.4892900475609 
2394	-9.30228125162176E-02 
2395	 12.4261353484601 
2396	 16.2500052520305 
2397	 2.3124012178124 
2398	 39.03091654423 
2399	-2.41059629174653 
2400	 9.06322542306058 
2401	-5.68002206133374 
2402	-1.30218928999366 
2403	-1.70494687711433 
2404	-3.580380363801 
2405	-1.62427996414229 
2406	-5.57383405399889 
2407	 2.38346462691179 
2408	-0.128713699600214 
2409	-5.92445052594306E-02 
2410	-0.200700259278146 
2411	-0.326192329884256 
2412	 1.30726066767036 
2413	 1.24393797619687 
2414	-0.319190772856526 
2415	-0.359275202089877 
2416	 4.68015545974722 
2417	 1.35679987576967 
2418	-0.261395272215142 
2419	-0.494482807487286 
2420	-0.5190965328429 
2421	-0.765847593429108 
2422	-1.02324212469344 
2423	-0.4350327623352 
2424	 0.426249425604262 
2425	-0.502571068473983 
2426	 5.45828596625856 
2427	 0.630028485469541 
2428	 1.2200091681029 
2429	 2.17496761783558 
2430	-4.62472905020698 
2431	 2.4385440602612 
2432	 1.43429763705755 
2433	 2.63000497786123 
2434	 1.51638602537668 
2435	 0.825233276165812 
2436	 0.545027113834995 
2437	 0.418980998073409 
2438	 1.78641296770774 
2439	-0.754613625643297 
2440	-0.446508943625016 
2441	-0.592406699960806 
2442	-1.7362692490727 
2443	 1.55302593024246E-02 
2444	 0.283144446532436 
2445	 3.53519049286642 
2446	-3.19041217243032 
2447	-6.32928463267013 
2448	 4.81118105527823 
2449	 0.692381338917955 
2450	 0.36226984843976 
2451	-4.82641351171343E-02 
2452	-0.305544006656139 
2453	 0.907674188712989 
2454	 0.517138787164421 
2455	 0.133220370338826 
2456	 8.32879995277395E-02 
2457	-0.013396099454965 
2458	-9.77074228068978E-02 
2459	-3.01709632982957E-03 
2460	 0.144939981473187 
2461	-0.230550566998429 
2462	-0.131241992184809 
2463	 0.30624061454337 
2464	-1.46347376232014 
2465	-1.44692420492539 
2466	-1.41871159568745 
2467	-1.01577411651972 
2468	 0.498211300380482 
2469	-73.255441214778 
2470	-2.31882450940563 
2471	-0.50867607629868 
2472	-0.111301760741368 
2473	 0.297163531669982 
2474	 0.731335297063499 
2475	 3.02306053309353 
2476	 1.79363845816443 
2477	-0.248240504857925 
2478	-0.429830952635095 
2479	-0.301531989570904 
2480	-0.273849880738325 
2481	 0.189611847801434 
2482	 0.604880431738577 
2483	 0.140529226628362 
2484	 0.2512839474319 
2485	 5.67413041109638 
2486	-3.31097306043873 
2487	-7.2767073954844 
2488	 3.92294334418537 
2489	 14.3602421320415 
2490	 26.8870478751404 
2491	 19.4059227877411 
2492	-2.80953864229501 
2493	-2.24349087378797 
2494	-2.43434186837603 
2495	 5.21487920113355 
2496	 2.1001134983878 
2497	 0.602872860450681 
2498	 0.770368797272003 
2499	 0.626746527496467 
2500	 7.37357616564136E-02 
