Wavelength	rt0712west_far200009.asd
350	 8.41365246846472E-02 
351	 8.34318875813827E-02 
352	 8.28745296642806E-02 
353	 8.32593971423553E-02 
354	 8.42493518416689E-02 
355	 8.34824322483716E-02 
356	 0.083554896836227 
357	 8.40256396019123E-02 
358	 8.38426359725681E-02 
359	 8.36755988004267E-02 
360	 0.083817157885416 
361	 8.42861732038498E-02 
362	 8.48554520574953E-02 
363	 8.48712746083108E-02 
364	 8.48666394113811E-02 
365	 8.49579500994665E-02 
366	 8.43718865252269E-02 
367	 8.47352479365935E-02 
368	 8.51097437187223E-02 
369	 8.45701194415915E-02 
370	 8.47608601418205E-02 
371	 8.49957951668984E-02 
372	 8.50350783365971E-02 
373	 8.49771626127349E-02 
374	 8.53390084876885E-02 
375	 8.55182184010176E-02 
376	 8.53844835927872E-02 
377	 8.56065712897885E-02 
378	 8.60222079557853E-02 
379	 8.63125970460545E-02 
380	 8.62670386483035E-02 
381	 8.61131174082508E-02 
382	 8.59949654595806E-02 
383	 8.63214863263125E-02 
384	 8.73389819699086E-02 
385	 8.76067058534362E-02 
386	 8.70808251225973E-02 
387	 8.65686522742431E-02 
388	 8.75255933684727E-02 
389	 8.78135752986464E-02 
390	 8.80519350444131E-02 
391	 8.87515973757897E-02 
392	 8.88476346362842E-02 
393	 0.088251816273203 
394	 8.78712946030994E-02 
395	 8.86082229417282E-02 
396	 8.95237141885518E-02 
397	 0.089155919033933 
398	 8.83549928116407E-02 
399	 8.96715216363735E-02 
400	 8.98008029256836E-02 
401	 8.94964691915414E-02 
402	 8.96507568091044E-02 
403	 9.00796585006774E-02 
404	 8.97572794679401E-02 
405	 8.93581638121705E-02 
406	 8.99035962191527E-02 
407	 9.03640472886461E-02 
408	 9.04910617258357E-02 
409	 9.04426577327105E-02 
410	 9.06867900169761E-02 
411	 9.07803135606951E-02 
412	 9.09499769118295E-02 
413	 9.13573654084833E-02 
414	 9.17820521746745E-02 
415	 9.18364684049505E-02 
416	 9.17510841701972E-02 
417	 9.19509146321377E-02 
418	 9.22216430108523E-02 
419	 9.26512978082739E-02 
420	 0.093154400856709 
421	 9.34488271784154E-02 
422	 9.33875566674859E-02 
423	 9.34682773012302E-02 
424	 0.093966622410086 
425	 9.41393005005465E-02 
426	 9.45827164957198E-02 
427	 9.51876369586558E-02 
428	 9.55337341401691E-02 
429	 9.55729934417241E-02 
430	 9.61076367220384E-02 
431	 9.70143315593965E-02 
432	 9.70370702288988E-02 
433	 9.69787068112918E-02 
434	 9.73180440245196E-02 
435	 9.80548628167804E-02 
436	 9.79808156131816E-02 
437	 9.82766306026546E-02 
438	 9.89426615610939E-02 
439	 9.93333576087723E-02 
440	 9.94113718230077E-02 
441	 9.97922133212629E-02 
442	 0.100558045760148 
443	 0.100910403672061 
444	 0.101248198609615 
445	 0.101542481334197 
446	 0.101769097372271 
447	 0.102401868438019 
448	 0.102564418309366 
449	 0.102452719684287 
450	 0.102981106532897 
451	 0.103302739966663 
452	 0.103519145083833 
453	 0.103786920901966 
454	 0.104092578878675 
455	 0.104401646076377 
456	 0.104527957542532 
457	 0.104424317650189 
458	 0.105066245257466 
459	 0.105356268178239 
460	 0.105126478752478 
461	 0.105235218080783 
462	 0.105602122526564 
463	 0.105964996520184 
464	 0.106108175877474 
465	 0.106023166200826 
466	 0.106387603173102 
467	 0.106844290387499 
468	 0.106688434605038 
469	 0.106934250204529 
470	 0.107246319506776 
471	 0.10739491443191 
472	 0.107461824037206 
473	 0.107485361823436 
474	 0.107788271175273 
475	 0.108472953987818 
476	 0.108649703796941 
477	 0.108811719933803 
478	 0.10910724757685 
479	 0.109444575868838 
480	 0.110007216722709 
481	 0.110182730182285 
482	 0.109942952851056 
483	 0.1106723502896 
484	 0.111035186460247 
485	 0.111096982746254 
486	 0.111387961627381 
487	 0.111906954672634 
488	 0.11251358992039 
489	 0.112951922089377 
490	 0.112923118876139 
491	 0.113462936162498 
492	 0.114155185411952 
493	 0.114528340940515 
494	 0.114770114610454 
495	 0.115059268231927 
496	 0.115482471494103 
497	 0.116037328626103 
498	 0.116524259725966 
499	 0.116856789882941 
500	 0.117099570472807 
501	 0.117523811688258 
502	 0.118033251674443 
503	 0.118464606951979 
504	 0.118729425348036 
505	 0.119077242873576 
506	 0.119789337398633 
507	 0.120555824193046 
508	 0.120704598630348 
509	 0.121234534984538 
510	 0.121954429434274 
511	 0.122561527302349 
512	 0.122903927607767 
513	 0.123633276091333 
514	 0.124479664219531 
515	 0.124877112923227 
516	 0.125393329053458 
517	 0.126054681133935 
518	 0.126794049360045 
519	 0.127494400762088 
520	 0.128050904171391 
521	 0.128560707691257 
522	 0.129180081154215 
523	 0.130106077481546 
524	 0.130889527351695 
525	 0.13151884923991 
526	 0.132278117362951 
527	 0.132861779254229 
528	 0.133370033126741 
529	 0.133982594825457 
530	 0.134980924967069 
531	 0.135607983352616 
532	 0.13616141486157 
533	 0.137166010554165 
534	 0.137908094950109 
535	 0.138654364982791 
536	 0.139489337965675 
537	 0.140216815795896 
538	 0.14075586661124 
539	 0.141379323682023 
540	 0.142265540333873 
541	 0.142992295202591 
542	 0.143556798167675 
543	 0.144196294204643 
544	 0.145217919679612 
545	 0.145905475004713 
546	 0.146796502000785 
547	 0.148033493629999 
548	 0.148704674524642 
549	 0.149386351534936 
550	 0.150206700126964 
551	 0.1510965679737 
552	 0.151748168913901 
553	 0.152489653749258 
554	 0.153341447420835 
555	 0.153938370798218 
556	 0.154565226047954 
557	 0.155264845231435 
558	 0.156017660258026 
559	 0.156863656648597 
560	 0.157399126921225 
561	 0.157736988097082 
562	 0.158299481783466 
563	 0.158958190164999 
564	 0.159489362786819 
565	 0.159830649883219 
566	 0.160259389585398 
567	 0.160727945337312 
568	 0.16107234580689 
569	 0.161192093648019 
570	 0.161664792548421 
571	 0.162161152024426 
572	 0.16251733691026 
573	 0.162806744087829 
574	 0.162969894474646 
575	 0.163223560356931 
576	 0.163693695989549 
577	 0.164061141192282 
578	 0.164193553911456 
579	 0.16424711466939 
580	 0.164497805898799 
581	 0.164495938534677 
582	 0.164389132833061 
583	 0.164270200123512 
584	 0.16400386430865 
585	 0.163549234388854 
586	 0.162798211631556 
587	 0.161626175419465 
588	 0.160047002571397 
589	 0.159125654102423 
590	 0.159105512625527 
591	 0.159068600274453 
592	 0.159070078923979 
593	 0.158630992807368 
594	 0.157640363996931 
595	 0.157280125814155 
596	 0.156763434347023 
597	 0.156080079025817 
598	 0.155596123992715 
599	 0.15506551422002 
600	 0.15443973566539 
601	 0.153807686944177 
602	 0.153450448518441 
603	 0.153134509374688 
604	 0.152920544810531 
605	 0.152896791510989 
606	 0.152821634201536 
607	 0.152755734386515 
608	 0.152624304229365 
609	 0.152231563780581 
610	 0.152322882270272 
611	 0.152588439590925 
612	 0.152660506311475 
613	 0.152717884232091 
614	 0.152724266600649 
615	 0.152569525974311 
616	 0.152184631814057 
617	 0.152235578574865 
618	 0.152094903547548 
619	 0.151704747966274 
620	 0.152203971147268 
621	 0.151980263455334 
622	 0.151547652022518 
623	 0.151765053943327 
624	 0.151516105751505 
625	 0.15107718722242 
626	 0.150583426071217 
627	 0.150016373609411 
628	 0.149734752506662 
629	 0.149848565375101 
630	 0.150255655644788 
631	 0.150607626449485 
632	 0.150509830771632 
633	 0.150226494240557 
634	 0.150262354825306 
635	 0.15015224105506 
636	 0.150233047671553 
637	 0.150498586918378 
638	 0.150370984624633 
639	 0.150186637172327 
640	 0.150038098095378 
641	 0.149903171595733 
642	 0.149554439899664 
643	 0.149256912104579 
644	 0.148738581636412 
645	 0.147328607567912 
646	 0.146620149969919 
647	 0.146555527889658 
648	 0.146637157478419 
649	 0.146351346537062 
650	 0.146367690805565 
651	 0.146556800629023 
652	 0.146473143160993 
653	 0.145754751803809 
654	 0.144856389530461 
655	 0.144224684649101 
656	 0.144226570621305 
657	 0.143693667942355 
658	 0.143063856827022 
659	 0.142818799250381 
660	 0.142740359603981 
661	 0.142392620289846 
662	 0.141818585368665 
663	 0.141394919567531 
664	 0.141452062382064 
665	 0.141638108834389 
666	 0.141560581955816 
667	 0.140875809900457 
668	 0.140499916404815 
669	 0.140661219344738 
670	 0.141098996944444 
671	 0.140501356870155 
672	 0.140008213537623 
673	 0.140071123548642 
674	 0.140357174673751 
675	 0.140420846300657 
676	 0.140283478060449 
677	 0.140107200217433 
678	 0.140123163300318 
679	 0.140218272135914 
680	 0.140158995408758 
681	 0.139804096051726 
682	 0.140108331253501 
683	 0.140257241155892 
684	 0.139805692933735 
685	 0.138895761702831 
686	 0.138369349144372 
687	 0.138001446412177 
688	 0.137411528453154 
689	 0.137384682285021 
690	 0.137084713329926 
691	 0.136315468267775 
692	 0.135304394068288 
693	 0.13468298609902 
694	 0.134336856420763 
695	 0.134077763091777 
696	 0.133932184121706 
697	 0.13281450659695 
698	 0.131132570866476 
699	 0.129955100700982 
700	 0.129518719629018 
701	 0.128816487220966 
702	 0.127700965857977 
703	 0.12665373241167 
704	 0.125893320795989 
705	 0.124706680363112 
706	 0.122961250292594 
707	 0.121909198561952 
708	 0.120531194182869 
709	 0.118941708576874 
710	 0.117567241697877 
711	 0.115920191089187 
712	 0.114216254422872 
713	 0.112350549847973 
714	 0.109763109798137 
715	 0.106296455943235 
716	 0.10204885182368 
717	 0.098395291154341 
718	 0.096153387381928 
719	 9.44934917197212E-02 
720	 9.32169064585454E-02 
721	 9.20287659105675E-02 
722	 9.05147501020766E-02 
723	 8.81071106059097E-02 
724	 8.53763022436411E-02 
725	 8.35893953124889E-02 
726	 8.09594127921064E-02 
727	 7.86417955491261E-02 
728	 7.74821289599987E-02 
729	 7.58874539132337E-02 
730	 0.073839512256473 
731	 7.17975923030898E-02 
732	 7.00675554809009E-02 
733	 6.92625492412477E-02 
734	 6.82477557421074E-02 
735	 6.68734852642537E-02 
736	 6.63120872329929E-02 
737	 6.60013888042138E-02 
738	 6.57724197448741E-02 
739	 0.065532028667233 
740	 6.50816029139482E-02 
741	 6.48914023037016E-02 
742	 6.51014941745441E-02 
743	 6.55644632661326E-02 
744	 6.54205094500847E-02 
745	 6.51428300140384E-02 
746	 6.50103957951991E-02 
747	 0.064866398647913 
748	 6.49686673585032E-02 
749	 6.50454022240333E-02 
750	 6.48875180872819E-02 
751	 6.49396833762232E-02 
752	 0.065040047484159 
753	 6.49812560153812E-02 
754	 6.46015937157336E-02 
755	 6.42594911336944E-02 
756	 6.41947379413063E-02 
757	 6.43795180588173E-02 
758	 6.44442993203401E-02 
759	 6.36504070085298E-02 
760	 6.15711296957737E-02 
761	 6.07686277412735E-02 
762	 6.14821676909784E-02 
763	 6.17095240714497E-02 
764	 6.22366988907668E-02 
765	 6.37020680240306E-02 
766	 6.38272718466255E-02 
767	 6.37659771285088E-02 
768	 6.40812262610809E-02 
769	 6.49328227189726E-02 
770	 6.51369879715941E-02 
771	 6.49074417728887E-02 
772	 6.47517898898935E-02 
773	 6.51792223387603E-02 
774	 6.55821491926217E-02 
775	 6.57171462739454E-02 
776	 6.56119260920047E-02 
777	 6.57998802057292E-02 
778	 6.59131604269949E-02 
779	 6.59710641505564E-02 
780	 6.63992274212272E-02 
781	 6.64211039958151E-02 
782	 0.066538978407513 
783	 6.70181883756333E-02 
784	 6.70096904791462E-02 
785	 6.70749924386321E-02 
786	 6.71707716106213E-02 
787	 6.71064957059608E-02 
788	 6.71740787250448E-02 
789	 6.74358180648666E-02 
790	 6.81206736030584E-02 
791	 6.93848122761215E-02 
792	 6.94563689527592E-02 
793	 6.92783326813737E-02 
794	 6.94083872872084E-02 
795	 6.92045566013468E-02 
796	 0.069515666302926 
797	 7.03167938081757E-02 
798	 7.11330498407605E-02 
799	 7.08446227483976E-02 
800	 7.07398679015096E-02 
801	 0.071068809155512 
802	 7.14177541566302E-02 
803	 7.18939478878074E-02 
804	 7.21517642869299E-02 
805	 7.21612115978658E-02 
806	 7.22056635771016E-02 
807	 7.22656428748986E-02 
808	 7.16361842019644E-02 
809	 7.02904240198297E-02 
810	 7.07523870482999E-02 
811	 7.07183401905782E-02 
812	 6.98590962356153E-02 
813	 6.88287358695132E-02 
814	 6.78925817418689E-02 
815	 6.72022163616817E-02 
816	 6.70718553208755E-02 
817	 6.75573377484672E-02 
818	 6.67329479400764E-02 
819	 6.60016611985747E-02 
820	 6.59239388798285E-02 
821	 6.60755797300548E-02 
822	 6.42246194575295E-02 
823	 6.23574058618009E-02 
824	 6.20978205223928E-02 
825	 6.16162508644306E-02 
826	 6.01734594045525E-02 
827	 5.86585099010286E-02 
828	 5.83631140724202E-02 
829	 5.69026675801115E-02 
830	 5.60214114490009E-02 
831	 5.59571057323422E-02 
832	 5.58201330016095E-02 
833	 5.55140667915704E-02 
834	 5.52028679972621E-02 
835	 5.49632889557959E-02 
836	 5.47284447826662E-02 
837	 5.49364778397514E-02 
838	 5.51723254741857E-02 
839	 5.50937222588387E-02 
840	 5.49820258081769E-02 
841	 5.45252063574146E-02 
842	 5.41413515560706E-02 
843	 5.42137544018424E-02 
844	 5.37608564536993E-02 
845	 5.36572595315779E-02 
846	 5.39620827786846E-02 
847	 5.41204492077357E-02 
848	 5.35887027601193E-02 
849	 5.33439374213385E-02 
850	 5.36041433747161E-02 
851	 5.33998256010986E-02 
852	 5.29601283590473E-02 
853	 5.28708281437571E-02 
854	 5.32421266072746E-02 
855	 5.30464516474343E-02 
856	 5.32116761016283E-02 
857	 0.053619329278145 
858	 5.37474802947698E-02 
859	 0.052587426866606 
860	 5.25087432539287E-02 
861	 5.29429377735208E-02 
862	 5.22571384035926E-02 
863	 5.23090444937317E-02 
864	 5.30411250704518E-02 
865	 5.35465264764518E-02 
866	 5.25968711447981E-02 
867	 5.25140430134956E-02 
868	 0.052650612903011 
869	 5.25029892281149E-02 
870	 5.23140817572494E-02 
871	 5.19708470675271E-02 
872	 5.17796283186227E-02 
873	 5.18456917315713E-02 
874	 5.16349530650273E-02 
875	 5.15236667302739E-02 
876	 5.15893531590505E-02 
877	 5.16133396883335E-02 
878	 5.06463869488716E-02 
879	 5.00494566728083E-02 
880	 5.02397509905679E-02 
881	 5.07859574822219E-02 
882	 0.049727708670395 
883	 5.00291312469242E-02 
884	 5.13667950735998E-02 
885	 5.09525309759825E-02 
886	 4.96326092673921E-02 
887	 0.049899256344289 
888	 5.12235894344458E-02 
889	 4.96846706082026E-02 
890	 4.87691388043709E-02 
891	 4.83361448921706E-02 
892	 4.78604667140997E-02 
893	 4.74061643410583E-02 
894	 4.77935126625912E-02 
895	 4.64427204000448E-02 
896	 4.24772498711172E-02 
897	 4.64746993526056E-02 
898	 4.87246810722355E-02 
899	 4.88616514113127E-02 
900	 4.94111069972719E-02 
901	 4.70565798330746E-02 
902	 4.49516415450928E-02 
903	 4.49804886521249E-02 
904	 4.74525093724073E-02 
905	 4.83061040172654E-02 
906	 4.59542554528608E-02 
907	 4.24209926548544E-02 
908	 4.26840973637395E-02 
909	 4.48687647897161E-02 
910	 4.34566062499061E-02 
911	 4.12153297683382E-02 
912	 4.67384729727219E-02 
913	 4.39196804225928E-02 
914	 4.13663560162111E-02 
915	 0.044560873312388 
916	 4.97441467655784E-02 
917	 4.37441348078745E-02 
918	 4.21687407877948E-02 
919	 4.74900460612435E-02 
920	 4.39302657692426E-02 
921	 4.69798721856689E-02 
922	 4.87430674058341E-02 
923	 4.38544792810976E-02 
924	 4.23311876964804E-02 
925	 3.94203787899745E-02 
926	 4.24174502189834E-02 
927	 5.36977710357399E-02 
928	 3.23136956217278E-02 
929	 4.27150648101646E-02 
930	 6.16155314334223E-02 
931	 7.51937194548888E-03 
932	 5.84598652531603E-02 
933	 6.32929041168549E-02 
934	 3.55748779781399E-02 
935	 7.94003152933977E-02 
936	 0.047113878234495 
937	 4.94049442803309E-02 
938	 5.58368073658749E-02 
939	 0.02129477207992 
940	 2.83086548705545E-02 
941	 0.03938955277037 
942	 3.63960107202994E-02 
943	 1.66826029966208E-02 
944	 8.48219090849857E-03 
945	 1.00820376079806E-02 
946	 2.37070461105986E-02 
947	 4.59996406483112E-02 
948	 5.71684714265887E-02 
949	 4.49235907573493E-02 
950	 2.84806996888404E-02 
951	 2.97274608283509E-02 
952	 1.01443108375489E-03 
953	 1.19492057385847E-02 
954	 4.43910076221221E-02 
955	 0.035750938362629 
956	 2.10164493182999E-02 
957	 3.27300561612963E-02 
958	 5.42042509995714E-02 
959	 4.89117479609588E-02 
960	 5.19070991668158E-02 
961	 3.68231593236283E-02 
962	 2.50470091886039E-02 
963	 5.06152044677137E-02 
964	 4.31032223424077E-02 
965	 2.59497388715672E-02 
966	 2.80622550286059E-02 
967	 6.06135003771592E-02 
968	 4.54073050772207E-02 
969	 3.56940676886691E-02 
970	 4.70270413377471E-02 
971	 5.48397449292225E-02 
972	 3.22401345024368E-02 
973	 2.62776481910438E-02 
974	 4.19325182824618E-02 
975	 3.82032649046351E-02 
976	 4.57484767375158E-02 
977	 4.84225740031372E-02 
978	 4.39013641029669E-02 
979	 4.31502807578287E-02 
980	 4.38575714354736E-02 
981	 4.18669223073222E-02 
982	 3.91426054009132E-02 
983	 0.0409624923294 
984	 4.34660305949575E-02 
985	 4.45986441306385E-02 
986	 4.48718523067307E-02 
987	 4.61262501739874E-02 
988	 4.82619563313386E-02 
989	 4.15022344381335E-02 
990	 3.61022672373991E-02 
991	 5.01321156174311E-02 
992	 5.11129630203837E-02 
993	 4.41175136567679E-02 
994	 4.16653284716561E-02 
995	 0.05266781261523 
996	 4.87743624244118E-02 
997	 4.80214792079193E-02 
998	 0.04877455783299 
999	 4.01890457583547E-02 
1000	 0.042192105272962 
1001	 4.95496194422754E-02 
1002	 5.17559853575584E-02 
1003	 5.31476255605455E-02 
1004	 5.46484599976206E-02 
1005	 5.47523575960323E-02 
1006	 5.37099442323959E-02 
1007	 5.28121376059832E-02 
1008	 5.06713816810679E-02 
1009	 5.03605828708697E-02 
1010	 0.05135682286699 
1011	 0.050160459392154 
1012	 4.86290772861661E-02 
1013	 4.80933032049453E-02 
1014	 4.80793543046413E-02 
1015	 4.83146234127071E-02 
1016	 4.82553423881542E-02 
1017	 4.98379219209198E-02 
1018	 5.00273818590636E-02 
1019	 4.80037823774434E-02 
1020	 4.82506286876729E-02 
1021	 5.08126298198245E-02 
1022	 4.91962836384078E-02 
1023	 4.96005283377662E-02 
1024	 5.42320007892119E-02 
1025	 5.63261042737207E-02 
1026	 5.68135175866019E-02 
1027	 5.72129680993704E-02 
1028	 5.72187276636749E-02 
1029	 5.54741219990907E-02 
1030	 0.052120332715624 
1031	 5.00993263556628E-02 
1032	 0.046492260631185 
1033	 4.47885321807741E-02 
1034	 4.45657259922605E-02 
1035	 4.45465985539976E-02 
1036	 4.48226856462459E-02 
1037	 4.61091998470679E-02 
1038	 0.048886008596165 
1039	 5.06865369750562E-02 
1040	 5.42925298466205E-02 
1041	 5.72515163462994E-02 
1042	 5.70479549439769E-02 
1043	 5.45199890856994E-02 
1044	 5.35305061714759E-02 
1045	 4.95513465438584E-02 
1046	 4.91460484371481E-02 
1047	 5.27468646907309E-02 
1048	 0.052861958006612 
1049	 5.22800217071462E-02 
1050	 5.17221173130164E-02 
1051	 4.88909738324437E-02 
1052	 4.77335555814595E-02 
1053	 4.75858281730245E-02 
1054	 4.76247990467508E-02 
1055	 4.84778953793987E-02 
1056	 4.90316517303871E-02 
1057	 4.96645930291087E-02 
1058	 5.10648983685545E-02 
1059	 5.09049139060013E-02 
1060	 4.96139768605219E-02 
1061	 4.93535215823285E-02 
1062	 4.90388674904257E-02 
1063	 4.82457193486172E-02 
1064	 4.73378648191233E-02 
1065	 0.047120945728709 
1066	 4.50995986895906E-02 
1067	 4.61225130127652E-02 
1068	 5.29964977362574E-02 
1069	 0.053878744840602 
1070	 5.19192605733817E-02 
1071	 0.051245584437274 
1072	 4.67975606180123E-02 
1073	 4.35046357323925E-02 
1074	 4.31841313865889E-02 
1075	 4.68636044700929E-02 
1076	 4.82407211566519E-02 
1077	 0.050436433507384 
1078	 0.051105741922914 
1079	 5.03124114584115E-02 
1080	 5.12019481290423E-02 
1081	 5.37198575857859E-02 
1082	 5.32022257348584E-02 
1083	 5.06295368704801E-02 
1084	 5.06728704766949E-02 
1085	 4.96252341789095E-02 
1086	 0.048897570832914 
1087	 5.28685731027481E-02 
1088	 5.31814572713974E-02 
1089	 4.87076451653137E-02 
1090	 4.66052576036972E-02 
1091	 4.47005984011391E-02 
1092	 0.041343090676869 
1093	 0.040950661210994 
1094	 4.39098019030069E-02 
1095	 4.45234087903361E-02 
1096	 4.67729665805854E-02 
1097	 4.65387975759511E-02 
1098	 4.10647303522499E-02 
1099	 4.12720568496792E-02 
1100	 4.53163940584624E-02 
1101	 0.046364965530602 
1102	 5.14306444904868E-02 
1103	 5.38312966080952E-02 
1104	 4.98387528312842E-02 
1105	 4.64367351231815E-02 
1106	 5.88119567254103E-02 
1107	 6.16136631131553E-02 
1108	 5.78044759308423E-02 
1109	 6.64904646843644E-02 
1110	 6.27226646479901E-02 
1111	 3.15278649327147E-02 
1112	 2.89539895497496E-02 
1113	 4.90249035453398E-02 
1114	 5.26693373486897E-02 
1115	 7.83704861705578E-02 
1116	 9.13845241713437E-02 
1117	 5.55250687838913E-02 
1118	 5.14033718704757E-02 
1119	 8.00785589417984E-02 
1120	 8.28620412070587E-02 
1121	 8.52197075263235E-02 
1122	 0.090609360346067 
1123	 3.51617422478242E-02 
1124	 0.110927976028856 
1125	 0.203202376565278 
1126	 0.156020425666119 
1127	 0.147547057812195 
1128	 0.11419460524931 
1129	 0.095355625941514 
1130	 0.15288575254775 
1131	 0.160834989185009 
1132	 0.105744460786497 
1133	 8.24975253291666E-02 
1134	 5.83638111821308E-02 
1135	 5.86718836692385E-02 
1136	 0.103388018925151 
1137	 0.117118400488547 
1138	 0.128913023366475 
1139	 0.144817458556835 
1140	 0.120606939008397 
1141	 9.75505575376344E-02 
1142	 0.144159303275562 
1143	 0.186371195257534 
1144	 0.201128472500329 
1145	 0.26002299643434 
1146	 0.266315602202954 
1147	 0.145537722494489 
1148	 0.115802604416198 
1149	 0.146535713306656 
1150	 0.118501535320295 
1151	 9.40367984556879E-02 
1152	 0.101322751692407 
1153	 0.100139149840726 
1154	 8.12468721781231E-02 
1155	 7.20676508502349E-02 
1156	 6.95265616616411E-02 
1157	 4.90662165576079E-02 
1158	 3.75059606086921E-02 
1159	 4.29427681229087E-02 
1160	 5.37795251349661E-02 
1161	 0.05694893838196 
1162	 5.42776475056354E-02 
1163	 4.79034468139661E-02 
1164	 4.05528862809123E-02 
1165	 3.97470304825264E-02 
1166	 4.38865084275351E-02 
1167	 0.045046064867444 
1168	 4.57093696359201E-02 
1169	 4.83171159866174E-02 
1170	 4.63107238950146E-02 
1171	 4.44288505864135E-02 
1172	 4.18928824726557E-02 
1173	 4.18693199505297E-02 
1174	 4.08439122468436E-02 
1175	 4.18796485809174E-02 
1176	 5.01895092437025E-02 
1177	 5.25978214204527E-02 
1178	 5.07113375512875E-02 
1179	 0.048149466359681 
1180	 0.040199843120004 
1181	 3.93440669337736E-02 
1182	 0.046046299918962 
1183	 5.15871322146514E-02 
1184	 5.57244903119204E-02 
1185	 5.27256773986271E-02 
1186	 4.59451900993218E-02 
1187	 4.65483237346879E-02 
1188	 0.049540889252941 
1189	 4.82389403341821E-02 
1190	 4.80314232421627E-02 
1191	 4.80119270916006E-02 
1192	 4.70779185348646E-02 
1193	 4.29717024697448E-02 
1194	 4.53918294839031E-02 
1195	 4.82653805367411E-02 
1196	 4.39786942791191E-02 
1197	 4.16914273198301E-02 
1198	 4.27751024272604E-02 
1199	 4.44942923183219E-02 
1200	 4.74955247495713E-02 
1201	 4.68932404614372E-02 
1202	 4.31160343298907E-02 
1203	 4.06214697005286E-02 
1204	 4.13423983668368E-02 
1205	 4.62214030325696E-02 
1206	 4.72712596520845E-02 
1207	 4.44242558746905E-02 
1208	 4.49278535262765E-02 
1209	 4.33207281984265E-02 
1210	 0.040831908613004 
1211	 4.20427330523301E-02 
1212	 4.01801285321205E-02 
1213	 3.71761644343713E-02 
1214	 3.83339219619008E-02 
1215	 4.43905757825008E-02 
1216	 4.85727521112459E-02 
1217	 4.72016274900907E-02 
1218	 4.68997126800114E-02 
1219	 4.49364568809798E-02 
1220	 3.99353729113115E-02 
1221	 4.03932567973008E-02 
1222	 4.39963452837938E-02 
1223	 4.46568298452465E-02 
1224	 4.36559543942493E-02 
1225	 4.29126361327577E-02 
1226	 4.27108301901659E-02 
1227	 4.03453690222521E-02 
1228	 4.13193784318423E-02 
1229	 4.56715818267651E-02 
1230	 4.36694227970577E-02 
1231	 4.14990838677064E-02 
1232	 0.043747046202585 
1233	 4.29259624193448E-02 
1234	 4.15583427971823E-02 
1235	 4.23566955281611E-02 
1236	 0.045559400333993 
1237	 4.55112178560008E-02 
1238	 4.41542207565107E-02 
1239	 4.58478012552568E-02 
1240	 4.56875601329222E-02 
1241	 4.52123374944226E-02 
1242	 4.48359404934214E-02 
1243	 4.35804079934465E-02 
1244	 4.33909826157433E-02 
1245	 4.25317072150325E-02 
1246	 4.28149747637325E-02 
1247	 4.43232041582164E-02 
1248	 0.042779363114189 
1249	 4.04513111238607E-02 
1250	 0.041320761107702 
1251	 4.13845731800788E-02 
1252	 4.14269630487739E-02 
1253	 4.40978134078595E-02 
1254	 4.53567669787028E-02 
1255	 4.57604441934177E-02 
1256	 0.045407517985557 
1257	 4.31173680307147E-02 
1258	 4.36932902134418E-02 
1259	 4.62778476086681E-02 
1260	 4.68458219064767E-02 
1261	 4.89521254723385E-02 
1262	 5.02216764872036E-02 
1263	 5.00797171958726E-02 
1264	 4.60137930986352E-02 
1265	 4.47051425029372E-02 
1266	 4.59168350070307E-02 
1267	 4.52066003396002E-02 
1268	 4.30579665285946E-02 
1269	 4.02888292706827E-02 
1270	 3.97419785759739E-02 
1271	 4.22629793287911E-02 
1272	 4.39282274865855E-02 
1273	 4.41592429228656E-02 
1274	 0.044608846254838 
1275	 4.38432857037813E-02 
1276	 4.32322918899102E-02 
1277	 4.59587963798911E-02 
1278	 4.73566956581047E-02 
1279	 4.55289209416519E-02 
1280	 4.39350242394485E-02 
1281	 4.42471443687101E-02 
1282	 4.65518463704563E-02 
1283	 4.71724086126397E-02 
1284	 0.047971913528002 
1285	 0.048827246553728 
1286	 0.049963310463531 
1287	 4.88571779043322E-02 
1288	 4.59552551981358E-02 
1289	 0.045227805902192 
1290	 4.34836486963889E-02 
1291	 4.16648479967025E-02 
1292	 4.42103023933062E-02 
1293	 4.53182864713637E-02 
1294	 4.48013393282562E-02 
1295	 4.49108259227888E-02 
1296	 0.04204817735047 
1297	 4.36629747054948E-02 
1298	 4.79271685663986E-02 
1299	 4.55082501128424E-02 
1300	 4.49993520481799E-02 
1301	 0.049069107839719 
1302	 4.67696271672854E-02 
1303	 4.01010316605024E-02 
1304	 3.86736808074069E-02 
1305	 3.74480180099015E-02 
1306	 3.55468085059427E-02 
1307	 0.035407076024882 
1308	 3.81558186998699E-02 
1309	 4.29600944218225E-02 
1310	 4.39066942900399E-02 
1311	 4.38668299683267E-02 
1312	 4.70364218371623E-02 
1313	 0.053239262371549 
1314	 0.050026303478688 
1315	 0.03942907132023 
1316	 0.040158656851971 
1317	 3.63094691887197E-02 
1318	 3.70496195473299E-02 
1319	 5.99639936491162E-02 
1320	 0.069343948162888 
1321	 7.52323894103506E-02 
1322	 6.32779160733112E-02 
1323	 5.22161052446953E-02 
1324	 6.62121446038067E-02 
1325	 6.69467171795281E-02 
1326	 5.27501860903007E-02 
1327	 5.91486924592875E-02 
1328	 6.06468749920539E-02 
1329	 4.70117090857535E-02 
1330	 0.04251661036294 
1331	 4.13785027806679E-02 
1332	 1.40251809734184E-02 
1333	 9.89521120567235E-03 
1334	 6.88038963273397E-02 
1335	 9.41692588276903E-02 
1336	 0.105945686091892 
1337	 0.117529631892911 
1338	 0.126723295367698 
1339	 0.138874254623682 
1340	 0.150858264051197 
1341	 0.154024833827226 
1342	 0.147334793431979 
1343	 0.136464334514165 
1344	 0.083633841119269 
1345	 8.13569283556566E-02 
1346	 0.169548486651561 
1347	 0.19797785638495 
1348	 0.148806876557733 
1349	 0.210384118765174 
1350	 0.362303366153365 
1351	 0.430524230145749 
1352	 0.52140295000743 
1353	 0.631412124621177 
1354	 0.574363810528551 
1355	 0.864767418970268 
1356	 3.66247038289691 
1357	 2.41270569138064 
1358	 6.52555650558108 
1359	-2.74385927836583 
1360	 2.08733322492714 
1361	 0.884863195990084 
1362	 0.984108416510203 
1363	 3.55508202231792 
1364	 3.63701278178977 
1365	 1.62099298023261 
1366	 1.49376374321123 
1367	 10.6222297130901 
1368	-9.15816011221101 
1369	-1.29772327479056 
1370	-0.988873595303771 
1371	-2.95999804168362 
1372	-8.70384468070699 
1373	 5.04150472813073 
1374	 34.0176585672734 
1375	-3.82143201421883 
1376	-22.4870931385322 
1377	 3.11429021863873 
1378	 3.29852159107513 
1379	 0.844824360643729 
1380	 0.348160119169229 
1381	-0.903924637137923 
1382	 0.165602332944485 
1383	 0.916921273717117 
1384	 0.962579609988346 
1385	 1.3118009090914 
1386	 1.87168731645092 
1387	 12.7602677006552 
1388	 29.8154082073157 
1389	 2.44161926331843 
1390	 3.37205923914224 
1391	 18.6607768299007 
1392	 6.30362875158259 
1393	 1.45247789771282 
1394	-4.13627111493208 
1395	-1.0656695274617 
1396	-1.05436256880638 
1397	-2.52988893530263 
1398	-2.24598544953532 
1399	-11.7211024982828 
1400	 1.61082238732473 
1401	 1.78091639593621 
1402	 1.31411406491249 
1403	 1.0173879515718 
1404	 2.1208243319616 
1405	 2.88959512251813 
1406	-6.66006267578229 
1407	-5.97966384929542 
1408	 0.79347468786603 
1409	 0.733313243812208 
1410	 2.42817166267825 
1411	 3.45351071112929 
1412	 4.94515363611744 
1413	 12.5133638519744 
1414	-4.67115999330355 
1415	-9.08874886873913 
1416	 5.64990333811997 
1417	 2.23663367984087 
1418	 0.39990019940615 
1419	 0.288867875846045 
1420	 0.619071922241252 
1421	 0.868105479990354 
1422	 2.60034177544859 
1423	 4.6869269503224 
1424	-1.56427678604725 
1425	-0.75085028779592 
1426	 5.87427012120692 
1427	 1.04081765587284 
1428	 0.224189173408548 
1429	 0.242729941789301 
1430	 0.69729269705839 
1431	 1.05487318166292 
1432	 2.38971194721248 
1433	 2.78747858471819 
1434	 1.42034658625925 
1435	 1.43922770092069 
1436	 6.91263887829126 
1437	 8.80189454808349 
1438	 0.499725176690601 
1439	-0.42523865362195 
1440	 2.80445420765937 
1441	-21.9921251720348 
1442	 1.46779065373164 
1443	 1.86101438825436 
1444	 1.80259031902152 
1445	 1.03374735251176 
1446	 0.907508868272914 
1447	 1.74842596459454 
1448	 1.67935125112874 
1449	 0.802591068843582 
1450	 2.02332278095241 
1451	 0.895357363715453 
1452	 1.13920714580117 
1453	 0.128530811282308 
1454	 0.155652043141577 
1455	 141.794482192101 
1456	 2.71841122008789 
1457	 0.826837356565764 
1458	 0.396350800023042 
1459	-0.323364018070308 
1460	-0.155136397517035 
1461	-0.138224404171878 
1462	-0.229014794514971 
1463	 1.38114580320926 
1464	 1.49193579833372 
1465	 0.80112422209334 
1466	 1.34033089044439 
1467	 0.66541639731628 
1468	 0.579213122579201 
1469	 0.743426891928008 
1470	 0.343661792737543 
1471	 6.28672930969862 
1472	 2.58712907666393 
1473	-101.86160459923 
1474	 3.84602149161866 
1475	 0.969649782118877 
1476	 0.80544095124893 
1477	 0.831746222849246 
1478	 0.897342798407287 
1479	 1.52087456095214 
1480	-100.948212198648 
1481	 209.803321735117 
1482	-37.3376044308017 
1483	-18.9468538224836 
1484	 38.5307659837534 
1485	 2.93473910725159 
1486	 1.76480367408884 
1487	 1.28556979295033 
1488	 1.35654146393273 
1489	 3.04862986384021 
1490	 2.36048778569151 
1491	 1.41888591097036 
1492	 1.22896045057441 
1493	 0.865434555301051 
1494	 0.681604019990551 
1495	 0.558057890098762 
1496	 0.483139679779172 
1497	 0.47661873687755 
1498	 0.376613947226077 
1499	 0.219043587845968 
1500	 0.1986165567939 
1501	 0.245423115391631 
1502	 0.195052108388609 
1503	 8.41161684256869E-02 
1504	 6.94022242543517E-02 
1505	 0.073956260037431 
1506	-2.54489753927968E-02 
1507	-4.99816205944111E-02 
1508	 5.75121974899897E-03 
1509	-4.37032125618333E-02 
1510	-3.33328404212494E-02 
1511	 8.26066358823297E-02 
1512	 8.70909707204546E-02 
1513	 3.50959965995142E-02 
1514	 5.90835116839735E-02 
1515	 0.106886479884932 
1516	 0.144733255847711 
1517	 0.145365779899719 
1518	 8.29253216650662E-02 
1519	 5.46819133952897E-02 
1520	 4.25331460746746E-02 
1521	 5.45858244225058E-02 
1522	 0.140886851062599 
1523	 0.138350011185421 
1524	 9.87074389974569E-02 
1525	 0.10083028818927 
1526	 0.100017701890919 
1527	 0.116629558479005 
1528	 0.129715116492915 
1529	 0.127397786224976 
1530	 0.114655717305887 
1531	 8.36794839530818E-02 
1532	 7.60962897998003E-02 
1533	 6.64674213278567E-02 
1534	 2.26243726738431E-02 
1535	 4.18888916184713E-02 
1536	 6.71829463387468E-02 
1537	 4.31176587654524E-02 
1538	 7.95611721984316E-02 
1539	 0.110483154067504 
1540	 8.75603492868232E-02 
1541	 8.24417339170902E-02 
1542	 0.08988180735177 
1543	 0.096895215915381 
1544	 0.105585968811548 
1545	 0.097568476745907 
1546	 8.14115872435848E-02 
1547	 6.07959093040381E-02 
1548	 0.04770685045927 
1549	 5.46382374569921E-02 
1550	 7.10997787298766E-02 
1551	 8.56985011950153E-02 
1552	 7.78928168238126E-02 
1553	 7.82810231003619E-02 
1554	 9.47988865691887E-02 
1555	 7.00467150803805E-02 
1556	 4.41352518772915E-02 
1557	 6.26515103983826E-02 
1558	 5.50444226593331E-02 
1559	 3.03047104860784E-02 
1560	 5.70414527212685E-02 
1561	 7.87505161192209E-02 
1562	 7.00208393978649E-02 
1563	 7.24135737610749E-02 
1564	 7.25993582053902E-02 
1565	 7.41055186637587E-02 
1566	 8.21721790189411E-02 
1567	 0.067410822159213 
1568	 4.14801371903233E-02 
1569	 3.74967803441336E-02 
1570	 5.34332686371426E-02 
1571	 6.50892762550026E-02 
1572	 7.18419075549984E-02 
1573	 7.73896248620419E-02 
1574	 7.54252166093678E-02 
1575	 8.19790035808525E-02 
1576	 0.107011052946069 
1577	 0.109232636621695 
1578	 7.23493053255483E-02 
1579	 6.05542219427793E-02 
1580	 7.23592308315307E-02 
1581	 7.69917189146173E-02 
1582	 9.11272483482988E-02 
1583	 9.83729496956167E-02 
1584	 9.52960477130539E-02 
1585	 8.82695234116133E-02 
1586	 7.45233321861075E-02 
1587	 7.30767507238989E-02 
1588	 7.82067136276752E-02 
1589	 6.73623209344435E-02 
1590	 5.94739151270072E-02 
1591	 6.22504029857244E-02 
1592	 5.88480228956981E-02 
1593	 6.71841933760136E-02 
1594	 8.95864155505129E-02 
1595	 8.47874942805723E-02 
1596	 6.95057825267953E-02 
1597	 7.64984722533473E-02 
1598	 6.80736237306963E-02 
1599	 5.01858817143647E-02 
1600	 4.62835487764698E-02 
1601	 4.73329734859048E-02 
1602	 5.70739941097824E-02 
1603	 0.070430172537013 
1604	 6.41381647708596E-02 
1605	 4.27573674919307E-02 
1606	 3.38325963022119E-02 
1607	 0.023738347940598 
1608	 1.88049191508945E-02 
1609	 2.98424366274783E-02 
1610	 1.94560022269819E-02 
1611	-3.94587643462912E-03 
1612	-2.27818870599666E-04 
1613	 2.12079894990611E-02 
1614	 2.70907390688321E-02 
1615	 1.50150278537119E-02 
1616	 1.71919263825749E-02 
1617	 2.63936803432951E-02 
1618	 1.93359827012181E-02 
1619	 2.21569452595018E-02 
1620	 2.90968598500882E-02 
1621	 1.33404702407616E-02 
1622	 1.30698290693474E-02 
1623	 3.29678525470421E-02 
1624	 3.81965181868025E-02 
1625	 3.33062998986047E-02 
1626	 1.76610949062667E-02 
1627	 3.51071371032303E-03 
1628	 7.19677600031806E-03 
1629	 2.25072499809067E-02 
1630	 3.64088985886505E-02 
1631	 3.74670351228927E-02 
1632	 4.51007553404272E-02 
1633	 5.24896396045768E-02 
1634	 4.59630681579626E-02 
1635	 3.92049284009843E-02 
1636	 3.66233235112013E-02 
1637	 4.22031096338809E-02 
1638	 5.08192768316668E-02 
1639	 4.96169712032547E-02 
1640	 0.036273536974577 
1641	 3.48795626612906E-02 
1642	 3.69605257119737E-02 
1643	 3.71284152801929E-02 
1644	 5.55832865537789E-02 
1645	 6.14597241782123E-02 
1646	 4.55667258321612E-02 
1647	 4.17361876157374E-02 
1648	 0.06327431861032 
1649	 8.10380358947918E-02 
1650	 7.76501706032739E-02 
1651	 7.45258137178405E-02 
1652	 0.0683859280521 
1653	 6.27244992795704E-02 
1654	 5.69988337887404E-02 
1655	 5.08318159655538E-02 
1656	 5.26199658691081E-02 
1657	 5.24477644079241E-02 
1658	 5.71681162183184E-02 
1659	 7.77466879250196E-02 
1660	 8.40746381862024E-02 
1661	 0.083123293635713 
1662	 0.078673752115315 
1663	 0.069537655608927 
1664	 7.03987540014543E-02 
1665	 0.065647289438842 
1666	 6.03059258013874E-02 
1667	 7.05976117074717E-02 
1668	 7.98762193985701E-02 
1669	 6.32707985997389E-02 
1670	 7.00746028922852E-02 
1671	 7.83742941429353E-02 
1672	 5.56571514681026E-02 
1673	 5.60366097434538E-02 
1674	 6.96854633198792E-02 
1675	 5.05863583358598E-02 
1676	 4.58065702152223E-02 
1677	 5.60938770095062E-02 
1678	 5.03315734452747E-02 
1679	 5.57752897415012E-02 
1680	 6.43960202572977E-02 
1681	 6.31804306346278E-02 
1682	 6.21544477363831E-02 
1683	 5.58938656964935E-02 
1684	 6.35437904602351E-02 
1685	 7.41192217081089E-02 
1686	 6.21677282953545E-02 
1687	 0.052013247988876 
1688	 5.46024993202373E-02 
1689	 5.82328782209677E-02 
1690	 6.50672688676649E-02 
1691	 0.07625708155468 
1692	 6.83881319653438E-02 
1693	 4.80067194081484E-02 
1694	 0.06007913268155 
1695	 7.48011472603022E-02 
1696	 5.61649853670705E-02 
1697	 4.62918189360111E-02 
1698	 4.00339841987371E-02 
1699	 3.09114901496166E-02 
1700	 4.77869931172027E-02 
1701	 5.68204092177228E-02 
1702	 0.044731168821326 
1703	 4.27872966396999E-02 
1704	 5.03368120030372E-02 
1705	 5.61935852632383E-02 
1706	 5.91561492131924E-02 
1707	 5.89291031392108E-02 
1708	 6.49971295590271E-02 
1709	 7.26584150822236E-02 
1710	 6.53025480764225E-02 
1711	 6.46355137889213E-02 
1712	 5.27960018604633E-02 
1713	 2.46845900114207E-02 
1714	 2.72896228920664E-02 
1715	 3.79233024763124E-02 
1716	 3.97123466641396E-02 
1717	 6.42789071576294E-02 
1718	 7.45948946115945E-02 
1719	 8.61915635573021E-02 
1720	 7.48927478691033E-02 
1721	 4.94506883200809E-02 
1722	 5.48243002132831E-02 
1723	 5.33674223727568E-02 
1724	 0.041090699280952 
1725	 5.73291572457537E-02 
1726	 5.87011486809119E-02 
1727	 0.033850958632187 
1728	 4.03922756763216E-02 
1729	 5.37427173093854E-02 
1730	 6.43090490407825E-02 
1731	 8.01545955193632E-02 
1732	 0.076013428696205 
1733	 7.05031356361496E-02 
1734	 5.89738640057047E-02 
1735	 4.93576926735006E-02 
1736	 9.20463734371225E-02 
1737	 0.11969616168333 
1738	 7.13280864066891E-02 
1739	 5.71884042301424E-02 
1740	 5.99226881806556E-02 
1741	 1.19841206101193E-02 
1742	 1.98829645983011E-02 
1743	 5.10507007054905E-02 
1744	 2.01315198195679E-02 
1745	 3.94050467808258E-02 
1746	 8.83832198143318E-02 
1747	 8.10109172782574E-02 
1748	 2.70797032814768E-02 
1749	 3.47802618848101E-02 
1750	 6.75895410396516E-02 
1751	 6.13916362485965E-02 
1752	 8.95154342831087E-02 
1753	 9.12172212949628E-02 
1754	 2.25408984591879E-03 
1755	-1.15848839015885E-02 
1756	 5.20013541702638E-02 
1757	 4.80663558168592E-02 
1758	 4.76133039520038E-02 
1759	 0.077800441492504 
1760	 7.13513996441254E-02 
1761	 0.041668933070391 
1762	 6.31713078883512E-02 
1763	 5.81143694619722E-02 
1764	 1.78803668150789E-02 
1765	 4.22854413224357E-02 
1766	 5.67141968869899E-02 
1767	 4.27722210748525E-02 
1768	 0.140601713317677 
1769	 0.270628085721764 
1770	 0.279067257261081 
1771	 0.235251004426184 
1772	 0.151589930779416 
1773	 4.20823163392325E-02 
1774	 2.60493293300738E-02 
1775	 0.22796322500283 
1776	 0.284192636230491 
1777	 0.249706186332568 
1778	 0.244064417835662 
1779	 0.168973737315242 
1780	 0.132239968348996 
1781	 0.148695867795761 
1782	 0.126722151524589 
1783	 0.156653517264195 
1784	 0.187591805048244 
1785	 0.143580941088694 
1786	 0.192564600320529 
1787	 0.370854095293495 
1788	 0.351407556560346 
1789	 0.322556669680487 
1790	 0.170769736848778 
1791	 8.29159592626958E-02 
1792	 0.181037651725882 
1793	-0.070522574831539 
1794	-0.037881240982048 
1795	 0.523214006368664 
1796	 0.932688127234124 
1797	 1.58479410707734 
1798	 2.87723169190907 
1799	 20.1175766708227 
1800	 2.6068046745345 
1801	 1.88160341853806 
1802	 1.31865121368136 
1803	 1.22441803567229 
1804	 2.116303859941 
1805	 3.38645883951266 
1806	 5.3324126277773 
1807	-14.2037881569273 
1808	-0.550220864036786 
1809	-0.489082999582718 
1810	 5.37198020505002E-02 
1811	-0.405885230293712 
1812	-1.67730244520609 
1813	-2.5554283741129 
1814	 1.28725200807411 
1815	 0.869577714703989 
1816	 0.799232361506561 
1817	 1.37390558798022 
1818	 2.60537621631848 
1819	 2.03191315765917 
1820	 12.6683700052402 
1821	-3.52629149425709 
1822	-2.7300319512105 
1823	 0.800997360935047 
1824	 1.92876929722663 
1825	-1.40727418111155 
1826	-1.04671338601623 
1827	-0.144433610107121 
1828	 0.962775811824809 
1829	-1.13762780469407 
1830	-0.821321034345963 
1831	-0.968886648859812 
1832	 0.74108872030457 
1833	-4.26724131192772 
1834	-5.00191329414136 
1835	-6.1558090848467 
1836	-48.6776090703572 
1837	 0.635733068773806 
1838	 0.325799400652052 
1839	-1.74856063009112E-02 
1840	-3.1519710171953 
1841	 0.12004450189485 
1842	 0.285444728252857 
1843	 3.34827235060593E-02 
1844	-1.87587974145698 
1845	-2.04779605830026 
1846	-0.246981445405937 
1847	-0.291838343120599 
1848	-2.11772294344774E-02 
1849	 4.75870488704372 
1850	 0.268932900396736 
1851	 1.28812209539895 
1852	-0.487538673689224 
1853	-0.656972839922634 
1854	-0.618086671884935 
1855	-0.677926363661284 
1856	-0.591472867475337 
1857	-0.37102018821999 
1858	-0.344245238670665 
1859	-0.3793286271268 
1860	-0.465838182191632 
1861	-0.769039021789048 
1862	-0.607313459384699 
1863	-0.387682529507689 
1864	-0.42624878046603 
1865	-0.318515631047254 
1866	-5.63130236043993E-02 
1867	-6.16128807885154E-02 
1868	 0.146494698251797 
1869	-0.393208552832767 
1870	 0.328225046470009 
1871	 0.549754185634864 
1872	 0.46659044738926 
1873	 0.27709987043075 
1874	-3.56001770812892E-03 
1875	-0.101607363932268 
1876	-1.85438682346571E-02 
1877	 0.510784594890602 
1878	 0.371156211436648 
1879	-0.642500098439944 
1880	-0.795512303568805 
1881	-0.582852275971364 
1882	-1.64715256128513 
1883	-3.12919708023836 
1884	 0.226101537918927 
1885	-8.69694818773656E-02 
1886	 0.401578246751297 
1887	 0.599070067224874 
1888	 0.459030440994146 
1889	 0.441627218954569 
1890	 0.424559930622574 
1891	 0.464005123628995 
1892	 0.525884856419456 
1893	 1.14478399028573 
1894	 2.48664521272342 
1895	-0.450792499682893 
1896	 0.674432958919847 
1897	 0.991915736920915 
1898	 0.95469276539404 
1899	 0.827651913430008 
1900	 0.749754901801433 
1901	 2.74844753501833E-02 
1902	-0.251536641756316 
1903	 0.652026788502586 
1904	 1.05191789576227 
1905	 0.319892033176579 
1906	 1.3508833877317 
1907	 1.26607819317441 
1908	 1.24668825179493 
1909	 0.858161566379791 
1910	 1.28395100213648 
1911	 1.54072096051206 
1912	 0.013092964292141 
1913	-1.19598900084802E-02 
1914	-1.36734714844358 
1915	-1.382347116619 
1916	-0.76990621333937 
1917	-0.604604025621944 
1918	 0.569086663868723 
1919	 18.3395228746669 
1920	-4.94513276882619 
1921	 3.41090810322046 
1922	 1.09498133707662 
1923	 1.27870489736785 
1924	 1.09616432122576 
1925	 1.02518671397694 
1926	 0.945986504120211 
1927	 0.727375483701857 
1928	 0.425861753853291 
1929	-7.46610125701793E-02 
1930	-3.65670040648837 
1931	-0.471494241882859 
1932	-0.113094940548763 
1933	 0.155159457582729 
1934	 0.811318761022536 
1935	-2.09066957958854 
1936	 0.766472865979171 
1937	 0.140981367513358 
1938	 3.31499307966655E-02 
1939	-8.18395538089242E-03 
1940	-0.133468623733096 
1941	-1.15508462579417 
1942	-0.847122616772623 
1943	-1.27854871532382 
1944	-2.07624492290945 
1945	-2.04172281699164 
1946	-2.75791569258936 
1947	-1.9007591000376 
1948	-1.02626521512083 
1949	-1.18478759253709 
1950	-3.3627784796886 
1951	 5.04336776954264 
1952	 2.35192385642022 
1953	 1.67821334367882 
1954	 0.999048132054945 
1955	 0.702051393099826 
1956	 1.15643045376033 
1957	 0.27165265195185 
1958	-1.02805191490788 
1959	 6.25164667333795 
1960	 3.95628204506345 
1961	 2.10769447500781 
1962	 1.03840916482577 
1963	 1.4781568790375 
1964	 1.63432099777063 
1965	 1.09721674806571 
1966	 2.17516674168518 
1967	 25.0158244664397 
1968	-3.86417034028214 
1969	-2.07638907349102 
1970	-6.64059717699198 
1971	 7.98909769104077 
1972	 4.12568006664525 
1973	 2.4464339467175 
1974	 2.90259296928675 
1975	 3.89885570361128 
1976	-0.104312508825148 
1977	 1.47817827469508 
1978	 1.2242953637385 
1979	 0.698660292606597 
1980	 5.30492452442555E-02 
1981	-5.01658126663142 
1982	-1.45507955608059 
1983	-0.751346964391683 
1984	-0.938357193067144 
1985	-1.51353211048191 
1986	-1.837354735999 
1987	-1.80176295760232 
1988	-1.95595987454369 
1989	-1.16553148769177 
1990	-0.539372147212511 
1991	-0.190645148669152 
1992	 7.38268211246416E-02 
1993	 0.233772076288259 
1994	 0.305338529522786 
1995	 0.31792795484284 
1996	-0.719512149688037 
1997	 44.6030168802474 
1998	-0.26868680772747 
1999	-1.81402608653723 
2000	-2.62974916705687 
2001	-2.07675946499363 
2002	-1.85448109594969 
2003	-0.494434463168835 
2004	 4.49460670061233E-02 
2005	-6.32774049781131 
2006	 31.2975289370203 
2007	 2.66657784747611 
2008	 28.3263840541672 
2009	-12.5211172703395 
2010	-1.96118825640716 
2011	-1.64889858346347 
2012	-0.838418903604193 
2013	 0.889960162639844 
2014	 0.249267045159401 
2015	-4.25292006655381E-02 
2016	-8.62423060234427E-02 
2017	-6.96750816438092E-02 
2018	-0.237163076964761 
2019	-0.354981414076699 
2020	-1.13456477567721 
2021	 3.73634763630174E-02 
2022	 4.2719768233499 
2023	 0.925866827830315 
2024	 0.626496969463038 
2025	 0.145299318926098 
2026	-8.49925940408785E-04 
2027	-1.26297497090436 
2028	 1.5350177020145 
2029	 0.617499578267499 
2030	 0.884516258115823 
2031	 86.613251054873 
2032	-0.326949146553713 
2033	 0.169787177518302 
2034	 0.564507226068529 
2035	 0.70368044156295 
2036	-0.235540331420734 
2037	-1.06743745024864 
2038	-0.703494136265576 
2039	-0.344810525916954 
2040	 0.763443945903686 
2041	 0.631431399927988 
2042	 0.653698629544202 
2043	 0.07046339501551 
2044	-0.585177499399319 
2045	-0.754271305224593 
2046	-0.907592309226652 
2047	-1.31420764469427 
2048	-2.16164561194937 
2049	 1.43523381428713 
2050	 1.56600674029901 
2051	-14.6606838637948 
2052	-1.92063824293467 
2053	-0.116660241589245 
2054	 0.206523149859388 
2055	 0.486602549644849 
2056	 0.626598444688871 
2057	 0.538360432559145 
2058	 0.893334259294118 
2059	 1.12361222999481 
2060	 1.13838430744732 
2061	 0.961216912673377 
2062	 1.03513832542782 
2063	 0.573734316395586 
2064	 2.88766848258626E-02 
2065	 0.321743385483388 
2066	 6.70575774400752E-04 
2067	 0.176190774929009 
2068	 0.379023615768231 
2069	 0.149668377867261 
2070	 0.121108551440753 
2071	 0.165493320614004 
2072	 6.65090064161825E-02 
2073	 0.117257278976473 
2074	 1.25452733974583 
2075	 1.82376549427598 
2076	 1.67817541226713 
2077	 1.02816222530576 
2078	 3.33276328773179E-02 
2079	-0.157742971805341 
2080	-0.797574914891478 
2081	-1.86261207073709 
2082	-3.79297578887569 
2083	-29.5850294288845 
2084	-0.710592197806998 
2085	-0.203323338817118 
2086	-0.115805620459746 
2087	-0.223934659477736 
2088	-0.345981880026953 
2089	 2.91310952456774 
2090	 0.396019510368252 
2091	 0.408951042322454 
2092	 1.10350949762492 
2093	-7.60375247890065 
2094	-2.27930345983706 
2095	-0.824308388725162 
2096	-0.772904275018923 
2097	-0.50482203837813 
2098	-0.47244300710226 
2099	-1.04820024218455 
2100	-4.56552574801829 
2101	-3.74487398354339 
2102	-2.99570183888451 
2103	-1.53560974995775 
2104	-0.731610286789229 
2105	-0.218945635998805 
2106	 0.10636408641268 
2107	 0.16152041459404 
2108	 0.203171966879067 
2109	 0.152431893751228 
2110	 0.108953490063504 
2111	 0.121780142677506 
2112	 0.289696380005764 
2113	 0.176747504937414 
2114	-2.85114751086343E-02 
2115	-0.116632507885831 
2116	-0.247045580340422 
2117	-0.303912073637958 
2118	-0.340199044745815 
2119	-0.348165649518091 
2120	-0.396239441033686 
2121	-0.22813120337223 
2122	-7.37805840915778E-02 
2123	-4.53363559017384E-02 
2124	-0.106570142771393 
2125	-0.14520467179478 
2126	-0.225485039706445 
2127	-0.304812601324413 
2128	-5.37129447945314E-02 
2129	 0.151061619832019 
2130	 0.20368132424376 
2131	 0.304771637230621 
2132	 0.259770328711137 
2133	 2.66909528611826E-02 
2134	-9.22857616503111E-02 
2135	-0.205693236803146 
2136	-0.232857328998885 
2137	-0.212588043914512 
2138	-0.145311156200255 
2139	-1.77050700741308E-02 
2140	 5.92775086340208E-02 
2141	 0.269066861526113 
2142	 0.31520192055081 
2143	 0.196375427072597 
2144	 0.169872714815995 
2145	 0.195966606147263 
2146	-5.62587240938773E-02 
2147	 4.35110203907378E-02 
2148	 0.185505226322604 
2149	 0.275401906878038 
2150	 0.434309176588656 
2151	 0.318242806627003 
2152	 0.189673505220795 
2153	-2.78397185306407E-02 
2154	-0.342159372339127 
2155	-0.354873553995646 
2156	-0.367486668144226 
2157	-0.419656528233734 
2158	-0.344693482786524 
2159	-0.279767974829136 
2160	-0.348762497443488 
2161	-0.279410624168286 
2162	 6.20872416620626E-02 
2163	 0.120944359630836 
2164	-9.88447431883863E-03 
2165	 7.07353626446754E-02 
2166	 0.149165567956433 
2167	 0.132365276858732 
2168	 0.192927365089888 
2169	 0.18817304190384 
2170	 1.72838575943014E-02 
2171	-6.45532006641039E-02 
2172	-7.25991869699396E-02 
2173	-9.66273168275114E-02 
2174	-0.136573084486449 
2175	-0.175518472829663 
2176	-0.247519861642372 
2177	-0.15228795522937 
2178	 1.61522746857949E-02 
2179	 6.13833233791377E-02 
2180	 0.099252150338605 
2181	 0.182776253246156 
2182	 0.226612564155581 
2183	 0.19749912342289 
2184	 0.162945152844349 
2185	 0.220469946741473 
2186	 0.21835000691894 
2187	 0.109141049345938 
2188	 7.53808418417564E-02 
2189	 9.10275282156442E-02 
2190	 8.81269300048362E-02 
2191	 0.10713182977401 
2192	 0.101894786323675 
2193	 0.103914509418755 
2194	 7.74490498484632E-02 
2195	 3.72651775410222E-02 
2196	-2.71227369366083E-02 
2197	-0.217853844476899 
2198	-0.305134865176118 
2199	-0.29199983779614 
2200	-0.472405813835776 
2201	-0.636033465106395 
2202	-0.455412666047001 
2203	-0.753341889277035 
2204	-0.849955587813964 
2205	-0.468053201175479 
2206	-0.4520964957161 
2207	-0.29195238592818 
2208	-0.214478473011619 
2209	-0.286201910011433 
2210	-0.396583210460059 
2211	-0.474388781725429 
2212	-0.347468599253399 
2213	-0.145030010135934 
2214	 7.97680953626193E-02 
2215	 0.167288039726119 
2216	 8.82877535176938E-02 
2217	 7.57932762935454E-02 
2218	 3.17407177342014E-02 
2219	 4.01100156514835E-03 
2220	 1.94082954973842E-02 
2221	-2.36476772724837E-02 
2222	-0.146389002176001 
2223	-0.200933177456589 
2224	-0.255748915279886 
2225	-0.297123907871537 
2226	-0.292465935345043 
2227	-0.27014310396033 
2228	-0.233467077467529 
2229	-0.174196884517052 
2230	-2.64750788327741E-02 
2231	-9.04293010818686E-03 
2232	-8.23133124283577E-02 
2233	-0.141190258719259 
2234	-0.319930982660352 
2235	-0.36898283348192 
2236	-0.329642384307723 
2237	-0.407214175015706 
2238	-0.466754396318564 
2239	-0.465127130790255 
2240	-0.423034078139228 
2241	-0.314966630907146 
2242	-0.174527296351259 
2243	-7.59590841022514E-02 
2244	-5.67493776050491E-02 
2245	-0.25043171660536 
2246	-0.453488237087163 
2247	-0.626495712409737 
2248	-0.735595360532051 
2249	-0.613547179578559 
2250	-0.506790184453262 
2251	-0.487248184565544 
2252	-0.266601071040995 
2253	 2.08062598508328E-02 
2254	 0.172765970382266 
2255	 2.73069496898292E-02 
2256	-6.32711972346769E-02 
2257	-0.323383491278867 
2258	-0.535110452215702 
2259	-0.495847142075938 
2260	-0.42948219440404 
2261	-0.275003291742983 
2262	-0.19877773311678 
2263	-3.58612677977767E-02 
2264	 1.66904974112169E-02 
2265	 7.85236152094573E-02 
2266	 0.126344105938977 
2267	-0.13073814464641 
2268	-0.224143382905241 
2269	-0.159819924194559 
2270	-0.220259042242624 
2271	-0.258701783530752 
2272	-0.221576667205808 
2273	-8.13958677802517E-02 
2274	-7.52932939776643E-02 
2275	-0.146977269276489 
2276	-0.134655189013115 
2277	-0.19914848821537 
2278	-0.238580029127067 
2279	 1.51928170985308E-02 
2280	 8.11907254402409E-02 
2281	-1.74589449965021E-02 
2282	-0.194941127670678 
2283	 6.63722815655809E-02 
2284	 0.128753539145529 
2285	 0.661144870064153 
2286	 2.72399879234403 
2287	-3.21503636156385 
2288	 254.789446525169 
2289	 0.550679676968611 
2290	 1.18699092225562 
2291	 1.02309906457985 
2292	 1.56888839834721 
2293	 6.30377202969946 
2294	 3.63138481693137 
2295	-12.6162013964211 
2296	-2.24492756308037 
2297	-1.60677084464296 
2298	-1.29617386157266 
2299	-1.01535604114945 
2300	-1.14421452532433 
2301	-1.31955231825154 
2302	-1.07892931975181 
2303	-0.748824717839304 
2304	-0.130102273113295 
2305	 0.11674121802636 
2306	 7.13485457520611E-03 
2307	-0.250836512343864 
2308	-0.282228011102947 
2309	-0.267653594659094 
2310	-0.501564129350567 
2311	-0.372523374628574 
2312	-0.171558202215826 
2313	-0.379499350289522 
2314	-0.766766224379698 
2315	-0.992259870384215 
2316	-1.45370354250786 
2317	-2.09167292554223 
2318	-1.53631176115495 
2319	-1.07179855707079 
2320	 0.501063826957128 
2321	 0.733933057952137 
2322	-0.291325481260131 
2323	 0.134972132225975 
2324	-6.96649133058025E-02 
2325	 4.16756158742791E-02 
2326	 0.659097643868864 
2327	 0.791791004112053 
2328	 0.199786978196585 
2329	 0.126987120082164 
2330	 0.152029924503325 
2331	-2.65864245223836E-02 
2332	 1.06734075109795E-02 
2333	 0.119996269854661 
2334	 1.12177638133919 
2335	 1.62127728182131 
2336	 2.03421708865889 
2337	 1.99955893092768 
2338	 0.603700580088678 
2339	 1.35477652373318 
2340	 1.60748136443586 
2341	 0.705646272205872 
2342	 0.9597373746422 
2343	 1.13941808575425 
2344	 0.37755034311222 
2345	 2.61965853809175 
2346	 0.491488524881625 
2347	 0.924353476667528 
2348	 1.19493822811169 
2349	 3.22442154922354 
2350	-3.94319214680367 
2351	-4.02046002040176 
2352	 4.83438354179722 
2353	 2.61101777885861 
2354	 2.35934687934192 
2355	 3.11192948548863 
2356	 4.52343716521449 
2357	-78.4410115536724 
2358	-4.82297720028962 
2359	-4.80630202512722 
2360	-2.58559527230232 
2361	 11.4618254762539 
2362	 1.88410921931817 
2363	 1.69506799088759 
2364	 1.36505145538487 
2365	 2.08333193466394 
2366	 2.58147287371407 
2367	-136.812303882153 
2368	-4.77704427079182 
2369	-2.8844494833032 
2370	-1.26452887998735 
2371	-0.978457938228195 
2372	-1.22707919415825 
2373	-2.01565203104426 
2374	-1.36308059762534 
2375	-2.26709752259794 
2376	-4.43590688650038 
2377	-3.81799971401139 
2378	 1.88219485775925 
2379	 1.00099850710038 
2380	 1.39111736217658 
2381	 2.12257446373684 
2382	 10.0540200824858 
2383	-24.3188618180286 
2384	-8.71222276783367 
2385	-6.65916292174586 
2386	-15.8151832841219 
2387	-3.37564372304956 
2388	-4.803872649349 
2389	 3.69459043884546 
2390	 2.41050611251677 
2391	 0.675825001856942 
2392	 0.527577213848342 
2393	 1.9745994693835 
2394	 1.75358930065159 
2395	 1.83882584052212 
2396	-0.936298702010512 
2397	 0.50709957772272 
2398	 1.02069161043601 
2399	 1.33996896972744 
2400	 2.71642959960236 
2401	-0.265814410683867 
2402	 3.80763282208567E-02 
2403	 0.999240578567702 
2404	 3.35531599857719 
2405	 3.66367672467039 
2406	 2.08094453989313 
2407	 6.40374489424786 
2408	-8.94793048444902 
2409	 1.34694822020691 
2410	 0.460708513788554 
2411	 0.795075351457335 
2412	 0.284112559101779 
2413	 0.225265357099494 
2414	 0.454722828669531 
2415	 0.122664111298314 
2416	-2.59836334475454E-02 
2417	 0.437501741583807 
2418	 1.19031445102337 
2419	 3.68868529134274 
2420	 6.62090345955063 
2421	-3.05558302410031 
2422	-1.28114273077931 
2423	-0.796731168691484 
2424	-0.717429224935944 
2425	-0.627766502458504 
2426	-0.349692938209921 
2427	 1.64659448686918 
2428	 1.26837167486402 
2429	 0.716679691369495 
2430	 0.620802090866631 
2431	 1.04228315960774 
2432	 1.51394994074888 
2433	 2.09842703973868 
2434	 0.839434163796865 
2435	-0.36183091449935 
2436	 111.135503232313 
2437	 1.07519793826323 
2438	-0.722821992643073 
2439	-1.03932556523216 
2440	-1.05743073790469 
2441	-1.13836758227001 
2442	-1.56551423487291 
2443	-2.29547459307126 
2444	 7.76228577129969 
2445	 1.63754013698238 
2446	 0.251166171675276 
2447	-0.198356026415825 
2448	-0.728953629780376 
2449	-2.51263481706235 
2450	-6.1804224216112 
2451	 5.81991849425986 
2452	-9.90037214512258 
2453	-0.902415601849352 
2454	-0.927757336549246 
2455	-0.200058516960205 
2456	-0.814797911084427 
2457	 0.714150582335193 
2458	 0.402639883990013 
2459	 0.485310653778288 
2460	 1.97406740906916 
2461	 8.1316588192407 
2462	 139.657830360189 
2463	 51.1462355861112 
2464	 19.0039957945539 
2465	-205.236697161528 
2466	-9.35208816900432 
2467	-6.18923883989769 
2468	-2.64494525394559 
2469	-1.71942651487096 
2470	-2.44504859944208 
2471	-2.95917073707525 
2472	-5.09295500766207 
2473	 4.55086805849968 
2474	 2.3753717213595 
2475	 2.17251103536223 
2476	 1.33301398236458 
2477	-0.62426846627143 
2478	-0.556706673909302 
2479	-0.337345818778034 
2480	-0.389760740886767 
2481	 3.40303342434302 
2482	 1.81731169859107 
2483	 0.816628679437569 
2484	 0.732839804098355 
2485	 0.26625554467028 
2486	-4.39443347193917E-02 
2487	-0.163807553036233 
2488	 0.485946516649716 
2489	-6.05610620387189 
2490	-1.6538376239336 
2491	-1.63925962846171 
2492	-1.97993538145203 
2493	-2.29437629655884 
2494	-4.28473370360646 
2495	-67.220448328952 
2496	-6.75734234501259 
2497	-4.75223995074816 
2498	-3.95020431475298 
2499	-1.92607333068796 
2500	-5.82023004040696 
