Wavelength	rt0712EAST_FAR00008.asd
350	 0.060046615530537 
351	 0.060153276899593 
352	 6.00544281977348E-02 
353	 6.04332721749094E-02 
354	 6.13150953907362E-02 
355	 6.09741334822015E-02 
356	 6.13979571228653E-02 
357	 6.17898603394562E-02 
358	 6.10446614960247E-02 
359	 6.05615692682263E-02 
360	 0.060811521382107 
361	 6.12269692712204E-02 
362	 6.07283495564782E-02 
363	 6.03965074982779E-02 
364	 6.03654966212251E-02 
365	 6.06029769991792E-02 
366	 6.10549890906458E-02 
367	 6.05694679119931E-02 
368	 0.060107285761967 
369	 6.06256791865329E-02 
370	 6.09477515752925E-02 
371	 6.11379235514179E-02 
372	 6.09479476272071E-02 
373	 6.02109284422314E-02 
374	 6.09261156144216E-02 
375	 6.12300710238983E-02 
376	 6.06158950299752E-02 
377	 6.09657252041225E-02 
378	 6.12523961755267E-02 
379	 6.06481259386519E-02 
380	 5.94218911985289E-02 
381	 6.10714051847773E-02 
382	 6.21937362058435E-02 
383	 6.22155522067323E-02 
384	 6.19300773816666E-02 
385	 6.05470433344717E-02 
386	 6.03750784099533E-02 
387	 6.18128541412149E-02 
388	 6.28898732436016E-02 
389	 0.063233605840487 
390	 6.27397324772891E-02 
391	 6.18933823399479E-02 
392	 6.22504304184388E-02 
393	 6.27819964414058E-02 
394	 6.26992977963759E-02 
395	 6.18069795803529E-02 
396	 6.21547983109249E-02 
397	 6.26601516344525E-02 
398	 0.062927721906785 
399	 6.32960322238057E-02 
400	 6.27969533523735E-02 
401	 6.23417958182516E-02 
402	 6.25271519165007E-02 
403	 6.26919765505775E-02 
404	 6.25913188935758E-02 
405	 6.25221446649542E-02 
406	 6.27932636750644E-02 
407	 0.062355497082078 
408	 6.23261451915328E-02 
409	 6.28266679266959E-02 
410	 0.062913904921684 
411	 0.063006774299815 
412	 6.29330502065692E-02 
413	 6.26605116247806E-02 
414	 0.062730948028208 
415	 0.062693707393996 
416	 6.26293718755352E-02 
417	 6.27673691790353E-02 
418	 6.28376937390064E-02 
419	 6.29169075445985E-02 
420	 6.30382417591903E-02 
421	 6.31577986188272E-02 
422	 6.29634567298554E-02 
423	 6.29877416536669E-02 
424	 6.34475995201265E-02 
425	 0.063176192275116 
426	 6.29428315768818E-02 
427	 6.29966014446111E-02 
428	 6.32714499702337E-02 
429	 6.34665329087441E-02 
430	 6.34458415831964E-02 
431	 0.063370743570315 
432	 6.37072033665241E-02 
433	 6.35765529930334E-02 
434	 6.35203846724988E-02 
435	 6.39562359651384E-02 
436	 6.39818823190729E-02 
437	 6.39406965962493E-02 
438	 6.40371208351415E-02 
439	 6.43309381868426E-02 
440	 6.43104651942342E-02 
441	 6.44413699762036E-02 
442	 6.47926197463784E-02 
443	 6.46829683552864E-02 
444	 6.48880465044369E-02 
445	 6.51418883998611E-02 
446	 6.51076001290834E-02 
447	 6.53355875591176E-02 
448	 6.56083007305207E-02 
449	 6.58069514432926E-02 
450	 6.59106112213743E-02 
451	 6.60180160834295E-02 
452	 6.62067185678931E-02 
453	 6.63752350978934E-02 
454	 6.60192428166581E-02 
455	 6.60948678361368E-02 
456	 6.63336596914759E-02 
457	 6.62031483854222E-02 
458	 6.63997544071644E-02 
459	 6.65967915125484E-02 
460	 0.066583176372775 
461	 6.63445010403925E-02 
462	 6.65080316746527E-02 
463	 6.67940875766226E-02 
464	 6.68886739717537E-02 
465	 0.066920131516871 
466	 6.70131654410488E-02 
467	 6.70892176605106E-02 
468	 6.70395460952134E-02 
469	 6.73932939833708E-02 
470	 6.76326252780419E-02 
471	 6.76214931551607E-02 
472	 0.067861012112363 
473	 6.79012416723116E-02 
474	 6.79732706484642E-02 
475	 6.83247501344332E-02 
476	 6.86496875870395E-02 
477	 0.068759246150469 
478	 6.88564764077864E-02 
479	 6.93400368399331E-02 
480	 6.95546452091002E-02 
481	 6.96895284014116E-02 
482	 6.98918950746666E-02 
483	 0.06997304888496 
484	 7.01549896045957E-02 
485	 7.04901871714809E-02 
486	 7.08952302866379E-02 
487	 7.09901522873074E-02 
488	 7.10647837144889E-02 
489	 7.13242607075245E-02 
490	 7.18261444356275E-02 
491	 7.20352423074214E-02 
492	 7.22760870918232E-02 
493	 7.27826610725354E-02 
494	 7.30579031730558E-02 
495	 7.33800443721545E-02 
496	 7.37420340797409E-02 
497	 7.40204111096158E-02 
498	 7.43860035041848E-02 
499	 7.47101949713229E-02 
500	 7.49835181998971E-02 
501	 7.54333656334657E-02 
502	 7.56813835281481E-02 
503	 7.59697781836354E-02 
504	 7.65582834751442E-02 
505	 7.69989455122999E-02 
506	 7.75086402607838E-02 
507	 7.80316206652275E-02 
508	 7.83235887613034E-02 
509	 7.88501960825638E-02 
510	 7.93122128296404E-02 
511	 7.95304691403681E-02 
512	 7.98756316374946E-02 
513	 8.03015578227338E-02 
514	 8.07831195391293E-02 
515	 8.12802684628776E-02 
516	 8.17059171386026E-02 
517	 8.23392168249973E-02 
518	 0.083063059331087 
519	 0.083261051717431 
520	 8.36989662523451E-02 
521	 8.42313016952405E-02 
522	 8.46360647963508E-02 
523	 8.52048773916131E-02 
524	 8.57066137421161E-02 
525	 8.61582071358197E-02 
526	 8.67376168698313E-02 
527	 8.72272304840036E-02 
528	 8.77655019115959E-02 
529	 8.84199454214571E-02 
530	 8.90475000815525E-02 
531	 8.95025348076851E-02 
532	 8.98842202168759E-02 
533	 9.03833181906756E-02 
534	 0.091066772860559 
535	 9.16984192901619E-02 
536	 9.22448868757314E-02 
537	 0.092917654231925 
538	 9.35321701510249E-02 
539	 9.41167642595561E-02 
540	 9.47168405134322E-02 
541	 9.52529654469591E-02 
542	 9.58383136557246E-02 
543	 9.64829439118755E-02 
544	 9.71311218971979E-02 
545	 9.77513554443496E-02 
546	 9.83568796305575E-02 
547	 9.89720999862322E-02 
548	 9.96446159937244E-02 
549	 0.100145429607243 
550	 0.100649931912503 
551	 0.101392296733647 
552	 0.102066039561317 
553	 0.102548225401651 
554	 0.102957459278386 
555	 0.103655558866282 
556	 0.10424483024718 
557	 0.104794547684989 
558	 0.105380716878775 
559	 0.105722801841742 
560	 0.106195654425616 
561	 0.106684586969889 
562	 0.106835147085662 
563	 0.107239826425965 
564	 0.107648246405519 
565	 0.107846586092145 
566	 0.107888909523302 
567	 0.108068765145656 
568	 0.108328570553526 
569	 0.108490161475266 
570	 0.108630196066075 
571	 0.10861218983646 
572	 0.108513073932147 
573	 0.108636858167529 
574	 0.108759483031476 
575	 0.108649898224606 
576	 0.108260447050049 
577	 0.108103297156469 
578	 0.107993977431887 
579	 0.107811274291322 
580	 0.107498384102133 
581	 0.107268053453535 
582	 0.10695964177516 
583	 0.106510236838478 
584	 0.106131196868991 
585	 0.105535203672918 
586	 0.104798382548323 
587	 0.104094691078394 
588	 0.10328705390417 
589	 0.102612617496443 
590	 0.102143367663829 
591	 0.101660625356557 
592	 0.101133296020297 
593	 0.100538109362143 
594	 9.98770767756236E-02 
595	 9.91582049656928E-02 
596	 0.098321132369527 
597	 9.73981936247365E-02 
598	 9.64768515005836E-02 
599	 9.55647530156463E-02 
600	 9.46159841635914E-02 
601	 9.37487706020483E-02 
602	 9.33828732797092E-02 
603	 0.092992086672442 
604	 9.25787612725654E-02 
605	 9.23123266832808E-02 
606	 9.22975712759333E-02 
607	 9.21101519329479E-02 
608	 9.17298437341282E-02 
609	 9.15690265534164E-02 
610	 9.14041127123044E-02 
611	 9.11406930119166E-02 
612	 0.090784515115186 
613	 9.05545879852765E-02 
614	 0.090366599109194 
615	 9.01787776505051E-02 
616	 8.99741686890983E-02 
617	 8.97483859734588E-02 
618	 8.95154078257668E-02 
619	 8.92809727905709E-02 
620	 8.90333254344948E-02 
621	 8.89452044658843E-02 
622	 8.88220864574279E-02 
623	 8.84760886500909E-02 
624	 8.83933283993159E-02 
625	 8.82403928525662E-02 
626	 8.78765485430006E-02 
627	 8.74132165226911E-02 
628	 8.74026668759165E-02 
629	 0.087506022690997 
630	 8.73309256136124E-02 
631	 0.086776828549643 
632	 8.66040657790799E-02 
633	 8.67187915457647E-02 
634	 8.66324656182242E-02 
635	 8.64287887226413E-02 
636	 8.62451138690019E-02 
637	 8.61821412048564E-02 
638	 0.086288453203518 
639	 0.085948729379317 
640	 8.55970471140597E-02 
641	 0.085715723521028 
642	 8.56064719976707E-02 
643	 8.55347116058404E-02 
644	 8.54159967258495E-02 
645	 0.084882336631892 
646	 8.43710107143141E-02 
647	 8.41327273706711E-02 
648	 8.41545746205037E-02 
649	 8.39268886665788E-02 
650	 8.36398834183072E-02 
651	 8.32100343639228E-02 
652	 8.25413148418544E-02 
653	 0.081831721414712 
654	 0.081244902903684 
655	 8.06923013873203E-02 
656	 7.98160191747359E-02 
657	 7.91048837601251E-02 
658	 0.078351700595118 
659	 7.73873062611438E-02 
660	 7.66357581229898E-02 
661	 0.075985996048015 
662	 7.53590099645791E-02 
663	 7.47205898983626E-02 
664	 0.074177468590532 
665	 7.36894328374951E-02 
666	 7.32382425862548E-02 
667	 7.28766160613339E-02 
668	 7.28727677656655E-02 
669	 7.29797083976253E-02 
670	 7.29185339365299E-02 
671	 7.32255916077593E-02 
672	 7.33470236639521E-02 
673	 7.32898185006196E-02 
674	 7.36037450244157E-02 
675	 7.40091740817328E-02 
676	 7.45424369085126E-02 
677	 7.51367556919472E-02 
678	 7.52837055738345E-02 
679	 7.56430601650398E-02 
680	 7.61441634864453E-02 
681	 7.64616539682765E-02 
682	 0.077070438647765 
683	 7.76650926941354E-02 
684	 7.81404319046418E-02 
685	 7.88085982287663E-02 
686	 7.96806467130723E-02 
687	 8.01748630877399E-02 
688	 7.99643325329266E-02 
689	 0.080159531744624 
690	 8.02375892303886E-02 
691	 8.02261730885108E-02 
692	 8.04334696562554E-02 
693	 8.02368672599402E-02 
694	 7.99677916760947E-02 
695	 7.98054114713836E-02 
696	 7.93953118920904E-02 
697	 7.90062357073924E-02 
698	 7.85079096826048E-02 
699	 7.78103495134745E-02 
700	 7.73740025994507E-02 
701	 7.69730843505378E-02 
702	 7.63824742544238E-02 
703	 7.54445031795428E-02 
704	 7.47805464807586E-02 
705	 7.41060908634359E-02 
706	 7.32347531776586E-02 
707	 7.24352591648477E-02 
708	 7.12530907566961E-02 
709	 6.99893138703642E-02 
710	 6.90829859346047E-02 
711	 6.79621229399152E-02 
712	 6.67424177641294E-02 
713	 0.065510162446223 
714	 6.42592553639646E-02 
715	 6.32376184512786E-02 
716	 6.21385018817538E-02 
717	 6.08660588681349E-02 
718	 6.05462354709572E-02 
719	 5.90163891990765E-02 
720	 5.73337629498381E-02 
721	 5.66042853532541E-02 
722	 5.59641279335546E-02 
723	 5.51417098025212E-02 
724	 5.41951915813478E-02 
725	 5.32671254491235E-02 
726	 5.22557461844327E-02 
727	 5.13534014352629E-02 
728	 5.06727166597174E-02 
729	 4.99495923447184E-02 
730	 4.91813660243158E-02 
731	 4.84113456505839E-02 
732	 4.76643365604466E-02 
733	 4.73537529141485E-02 
734	 4.68921960084475E-02 
735	 4.63409349595501E-02 
736	 4.66249048001768E-02 
737	 4.62971049817441E-02 
738	 4.58937624161165E-02 
739	 4.59815454507566E-02 
740	 0.04588390769387 
741	 4.59187898618162E-02 
742	 4.59967064600376E-02 
743	 4.58761377269151E-02 
744	 4.57656175493701E-02 
745	 4.58178174845877E-02 
746	 4.59757849791889E-02 
747	 4.59212225487786E-02 
748	 4.57520662013971E-02 
749	 4.55517387137382E-02 
750	 4.53984910392029E-02 
751	 4.53179714179794E-02 
752	 4.54241128893302E-02 
753	 4.55349879721238E-02 
754	 4.53799669018134E-02 
755	 4.54134503495233E-02 
756	 4.52732647045031E-02 
757	 4.49874648602171E-02 
758	 4.53955391480449E-02 
759	 4.50337906292998E-02 
760	 4.42485874043469E-02 
761	 4.49196630222395E-02 
762	 4.47867481429513E-02 
763	 4.49539347775069E-02 
764	 4.51259654539299E-02 
765	 0.044910317341864 
766	 4.50071160831242E-02 
767	 4.50853353670936E-02 
768	 4.50441918148203E-02 
769	 0.044976119324634 
770	 4.50186295787028E-02 
771	 4.50750790996211E-02 
772	 0.045034852094602 
773	 4.48465956588909E-02 
774	 4.49765354802247E-02 
775	 4.52278580944887E-02 
776	 4.51914435998649E-02 
777	 4.51301308938169E-02 
778	 4.53117688592308E-02 
779	 4.55102740097741E-02 
780	 4.50862888479221E-02 
781	 4.52729275112881E-02 
782	 4.54891993054958E-02 
783	 4.52949746961597E-02 
784	 4.53562436682943E-02 
785	 4.54009964885426E-02 
786	 4.54631684487943E-02 
787	 4.56189019587651E-02 
788	 4.55928126188014E-02 
789	 4.56193394079083E-02 
790	 4.57649595067504E-02 
791	 4.59185797798463E-02 
792	 4.59633914647328E-02 
793	 4.59347313040798E-02 
794	 4.58940637100607E-02 
795	 4.59103176733569E-02 
796	 4.59368456162792E-02 
797	 4.60182814150493E-02 
798	 4.61608033641871E-02 
799	 4.61127366202208E-02 
800	 4.63967502845099E-02 
801	 4.67872869622653E-02 
802	 4.67052538904413E-02 
803	 0.046541252053186 
804	 4.65990559476486E-02 
805	 4.68269610868218E-02 
806	 4.68415172487442E-02 
807	 4.67265868146238E-02 
808	 4.64797169443336E-02 
809	 4.62037085069209E-02 
810	 0.046372850007744 
811	 4.58985219873392E-02 
812	 4.53131994536733E-02 
813	 4.57539653385813E-02 
814	 4.60156276111126E-02 
815	 4.55001757064887E-02 
816	 4.49837025386784E-02 
817	 4.58425846222276E-02 
818	 4.52384652817524E-02 
819	 4.52496797299813E-02 
820	 4.59104601695103E-02 
821	 4.44719102300876E-02 
822	 4.44699396634725E-02 
823	 4.49715507405639E-02 
824	 4.45848114930463E-02 
825	 4.37594956225791E-02 
826	 4.36405998352921E-02 
827	 4.36844731517501E-02 
828	 4.30022007623846E-02 
829	 4.33156546234307E-02 
830	 0.042908010379649 
831	 4.21006779424023E-02 
832	 4.25099075036862E-02 
833	 4.24848256825354E-02 
834	 4.26403928966619E-02 
835	 4.28617247272681E-02 
836	 4.19057926433387E-02 
837	 4.20391125226745E-02 
838	 4.24111738632832E-02 
839	 4.21345512847429E-02 
840	 4.18805382995155E-02 
841	 4.18052303363469E-02 
842	 4.20520458047489E-02 
843	 4.25750792733645E-02 
844	 4.27892913957026E-02 
845	 4.24295419843258E-02 
846	 4.18864578035356E-02 
847	 4.18730343241894E-02 
848	 4.17829172068751E-02 
849	 4.20491635296483E-02 
850	 4.23975771162524E-02 
851	 4.16537060151305E-02 
852	 4.18238629012629E-02 
853	 4.23120019775714E-02 
854	 4.24024112832722E-02 
855	 4.24074460970206E-02 
856	 4.18715583742593E-02 
857	 4.12622194335036E-02 
858	 4.11387248132275E-02 
859	 4.15449010518267E-02 
860	 4.15445779334447E-02 
861	 4.13142065568966E-02 
862	 4.15142899857319E-02 
863	 4.19239709784794E-02 
864	 4.16794217569744E-02 
865	 4.11374539348119E-02 
866	 4.16096117539451E-02 
867	 4.17188120503757E-02 
868	 4.16581842114516E-02 
869	 4.16759608577304E-02 
870	 4.17901116529396E-02 
871	 4.15011548715848E-02 
872	 4.13235862879362E-02 
873	 4.15054088410958E-02 
874	 4.11988714686705E-02 
875	 4.08230556042519E-02 
876	 4.08544648716321E-02 
877	 0.041457721317975 
878	 4.17614658601972E-02 
879	 4.11361389719141E-02 
880	 4.03284236840679E-02 
881	 4.05420993120534E-02 
882	 4.14059616132963E-02 
883	 4.12693335067226E-02 
884	 4.05237317328059E-02 
885	 4.08995184885657E-02 
886	 4.07938936506028E-02 
887	 4.07922847822415E-02 
888	 4.08861288333843E-02 
889	 0.040237662636725 
890	 0.040373580768757 
891	 4.05759539604075E-02 
892	 4.02291995229592E-02 
893	 3.98265727781622E-02 
894	 4.02788121875933E-02 
895	 0.040352989799007 
896	 3.87481979557301E-02 
897	 0.03700121701909 
898	 3.77711843431491E-02 
899	 3.99426266689434E-02 
900	 4.08757043750263E-02 
901	 3.92748067422711E-02 
902	 3.96169724982167E-02 
903	 4.02080559654416E-02 
904	 3.87439550438047E-02 
905	 0.042399782141646 
906	 4.09084274360452E-02 
907	 3.64641892149108E-02 
908	 4.01134241216772E-02 
909	 4.10056073401764E-02 
910	 4.02193805602629E-02 
911	 3.96465405827135E-02 
912	 4.05196468989561E-02 
913	 4.17303870045475E-02 
914	 4.04873491867899E-02 
915	 3.76137615146103E-02 
916	 3.76752095796519E-02 
917	 3.86903669790957E-02 
918	 3.86425865423116E-02 
919	 3.79696815387614E-02 
920	 3.97650398832863E-02 
921	 0.041398445879791 
922	 4.06496009560783E-02 
923	 3.74793404135768E-02 
924	 3.66006961602058E-02 
925	 3.89004259071768E-02 
926	 4.03148104585045E-02 
927	 3.70290448198454E-02 
928	 3.63565585563596E-02 
929	 3.20681918606148E-02 
930	 0.02841082712302 
931	 0.035587251141489 
932	 3.24850300762078E-02 
933	 4.89970589544832E-02 
934	 0.046571409086161 
935	-7.12669824644486E-03 
936	 3.28822669448647E-02 
937	 4.26415689760903E-02 
938	 3.67323064626857E-02 
939	 5.23692387438349E-02 
940	 4.15515247825588E-02 
941	 0.037582737027711 
942	 3.92874031100538E-02 
943	 3.10136580651818E-02 
944	 2.81400592636564E-02 
945	 2.28253808724249E-02 
946	 2.13296211499898E-02 
947	 3.30068883440622E-02 
948	 0.031411032757745 
949	 1.65259191917973E-02 
950	 1.65865232988338E-02 
951	 5.50174779384434E-02 
952	 5.37911226164228E-02 
953	 3.90677486003784E-02 
954	 3.15917078997985E-02 
955	 3.82147495757513E-02 
956	 3.75668348562957E-02 
957	 4.13272889755616E-02 
958	 4.34655278254592E-02 
959	 3.11256474684447E-02 
960	 3.05069704460401E-02 
961	 3.06047023189029E-02 
962	 3.32348361556465E-02 
963	 4.55410077479605E-02 
964	 4.55661293554072E-02 
965	 0.042652374116914 
966	 3.99690265922504E-02 
967	 3.56202034080618E-02 
968	 3.30720717239599E-02 
969	 3.76941988985661E-02 
970	 4.30748392620462E-02 
971	 3.64140238396588E-02 
972	 3.15292341551491E-02 
973	 3.47939165538605E-02 
974	 4.16215927801713E-02 
975	 3.96158205719408E-02 
976	 3.53067434579423E-02 
977	 3.28080382301126E-02 
978	 3.35441158705844E-02 
979	 0.035798783998037 
980	 0.035265319767826 
981	 3.74769113113201E-02 
982	 4.02206764324762E-02 
983	 3.72524190678013E-02 
984	 4.06450852754837E-02 
985	 4.24340735849551E-02 
986	 4.05457157669757E-02 
987	 3.89599752863762E-02 
988	 4.16280815548257E-02 
989	 3.71821782824286E-02 
990	 3.09045598116735E-02 
991	 0.037031166090345 
992	 3.73278596755697E-02 
993	 4.21822055434118E-02 
994	 4.39120108151579E-02 
995	 0.029409087528116 
996	 3.68732309654562E-02 
997	 3.99790555059454E-02 
998	 0.036269991231923 
999	 3.84410674280385E-02 
1000	 3.85212090094176E-02 
1001	 4.18655857815293E-02 
1002	 4.26254642776935E-02 
1003	 4.27800689380298E-02 
1004	 4.23307283030506E-02 
1005	 4.22702538433135E-02 
1006	 4.26890057609096E-02 
1007	 4.19964691895925E-02 
1008	 4.15931555071444E-02 
1009	 4.07496167030747E-02 
1010	 3.98671307785359E-02 
1011	 4.00472399998144E-02 
1012	 4.01390931835794E-02 
1013	 3.94912886301535E-02 
1014	 3.90878436445566E-02 
1015	 3.78626075489932E-02 
1016	 3.80808045151548E-02 
1017	 3.96243448875976E-02 
1018	 4.00327307574366E-02 
1019	 4.06818120643097E-02 
1020	 4.14118639174831E-02 
1021	 4.17129091273121E-02 
1022	 0.041535757729478 
1023	 4.19916127010768E-02 
1024	 4.25354450856018E-02 
1025	 4.33672934580461E-02 
1026	 4.33128482924563E-02 
1027	 4.29640675710084E-02 
1028	 0.042925330279969 
1029	 4.20743528666454E-02 
1030	 3.88333656529471E-02 
1031	 3.89731473288785E-02 
1032	 4.12483102365524E-02 
1033	 4.16522722076846E-02 
1034	 4.29698490469008E-02 
1035	 4.36136093350643E-02 
1036	 4.27965078839453E-02 
1037	 4.23487708759789E-02 
1038	 4.23070606829551E-02 
1039	 4.21335153718971E-02 
1040	 4.18093980334685E-02 
1041	 4.13966127585944E-02 
1042	 4.13110582597196E-02 
1043	 0.04221983521791 
1044	 4.16334721241329E-02 
1045	 0.040048754565657 
1046	 3.92591461140742E-02 
1047	 3.72997071805532E-02 
1048	 3.75073596448287E-02 
1049	 3.99321234232582E-02 
1050	 4.07732815418433E-02 
1051	 4.26864744772287E-02 
1052	 0.043020529476263 
1053	 4.10658163446654E-02 
1054	 4.02700481046955E-02 
1055	 3.90683029260882E-02 
1056	 3.84986194357737E-02 
1057	 3.84027400186245E-02 
1058	 3.91172921437736E-02 
1059	 3.95245348432622E-02 
1060	 4.03717557304377E-02 
1061	 4.06718126615817E-02 
1062	 4.09645913622297E-02 
1063	 4.09172305047896E-02 
1064	 0.039882805778994 
1065	 4.00835458399755E-02 
1066	 4.17546313509102E-02 
1067	 4.14730764833845E-02 
1068	 4.04210212904849E-02 
1069	 3.99522170330125E-02 
1070	 3.68296201055076E-02 
1071	 3.64457076368676E-02 
1072	 3.86130398156817E-02 
1073	 4.12503472545743E-02 
1074	 4.21536230667052E-02 
1075	 4.40188114160055E-02 
1076	 0.043667826766925 
1077	 4.03093355456052E-02 
1078	 3.94915193281195E-02 
1079	 3.88028401208666E-02 
1080	 0.038597470937815 
1081	 3.97781135900377E-02 
1082	 4.00906124304298E-02 
1083	 3.97038418020296E-02 
1084	 0.040254264800033 
1085	 4.20252967671063E-02 
1086	 4.24384039947163E-02 
1087	 4.21246762404327E-02 
1088	 0.042512446590235 
1089	 4.31185042300476E-02 
1090	 4.19953339508026E-02 
1091	 4.19575874766314E-02 
1092	 4.37642129168782E-02 
1093	 4.32819948459694E-02 
1094	 4.03800015537287E-02 
1095	 4.01168496612554E-02 
1096	 4.04295631372501E-02 
1097	 4.03416956705524E-02 
1098	 4.14111963432579E-02 
1099	 4.26129275925118E-02 
1100	 4.43559116450399E-02 
1101	 4.42823783675785E-02 
1102	 4.38990787931992E-02 
1103	 4.39718544601164E-02 
1104	 4.14053559793631E-02 
1105	 3.97178918362305E-02 
1106	 4.33760155100934E-02 
1107	 4.54828959089381E-02 
1108	 4.63809021165653E-02 
1109	 4.48012334293859E-02 
1110	 4.39598447761745E-02 
1111	 0.038989624397466 
1112	 3.92536326783457E-02 
1113	 4.72151078958197E-02 
1114	 4.91933165982764E-02 
1115	 4.83182262625714E-02 
1116	 4.66315487013926E-02 
1117	 3.63149477116703E-02 
1118	 2.82355066668363E-02 
1119	 2.39933676084221E-02 
1120	 2.27129290232781E-02 
1121	 3.40324079010608E-02 
1122	 1.70556738852516E-02 
1123	 1.93805761822708E-02 
1124	 2.79768953940243E-02 
1125	 3.99235320783018E-02 
1126	 5.60513761658728E-02 
1127	 6.12006044574506E-02 
1128	 6.35780289731972E-02 
1129	 6.13641078971328E-02 
1130	 3.13640790364564E-02 
1131	 4.48804049770247E-02 
1132	 9.74243690297578E-02 
1133	 9.46848494882364E-02 
1134	 0.070111753757178 
1135	 0.069638188344366 
1136	 6.35084378244834E-02 
1137	 5.29454027872344E-02 
1138	 4.75815318218323E-02 
1139	 5.89527139458833E-02 
1140	 5.02627464504005E-02 
1141	 2.87390716804479E-02 
1142	 3.25507440583052E-02 
1143	 4.35109160497927E-02 
1144	 4.73223144055166E-02 
1145	 5.18997871171956E-02 
1146	 6.98926780871028E-02 
1147	 7.66858280609783E-02 
1148	 5.95866877331135E-02 
1149	 5.47531573471048E-02 
1150	 5.24528976432907E-02 
1151	 4.00730597064722E-02 
1152	 3.97245791111074E-02 
1153	 5.21360365343834E-02 
1154	 5.19438220012497E-02 
1155	 4.89225471763648E-02 
1156	 0.04420397520333 
1157	 4.08282512571665E-02 
1158	 4.15943886865712E-02 
1159	 3.95418473604879E-02 
1160	 4.12675401085061E-02 
1161	 4.29222342665892E-02 
1162	 4.18206122483231E-02 
1163	 4.16250593468527E-02 
1164	 4.02458700019913E-02 
1165	 3.94217472766944E-02 
1166	 4.04482307768673E-02 
1167	 4.05913166666358E-02 
1168	 3.80219990305591E-02 
1169	 3.73375498271634E-02 
1170	 3.92430349706151E-02 
1171	 3.92877291754075E-02 
1172	 3.94011825694997E-02 
1173	 4.06628909973224E-02 
1174	 4.25515341054825E-02 
1175	 4.14607803608775E-02 
1176	 4.11632537254207E-02 
1177	 4.11105368865253E-02 
1178	 4.00344582447705E-02 
1179	 3.91620813358034E-02 
1180	 3.91692853541553E-02 
1181	 4.05953773472288E-02 
1182	 4.15063198912516E-02 
1183	 0.041124217486626 
1184	 4.12849911527184E-02 
1185	 4.19645485602923E-02 
1186	 4.13098693036425E-02 
1187	 3.99256120414701E-02 
1188	 3.95766068864972E-02 
1189	 3.94006768579937E-02 
1190	 3.93894635324074E-02 
1191	 0.040622566896437 
1192	 4.08470485899235E-02 
1193	 4.06205226094969E-02 
1194	 0.039184475389452 
1195	 3.84509114319274E-02 
1196	 3.86338283505435E-02 
1197	 3.91918687408684E-02 
1198	 3.99045694148009E-02 
1199	 4.07136729176439E-02 
1200	 4.04641380006526E-02 
1201	 3.99201373286898E-02 
1202	 4.10211475658613E-02 
1203	 4.24397585705489E-02 
1204	 0.042486337567196 
1205	 4.22811838942114E-02 
1206	 4.17760322191025E-02 
1207	 4.16309003373326E-02 
1208	 0.043016094279797 
1209	 4.36935502827041E-02 
1210	 4.35004740510089E-02 
1211	 4.21794487511898E-02 
1212	 4.04304124365398E-02 
1213	 4.07010473236745E-02 
1214	 4.00643471062043E-02 
1215	 0.039307946952657 
1216	 3.87929153391773E-02 
1217	 3.99521096477565E-02 
1218	 3.99480695345544E-02 
1219	 0.040192947284193 
1220	 4.09412068646538E-02 
1221	 4.02755096333885E-02 
1222	 3.93024755727941E-02 
1223	 3.97011811711005E-02 
1224	 4.05715025058963E-02 
1225	 4.06256324019806E-02 
1226	 3.98826015377258E-02 
1227	 0.039097105953942 
1228	 3.95265125316005E-02 
1229	 0.039984364756974 
1230	 4.03085990543879E-02 
1231	 4.06948960671426E-02 
1232	 4.03750948185351E-02 
1233	 3.99124274059816E-02 
1234	 0.039218924750989 
1235	 3.90102953409808E-02 
1236	 3.89560593814752E-02 
1237	 3.90449749385602E-02 
1238	 3.93087246184447E-02 
1239	 4.01313105085955E-02 
1240	 4.04270461258052E-02 
1241	 4.00855861860382E-02 
1242	 3.97667594723112E-02 
1243	 3.97149163307433E-02 
1244	 4.00052651495957E-02 
1245	 3.95510739239596E-02 
1246	 3.88736685099398E-02 
1247	 3.88088594235893E-02 
1248	 3.91256178216332E-02 
1249	 4.00079237329591E-02 
1250	 4.07634618285072E-02 
1251	 4.04856849450301E-02 
1252	 0.040223969628921 
1253	 4.09626848372509E-02 
1254	 4.13624657263105E-02 
1255	 4.07749019011593E-02 
1256	 4.06874051952043E-02 
1257	 0.040268422468713 
1258	 3.99007348941899E-02 
1259	 3.97566014524559E-02 
1260	 3.98552145524845E-02 
1261	 3.98697276767916E-02 
1262	 3.95283113117297E-02 
1263	 3.89173972277567E-02 
1264	 3.92194587414413E-02 
1265	 3.98802197625693E-02 
1266	 0.039525572396181 
1267	 3.95992275309099E-02 
1268	 4.02279623345612E-02 
1269	 3.98450385764618E-02 
1270	 3.99339938222108E-02 
1271	 3.92233338046162E-02 
1272	 3.87723406551621E-02 
1273	 3.92824195201864E-02 
1274	 3.87443913510085E-02 
1275	 3.96492986423066E-02 
1276	 4.10811677026063E-02 
1277	 4.09821031295219E-02 
1278	 4.10849475164569E-02 
1279	 4.06022720324893E-02 
1280	 3.95454650331198E-02 
1281	 3.94008104286249E-02 
1282	 4.01727956243064E-02 
1283	 4.04709275957802E-02 
1284	 4.08146123145252E-02 
1285	 4.09952620240488E-02 
1286	 4.11088876279031E-02 
1287	 4.10181062232807E-02 
1288	 4.07549162959351E-02 
1289	 4.09534504307155E-02 
1290	 4.18233975107213E-02 
1291	 4.09843247381363E-02 
1292	 3.99052149948086E-02 
1293	 4.00657229378329E-02 
1294	 0.04054860953781 
1295	 4.07270922167022E-02 
1296	 4.06166557176126E-02 
1297	 4.02901661481282E-02 
1298	 3.99708458026796E-02 
1299	 4.06999876950351E-02 
1300	 4.19815632123417E-02 
1301	 4.19667828718559E-02 
1302	 4.14575118249083E-02 
1303	 4.10509714484855E-02 
1304	 4.01303895550482E-02 
1305	 4.04200530263031E-02 
1306	 4.13116787197752E-02 
1307	 4.26964476654164E-02 
1308	 0.042465642065381 
1309	 4.22792553614803E-02 
1310	 4.34470190966318E-02 
1311	 4.34352141499812E-02 
1312	 4.31471619319382E-02 
1313	 4.53596569800086E-02 
1314	 4.65798531720931E-02 
1315	 4.50228030472166E-02 
1316	 4.57017229376344E-02 
1317	 4.98325681070914E-02 
1318	 5.02012475024766E-02 
1319	 4.72983515519974E-02 
1320	 4.69110903030475E-02 
1321	 4.74562196992234E-02 
1322	 4.50265448286586E-02 
1323	 4.16019812490967E-02 
1324	 0.043482774751241 
1325	 4.67641722346841E-02 
1326	 4.87903814738238E-02 
1327	 5.34491257991841E-02 
1328	 5.41694269475924E-02 
1329	 4.81485814582853E-02 
1330	 4.68269749332762E-02 
1331	 5.17679973020191E-02 
1332	 4.65689385375335E-02 
1333	 4.05976333140248E-02 
1334	 4.16010195838196E-02 
1335	 0.037928339214705 
1336	 3.14379342382543E-02 
1337	 3.31929005186697E-02 
1338	 3.77333853340641E-02 
1339	 4.18104238844859E-02 
1340	 5.74049935978715E-02 
1341	 0.060059709325092 
1342	 5.18169551824871E-02 
1343	 4.81439553372832E-02 
1344	 3.45574399676461E-02 
1345	 3.56436283887628E-02 
1346	 5.28611525412965E-02 
1347	 6.50167358216928E-02 
1348	 0.105602513992771 
1349	 0.128187890112747 
1350	 8.89634669533211E-02 
1351	 0.114821743709736 
1352	 0.221235176723078 
1353	 0.253546969639599 
1354	 0.335899932137907 
1355	 0.289288105816579 
1356	 0.252300848306315 
1357	 0.600696544532412 
1358	 0.808064367428727 
1359	 0.819790894928209 
1360	 0.740935332745986 
1361	 0.404214439408624 
1362	 7.38653152937541E-02 
1363	 0.341506596550764 
1364	 0.768475029158115 
1365	 0.2920095705494 
1366	 0.155794403174295 
1367	 0.492365178219742 
1368	 0.547203354217006 
1369	 0.382484319005433 
1370	 0.538587637075332 
1371	 2.3304542105092 
1372	 3.08417874884724 
1373	 4.87964941577884 
1374	-28.9023208291641 
1375	 3.12363553001682 
1376	 1.68867986279608 
1377	 1.24850564987944 
1378	 1.24442637525205 
1379	 0.167769796496062 
1380	-0.080714417255102 
1381	 1.00795161215597 
1382	 1.19486407661453 
1383	 0.420393269734235 
1384	 0.458520685623991 
1385	 0.582541413888349 
1386	 0.674436563744484 
1387	 1.93888631717408 
1388	 2.52933481318986 
1389	 2.06645249422844 
1390	 2.42067615155978 
1391	 2.52082053518882 
1392	 0.714864373676491 
1393	 0.53240093328843 
1394	 0.694750467729567 
1395	 0.751002557256899 
1396	 1.14754972059127 
1397	 3.19307168719661 
1398	-342.615192771645 
1399	 1.98798682600578 
1400	 1.39121045541586 
1401	 2.31886076396081 
1402	 65.2413487031333 
1403	 1.00384006362008 
1404	-3.9823974954545 
1405	-98.3864702214262 
1406	 1.31943693933934 
1407	 1.23208394992218 
1408	 3.9496632605939 
1409	 22.7672486097775 
1410	-2.60293251625217 
1411	-7.45892271440392 
1412	 3.31695662223939 
1413	 3.46407072314752 
1414	 3.59710205978734 
1415	 2.4533572697609 
1416	 3.18362223511891 
1417	 5.00829864321457 
1418	 0.382096774967451 
1419	 0.548729399537567 
1420	 1.25362375854454 
1421	 0.593438371857828 
1422	 8.34570665946945E-02 
1423	 0.20903411403945 
1424	 1.09840727186298 
1425	 0.919448983560785 
1426	 0.50689851296526 
1427	 0.92709567112521 
1428	 0.623991312200953 
1429	 0.394546578149646 
1430	 0.22253402545089 
1431	 0.387371717389007 
1432	 0.790020815125699 
1433	 0.711647329702488 
1434	 0.77595579100493 
1435	 0.973865456489841 
1436	 0.606279955201454 
1437	 0.27136669683829 
1438	 0.413480783655434 
1439	 0.486616950442331 
1440	 0.407599999508247 
1441	 0.719654544296276 
1442	 0.461723877337708 
1443	 0.364207011084044 
1444	 0.458093398813867 
1445	 0.305896517382139 
1446	 0.202074570168334 
1447	 0.248166557856005 
1448	 0.230022184567628 
1449	 0.18924915399938 
1450	 0.16306641294952 
1451	 0.214817567566476 
1452	 0.253890542340372 
1453	 0.171283162751469 
1454	 0.130888233453452 
1455	 0.158250018983759 
1456	 0.141701834117316 
1457	 4.73109268995541E-02 
1458	 3.97673770557321E-02 
1459	 8.57168590621217E-02 
1460	 9.34615669806473E-02 
1461	 0.107246092508436 
1462	 0.121816302193859 
1463	 0.130665855727059 
1464	 0.133191384209787 
1465	 0.13787480986992 
1466	 0.125189442223533 
1467	 7.67557718350016E-02 
1468	 7.33631936074715E-02 
1469	 0.116055015358901 
1470	 0.11309437505963 
1471	 7.13622461876249E-02 
1472	 9.48777865847858E-02 
1473	 0.145684498186179 
1474	 0.133261272820866 
1475	 0.13462592837421 
1476	 0.13996903617237 
1477	 9.85054162919529E-02 
1478	 8.44892842686061E-02 
1479	 0.11732284620255 
1480	 0.119353041871092 
1481	 8.14562626033495E-02 
1482	 8.47168679152725E-02 
1483	 0.121831066342125 
1484	 0.109627134658688 
1485	 0.094770142711927 
1486	 8.29013268269837E-02 
1487	 4.20190284426894E-02 
1488	 3.84544786302428E-02 
1489	 5.53978369358542E-02 
1490	 5.66519513394275E-02 
1491	 6.43781838745777E-02 
1492	 6.47649022993489E-02 
1493	 5.96216993807967E-02 
1494	 5.53811188345948E-02 
1495	 4.54618180186292E-02 
1496	 4.18854120153654E-02 
1497	 4.28849502958955E-02 
1498	 3.85719937069849E-02 
1499	 3.09731452382665E-02 
1500	 3.34094829787008E-02 
1501	 3.91449579347696E-02 
1502	 3.99548255359278E-02 
1503	 4.69525872550901E-02 
1504	 4.96818096323113E-02 
1505	 4.56069041281733E-02 
1506	 4.18937334080334E-02 
1507	 4.73111562916223E-02 
1508	 4.62507921363083E-02 
1509	 4.17851099852734E-02 
1510	 4.36783616800063E-02 
1511	 4.44723211797639E-02 
1512	 4.03038644886167E-02 
1513	 3.89101255642235E-02 
1514	 0.04250162633737 
1515	 4.62445531053403E-02 
1516	 4.67016733333073E-02 
1517	 4.62065114911881E-02 
1518	 4.48840199789142E-02 
1519	 3.85410883000683E-02 
1520	 3.40246288898017E-02 
1521	 3.63500210320984E-02 
1522	 3.56147746436232E-02 
1523	 3.33279215255349E-02 
1524	 3.64690931177169E-02 
1525	 3.80480129993621E-02 
1526	 3.76702293891902E-02 
1527	 3.95513410292413E-02 
1528	 4.02339406115723E-02 
1529	 3.92756769117247E-02 
1530	 3.74211799362398E-02 
1531	 3.63919328275028E-02 
1532	 3.82494055528308E-02 
1533	 3.76885150119677E-02 
1534	 3.50505847885692E-02 
1535	 3.43885885731938E-02 
1536	 3.47808793080011E-02 
1537	 3.64748403242034E-02 
1538	 3.71084787111973E-02 
1539	 3.75871535585129E-02 
1540	 3.93701410252041E-02 
1541	 3.82191520885154E-02 
1542	 3.82105083349347E-02 
1543	 3.90323692148211E-02 
1544	 3.61488799338046E-02 
1545	 3.53749338029575E-02 
1546	 3.69961633287406E-02 
1547	 3.73378037639232E-02 
1548	 3.61352167400521E-02 
1549	 3.46801203895187E-02 
1550	 3.39673934000919E-02 
1551	 3.45067599024507E-02 
1552	 3.55175274862931E-02 
1553	 3.65516556241259E-02 
1554	 3.73505765628741E-02 
1555	 3.60588372580404E-02 
1556	 3.53467997337351E-02 
1557	 3.46490912487571E-02 
1558	 3.38135494472965E-02 
1559	 3.36689478230917E-02 
1560	 3.43244682659764E-02 
1561	 3.75215371985338E-02 
1562	 3.72103881588736E-02 
1563	 3.50497927302652E-02 
1564	 3.61928834233409E-02 
1565	 0.035374844712134 
1566	 3.43619041808542E-02 
1567	 3.64921616744487E-02 
1568	 0.037360200381674 
1569	 3.59817923762837E-02 
1570	 3.67372461204568E-02 
1571	 4.04675023163502E-02 
1572	 4.12671508615102E-02 
1573	 3.98606362127453E-02 
1574	 3.96785788846091E-02 
1575	 3.89972940777505E-02 
1576	 0.037922796161616 
1577	 3.83727456999572E-02 
1578	 4.00366703701612E-02 
1579	 3.85056519654941E-02 
1580	 3.56152721253697E-02 
1581	 3.65328612686868E-02 
1582	 3.84893221011254E-02 
1583	 3.78264629594389E-02 
1584	 3.67940498218256E-02 
1585	 3.72482609810066E-02 
1586	 3.68884150757157E-02 
1587	 3.59932409016112E-02 
1588	 3.64214708285612E-02 
1589	 3.67059421147238E-02 
1590	 3.64246166818632E-02 
1591	 0.036418477291537 
1592	 3.81954439792413E-02 
1593	 4.08512526782062E-02 
1594	 4.05665511659735E-02 
1595	 0.040025678286606 
1596	 0.040762744281573 
1597	 0.040825769444147 
1598	 4.01493601992105E-02 
1599	 3.97559243523927E-02 
1600	 4.13428913890518E-02 
1601	 4.04816802449967E-02 
1602	 3.77087318022408E-02 
1603	 0.038768776967558 
1604	 4.05900115684473E-02 
1605	 3.90334567177939E-02 
1606	 3.81440591108188E-02 
1607	 4.09190420177789E-02 
1608	 4.01090265553814E-02 
1609	 3.68910480433123E-02 
1610	 3.75748291330864E-02 
1611	 3.65677200978512E-02 
1612	 3.49558389370689E-02 
1613	 3.76191054681617E-02 
1614	 3.81514481789153E-02 
1615	 3.71233801560057E-02 
1616	 3.83566494970657E-02 
1617	 3.87056125696677E-02 
1618	 3.88926318098284E-02 
1619	 3.82581242691399E-02 
1620	 3.67731150171492E-02 
1621	 3.72076249195054E-02 
1622	 3.81641139578668E-02 
1623	 4.00735011893545E-02 
1624	 4.01473623020548E-02 
1625	 3.61845817580967E-02 
1626	 3.57851529874657E-02 
1627	 3.75288713945192E-02 
1628	 3.87620811374892E-02 
1629	 4.08788138632022E-02 
1630	 3.92334533781698E-02 
1631	 3.71449642855473E-02 
1632	 3.62807595707842E-02 
1633	 3.48102643159963E-02 
1634	 3.62492916114218E-02 
1635	 0.037980301892962 
1636	 3.61754406256805E-02 
1637	 3.42601150818811E-02 
1638	 3.52340439893422E-02 
1639	 3.63254860887514E-02 
1640	 3.64422794581378E-02 
1641	 3.72222786922475E-02 
1642	 3.64948940050018E-02 
1643	 3.39236584333726E-02 
1644	 3.28759922458015E-02 
1645	 3.39154428281321E-02 
1646	 3.50985798971337E-02 
1647	 3.61848319308743E-02 
1648	 3.67829946175146E-02 
1649	 3.50386395600184E-02 
1650	 3.47880415829466E-02 
1651	 0.03696335894931 
1652	 3.63818122389978E-02 
1653	 3.48967995795144E-02 
1654	 3.56015767826146E-02 
1655	 3.67435453657878E-02 
1656	 3.59464470115817E-02 
1657	 3.60683099271865E-02 
1658	 3.57896048780271E-02 
1659	 3.24750441987916E-02 
1660	 3.23485259065841E-02 
1661	 3.55110415240661E-02 
1662	 3.52706702264422E-02 
1663	 3.35032034797794E-02 
1664	 3.26677766322307E-02 
1665	 3.14358152438205E-02 
1666	 3.14808111714354E-02 
1667	 3.15979319504317E-02 
1668	 3.28489246665795E-02 
1669	 3.42091128975131E-02 
1670	 3.39949913634623E-02 
1671	 3.56440256108753E-02 
1672	 3.80058094230765E-02 
1673	 3.70260362641943E-02 
1674	 3.32522862761108E-02 
1675	 3.51507046866946E-02 
1676	 3.94208588678068E-02 
1677	 3.77064476358528E-02 
1678	 3.61693986819971E-02 
1679	 3.75623628465728E-02 
1680	 3.53112593962339E-02 
1681	 3.32595076700092E-02 
1682	 3.56632795498193E-02 
1683	 3.31495973821206E-02 
1684	 2.97814251514258E-02 
1685	 3.29494704618074E-02 
1686	 3.30619362817658E-02 
1687	 3.17345409120885E-02 
1688	 3.41272948423009E-02 
1689	 3.37139776219479E-02 
1690	 3.24755883147735E-02 
1691	 3.54297636825895E-02 
1692	 0.036457243234388 
1693	 3.48266982727762E-02 
1694	 3.61403705614999E-02 
1695	 3.78700578753841E-02 
1696	 3.75994802192368E-02 
1697	 3.71617689528672E-02 
1698	 3.79279612779594E-02 
1699	 3.77725887497926E-02 
1700	 3.64841235784742E-02 
1701	 3.70376191788187E-02 
1702	 3.74964449912222E-02 
1703	 3.58332396355922E-02 
1704	 3.53926057594052E-02 
1705	 3.78834071311001E-02 
1706	 3.81852711496307E-02 
1707	 3.68367417697481E-02 
1708	 0.037284329089561 
1709	 3.69726285017997E-02 
1710	 3.46282985148629E-02 
1711	 3.43173228136915E-02 
1712	 3.70860714539593E-02 
1713	 3.23692458146786E-02 
1714	 3.26754612084003E-02 
1715	 3.66618716075954E-02 
1716	 3.42438508352404E-02 
1717	 3.36744149350374E-02 
1718	 3.44985714709117E-02 
1719	 3.65925513114628E-02 
1720	 3.57004902393878E-02 
1721	 3.67728496630897E-02 
1722	 3.93116442542334E-02 
1723	 3.85910130448473E-02 
1724	 3.98353230469335E-02 
1725	 4.35523280088166E-02 
1726	 4.28611535879436E-02 
1727	 4.05672450271597E-02 
1728	 3.99229924751773E-02 
1729	 0.039404205037616 
1730	 3.83024109043193E-02 
1731	 3.76209246242994E-02 
1732	 3.84039436547243E-02 
1733	 3.58161803533221E-02 
1734	 3.34693787493966E-02 
1735	 3.36188759772351E-02 
1736	 3.18485612924876E-02 
1737	 3.19116322988082E-02 
1738	 0.034150170842376 
1739	 3.45312189047756E-02 
1740	 3.35739731388714E-02 
1741	 3.33240662790399E-02 
1742	 3.24714216164991E-02 
1743	 2.94836420844726E-02 
1744	 3.09860644717828E-02 
1745	 3.61631723625004E-02 
1746	 3.99247936713157E-02 
1747	 4.08714837532302E-02 
1748	 3.73094592045322E-02 
1749	 3.65148068345812E-02 
1750	 0.035639419492843 
1751	 0.035691469642974 
1752	 3.81546369509629E-02 
1753	 4.06497012475893E-02 
1754	 0.042811953032942 
1755	 4.28395108311069E-02 
1756	 4.32966928091857E-02 
1757	 0.045349568497849 
1758	 4.67613443655336E-02 
1759	 4.41235430274156E-02 
1760	 4.10028515904676E-02 
1761	 4.14998469963576E-02 
1762	 3.85894045338597E-02 
1763	 4.34643352947872E-02 
1764	 5.07266076143561E-02 
1765	 4.17762847006699E-02 
1766	 3.63896752744475E-02 
1767	 3.92789541218846E-02 
1768	 3.39901252511569E-02 
1769	 2.68947604094342E-02 
1770	 2.64057608969661E-02 
1771	 2.38271579038025E-02 
1772	 2.05720547806758E-02 
1773	 2.84797833893058E-02 
1774	 3.51701481877906E-02 
1775	 3.90672035007006E-02 
1776	 4.39105736341618E-02 
1777	 0.048673316666837 
1778	 5.20254398293437E-02 
1779	 5.60855262588091E-02 
1780	 5.13115544735542E-02 
1781	 3.90144467773388E-02 
1782	 4.06993135231296E-02 
1783	 3.86792749328767E-02 
1784	 3.86645352569982E-02 
1785	 5.58477480428893E-02 
1786	 5.72185503537166E-02 
1787	 4.15054118261892E-02 
1788	 4.47013196864676E-02 
1789	 6.34495499471724E-02 
1790	 7.30634067531788E-02 
1791	 7.60699095178183E-02 
1792	 5.48464876278874E-02 
1793	 1.35867741041907E-03 
1794	 1.75146519162233E-02 
1795	 2.45067776677053E-02 
1796	 5.23303145915309E-02 
1797	 0.196954031968921 
1798	 0.211166836752289 
1799	 0.208786272907324 
1800	 0.230827760167043 
1801	 0.221864256299899 
1802	 0.221161575077725 
1803	 0.305412088051936 
1804	 0.532047349858313 
1805	 0.552182804747649 
1806	 0.514186100731098 
1807	 0.39312751631913 
1808	-0.375326884312505 
1809	-0.484763218911722 
1810	 0.222749701406752 
1811	 0.469031462746 
1812	 0.829227743374068 
1813	 0.752308441837248 
1814	 0.113826136380613 
1815	 0.109975249543253 
1816	 0.364701175710724 
1817	 0.515459224076027 
1818	 0.378411481753703 
1819	 0.204929716592988 
1820	 0.15570117777639 
1821	 0.54964609047359 
1822	 1.10587085734174 
1823	 1.691337132024 
1824	 2.20380349272524 
1825	 0.657334161639367 
1826	 0.470964907534425 
1827	 0.632725583393786 
1828	 0.538862387904236 
1829	 0.395332259033454 
1830	 0.200820282530979 
1831	 2.64100522935032 
1832	 8.42928419404647 
1833	 5.79156027908682 
1834	 12.3152112171541 
1835	-33.5914551242055 
1836	-13.5255450180379 
1837	-3.11181091352756 
1838	-2.33621687790406 
1839	-3.50289038622267 
1840	-7.83055103304428 
1841	-0.256186228424583 
1842	-1.03348978772793 
1843	-1.53001661035035 
1844	-3.60072257791732 
1845	-5.31961367180249 
1846	 2.88645328091203 
1847	 2.00397884513304 
1848	-3.42762228462069 
1849	-1.64485838970661 
1850	-0.564762189043376 
1851	-0.372055632491946 
1852	 0.620045130654138 
1853	 1.36498570711621 
1854	 1.22997937740265 
1855	 0.858980239741098 
1856	 0.680571221530982 
1857	 0.30159446623939 
1858	 0.151479909068543 
1859	 6.78647501701132E-03 
1860	 4.63337883307304E-03 
1861	-0.254593430044538 
1862	-0.52684308143118 
1863	-0.227779998096928 
1864	 0.432876723250598 
1865	-0.304017337493709 
1866	 9.76778985915787 
1867	 4.00053472770522 
1868	 11.7874718989674 
1869	 43.5292856552097 
1870	-24.5545662587814 
1871	-5.72438524747703E-02 
1872	-0.252845779890936 
1873	-0.142223356963096 
1874	 0.308592755749746 
1875	 0.364209919604575 
1876	 0.374709259369764 
1877	 0.759373103583276 
1878	 0.69322279331405 
1879	 4.72950899569849E-02 
1880	-0.203772278955086 
1881	-0.139557427375591 
1882	-0.200125529621295 
1883	-0.385574749996387 
1884	-1.14667744963289 
1885	-3.7437624089671 
1886	-50.7708049339571 
1887	 5.95255101992811 
1888	-12.2859612572792 
1889	-3.59134358729805 
1890	-0.776825335991036 
1891	-0.147984600371687 
1892	 0.941787655815728 
1893	 3.2393672132746 
1894	 11.1385033087942 
1895	 15.5687545132561 
1896	 4.99856873555366 
1897	 0.524403354505482 
1898	-0.18345764099498 
1899	-1.02649087051888 
1900	-6.45381327998681 
1901	 2.61846052739041 
1902	 2.29742419450901 
1903	 1.96719028461595 
1904	 3.13685807322528 
1905	-0.762022904242133 
1906	 0.048364871943751 
1907	 0.520826078864637 
1908	 1.47597181488328 
1909	 2.51359783071645 
1910	 6.32654254369134 
1911	-20.5761095321107 
1912	 10.9657954307893 
1913	 45.9906190970319 
1914	-3.05310658653929 
1915	-2.78284154992915 
1916	-3.20517835924533 
1917	-3.98799957670262 
1918	-5.58485506238454 
1919	 3.88639780638521 
1920	 1.75887096573226 
1921	 2.29624129802896 
1922	 2.30279580871455 
1923	 1.9972405313542 
1924	 2.23034540097502 
1925	 1.48475706388674 
1926	 1.55473487008136 
1927	 1.86280466826785 
1928	 3.01793580405753 
1929	 19.0172563789786 
1930	-3.81695109802468 
1931	-1.96629657383813 
1932	-1.62223816467479 
1933	-1.52547532937633 
1934	-1.25288101625727 
1935	-1.19642317298849 
1936	 0.782087651999764 
1937	 1.10711485748289E-02 
1938	 0.144902767473966 
1939	 0.147212653811721 
1940	 0.161234514729925 
1941	 0.397326271036709 
1942	 0.64374275868922 
1943	 0.216753058890475 
1944	-7.82511478191947E-02 
1945	 0.479557246276273 
1946	 0.31334725586998 
1947	-28.6958717309325 
1948	 2.67381166455124 
1949	 0.864340756703584 
1950	 0.130761054594081 
1951	-0.102622727223127 
1952	-0.27609890960752 
1953	-2.22069262931572 
1954	 1.1289274513647 
1955	-0.601407339324315 
1956	-0.663177797505631 
1957	-0.292735405618195 
1958	-0.106909722997545 
1959	 0.134772275346126 
1960	 0.090190338964809 
1961	-0.241172806414722 
1962	-0.411859445297244 
1963	-0.488634172555297 
1964	-0.924438000392904 
1965	-0.57153655820637 
1966	-0.389276146745686 
1967	-5.03561961117078E-02 
1968	-0.348610358730214 
1969	-0.190273107462342 
1970	-0.165419833607021 
1971	-0.186237916723821 
1972	-0.234142197432482 
1973	-0.166152470564955 
1974	-0.182001093061837 
1975	-0.220442834199705 
1976	-0.155893412074552 
1977	-0.18245303536497 
1978	-5.89651936836457E-02 
1979	-5.81065495200152E-03 
1980	 3.45867706008546E-02 
1981	 0.146847628405499 
1982	 0.368772597151586 
1983	 0.290844825479489 
1984	 0.296931357294478 
1985	 0.304102146446788 
1986	 0.247939563761964 
1987	 0.213659909577395 
1988	 0.245476716458583 
1989	 0.338198805834948 
1990	 0.242933430402998 
1991	 0.149825979824166 
1992	 0.147508986495785 
1993	 0.080123176234731 
1994	 0.005592383207706 
1995	-5.76539411559694E-02 
1996	-0.164747894672979 
1997	-0.337003380656024 
1998	-0.42317876210867 
1999	-0.356657074591877 
2000	 7.13723233310796E-02 
2001	 0.473870001847928 
2002	 0.85475980465133 
2003	 1.50411505607649 
2004	 1.08237421890867 
2005	 0.548422165910197 
2006	 0.442279064205504 
2007	 0.296119102639882 
2008	 0.231748538443402 
2009	 7.76389679744668E-02 
2010	-0.304684631487613 
2011	-0.710532907482507 
2012	-1.80217894734939 
2013	-0.692443383428944 
2014	-0.158455272517192 
2015	-0.011594822206673 
2016	 9.32778555649658E-02 
2017	 0.233169054162935 
2018	 0.275240523878602 
2019	 0.2280735032026 
2020	 0.173219716105044 
2021	 0.152196011156295 
2022	 0.144474952772984 
2023	 0.173943138141383 
2024	 0.18547142969076 
2025	 0.248754657249859 
2026	 0.22754704623607 
2027	 0.179254692693834 
2028	 0.112368988120486 
2029	 0.106272522533453 
2030	 0.077828934932265 
2031	 4.10382461057025E-02 
2032	 6.43009711657389E-02 
2033	 0.061597603066673 
2034	 2.90193242721304E-02 
2035	 0.042823364070319 
2036	 6.02165754005236E-02 
2037	 4.15072126342171E-02 
2038	 4.27234441764507E-02 
2039	 5.81159542175484E-02 
2040	 9.77529848580424E-02 
2041	 0.08629466300951 
2042	 6.65166883381676E-02 
2043	 5.38437118119717E-02 
2044	 6.30060455405903E-04 
2045	-2.20002728211951E-02 
2046	 1.91711658847492E-02 
2047	 2.26022714619177E-02 
2048	 2.84265577316955E-02 
2049	 0.041523800848423 
2050	 5.11836117897937E-03 
2051	 2.90886558537508E-02 
2052	 8.61529688490866E-02 
2053	 7.10712193595184E-02 
2054	 8.88815207598603E-02 
2055	 0.128634344361924 
2056	 0.137142622593433 
2057	 0.126199526352481 
2058	 0.120220347781124 
2059	 0.087179210687696 
2060	 7.74273239139265E-02 
2061	 7.02853565144902E-02 
2062	 9.21346607225396E-02 
2063	 8.85932992550588E-02 
2064	 0.112587152296874 
2065	 0.131927135638805 
2066	 0.128001316867171 
2067	 0.162293346353442 
2068	 0.172886000626138 
2069	 0.122269007849863 
2070	 8.28716013051194E-02 
2071	 6.08482538240432E-02 
2072	 2.33640734211842E-02 
2073	 9.64174590741783E-03 
2074	 4.05548713030762E-02 
2075	 3.35920933416791E-02 
2076	 5.63112592126171E-03 
2077	 4.9168471801888E-03 
2078	 5.44210526473284E-05 
2079	 1.43205591048889E-03 
2080	 2.07042198729427E-02 
2081	 3.47982071784576E-02 
2082	 3.63168023266142E-02 
2083	 4.07356112922694E-02 
2084	 4.70600251500616E-02 
2085	 5.73783798210979E-02 
2086	 5.19735639681187E-02 
2087	 5.33871822761542E-02 
2088	 7.34439841979152E-02 
2089	 7.75466326015305E-02 
2090	 7.09373832124696E-02 
2091	 8.18639967800424E-02 
2092	 7.89217383404974E-02 
2093	 5.11579206884859E-02 
2094	 4.80211272820165E-02 
2095	 6.17414366362691E-02 
2096	 5.84280065721211E-02 
2097	 5.24837274739676E-02 
2098	 4.94510736593299E-02 
2099	 4.29021851466982E-02 
2100	 3.10780751516795E-02 
2101	 2.16004186597247E-02 
2102	 3.26158870450866E-02 
2103	 4.08420274636436E-02 
2104	 4.28859309252065E-02 
2105	 5.36965814248052E-02 
2106	 4.51575764661988E-02 
2107	 1.90462818805594E-02 
2108	 4.00191776400375E-03 
2109	-4.72256858545559E-04 
2110	-1.57084978371106E-03 
2111	 4.10987891403267E-03 
2112	 8.88582301277676E-03 
2113	 1.02332657001351E-02 
2114	 1.14013780423015E-03 
2115	 6.97943619542095E-03 
2116	 1.90128866480691E-02 
2117	 3.02242710105089E-02 
2118	 5.16105580185914E-02 
2119	 6.12436111299882E-02 
2120	 6.28698402171246E-02 
2121	 6.97472340912712E-02 
2122	 8.37212917084633E-02 
2123	 8.84599908295418E-02 
2124	 7.17975228655801E-02 
2125	 6.50177514059621E-02 
2126	 6.35348404220492E-02 
2127	 5.13545299679498E-02 
2128	 4.89935650371434E-02 
2129	 5.50265515232167E-02 
2130	 5.23973340638689E-02 
2131	 3.56095581628791E-02 
2132	 2.23646162898381E-02 
2133	 1.37446660308479E-02 
2134	 1.53578512067325E-02 
2135	 2.05564797406576E-02 
2136	 2.59814831043604E-02 
2137	 4.94684178867726E-02 
2138	 5.38125931667805E-02 
2139	 3.98423349688065E-02 
2140	 3.85313793192456E-02 
2141	 0.038489393444671 
2142	 0.038016128639008 
2143	 4.15591670052346E-02 
2144	 4.51057290097853E-02 
2145	 3.78349517617844E-02 
2146	 3.71176238192054E-02 
2147	 4.19065549217428E-02 
2148	 3.20733638063879E-02 
2149	 0.027919995603628 
2150	 3.50602662582981E-02 
2151	 3.75360653859031E-02 
2152	 4.79987527153599E-02 
2153	 5.42505518970523E-02 
2154	 4.35305990648216E-02 
2155	 4.65887276684163E-02 
2156	 5.71906917574002E-02 
2157	 6.30999325018413E-02 
2158	 8.67028303904707E-02 
2159	 0.084971989640888 
2160	 5.99625355414481E-02 
2161	 5.00693377890704E-02 
2162	 2.66761980711965E-02 
2163	 0.018386910995217 
2164	 2.94169716329373E-02 
2165	 3.12735273883145E-02 
2166	 3.31885103605321E-02 
2167	 4.69494814045132E-02 
2168	 7.10619166306203E-02 
2169	 8.08281746374767E-02 
2170	 9.13243361767185E-02 
2171	 0.098291741217143 
2172	 9.08332130298366E-02 
2173	 7.12775144376222E-02 
2174	 6.78638282043504E-02 
2175	 6.50366768625748E-02 
2176	 6.11018399904035E-02 
2177	 7.10784335952544E-02 
2178	 6.18729245530417E-02 
2179	 5.31760413003173E-02 
2180	 5.16066654554211E-02 
2181	 5.12792973862428E-02 
2182	 7.91062325521284E-02 
2183	 9.88756903513555E-02 
2184	 0.101647928026503 
2185	 0.10593169989266 
2186	 0.102031776877865 
2187	 8.04554897242136E-02 
2188	 7.04628638560185E-02 
2189	 0.058380675522023 
2190	 0.052856553742298 
2191	 5.78954589696968E-02 
2192	 5.32614493142575E-02 
2193	 4.47285814419924E-02 
2194	 4.49595105030832E-02 
2195	 4.70862974299681E-02 
2196	 4.57196759694421E-02 
2197	 5.13939932780674E-02 
2198	 5.42082325513411E-02 
2199	 5.71662136368714E-02 
2200	 3.83437123439244E-02 
2201	 2.83519521187158E-02 
2202	 3.78240969687379E-02 
2203	 0.019466750629717 
2204	 0.020295719440188 
2205	 5.39242113959812E-02 
2206	 3.10647110640527E-02 
2207	 2.22960289777349E-02 
2208	 4.42126822781046E-02 
2209	 2.79928098661551E-02 
2210	 3.21674888976088E-02 
2211	 3.99636268430924E-02 
2212	 2.29513815517254E-02 
2213	 1.42569788823033E-02 
2214	 1.42902030764899E-02 
2215	 2.17475577398983E-02 
2216	 1.51462969482942E-02 
2217	 1.80982000503776E-02 
2218	 2.24057373964113E-02 
2219	 3.55297721532831E-02 
2220	 6.75204230320959E-02 
2221	 7.73442600799683E-02 
2222	 8.10113686797245E-02 
2223	 0.084316324067904 
2224	 6.53782245427191E-02 
2225	 6.96264484761711E-02 
2226	 9.39009432268161E-02 
2227	 9.97978366020533E-02 
2228	 0.11619108461794 
2229	 0.10102915799032 
2230	 4.02792316257171E-02 
2231	 2.12767884847292E-02 
2232	 3.88648265206038E-03 
2233	-9.52598460739744E-04 
2234	 2.53935772829876E-02 
2235	 5.11278979714421E-02 
2236	 5.67534825065573E-02 
2237	 0.053644121186976 
2238	 4.84379530862186E-02 
2239	 5.49884129094337E-02 
2240	 6.44106595523556E-02 
2241	 6.71339730289586E-02 
2242	 7.65109898864082E-02 
2243	 6.87055933454113E-02 
2244	 4.97857484247073E-02 
2245	 4.46586065685365E-02 
2246	 4.74288221476222E-02 
2247	 6.03576973660371E-02 
2248	 7.31293369808728E-02 
2249	 7.22968485379726E-02 
2250	 4.36702858440005E-02 
2251	 1.94403377463409E-02 
2252	 2.97348441742164E-02 
2253	 1.53869434746347E-02 
2254	 0.024590168945189 
2255	 5.53584703149032E-02 
2256	 5.15152230217385E-02 
2257	 7.05595909314422E-02 
2258	 7.88255190603335E-02 
2259	 5.33149863759073E-02 
2260	 5.30589177822342E-02 
2261	 6.35129599281015E-02 
2262	 6.58440163901312E-02 
2263	 9.02703537802258E-02 
2264	 0.07485882177334 
2265	 2.96041901802952E-03 
2266	-8.58567378987607E-03 
2267	-3.36603378458279E-03 
2268	 6.71514454412294E-03 
2269	 7.73708558686127E-02 
2270	 9.51665617862765E-02 
2271	 5.00794716051399E-02 
2272	 6.10200731896377E-02 
2273	 0.105197103450058 
2274	 0.120447792458178 
2275	 0.153094919913652 
2276	 0.160828228600268 
2277	 0.124685162053753 
2278	 0.112005094353709 
2279	 0.114517915451123 
2280	 0.100522428102643 
2281	 7.09702612408994E-02 
2282	 5.78885380576376E-02 
2283	 5.66060011283113E-02 
2284	 6.11475518953162E-02 
2285	 7.17169534175184E-02 
2286	 5.52301124361567E-02 
2287	 3.49116794258661E-02 
2288	 0.051884734880798 
2289	 6.43077706932484E-02 
2290	 6.56310898854464E-02 
2291	 4.35804902740896E-02 
2292	-8.43435331861649E-03 
2293	-2.03856615750249E-02 
2294	-1.06264903790672E-02 
2295	 5.20678415687178E-02 
2296	 0.117226924116482 
2297	 0.111324473138074 
2298	 0.11213780910747 
2299	 4.67512779083664E-02 
2300	-4.62768650282767E-02 
2301	-4.36506241549593E-02 
2302	-4.99672877247791E-02 
2303	-6.22157089109542E-02 
2304	-1.39167575299224E-02 
2305	-1.79118094536781E-02 
2306	-1.69977062142031E-02 
2307	-8.69883025503967E-03 
2308	-1.69749610428605E-02 
2309	-1.13600523418307E-02 
2310	-4.95896581397215E-02 
2311	-2.02371135020312E-03 
2312	 6.65466448287516E-02 
2313	 0.009403123592891 
2314	 0.027610940934971 
2315	 8.00708273383662E-02 
2316	 3.64392072081084E-02 
2317	 5.23945309165666E-02 
2318	 0.139272517682833 
2319	 0.153605730703215 
2320	 0.181670317803287 
2321	 0.221818486996261 
2322	 0.181650456991285 
2323	 6.44154755853253E-02 
2324	-1.44925929366253E-02 
2325	-8.26464976600404E-02 
2326	-8.92868358744843E-02 
2327	-3.22417344660994E-03 
2328	-4.48382502386557E-02 
2329	 4.00737903100028E-02 
2330	 0.18369313512958 
2331	 0.205872908440738 
2332	 0.275721149189528 
2333	 0.299192357475203 
2334	 0.246545185628237 
2335	 0.265202967012408 
2336	 0.312539763296931 
2337	 0.277058797253732 
2338	 0.237950460357426 
2339	 0.194270700010859 
2340	 0.155141757370808 
2341	 0.233261793845884 
2342	 0.19911358960657 
2343	-3.88913662177463E-02 
2344	-0.084739562409269 
2345	-0.153570937126991 
2346	-0.24304628435952 
2347	 3.26963336606749E-03 
2348	 0.213674010018311 
2349	 0.275968134385409 
2350	 0.313191772023568 
2351	 0.315866993983137 
2352	 0.251860442993909 
2353	 0.196036381268265 
2354	 0.300599743174643 
2355	 0.485542712259233 
2356	 0.605316064826803 
2357	 0.569184307620659 
2358	 0.49033326363559 
2359	 0.308063430124653 
2360	-0.11172450322303 
2361	-0.382339165812587 
2362	-0.418046657760811 
2363	-0.334332560782326 
2364	-0.1251689399138 
2365	 9.90534764817968E-03 
2366	 3.77562806297672E-02 
2367	-0.118976830064136 
2368	-0.227320222834455 
2369	-0.169602876635756 
2370	-0.180832866997716 
2371	-5.27366679765936E-02 
2372	 0.182544207167329 
2373	 0.186753829001163 
2374	 0.170990868454821 
2375	 0.279561292080276 
2376	-0.032187582365973 
2377	-0.159308043398535 
2378	-0.102480462190794 
2379	-0.189695033262723 
2380	-0.273525383212107 
2381	 7.21675243947507E-02 
2382	 0.178896011358061 
2383	 0.574505502229029 
2384	 1.63492041798099 
2385	 3.11225765025225 
2386	-1.47657367292707 
2387	-2.15610511019272 
2388	-4.05546701441717 
2389	-7.40521377388732 
2390	-3.45591450070068 
2391	-0.602821036948457 
2392	 0.144141132741603 
2393	-90.4047927270208 
2394	 2.46529322255725 
2395	 449.73505587353 
2396	 24.5990631544767 
2397	-0.348296844499955 
2398	-45.1585719761953 
2399	 4.54134139105854 
2400	-15.0967576918145 
2401	 2.85552469474344 
2402	 0.392212811108577 
2403	 0.4332911906157 
2404	 3.03712218084131 
2405	 1.36628685463871 
2406	-1.82582377861 
2407	 0.449757075302223 
2408	-3.11717755796184 
2409	-0.919279677685885 
2410	-1.17718495090838 
2411	-2.68276685937363 
2412	-2.1617920954738 
2413	-0.925977731368339 
2414	-0.413872823382658 
2415	 0.900424474002826 
2416	-5.27488807673727 
2417	-1.84740170505452 
2418	-1.20959794554783 
2419	-1.3863567582364 
2420	-0.877439947558626 
2421	-0.300187981255987 
2422	-0.482300027861456 
2423	-2.25024292427462 
2424	 2.07093715617709 
2425	 2.13469302982472 
2426	-14.2753985225023 
2427	-4.80897236442338 
2428	-7.76381110777521 
2429	-4.68026288093348 
2430	 6.29948056554626 
2431	-3.73330323232273 
2432	-0.754259191464768 
2433	-0.201774331833512 
2434	 0.592955350981582 
2435	 0.783990215705648 
2436	 0.881589428651466 
2437	 0.866600459828038 
2438	 0.773607777164571 
2439	-2.72302541425055E-02 
2440	-0.119463974107151 
2441	-0.5444791617799 
2442	-5.06869148083521 
2443	 1.32258554889357 
2444	 0.408411264459495 
2445	 0.57868715288149 
2446	 1.09562371425054 
2447	 3.96447844208258 
2448	-4.42852612515518 
2449	-0.23963764597858 
2450	-0.227384455548427 
2451	-0.67671611011043 
2452	-7.29319152695598 
2453	 3.22829682787603 
2454	 2.00569958948608 
2455	 0.88022244692685 
2456	 0.69703123927559 
2457	 0.830682352544761 
2458	 0.518409386949229 
2459	 0.351610926558499 
2460	 0.513655944025635 
2461	 0.693067519140292 
2462	 0.94470906471671 
2463	 1.99369333628434 
2464	 0.794448313900359 
2465	-0.346667781198066 
2466	-1.31995883504188 
2467	-0.870821038541884 
2468	-0.128706890701803 
2469	 31.2190031845538 
2470	 1.35508741862451 
2471	 0.335671668470259 
2472	 0.491700131612244 
2473	 0.300260367350905 
2474	-0.005240935578473 
2475	 0.880081373181549 
2476	 0.45450012592804 
2477	-0.36048512174252 
2478	-0.335311084817218 
2479	-0.413732554968687 
2480	-0.429434833391457 
2481	 2.27256011869575E-02 
2482	 0.833419027160924 
2483	 0.837817442457875 
2484	 0.355386863021299 
2485	 2.92378957527156 
2486	-2.26996717465763 
2487	-9.25698847454602 
2488	-5.14893986312502 
2489	-11.9267296585931 
2490	 2.71938619211357E-02 
2491	 1.91655192930702 
2492	-0.786183457259463 
2493	-0.618140967156972 
2494	-1.41915376580552 
2495	 2.17540351249662 
2496	-0.154857298358312 
2497	-0.417825121245823 
2498	-0.410050849079022 
2499	-0.376069674131299 
2500	-9.65848029972752E-02 
