Wavelength	rt0712west_close00000.asd
350	 7.96349689506405E-02 
351	 8.09803063826495E-02 
352	 0.081783215883822 
353	 0.081756511524739 
354	 8.12561555264456E-02 
355	 8.09951194164166E-02 
356	 0.08230045067794 
357	 8.28269932948689E-02 
358	 8.07415197279262E-02 
359	 8.15291213496106E-02 
360	 8.18065177035249E-02 
361	 8.14337701602604E-02 
362	 8.24299749896577E-02 
363	 8.27831087355716E-02 
364	 8.27041059491211E-02 
365	 8.24395454484687E-02 
366	 8.18123338642947E-02 
367	 8.24107830126608E-02 
368	 8.32746730119523E-02 
369	 8.32037722269037E-02 
370	 8.27743846350596E-02 
371	 8.18826522312243E-02 
372	 8.15457777411645E-02 
373	 8.29515732272675E-02 
374	 8.28943230361545E-02 
375	 8.29641648134172E-02 
376	 8.36530416962655E-02 
377	 8.32802318450943E-02 
378	 8.37306044097365E-02 
379	 8.45640138760003E-02 
380	 8.49561274121012E-02 
381	 0.084733677049444 
382	 8.44009327106374E-02 
383	 8.40783196678969E-02 
384	 8.39382114704178E-02 
385	 0.086148245836639 
386	 8.65493992071086E-02 
387	 8.48415972221356E-02 
388	 8.53909055143276E-02 
389	 8.57478315636748E-02 
390	 8.65221872129836E-02 
391	 8.77760517367687E-02 
392	 8.67272211223478E-02 
393	 8.70097302815337E-02 
394	 8.76496683834871E-02 
395	 8.67366683582517E-02 
396	 8.73299331408779E-02 
397	 8.80148940421744E-02 
398	 8.82916015782053E-02 
399	 8.86566931254528E-02 
400	 8.85050290190357E-02 
401	 8.82154769219143E-02 
402	 8.82720809199885E-02 
403	 8.92532329250182E-02 
404	 8.90278110627128E-02 
405	 8.85186046080736E-02 
406	 8.93016180743971E-02 
407	 8.94601260504773E-02 
408	 8.92663248903704E-02 
409	 8.92863943245396E-02 
410	 9.01356471809539E-02 
411	 9.01663370293847E-02 
412	 0.090234092480228 
413	 9.09406830505848E-02 
414	 9.11847033741045E-02 
415	 9.11948510551034E-02 
416	 9.11998712362901E-02 
417	 9.14274237159059E-02 
418	 9.19896749646852E-02 
419	 0.092146389952026 
420	 9.20758755254119E-02 
421	 9.29363759661021E-02 
422	 9.31067105332541E-02 
423	 9.32248496967226E-02 
424	 9.38630829660158E-02 
425	 9.40201822364232E-02 
426	 0.094529903724989 
427	 9.52170059887184E-02 
428	 9.54956015410708E-02 
429	 9.56088090216417E-02 
430	 9.60105146143893E-02 
431	 9.66989828717792E-02 
432	 9.71327271024221E-02 
433	 9.72973746472627E-02 
434	 9.76045390361443E-02 
435	 9.82365200280709E-02 
436	 9.83580403257794E-02 
437	 9.88293206086842E-02 
438	 9.94747431450281E-02 
439	 0.099651663941159 
440	 0.100114564006862 
441	 0.100608060260669 
442	 0.100979263443343 
443	 0.101394789732273 
444	 0.101721999123601 
445	 0.10214944076061 
446	 0.102788883963002 
447	 0.103166133334056 
448	 0.103227270102468 
449	 0.103256604856834 
450	 0.103722929571121 
451	 0.104192400894881 
452	 0.104426481639227 
453	 0.104489601884598 
454	 0.10501914895954 
455	 0.105252789863958 
456	 0.105365506749125 
457	 0.105753148189507 
458	 0.106057168754018 
459	 0.106137901297457 
460	 0.106114230596747 
461	 0.106336896375478 
462	 0.106633077778779 
463	 0.106783184184049 
464	 0.106766918826194 
465	 0.107153014826278 
466	 0.107416598051819 
467	 0.107506352981406 
468	 0.107621208106249 
469	 0.107887739947014 
470	 0.108177243299046 
471	 0.108335696011993 
472	 0.10821062593268 
473	 0.108329014976101 
474	 0.108862101755877 
475	 0.109610593085711 
476	 0.109473553184541 
477	 0.109602509585949 
478	 0.110093193112806 
479	 0.110331581693823 
480	 0.110657117032297 
481	 0.110926296428913 
482	 0.111099154769495 
483	 0.111455730151684 
484	 0.11190435347958 
485	 0.112317143112561 
486	 0.11262230740686 
487	 0.113143650433122 
488	 0.113747004901325 
489	 0.114173602423971 
490	 0.114132036597637 
491	 0.114929417225745 
492	 0.115640870692158 
493	 0.115639527356579 
494	 0.116362432480381 
495	 0.116979325275244 
496	 0.117356691102581 
497	 0.117712720966032 
498	 0.118107853073325 
499	 0.118432794621341 
500	 0.118782129792687 
501	 0.119611894564857 
502	 0.120122767485828 
503	 0.120328752946993 
504	 0.120585206406984 
505	 0.12149523721077 
506	 0.122334372727719 
507	 0.122913890569239 
508	 0.123501450196337 
509	 0.123991092532486 
510	 0.124779502758552 
511	 0.125908372821168 
512	 0.126456968424961 
513	 0.126998822221565 
514	 0.127627526403958 
515	 0.128270237424505 
516	 0.129103957124701 
517	 0.130026874916628 
518	 0.130849981806785 
519	 0.131326274689602 
520	 0.131867401900051 
521	 0.132597005742586 
522	 0.133501984802231 
523	 0.134375932517407 
524	 0.135307830287212 
525	 0.136246432049797 
526	 0.137050895877899 
527	 0.137698630452973 
528	 0.13839237749229 
529	 0.139270770242738 
530	 0.140328410781058 
531	 0.141196376367615 
532	 0.141982071348928 
533	 0.142923911051231 
534	 0.14381801975797 
535	 0.144791804706377 
536	 0.145819393525584 
537	 0.146678095751417 
538	 0.147465416062594 
539	 0.148213547115531 
540	 0.149005020180803 
541	 0.150167317442756 
542	 0.15106956482544 
543	 0.151772663230067 
544	 0.152757653525354 
545	 0.153829761821884 
546	 0.155121795790602 
547	 0.15650539549627 
548	 0.157274837385599 
549	 0.158119542166568 
550	 0.159233950566397 
551	 0.160526664031948 
552	 0.16137685377159 
553	 0.162208985205426 
554	 0.163224176863313 
555	 0.164287705332937 
556	 0.165005063388 
557	 0.165731735334989 
558	 0.16678194359583 
559	 0.167756504966069 
560	 0.1683812378117 
561	 0.16892095012434 
562	 0.169918065474167 
563	 0.170853443553359 
564	 0.171611724592889 
565	 0.172176345336878 
566	 0.172600122840232 
567	 0.17298060967575 
568	 0.173421765108658 
569	 0.174009284677993 
570	 0.174777502189562 
571	 0.17541060983015 
572	 0.175837995658718 
573	 0.176268142829871 
574	 0.176790832325663 
575	 0.177329901462214 
576	 0.177807871579635 
577	 0.178301242024377 
578	 0.178837449401174 
579	 0.179379191076837 
580	 0.179855139924849 
581	 0.180331699124831 
582	 0.180521783098626 
583	 0.180347619886277 
584	 0.180181475585845 
585	 0.179725606618893 
586	 0.178952064035282 
587	 0.17793921708028 
588	 0.176841201417148 
589	 0.176119770652552 
590	 0.17600051667783 
591	 0.176269685047572 
592	 0.176511499419786 
593	 0.176581640171036 
594	 0.176430856502115 
595	 0.176042006434035 
596	 0.175833571240085 
597	 0.175648958118542 
598	 0.175121127983157 
599	 0.174958094287222 
600	 0.175000019779914 
601	 0.175027548268119 
602	 0.174883940794986 
603	 0.174818800967465 
604	 0.174660650621763 
605	 0.174309239554457 
606	 0.174743213931181 
607	 0.17498036062937 
608	 0.17475647980864 
609	 0.174644418020707 
610	 0.174741135827678 
611	 0.174844676879109 
612	 0.174803005323479 
613	 0.174822987067652 
614	 0.175056247194279 
615	 0.17515496394152 
616	 0.174644602698377 
617	 0.174688799968842 
618	 0.174754917176076 
619	 0.174605312820851 
620	 0.174807347765308 
621	 0.174654615298686 
622	 0.174427756133054 
623	 0.174516336081699 
624	 0.174160034962676 
625	 0.173706481676323 
626	 0.173274348393268 
627	 0.172759838719761 
628	 0.172885481284637 
629	 0.173024705012624 
630	 0.172838173628581 
631	 0.17351793838179 
632	 0.173504969275757 
633	 0.173143338523541 
634	 0.17349632334311 
635	 0.173622306294224 
636	 0.173683718129635 
637	 0.173816299347344 
638	 0.173984584226897 
639	 0.173911707266905 
640	 0.173710314874317 
641	 0.173548470583464 
642	 0.173258394248278 
643	 0.173077565341003 
644	 0.17273322905428 
645	 0.171542466345898 
646	 0.170388069080225 
647	 0.170104615143316 
648	 0.170753020714779 
649	 0.170809145422822 
650	 0.170731819893544 
651	 0.17067781547253 
652	 0.17066847751454 
653	 0.170315876547579 
654	 0.16975955619119 
655	 0.169197524348171 
656	 0.168918721972114 
657	 0.168725649271323 
658	 0.16862611779371 
659	 0.168589672467988 
660	 0.168346228982668 
661	 0.167942494634691 
662	 0.167582182623697 
663	 0.167540078983174 
664	 0.167613310608309 
665	 0.167551420293067 
666	 0.167297117070121 
667	 0.167124648100651 
668	 0.167069298066737 
669	 0.167116625540492 
670	 0.167154142860533 
671	 0.16672714739888 
672	 0.166503022821382 
673	 0.166641911694951 
674	 0.16678200589607 
675	 0.166942786853602 
676	 0.166944257371888 
677	 0.16681460982813 
678	 0.167209888191333 
679	 0.167419078520785 
680	 0.167202266063818 
681	 0.166708688761035 
682	 0.167084252103471 
683	 0.167386120747267 
684	 0.167055611967529 
685	 0.166192230524958 
686	 0.165509216648511 
687	 0.165138969205866 
688	 0.164974514247424 
689	 0.165255003919599 
690	 0.16497337250194 
691	 0.164010877624182 
692	 0.162826918280982 
693	 0.1619619539151 
694	 0.161953750076116 
695	 0.162523799640614 
696	 0.162688176091972 
697	 0.161735741743871 
698	 0.159924189805759 
699	 0.158276024766519 
700	 0.158378183011598 
701	 0.15832899660319 
702	 0.157529785817267 
703	 0.156566250187996 
704	 0.155577435684964 
705	 0.154325636887932 
706	 0.152968967556546 
707	 0.152546638725907 
708	 0.15128880709226 
709	 0.149753319129687 
710	 0.148934234060852 
711	 0.147006869755115 
712	 0.144845550476524 
713	 0.142742106611105 
714	 0.14016471156884 
715	 0.136865100000043 
716	 0.132326084611643 
717	 0.127248102077419 
718	 0.124015213373868 
719	 0.122817207478833 
720	 0.122334899805081 
721	 0.121306381149186 
722	 0.119751107487901 
723	 0.116400905246473 
724	 0.112190807255963 
725	 0.110513838985215 
726	 0.108347653142545 
727	 0.10552245951816 
728	 0.102572150550045 
729	 0.100222484649879 
730	 9.77080393084895E-02 
731	 9.51942856250001E-02 
732	 9.29221542470074E-02 
733	 9.19312868130878E-02 
734	 9.02684803259756E-02 
735	 8.77699096052081E-02 
736	 8.67652264234778E-02 
737	 8.61788823213183E-02 
738	 8.56853041036263E-02 
739	 8.52689646471059E-02 
740	 8.53146929974138E-02 
741	 8.50722192333496E-02 
742	 8.48741847273237E-02 
743	 0.085358226978475 
744	 0.085268900337052 
745	 8.48449120776626E-02 
746	 8.45394271969669E-02 
747	 8.48780577236206E-02 
748	 8.49979237502088E-02 
749	 8.48281292308847E-02 
750	 8.46184659209498E-02 
751	 8.49649936324094E-02 
752	 8.50082191272986E-02 
753	 8.47257688752384E-02 
754	 8.45630202534165E-02 
755	 8.45628259770775E-02 
756	 8.44623484233434E-02 
757	 8.41560822878417E-02 
758	 8.37052166703528E-02 
759	 8.22529818329844E-02 
760	 7.99004657473693E-02 
761	 7.96047393800756E-02 
762	 7.89515041998833E-02 
763	 0.07988627331974 
764	 8.17509085593128E-02 
765	 8.33200440170799E-02 
766	 8.38699470114226E-02 
767	 8.44207643496509E-02 
768	 8.51239006117589E-02 
769	 8.54813005348163E-02 
770	 8.58335212854122E-02 
771	 0.085940113204847 
772	 8.58045219572904E-02 
773	 8.63699006772264E-02 
774	 8.69363869923826E-02 
775	 8.73093129391304E-02 
776	 8.75500877996015E-02 
777	 8.78098239540664E-02 
778	 8.80489728934099E-02 
779	 8.83017648733489E-02 
780	 8.86798705973991E-02 
781	 8.90229967627413E-02 
782	 8.94739521338125E-02 
783	 8.99931765746358E-02 
784	 0.089935609532728 
785	 0.090380956046391 
786	 0.090878113439879 
787	 9.06620291967075E-02 
788	 0.090968953708829 
789	 9.12724445367713E-02 
790	 9.18301758129119E-02 
791	 9.33597775453323E-02 
792	 0.093936453414323 
793	 9.40921525630139E-02 
794	 9.43079547106253E-02 
795	 9.44092710877509E-02 
796	 9.53622927486614E-02 
797	 9.62222205318645E-02 
798	 9.61290658998426E-02 
799	 9.62570875684717E-02 
800	 9.65002978413337E-02 
801	 9.70042682301431E-02 
802	 9.78598268925057E-02 
803	 0.097983013377316 
804	 9.82852513122162E-02 
805	 9.89662473256593E-02 
806	 9.93409944516076E-02 
807	 9.87127841319179E-02 
808	 9.77418138149082E-02 
809	 9.70005840995668E-02 
810	 9.57214688360842E-02 
811	 9.56801092174611E-02 
812	 9.54275356877541E-02 
813	 9.25105501807911E-02 
814	 9.19821683376319E-02 
815	 9.11065673458661E-02 
816	 8.98767746015652E-02 
817	 9.06976349206114E-02 
818	 0.0904079404333 
819	 9.01646455774189E-02 
820	 9.00190416839664E-02 
821	 8.83320106765875E-02 
822	 0.085955349429564 
823	 8.39942521792992E-02 
824	 8.29291408001517E-02 
825	 8.19035175709627E-02 
826	 7.97498412015836E-02 
827	 7.74777763836036E-02 
828	 7.65770427800562E-02 
829	 7.36254763384414E-02 
830	 0.071322583680425 
831	 7.00915544620757E-02 
832	 6.87837517277031E-02 
833	 6.81783592656366E-02 
834	 0.067988809724888 
835	 6.77090742854033E-02 
836	 6.67684544543146E-02 
837	 6.64146545085968E-02 
838	 6.65463384327863E-02 
839	 6.67263275026998E-02 
840	 6.65015511934013E-02 
841	 0.065887077422444 
842	 6.51445676159384E-02 
843	 6.45998763857835E-02 
844	 0.064310190906265 
845	 6.42027716117569E-02 
846	 6.42625979617436E-02 
847	 6.44072429864645E-02 
848	 6.35729124064824E-02 
849	 6.26855136405614E-02 
850	 6.24918031675492E-02 
851	 6.30425513259932E-02 
852	 6.20890876089652E-02 
853	 6.15155678018511E-02 
854	 6.23121460099006E-02 
855	 6.17754591837447E-02 
856	 6.12212814439853E-02 
857	 6.11689078715599E-02 
858	 0.061584366987498 
859	 6.13586973262379E-02 
860	 6.08870462486319E-02 
861	 6.03286498510255E-02 
862	 5.97908449149224E-02 
863	 5.97982505875605E-02 
864	 6.00314587900938E-02 
865	 5.97746696231052E-02 
866	 0.058379701094242 
867	 5.86463718754611E-02 
868	 5.93935269275929E-02 
869	 5.92064341780277E-02 
870	 0.057283985185149 
871	 5.75570343213939E-02 
872	 5.76330047140402E-02 
873	 5.60360879147044E-02 
874	 5.65912339348489E-02 
875	 5.66168419522325E-02 
876	 5.59181088444459E-02 
877	 5.51650356579922E-02 
878	 5.51941745683725E-02 
879	 5.46432173546434E-02 
880	 5.36048070859114E-02 
881	 5.29699639660508E-02 
882	 5.35056371959221E-02 
883	 5.33085475651736E-02 
884	 5.28624902980749E-02 
885	 5.40094357659247E-02 
886	 5.26362927341135E-02 
887	 5.13338929635459E-02 
888	 5.14755455987582E-02 
889	 5.20063701837273E-02 
890	 5.10150211492256E-02 
891	 4.98315614569092E-02 
892	 4.95785366908575E-02 
893	 4.94471695958227E-02 
894	 4.91981310223238E-02 
895	 4.80927256138359E-02 
896	 4.62846430538082E-02 
897	 4.77540948467783E-02 
898	 4.72070809667815E-02 
899	 4.78732959916342E-02 
900	 5.19551268538825E-02 
901	 4.70071015513899E-02 
902	 4.60117110535948E-02 
903	 4.74595457518858E-02 
904	 0.046276250439667 
905	 4.72933997051047E-02 
906	 4.69456912622307E-02 
907	 4.51153910486069E-02 
908	 4.43897457026063E-02 
909	 4.12203444644519E-02 
910	 4.27486778679108E-02 
911	 4.62480876644211E-02 
912	 4.13315125635506E-02 
913	 4.50577039182974E-02 
914	 0.044980058855701 
915	 3.98080336311326E-02 
916	 4.33254931353841E-02 
917	 4.14103167027511E-02 
918	 4.08024253266028E-02 
919	 0.043567587862337 
920	 4.36155532704138E-02 
921	 4.24642090960715E-02 
922	 0.044660612252334 
923	 4.86071177009053E-02 
924	 0.036749977472247 
925	 3.48007520304785E-02 
926	 3.99799259866933E-02 
927	 4.06469956006714E-02 
928	 3.73947780796851E-02 
929	 5.07872825220311E-02 
930	 6.40853596406766E-02 
931	 0.03566418370144 
932	 4.69098599621923E-02 
933	 0.10110169391022 
934	 0.109248591622998 
935	 2.32758888865863E-02 
936	 0.095691656463345 
937	 9.31700883739463E-02 
938	 4.54302173303524E-02 
939	 4.02989268758495E-02 
940	 6.72968823178491E-02 
941	 7.31256874376758E-02 
942	 4.92003403496347E-02 
943	 1.83887701710406E-02 
944	 2.02232244862351E-02 
945	 0.024717412723871 
946	 1.77646416125153E-02 
947	 7.46606434791113E-03 
948	 1.95672764110363E-02 
949	 2.65693681879386E-02 
950	 2.64734966860088E-02 
951	 3.56599897600198E-02 
952	 4.29606068652503E-02 
953	 4.90473479337056E-02 
954	 4.45537121607114E-02 
955	 2.26787781514464E-02 
956	 2.46321866371868E-02 
957	 2.49664487339715E-02 
958	 3.54407339397949E-02 
959	 7.53615628126299E-02 
960	 5.27963644229933E-02 
961	 3.68585072943626E-02 
962	 4.82909517340018E-02 
963	 6.27221847289986E-02 
964	 3.36501243543716E-02 
965	 2.38942167392189E-02 
966	 3.83355481659085E-02 
967	 4.30873839987005E-02 
968	 3.94961290383717E-02 
969	 3.99691947328925E-02 
970	 4.38829384550196E-02 
971	 4.06077962592022E-02 
972	 3.20537505451196E-02 
973	 3.75706571819856E-02 
974	 4.74965083645844E-02 
975	 3.10563233905103E-02 
976	 4.18390387355979E-02 
977	 4.65979097822389E-02 
978	 0.038419365823335 
979	 3.71178237148477E-02 
980	 4.01226053404815E-02 
981	 4.44383183961187E-02 
982	 4.60152179336482E-02 
983	 4.21942782838157E-02 
984	 4.34546136130387E-02 
985	 0.041094289680999 
986	 3.76225140965381E-02 
987	 4.23389515555331E-02 
988	 4.48783964871391E-02 
989	 0.041129475422495 
990	 3.56789794389972E-02 
991	 3.79072566608489E-02 
992	 4.66791509162459E-02 
993	 4.73419393716682E-02 
994	 4.32880078312385E-02 
995	 4.67597610869121E-02 
996	 4.02876103020862E-02 
997	 3.92117354600188E-02 
998	 4.38085012496216E-02 
999	 4.40396054589111E-02 
1000	 3.86979858630866E-02 
1001	 4.01309945460443E-02 
1002	 4.28556226026962E-02 
1003	 0.043243546891244 
1004	 4.08944792885749E-02 
1005	 4.01854135563749E-02 
1006	 3.89633790127116E-02 
1007	 3.94932509637407E-02 
1008	 3.95297969946055E-02 
1009	 3.92707227157198E-02 
1010	 3.92153395403595E-02 
1011	 3.89775885465088E-02 
1012	 4.01085423786967E-02 
1013	 4.14769771731811E-02 
1014	 4.15430027328173E-02 
1015	 4.04740763909022E-02 
1016	 3.97117285628903E-02 
1017	 3.85015351365502E-02 
1018	 3.76793383000042E-02 
1019	 3.68447592878094E-02 
1020	 0.0368968980529 
1021	 3.79792500166738E-02 
1022	 3.75080930163331E-02 
1023	 3.65807593551206E-02 
1024	 3.74683438786623E-02 
1025	 3.61870826042477E-02 
1026	 3.51242874759518E-02 
1027	 0.034713251275933 
1028	 0.034460887873801 
1029	 3.42334395628198E-02 
1030	 3.43117129621326E-02 
1031	 3.41997745666666E-02 
1032	 3.49405694979071E-02 
1033	 0.034555419296993 
1034	 3.25984570991416E-02 
1035	 3.28604973435877E-02 
1036	 3.34627515204107E-02 
1037	 3.39274705674827E-02 
1038	 3.59642600054857E-02 
1039	 3.78859966085308E-02 
1040	 3.76351057085601E-02 
1041	 3.71148964017225E-02 
1042	 0.037653534038105 
1043	 3.83366942943871E-02 
1044	 3.89994108496787E-02 
1045	 4.11564627292457E-02 
1046	 4.11052546435511E-02 
1047	 3.91594592089475E-02 
1048	 3.88924734008404E-02 
1049	 3.80795409352303E-02 
1050	 3.80900483054441E-02 
1051	 4.03557514409099E-02 
1052	 4.06041091828482E-02 
1053	 0.038477165980273 
1054	 3.87683398044444E-02 
1055	 0.040967765866509 
1056	 4.12738452609245E-02 
1057	 4.13286689991028E-02 
1058	 4.30725956564871E-02 
1059	 4.17367968251152E-02 
1060	 3.57531818758553E-02 
1061	 3.54084157008231E-02 
1062	 3.73676819496339E-02 
1063	 3.78801759975032E-02 
1064	 4.13200299402819E-02 
1065	 4.17576349696897E-02 
1066	 3.85337385300473E-02 
1067	 3.78315815441406E-02 
1068	 3.76398651920413E-02 
1069	 3.75484895111015E-02 
1070	 3.92784145769237E-02 
1071	 3.95125544312127E-02 
1072	 3.85164362479411E-02 
1073	 3.83088684023862E-02 
1074	 3.68754458101538E-02 
1075	 3.35183818503334E-02 
1076	 3.27166815254431E-02 
1077	 3.17208643544701E-02 
1078	 3.31312219483374E-02 
1079	 3.81712674423036E-02 
1080	 4.02733657316704E-02 
1081	 4.35865956438803E-02 
1082	 4.39660348578271E-02 
1083	 4.05186408245687E-02 
1084	 3.93612315088132E-02 
1085	 3.74408479338437E-02 
1086	 3.65561826821596E-02 
1087	 3.64660633303986E-02 
1088	 3.70951795867876E-02 
1089	 4.03421830685095E-02 
1090	 4.09226689478919E-02 
1091	 4.07310227589163E-02 
1092	 4.09106994794034E-02 
1093	 4.02990766579667E-02 
1094	 3.57551388311443E-02 
1095	 3.55938951933529E-02 
1096	 3.98608063800979E-02 
1097	 3.80983959180124E-02 
1098	 3.16401847392061E-02 
1099	 3.22281143360154E-02 
1100	 0.033956238938621 
1101	 3.49163616863939E-02 
1102	 4.60025802939568E-02 
1103	 4.86380921581385E-02 
1104	 0.038452983508146 
1105	 3.61045342364056E-02 
1106	 3.42203457172323E-02 
1107	 3.23683174128907E-02 
1108	 3.93122775577973E-02 
1109	 3.17873873393522E-02 
1110	 2.79395178472396E-02 
1111	 2.23054025612695E-02 
1112	 2.19095451070967E-02 
1113	 0.01939745675585 
1114	 2.61713256417385E-02 
1115	 6.52977281596182E-02 
1116	 6.13010249819556E-02 
1117	 8.39416934966666E-03 
1118	-4.08038373250619E-03 
1119	-5.29527532992896E-02 
1120	-8.28348706181343E-02 
1121	-1.01275785323909E-02 
1122	 0.10999080960777 
1123	 0.113657533635332 
1124	 2.86989244693395E-02 
1125	-6.12560197897278E-02 
1126	-0.171315083932392 
1127	-0.160248435216771 
1128	-3.45822558572779E-02 
1129	-1.48875296197003E-02 
1130	 3.07637559337297E-02 
1131	-7.36043829178334E-03 
1132	-0.154514738931569 
1133	-0.176733842625436 
1134	-0.144925981002268 
1135	-0.135743418191637 
1136	-0.131498245926075 
1137	-0.119566805233933 
1138	-0.12438204791247 
1139	-7.54387956244654E-02 
1140	-5.05455985682863E-02 
1141	-1.20082102548931E-02 
1142	-9.38040216866745E-04 
1143	-9.80160199187369E-02 
1144	-0.156389144738576 
1145	-9.11091301208971E-02 
1146	 2.87595967467862E-03 
1147	 2.10042636962325E-03 
1148	-2.41635996076023E-02 
1149	-1.54066078729099E-02 
1150	-1.45096118955444E-02 
1151	-2.15444711288818E-02 
1152	-1.03263282804056E-02 
1153	-5.89234834678989E-03 
1154	 9.36382156541887E-03 
1155	 2.57890589600979E-02 
1156	 4.86779184496151E-02 
1157	 3.78137172182167E-02 
1158	 2.02374515064235E-02 
1159	 2.00226111214715E-02 
1160	 1.71617264072605E-02 
1161	 1.87808896424051E-02 
1162	 2.95320924801932E-02 
1163	 3.67354374820216E-02 
1164	 3.19104043729345E-02 
1165	 0.025444822758368 
1166	 3.04119117754601E-02 
1167	 3.29763317672567E-02 
1168	 0.03409698882159 
1169	 3.98965891818879E-02 
1170	 3.82601994248198E-02 
1171	 0.037104155549815 
1172	 3.05259770628903E-02 
1173	 2.96992584808165E-02 
1174	 3.10733485336504E-02 
1175	 3.27166760813144E-02 
1176	 3.25625740911777E-02 
1177	 2.93439331335556E-02 
1178	 2.78978067032987E-02 
1179	 3.19943979718279E-02 
1180	 3.70706407424236E-02 
1181	 3.57903298354666E-02 
1182	 3.25786731539805E-02 
1183	 3.15095531606103E-02 
1184	 2.93685741644899E-02 
1185	 3.25831764851257E-02 
1186	 3.79564238361441E-02 
1187	 3.60047062703346E-02 
1188	 3.36912219663228E-02 
1189	 3.55512571840622E-02 
1190	 3.58229431046834E-02 
1191	 3.47379034300498E-02 
1192	 3.47403699887955E-02 
1193	 3.67788635123947E-02 
1194	 3.64255082268649E-02 
1195	 3.30344806234547E-02 
1196	 3.18329610169111E-02 
1197	 3.50274034333579E-02 
1198	 3.53490725995083E-02 
1199	 3.11383960365292E-02 
1200	 3.16797478195233E-02 
1201	 0.034667282786624 
1202	 3.45490282960387E-02 
1203	 3.61105358672042E-02 
1204	 3.57536129712694E-02 
1205	 3.07897405227312E-02 
1206	 3.21823261788645E-02 
1207	 3.83416116828022E-02 
1208	 3.94123562853272E-02 
1209	 3.76361354100341E-02 
1210	 3.51054089069257E-02 
1211	 3.42105575595471E-02 
1212	 3.85998890984658E-02 
1213	 4.24312073346909E-02 
1214	 4.29682947037694E-02 
1215	 4.01883113374346E-02 
1216	 3.66541187644805E-02 
1217	 3.50370595120078E-02 
1218	 3.32790235638129E-02 
1219	 3.19237403446522E-02 
1220	 3.10760202853599E-02 
1221	 2.99349389323335E-02 
1222	 0.032629956958745 
1223	 3.82015594882908E-02 
1224	 4.03040004114723E-02 
1225	 3.97984374327863E-02 
1226	 3.84432383908312E-02 
1227	 3.70470539804473E-02 
1228	 3.75902587002905E-02 
1229	 3.86044224270207E-02 
1230	 3.82352099356448E-02 
1231	 3.59778622992076E-02 
1232	 0.034126395602221 
1233	 3.41559743028542E-02 
1234	 3.39218566658873E-02 
1235	 3.39115149977182E-02 
1236	 3.60330161511652E-02 
1237	 3.68402950994498E-02 
1238	 3.68060836854854E-02 
1239	 3.55326607646102E-02 
1240	 3.55307971937803E-02 
1241	 3.52965092874529E-02 
1242	 3.33210413957376E-02 
1243	 3.51632396692582E-02 
1244	 3.94338968835191E-02 
1245	 4.04649419288222E-02 
1246	 3.96767285173114E-02 
1247	 0.039814023876199 
1248	 3.79514153790493E-02 
1249	 3.42861036858561E-02 
1250	 3.54439371047268E-02 
1251	 3.78583790903854E-02 
1252	 3.75095749705109E-02 
1253	 3.83996562610654E-02 
1254	 4.08637995819018E-02 
1255	 3.97344579552471E-02 
1256	 3.81827033724875E-02 
1257	 3.62622492162883E-02 
1258	 3.60924703854366E-02 
1259	 3.42605468414731E-02 
1260	 3.42150936959901E-02 
1261	 0.038131590418033 
1262	 3.80341014204568E-02 
1263	 3.59383726884088E-02 
1264	 3.34295430044851E-02 
1265	 3.23925631891206E-02 
1266	 0.031533575370712 
1267	 3.02429155989846E-02 
1268	 3.27979320353333E-02 
1269	 3.46087906542062E-02 
1270	 3.56638238796708E-02 
1271	 3.67714866505748E-02 
1272	 3.47481109940963E-02 
1273	 3.31492052214407E-02 
1274	 3.31903168692994E-02 
1275	 3.24521837579061E-02 
1276	 3.22781568884066E-02 
1277	 3.46555318908535E-02 
1278	 3.58478383778339E-02 
1279	 3.50524497745746E-02 
1280	 3.48704595471126E-02 
1281	 3.52639534147161E-02 
1282	 3.35917728585119E-02 
1283	 3.20957924292914E-02 
1284	 3.24422974146345E-02 
1285	 3.37816454225122E-02 
1286	 3.45967368562728E-02 
1287	 3.36855440888854E-02 
1288	 3.30526492938397E-02 
1289	 3.33888808216147E-02 
1290	 3.17827076145581E-02 
1291	 3.17115055060966E-02 
1292	 3.36558147939642E-02 
1293	 0.031683219659867 
1294	 2.85321440581915E-02 
1295	 3.09637798714304E-02 
1296	 3.54991056027855E-02 
1297	 0.036584409299209 
1298	 0.032033235933809 
1299	 2.54692123643198E-02 
1300	 2.36954237451386E-02 
1301	 2.79047856280011E-02 
1302	 3.18220175691154E-02 
1303	 3.06974722314246E-02 
1304	 2.97801995607265E-02 
1305	 0.030760298495313 
1306	 0.027978258137975 
1307	 2.57132098764068E-02 
1308	 2.77809288334501E-02 
1309	 2.67980487556299E-02 
1310	 2.50026399814764E-02 
1311	 3.32671605894879E-02 
1312	 3.70469769889816E-02 
1313	 3.27323115297294E-02 
1314	 2.81184924998864E-02 
1315	 2.24875257754537E-02 
1316	 2.21551731576592E-02 
1317	 1.67826485162295E-02 
1318	 1.51960096254802E-02 
1319	 3.03064889617996E-02 
1320	 3.39294123105775E-02 
1321	 2.50307350520258E-02 
1322	 2.60752098464634E-02 
1323	 3.73231129969603E-02 
1324	 3.82625979957464E-02 
1325	 2.91478073474466E-02 
1326	 0.024721759529134 
1327	 2.10804735383202E-02 
1328	 3.74263325096771E-03 
1329	-5.36841866452661E-03 
1330	 4.73719401948445E-03 
1331	-7.13484410757343E-03 
1332	-3.25216864945713E-02 
1333	-2.54658009242871E-02 
1334	-1.85832594413484E-02 
1335	-9.61653710466224E-03 
1336	 2.72688714400082E-02 
1337	 0.017246873703121 
1338	-3.65115714058534E-02 
1339	-5.31452432028453E-02 
1340	-0.089491596641215 
1341	-0.101155819855452 
1342	-4.20126556539021E-02 
1343	-4.81127243804904E-02 
1344	-0.134399401716279 
1345	-0.171102315280852 
1346	-0.216347681556047 
1347	-0.268877780445018 
1348	-0.259997132494225 
1349	-0.237951987746567 
1350	-0.160321687030394 
1351	-0.197407734821363 
1352	-0.322145403257691 
1353	-0.42134744536529 
1354	-0.804597175676373 
1355	-2.19180155098555 
1356	-13.7911867491592 
1357	-2.81361160770603 
1358	-6.23715316462981 
1359	 6.38140713453374 
1360	-1.48643023181951 
1361	-0.705920112606358 
1362	-1.57945082811045 
1363	-3.20420996876105 
1364	-1.67964390172758 
1365	-1.04044904893173 
1366	-2.28299437453318 
1367	-17.4994916856665 
1368	 7.61082010376277 
1369	 1.04767470389854 
1370	 0.943230750158635 
1371	 1.28421998487034 
1372	 3.61990218853971 
1373	-10.4642905713665 
1374	-56.4705774822273 
1375	-1.02448318187909 
1376	-10.5606769071135 
1377	 2.05729426881153 
1378	 2.72833854736574 
1379	-0.170989991873326 
1380	-0.383854701737066 
1381	-0.451973138806948 
1382	-2.77703867602358E-03 
1383	 0.24694148877162 
1384	 0.157250433883387 
1385	 9.91065400054898E-02 
1386	 1.51770847707385E-02 
1387	-3.83593531389462 
1388	-13.2390102697713 
1389	-1.21502957079357 
1390	-1.96728271136302 
1391	-9.93856632243609 
1392	-4.48489310736149 
1393	-3.25453749152715 
1394	 7.54313232724311 
1395	 0.528744357835888 
1396	-1.17198778459412E-02 
1397	 1.13089489082612 
1398	 1.10869011920191 
1399	 5.55147437567233 
1400	-1.06082122871325 
1401	-1.05279960359079 
1402	-0.569282258947618 
1403	-0.304695603384291 
1404	-0.603785784057929 
1405	-0.294354433129168 
1406	-4.8185125406837 
1407	-5.15488509572666 
1408	 0.509554309220891 
1409	 0.331374100257791 
1410	 1.01344567035858 
1411	 5.04525392210256E-02 
1412	-0.562923562525008 
1413	-0.675372940218168 
1414	 0.496893615592019 
1415	 1.91423028158308 
1416	-1.38836675075231 
1417	-0.226458093646502 
1418	-0.026282151672137 
1419	 5.13406265679463E-02 
1420	 0.623452444068007 
1421	 1.081554820499 
1422	 1.78500021512103 
1423	 1.5394657183098 
1424	 0.744311935566394 
1425	 1.04422341150526 
1426	-12.6696343041655 
1427	-3.40305159714243 
1428	-1.20679368747514 
1429	-1.08295528255698 
1430	-2.04482334600841 
1431	-1.63444722079811 
1432	-0.873394640153664 
1433	-0.091518741912239 
1434	 0.617505054035401 
1435	 0.754078318919045 
1436	 2.71679010408417 
1437	-1.35760602105873 
1438	-1.23824549456947 
1439	-1.61540635322786 
1440	-22.1774855698869 
1441	 27.0003796986551 
1442	 0.323447606158383 
1443	 0.707165220651403 
1444	 0.571501445484929 
1445	 0.02302633318553 
1446	-0.486899573768986 
1447	-2.09613239033465 
1448	-1.72157694584836 
1449	-1.94661801818119 
1450	 2.15667166729979 
1451	 0.600712225800502 
1452	-6.17308281303891 
1453	-0.996025710157915 
1454	-0.689769198021329 
1455	-5.35597682104512 
1456	 0.394759913359604 
1457	 0.334728254217667 
1458	 0.551714634884378 
1459	 0.675311685585068 
1460	 0.418745688619773 
1461	 0.265319147458212 
1462	 0.337988754011802 
1463	 0.629491477175325 
1464	 0.11413148391307 
1465	-8.40391142756018E-02 
1466	-0.520333698837536 
1467	-0.144209403532833 
1468	-0.165647003052097 
1469	 0.963256449437236 
1470	 0.321513198780078 
1471	-0.07453623096293 
1472	 0.721299712429609 
1473	-83.3415391054784 
1474	 3.15770801353598 
1475	 0.75874598438124 
1476	 0.681207227424398 
1477	 0.747387153902862 
1478	 0.577528229964696 
1479	-0.175127187874552 
1480	 63.2478964210302 
1481	-118.944027862912 
1482	 26.4349689441692 
1483	 9.67426434673748 
1484	-21.2389047073954 
1485	-3.69325044527918 
1486	-2.26597514415712 
1487	-1.28878116732674 
1488	-1.0954460895298 
1489	-0.994960023096116 
1490	-0.274497563604456 
1491	 0.586866836613288 
1492	 0.399864686201889 
1493	-0.669789002715119 
1494	-0.673265008127238 
1495	-0.833139449776753 
1496	-0.759509375009938 
1497	-0.141079719038302 
1498	-2.36991856714196E-02 
1499	-0.148318201621847 
1500	-0.133614978178703 
1501	-6.14422464676611E-02 
1502	-8.41443893531112E-02 
1503	-0.216148891234691 
1504	-0.22529955241577 
1505	-0.284058311909168 
1506	-0.15740194648158 
1507	-4.90066154378997E-02 
1508	 7.69905144725786E-03 
1509	 3.71029459101211E-02 
1510	-2.94116285983652E-02 
1511	-9.11239212189063E-02 
1512	-8.41975428971619E-02 
1513	-7.21831557823226E-02 
1514	-4.26732800744913E-02 
1515	-2.86153876748018E-02 
1516	-2.75768314526332E-02 
1517	-5.81103948606181E-02 
1518	-0.133511938593877 
1519	-7.59544668767012E-02 
1520	-1.39806623873939E-02 
1521	-1.91361636453283E-02 
1522	-1.82782631719162E-02 
1523	-2.76226787292875E-02 
1524	-2.13059893434174E-02 
1525	-5.64893250537626E-03 
1526	 1.12552759256537E-02 
1527	 2.17573258315766E-02 
1528	 1.27473044338087E-02 
1529	 1.92393455707348E-02 
1530	 3.84673410299895E-02 
1531	 4.05650231395491E-02 
1532	 2.83654058392531E-02 
1533	 4.28622244361499E-03 
1534	-4.92276508284641E-03 
1535	 1.69850500343458E-02 
1536	 1.97810426404746E-02 
1537	 5.6178195763592E-03 
1538	 3.68899742723199E-02 
1539	 6.77060539735252E-02 
1540	 3.95689355852386E-02 
1541	 1.42276350645863E-02 
1542	 0.034832310146285 
1543	 3.80884205666972E-02 
1544	 0.010868093477156 
1545	 2.44313390130216E-03 
1546	 1.11050424891861E-03 
1547	-0.012102473003391 
1548	-1.46127701157487E-03 
1549	 1.95329977517587E-02 
1550	 1.22596767886109E-02 
1551	 4.00419740148193E-03 
1552	 1.68268437096528E-02 
1553	 5.12239490247259E-02 
1554	 0.077025522124454 
1555	 6.69820816902511E-02 
1556	 5.84233102233719E-02 
1557	 4.51962911507396E-02 
1558	 4.27853872678772E-02 
1559	 5.59591004943238E-02 
1560	 5.14947327589835E-02 
1561	 4.78578755309027E-02 
1562	 0.045641790237611 
1563	 4.20033023264142E-02 
1564	 5.00120949693777E-02 
1565	 5.85988922134719E-02 
1566	 5.07334075729763E-02 
1567	 4.48752604587499E-02 
1568	 4.89912109740964E-02 
1569	 4.17741827355311E-02 
1570	 0.03127528057325 
1571	 3.87446706799998E-02 
1572	 5.65820653422638E-02 
1573	 5.44901809731559E-02 
1574	 4.78641643411583E-02 
1575	 5.50746116833058E-02 
1576	 6.14409360647639E-02 
1577	 6.67314057164367E-02 
1578	 6.03006812572288E-02 
1579	 4.25598020617064E-02 
1580	 3.25407943895012E-02 
1581	 3.34154561763246E-02 
1582	 3.80799464045802E-02 
1583	 3.95344151379391E-02 
1584	 4.26351332301367E-02 
1585	 4.78911908826606E-02 
1586	 5.62307410257889E-02 
1587	 0.073151318109831 
1588	 6.66623486237816E-02 
1589	 3.82183366641354E-02 
1590	 3.01582989237868E-02 
1591	 2.90244536991934E-02 
1592	 2.36116433049877E-02 
1593	 3.38982935822572E-02 
1594	 4.16744864806276E-02 
1595	 0.025912474216781 
1596	 1.27906884927774E-02 
1597	 1.31099407365847E-02 
1598	 1.18605643814632E-02 
1599	 1.01210413929393E-02 
1600	 8.13695851065157E-03 
1601	 2.78077068459789E-04 
1602	 9.28430246454978E-04 
1603	 1.56779562015232E-02 
1604	 2.77240634312043E-02 
1605	 4.51327133629739E-02 
1606	 4.99579977038607E-02 
1607	 4.31936899317945E-02 
1608	 5.57662199333717E-02 
1609	 5.22804033385083E-02 
1610	 4.45361896503591E-02 
1611	 7.49771026834607E-02 
1612	 7.66158658262281E-02 
1613	 4.82277429057944E-02 
1614	 4.76861884006302E-02 
1615	 3.83079357913319E-02 
1616	 2.38837607620092E-02 
1617	 2.54831058660386E-02 
1618	 1.75901613190804E-02 
1619	 1.39124090774796E-02 
1620	 2.66451407971616E-02 
1621	 3.74441204236307E-02 
1622	 3.21616049844661E-02 
1623	 1.68007068996945E-02 
1624	 6.18075215508017E-03 
1625	 6.88395333310933E-03 
1626	 2.15525683043226E-02 
1627	 3.34547643574363E-02 
1628	 2.18208923162131E-02 
1629	 1.03836156472625E-02 
1630	 1.37245563889695E-02 
1631	 2.29142361454261E-02 
1632	 2.99656870272467E-02 
1633	 3.54572783207188E-02 
1634	 3.82770128593524E-02 
1635	 3.76487140808803E-02 
1636	 3.98700210205702E-02 
1637	 2.83623585046698E-02 
1638	 2.51670267474061E-02 
1639	 3.59002347697387E-02 
1640	 2.25231101938415E-02 
1641	 1.16685884839556E-02 
1642	 1.59412649227552E-02 
1643	 1.85308547519822E-02 
1644	 1.89863017568058E-02 
1645	 2.17751957700002E-02 
1646	 0.027715463770657 
1647	 8.11091633098864E-03 
1648	-0.01043313267987 
1649	 9.97962853361848E-03 
1650	 1.79458278049787E-02 
1651	 1.18579996167735E-02 
1652	 0.020436155369252 
1653	 0.024533996812054 
1654	 3.66834152746442E-02 
1655	 7.46392193018403E-02 
1656	 7.55909195435301E-02 
1657	 4.58006836818797E-02 
1658	 4.24848863222288E-02 
1659	 4.34524125955471E-02 
1660	 3.58580601365265E-02 
1661	 0.036753818706337 
1662	 3.51606030367679E-02 
1663	 1.15569056922338E-02 
1664	 1.63755704941865E-02 
1665	 5.23873585928156E-02 
1666	 5.88263622566172E-02 
1667	 5.63035789141074E-02 
1668	 5.48066225120953E-02 
1669	 5.67392759417739E-02 
1670	 4.75481484247119E-02 
1671	 3.77421320639029E-02 
1672	 3.74363850807015E-02 
1673	 3.17080497846881E-02 
1674	 2.76991033389697E-02 
1675	 2.27605635963274E-02 
1676	 2.65961183574226E-02 
1677	 3.39061518508572E-02 
1678	 3.07231642283577E-02 
1679	 2.53423691870532E-02 
1680	 1.32520594526745E-02 
1681	 0.012983356786852 
1682	 0.029389239377871 
1683	 4.64436806267009E-02 
1684	 4.75193708027648E-02 
1685	 2.29816377330081E-02 
1686	 1.53825499998966E-02 
1687	 3.54546817187871E-02 
1688	 5.15245698253858E-02 
1689	 5.92795587701742E-02 
1690	 6.24252036752063E-02 
1691	 0.044495057625766 
1692	 1.93660566353934E-02 
1693	 3.01226282489832E-02 
1694	 4.44770364903438E-02 
1695	 4.24292440798412E-02 
1696	 4.74537843704619E-02 
1697	 3.90283329637328E-02 
1698	 2.52065411034715E-02 
1699	 2.37414648300037E-02 
1700	 1.86286735975981E-02 
1701	 1.98606802634279E-02 
1702	 2.76072193350641E-02 
1703	 2.97668526053239E-02 
1704	 0.044497163585704 
1705	 5.50811912848665E-02 
1706	 4.02416098083688E-02 
1707	 3.38717392723802E-02 
1708	 3.16566964709188E-02 
1709	 3.08154671979864E-02 
1710	 5.72587837660243E-02 
1711	 7.68809591114466E-02 
1712	 6.04322663651768E-02 
1713	 3.15037963300437E-02 
1714	 2.32416223142154E-02 
1715	 2.51937217858586E-03 
1716	 1.15310903687675E-02 
1717	 2.05372177391992E-02 
1718	 7.73253643801156E-03 
1719	 6.59009279948064E-03 
1720	 2.11807304304193E-02 
1721	 2.30403661612966E-02 
1722	 1.76690430723697E-02 
1723	 6.9825076691279E-03 
1724	 3.53763509962188E-04 
1725	 1.20836825494647E-02 
1726	 1.65742061181482E-02 
1727	 4.33747290136578E-03 
1728	-3.39556612678659E-03 
1729	 2.36921473991132E-04 
1730	 0.011691445384613 
1731	 2.03268633950677E-02 
1732	 3.31118106258892E-02 
1733	 3.05673808684693E-02 
1734	 1.02278296371736E-02 
1735	 0.010787174257359 
1736	 2.95797557914661E-03 
1737	-1.20928513658266E-02 
1738	 1.53765445770531E-05 
1739	 3.16932915950083E-02 
1740	 5.85130222911171E-02 
1741	 5.70646916669852E-02 
1742	 5.08593904528014E-02 
1743	 2.54564607544949E-02 
1744	 8.57483310758606E-03 
1745	 3.79414747039981E-02 
1746	 1.64025141841959E-02 
1747	 1.59507792974155E-02 
1748	 3.80437469291069E-03 
1749	 1.64604890827897E-03 
1750	 4.93855719539856E-02 
1751	 5.53322877949678E-02 
1752	 3.12253932776194E-02 
1753	 0.026161425745066 
1754	 8.65630116309522E-03 
1755	-8.37128587097544E-03 
1756	-1.85384890299993E-02 
1757	-1.97035258221176E-02 
1758	-1.98577608415767E-02 
1759	-2.81518310325074E-03 
1760	 2.88015638117651E-02 
1761	 0.025871762019045 
1762	-6.26816494727822E-03 
1763	 1.06987776632435E-02 
1764	 2.85210384965615E-02 
1765	 1.69263690445328E-02 
1766	 5.93494755126529E-02 
1767	 8.29858752101867E-02 
1768	 4.09936676657709E-02 
1769	 4.45777139742483E-02 
1770	 8.08737019012065E-02 
1771	 7.21980111059428E-02 
1772	 0.067422780460389 
1773	 7.76634705319459E-02 
1774	 3.39608267268472E-02 
1775	 9.40974550974068E-03 
1776	 3.20544756447432E-02 
1777	 0.142738026169928 
1778	 0.168807404965395 
1779	 0.209274890800601 
1780	 0.188743087240828 
1781	-4.02944609987517E-02 
1782	-0.078369315960985 
1783	 7.60378962611634E-03 
1784	 2.45833576039451E-03 
1785	 3.27336330920039E-02 
1786	 0.143397252652043 
1787	 0.250834551110271 
1788	 0.332917512414691 
1789	 0.442012206741652 
1790	 0.408284296883462 
1791	 0.347709852831485 
1792	 0.183477072660665 
1793	-0.130380629651842 
1794	 0.176648021336231 
1795	 0.346760546532632 
1796	 0.609561276625054 
1797	 1.78964466571701 
1798	 1.49798173749198 
1799	-2.18267262847021 
1800	-1.68519549417757 
1801	-1.33196174163926 
1802	-0.2221929792446 
1803	-2.09904313555776E-02 
1804	 1.48639708332772 
1805	 3.62660614018238 
1806	 1.07527297594157 
1807	 34.32043926746 
1808	 1.14443001590927 
1809	 1.78659442649994 
1810	-2.64816010719177 
1811	-1.54455819465855 
1812	 0.781628743772963 
1813	 1.57394758065329 
1814	-1.64986493650663 
1815	-0.721990427203376 
1816	 0.416219979131681 
1817	 0.846406307149719 
1818	 2.05911271592477 
1819	 3.53997804615038 
1820	-32.0161617486214 
1821	 1.98251389004413 
1822	 1.34892032748057E-02 
1823	-0.65122725107707 
1824	-1.10272407926281 
1825	 7.26913737665379E-02 
1826	 0.183165563995781 
1827	 1.00675595945858 
1828	 1.46004373192834 
1829	-0.292259331521081 
1830	-0.419882795783996 
1831	-1.35830669943893 
1832	-2.70605662899379 
1833	 0.861481823170102 
1834	 0.737482952531623 
1835	 3.58391641540221 
1836	 34.3882002896421 
1837	-3.20134411759189E-04 
1838	-0.013958293641199 
1839	-0.510154504565511 
1840	 19.6961895108197 
1841	 2.99078989167745 
1842	 2.84625779561017 
1843	 2.78956869063998 
1844	 9.67465204342034 
1845	 12.9821655981951 
1846	 2.51293075853816 
1847	 2.21886719510705 
1848	 4.63353768504459 
1849	 4.667663855085 
1850	 1.51435845302858 
1851	-13.2898416952601 
1852	 4.97343855473099 
1853	 2.05104817186486 
1854	 1.70822573404229 
1855	 1.42941133059968 
1856	 0.987344227894807 
1857	 0.511618594424136 
1858	 0.3674044102188 
1859	 0.125307778622289 
1860	 9.08592938862696E-02 
1861	 0.348578473502722 
1862	 0.68507468470201 
1863	 0.451224335658123 
1864	 0.453157878348221 
1865	 0.48717765283872 
1866	 0.275172777437677 
1867	 0.423429970856528 
1868	 3.51510580774095 
1869	-5.98906015262931 
1870	-1.550395359568 
1871	-1.72205391174367 
1872	-1.67901951916742 
1873	-1.21392955050737 
1874	 1.71762956876794 
1875	 1.45387331925592 
1876	 1.38490381649013 
1877	 2.18775501798999 
1878	 2.35002838623458 
1879	 2.41123440241427 
1880	 2.46325197323167 
1881	 2.51102893741493 
1882	 2.67797535046836 
1883	 3.16558394230565 
1884	-1.43790223649164 
1885	-0.50217997611045 
1886	-0.369931726949703 
1887	 0.264770997897898 
1888	-0.228983697309768 
1889	-0.25050618436762 
1890	-0.245159309326758 
1891	-0.210611002180171 
1892	-9.06402094888253E-02 
1893	 0.422028738810108 
1894	 0.844816256163479 
1895	 0.342974574276778 
1896	 0.397288607627516 
1897	 0.324186255636815 
1898	 0.232197998884112 
1899	 0.269817384775275 
1900	 0.183181593647122 
1901	 9.61431850726933E-02 
1902	 0.123506310972034 
1903	 0.409232376039105 
1904	-0.300208164395198 
1905	-1.12058695601988 
1906	 3.57429377999504 
1907	 1.31525791458593 
1908	 1.04741139610248 
1909	 0.681967922278298 
1910	 0.761518600828496 
1911	 0.297137302887349 
1912	 0.879735433478871 
1913	 0.359959609096775 
1914	-0.584090150848649 
1915	-0.723776468933379 
1916	-0.751136016412477 
1917	-0.707905307130024 
1918	 1.25294701927605 
1919	 23.5406950846229 
1920	-5.37359788394124 
1921	 5.03908075696003 
1922	 0.767930085560885 
1923	 0.25074899016827 
1924	 0.537424980744827 
1925	 0.139599669928918 
1926	-0.30989782602508 
1927	-1.31579573950104 
1928	-1.91875916898228 
1929	-4.81358326194124 
1930	-20.4854510494567 
1931	-2.82199608765755 
1932	-1.25799529917339 
1933	-0.502989900237237 
1934	-0.863118734851373 
1935	 9.95023352874794 
1936	 2.37858298159682 
1937	 1.04489364712016 
1938	 0.406309355015066 
1939	 0.283608067429408 
1940	-0.176533579430976 
1941	-4.18004837057432E-02 
1942	 1.17441044610461 
1943	 1.88269333761336 
1944	 2.39948982235023 
1945	 2.74831965213937 
1946	 2.59109326367383 
1947	 2.2157249830936 
1948	 1.60650486793172 
1949	 0.723155152852976 
1950	 1.38084131744137 
1951	-3.17029134591946 
1952	-1.4961407210257 
1953	-0.960594485353793 
1954	-0.869578754446059 
1955	-0.761523529850118 
1956	-0.214005530508138 
1957	-1.64881313186314E-02 
1958	-0.516497626115608 
1959	 3.95888303307802 
1960	 2.06915247772756 
1961	 1.26125630462863 
1962	 0.612203563683202 
1963	-1.57495556949498E-02 
1964	-2.05586915479224 
1965	-2.61202585941332 
1966	-3.34198740922889 
1967	-10.1142603383685 
1968	 0.652416647288667 
1969	-0.67048954951445 
1970	-5.71700017445994 
1971	 4.98272738890965 
1972	 1.28384472178451 
1973	 1.17042210837377 
1974	 0.450817297533401 
1975	-3.70360369909377 
1976	-0.797790534215688 
1977	-1.09138016290587 
1978	-0.506730321496989 
1979	 0.124706517251876 
1980	 0.998930182134554 
1981	 15.3163510322646 
1982	 2.82163144965053 
1983	 1.94616245078523 
1984	 2.75922690476168 
1985	 2.00533873074285 
1986	 1.82040099166326 
1987	 1.84458939436258 
1988	 1.96688520238457 
1989	 1.21701966838426 
1990	 0.42439549205511 
1991	 7.77610782339275E-02 
1992	-0.145913538603488 
1993	-0.273209348088475 
1994	-0.38419635597666 
1995	-0.459648628043606 
1996	-0.523022134669912 
1997	 8.96849045377955 
1998	 0.271491606547742 
1999	 0.55251463029884 
2000	 0.931698318352799 
2001	 0.671506570380931 
2002	 0.366343141687651 
2003	 0.345058983730287 
2004	 0.720089450783015 
2005	 0.768695872181791 
2006	 42.4225894204012 
2007	 4.01281483821238 
2008	 53.558473301379 
2009	-25.6319919348191 
2010	-3.33503825270526 
2011	-2.74259772732945 
2012	-1.54981294301447 
2013	 2.05742272175528 
2014	 1.02628263433406 
2015	 1.33335729347024 
2016	 1.12686055281787 
2017	 1.34791724757833 
2018	 1.69810003167986 
2019	 2.26459226320256 
2020	 7.57113213214622 
2021	-4.21844306109562 
2022	 8.17221594217151 
2023	 1.11727770302516 
2024	 0.728777004091453 
2025	 0.481175380312079 
2026	 0.328009144202494 
2027	-0.226365463452881 
2028	 0.985802756768162 
2029	 0.43300378673459 
2030	-0.31894377297386 
2031	-57.6902519845873 
2032	 0.474522921571267 
2033	 0.283516685360683 
2034	 0.320646567280726 
2035	 1.90993649529785 
2036	 8.1862996708165 
2037	 3.84634439746277 
2038	 1.77946754813313 
2039	 1.40695885220132 
2040	 0.826660543568418 
2041	 0.568855587279848 
2042	 1.27347200981585 
2043	 0.905231671183382 
2044	 0.245255194462042 
2045	 0.149900142868226 
2046	 7.98556091262558E-02 
2047	-0.190071982617438 
2048	-0.247188455546646 
2049	-0.494351008788342 
2050	-0.559412526249544 
2051	-1.11568054323697 
2052	-2.66674314132601 
2053	-1.78635874109577 
2054	-1.48825215018122 
2055	-1.23165301986981 
2056	-1.23701959861126 
2057	-1.6698063829615 
2058	-1.36988276787814 
2059	-1.72768800658007 
2060	-1.59913495171024 
2061	-0.737681344329858 
2062	-0.642852913139801 
2063	 6.74535777096574E-02 
2064	 1.83137247763179 
2065	 1.30309793575876 
2066	 0.997498899028389 
2067	 0.913254081939643 
2068	 0.728089349320641 
2069	 0.588804709241855 
2070	 0.455741811124811 
2071	 0.264738427626221 
2072	 5.85810406045285E-02 
2073	-0.110844325767487 
2074	-1.05424267765721 
2075	-0.957705319324911 
2076	-0.042265038462781 
2077	 8.36635634357912E-02 
2078	 0.220222622883506 
2079	 0.308995210780656 
2080	 0.388989935974652 
2081	 0.697373346943541 
2082	 1.19818233357714 
2083	 27.720335009968 
2084	 0.910675992625653 
2085	 0.360852766399679 
2086	 0.641818572257726 
2087	 0.873919534058921 
2088	 1.92682265463526 
2089	-24.7392346961429 
2090	-1.52575675252418 
2091	-1.48148195933825 
2092	-1.64290015929213 
2093	 3.3960446028078 
2094	 0.726333441858268 
2095	 0.409477100666902 
2096	 0.489275624956577 
2097	 0.628721175387707 
2098	 0.716866687176007 
2099	 1.54457837129472 
2100	 4.93884045580792 
2101	 2.60419797745359 
2102	 1.68729770734668 
2103	 0.761042530725334 
2104	 0.236486544909281 
2105	 7.39532354284124E-02 
2106	-0.163252851973575 
2107	-0.27086913976822 
2108	-0.213651907898054 
2109	-0.133807464771595 
2110	 8.45147426864692E-03 
2111	 0.167246384487206 
2112	 0.740841696898192 
2113	 0.751708284715426 
2114	 0.225273104822772 
2115	 0.256965578305876 
2116	 0.38999520802429 
2117	 0.285373567616285 
2118	 0.165690379725773 
2119	 0.102339900511139 
2120	-6.91445015267619E-02 
2121	-0.167479125316735 
2122	-0.229237635389177 
2123	-0.211883168378508 
2124	-0.11804458939779 
2125	-0.115410392756449 
2126	-5.88811384165273E-02 
2127	 0.156525519606755 
2128	 0.405546450870736 
2129	 0.493121555988655 
2130	 0.504197570554525 
2131	 0.559829572716256 
2132	 0.446244399959236 
2133	 0.410462609278204 
2134	 0.341761358731085 
2135	 0.215519953330797 
2136	 0.170399627597117 
2137	 0.170241177963117 
2138	 0.161796859286736 
2139	 0.207505253351809 
2140	 0.232344441833823 
2141	 0.21463095698608 
2142	 0.190348134406839 
2143	 0.203046079564079 
2144	 0.165695372770118 
2145	 2.31821817335628E-02 
2146	-0.189387514707713 
2147	-0.449667802253054 
2148	-0.624192965980618 
2149	-0.567272436586546 
2150	-0.310089244877152 
2151	 3.91442405002251E-02 
2152	 0.226970114728774 
2153	 0.270294636335478 
2154	 0.291187379547385 
2155	 0.250482626387213 
2156	 0.296928188653137 
2157	 0.273741410185492 
2158	 0.320414181407066 
2159	 0.271497549209635 
2160	 7.86808452528402E-02 
2161	 8.10418402793694E-02 
2162	 0.235379312726548 
2163	 0.232438136411921 
2164	 0.184648329244964 
2165	 0.200141919074302 
2166	 0.161754341004102 
2167	 0.152115212825662 
2168	 0.226280240987487 
2169	 0.236792598827065 
2170	 0.19068168637657 
2171	 0.180175979098642 
2172	 7.54565252524546E-02 
2173	-1.66559266432052E-02 
2174	-0.155118033922818 
2175	-0.109122050441097 
2176	 7.21786392508831E-02 
2177	 0.13451263253526 
2178	 0.206773555734285 
2179	 0.140635264510381 
2180	 6.07725794697761E-02 
2181	 6.75788365299275E-02 
2182	 4.06418466883983E-02 
2183	 6.02177675195577E-02 
2184	 8.53579212711197E-02 
2185	 0.224880822759845 
2186	 0.293158808065965 
2187	 0.382313215244021 
2188	 0.410301936173338 
2189	 0.364086064464316 
2190	 0.406631104124226 
2191	 0.577630019242521 
2192	 0.542965363340759 
2193	 0.413405459594143 
2194	 0.332461416402127 
2195	 0.11426202443438 
2196	 1.90262200431931E-02 
2197	 7.99774104795511E-02 
2198	 4.50580431687791E-02 
2199	-6.74388798829259E-02 
2200	-0.264864061053433 
2201	-0.202928177867737 
2202	-0.13033406457273 
2203	 7.39895541343553E-02 
2204	 0.27704272921514 
2205	 0.106526016429895 
2206	-3.58888128360206E-02 
2207	-3.91851266875652E-03 
2208	 1.28733292597856E-02 
2209	-1.51687127622403E-02 
2210	-5.46771593254838E-02 
2211	-0.148375097328825 
2212	-0.268592984981251 
2213	-0.272168415523534 
2214	-0.258093273394264 
2215	-0.178593377205817 
2216	-0.128534777565037 
2217	-0.142851998686941 
2218	-0.174169116993964 
2219	-0.151589203191218 
2220	-0.18750687248986 
2221	-0.164852058210245 
2222	-6.34347135067797E-02 
2223	-1.15963326412162E-03 
2224	 7.55930261678945E-02 
2225	 8.86221957895259E-02 
2226	 0.103049000492024 
2227	 7.63552660477003E-02 
2228	-9.01604008542554E-02 
2229	-0.126871976059513 
2230	-0.168680155460896 
2231	-0.142404320328165 
2232	 9.85630080768902E-02 
2233	 0.167662027853767 
2234	 0.167258643624208 
2235	 0.234223603484327 
2236	 0.269883334758753 
2237	 0.302966716418763 
2238	 0.382415862822465 
2239	 0.529192314643963 
2240	 0.493462113958618 
2241	 0.339945552239429 
2242	 0.248831122669496 
2243	 0.1627204000867 
2244	 0.056056808611013 
2245	 3.12524958606373E-02 
2246	-4.81003082982508E-02 
2247	-0.336058535167894 
2248	-0.393339785187027 
2249	-0.284041437851305 
2250	-0.272442442688559 
2251	-5.69377666321597E-02 
2252	 0.249596690083014 
2253	 0.38048902367677 
2254	 0.470068318771216 
2255	 0.454573071373943 
2256	 0.440990300102727 
2257	 0.179351517203898 
2258	-2.48796412493716E-02 
2259	-0.172978639704854 
2260	-0.213963301165379 
2261	-0.175885152745447 
2262	-0.207718387297317 
2263	-0.208633943106311 
2264	-0.165318628243799 
2265	-0.118551368197136 
2266	-0.121666994826934 
2267	 8.67145330970311E-02 
2268	 0.077022497787548 
2269	-0.507123785006964 
2270	-0.415814031560875 
2271	-0.175291079310398 
2272	-0.139869079014621 
2273	 8.50925915100978E-02 
2274	 0.189293252194686 
2275	 0.311248701873507 
2276	 0.420565355937076 
2277	 0.343248952674123 
2278	 0.281547915996154 
2279	 8.33166108274442E-02 
2280	-0.109919664500705 
2281	-0.301100873777303 
2282	-0.228772376599438 
2283	-0.369399749451307 
2284	-0.203344725675365 
2285	 0.479354268204831 
2286	 0.859874388647845 
2287	-2.03329613147157 
2288	 416.009780023093 
2289	 0.502507589773127 
2290	 0.187724452363279 
2291	-2.63721063221573E-02 
2292	-0.569725026506311 
2293	-3.00714055002941 
2294	-3.88818453190403 
2295	-5.01994692518813 
2296	-0.933323563078581 
2297	-0.493704574167628 
2298	-0.607704944057495 
2299	-0.223705018682013 
2300	 6.84900013499041E-02 
2301	-1.04451186529972E-03 
2302	 2.63343538319028E-02 
2303	 0.227278622369279 
2304	 0.77644950591762 
2305	 0.53888398628795 
2306	 0.395619385201131 
2307	 0.340634094391683 
2308	-0.230918773168416 
2309	-0.489961358565198 
2310	-0.464245000302209 
2311	-0.605133548554608 
2312	-0.425868212090785 
2313	-0.185120842152959 
2314	-0.119056945899711 
2315	 6.79107296260408E-02 
2316	 0.37224273826437 
2317	 0.559121549688333 
2318	 1.21081034175577 
2319	 1.96089629084571 
2320	 2.4832495809307 
2321	 3.10291197389639 
2322	 3.24156882348949 
2323	 2.04608935624044 
2324	 0.862010519172172 
2325	 0.846881251716205 
2326	 0.98324438412549 
2327	 1.19963378691529 
2328	 1.40133022468098 
2329	-1.27337562423937E-02 
2330	-0.614777010003412 
2331	-0.446198877867583 
2332	-0.345844994001944 
2333	-0.331457186332245 
2334	-0.602373163101272 
2335	-0.970750983819289 
2336	-1.14271922642037 
2337	-0.877253792517267 
2338	-3.77287611511056E-02 
2339	 0.525941677017073 
2340	 0.414618962695909 
2341	 0.280981510508031 
2342	 0.39313188175061 
2343	 0.916981695109541 
2344	 1.84320836622507 
2345	 4.96589993795444 
2346	-0.32808117532875 
2347	 0.479075596024119 
2348	 2.58005217394925 
2349	 4.08449517517859 
2350	-4.74268925451301 
2351	-2.86218902920786 
2352	 0.126919805479626 
2353	-0.874714484560289 
2354	-1.49536899924082 
2355	-1.92452643139232 
2356	-2.44904415019724 
2357	 34.5665924519307 
2358	 1.73734891037885 
2359	 2.07220092275517 
2360	 0.764109856467342 
2361	-3.70650240606278 
2362	-1.09755450801325 
2363	-1.25521025792012 
2364	-1.78710767975499 
2365	-2.78865448798691 
2366	-1.87198833450473 
2367	 37.218030816885 
2368	 6.53203787697114E-02 
2369	-0.210236440298852 
2370	-0.216240907160372 
2371	-0.376486005775362 
2372	-0.670250811643439 
2373	-0.87991334940179 
2374	-0.326793034270076 
2375	 0.770408887543863 
2376	 5.20333004898002 
2377	 4.18682879998007 
2378	-1.84451562043056 
2379	-0.944543969250084 
2380	-0.872001570822124 
2381	-1.19055640478937 
2382	-3.54383934942733 
2383	 6.27254035598174 
2384	 2.76786063428052 
2385	 3.35306963330783 
2386	 15.1688445824405 
2387	 5.60469444301111 
2388	 8.62230100334353 
2389	-3.6267834306545 
2390	-1.34139880678339 
2391	-1.1945528664767 
2392	-2.83195710770938 
2393	 9.62477198305975 
2394	 6.09262287299176 
2395	 7.58228511075176 
2396	-1.32043159049614 
2397	-0.398298399846146 
2398	-0.54356207675961 
2399	-0.932319580585721 
2400	-2.79812582783036 
2401	-0.188157765112461 
2402	-0.448981703042083 
2403	-0.736831524549969 
2404	-1.29655663619221 
2405	-1.3280944211824 
2406	-0.62599351638131 
2407	 0.674412583481902 
2408	-3.49484519625 
2409	 0.418459119657919 
2410	 0.577668344022122 
2411	 0.94002619260557 
2412	-1.02069846596643E-02 
2413	-0.278030999439854 
2414	-0.495493413893883 
2415	-0.312323858038339 
2416	-8.11320302348372E-02 
2417	 0.710936902172935 
2418	 2.47957074662127 
2419	 3.11101334015282 
2420	 7.71930134434449 
2421	-3.27065848982114 
2422	-0.764538238900457 
2423	-0.555629177306521 
2424	 3.26872823307562E-02 
2425	 0.315720537365485 
2426	 0.62043341469045 
2427	-1.78675962506736 
2428	-0.881563633180816 
2429	-0.503368064214457 
2430	-0.468818370776439 
2431	-0.599514533686716 
2432	-0.963055914007747 
2433	-1.9961107497551 
2434	-1.97821504074554 
2435	-2.01034756449472 
2436	 222.067940933588 
2437	 2.31606690110098 
2438	 0.642912067878375 
2439	 0.343728523089065 
2440	 0.723474297288881 
2441	-3.44854589979057E-02 
2442	 5.27872421770618 
2443	 1.30749667116834 
2444	-5.58374783776438 
2445	-1.26896839614829 
2446	-0.93756230481851 
2447	-1.68969792130316 
2448	-2.1006786694326 
2449	-4.52364586032242 
2450	-8.61322049709004 
2451	 0.717010324938084 
2452	-3.50410192188102 
2453	-1.75891858928634 
2454	-3.34939554356041 
2455	-4.25638189631751 
2456	-25.5233356341628 
2457	 2.15413642870233 
2458	 0.982685307357418 
2459	 0.85818130767737 
2460	 1.22059896315686 
2461	 3.45704971067397 
2462	 110.199905674216 
2463	 34.8585635317365 
2464	 12.9986511216475 
2465	-133.489749717242 
2466	-0.773918858920078 
2467	 0.180539619976022 
2468	 0.588330332954658 
2469	 0.206667103098105 
2470	-0.233082778884376 
2471	 1.00970456203236 
2472	 3.40203926859088 
2473	-2.51402774677433 
2474	-2.40936503750629 
2475	-1.70548335365569 
2476	-1.13682660826513 
2477	-0.667537967020546 
2478	 0.272328824973913 
2479	 0.38825728300885 
2480	-8.68718350721062E-02 
2481	-0.641902788949813 
2482	 3.76223537651142E-03 
2483	 0.13868316773186 
2484	-0.274420935141857 
2485	-0.255308395849343 
2486	-0.666630951360558 
2487	-0.78604629121076 
2488	-0.141326314671087 
2489	-2.86919538438188 
2490	-1.12450669866106 
2491	-0.754636074412833 
2492	-0.922265027328748 
2493	-0.445314817455362 
2494	-0.255557911410423 
2495	 0.936255033098383 
2496	 2.21030257953903 
2497	 0.232162167914702 
2498	-2.22677285169807 
2499	-2.05105878103281 
2500	-6.6932424875127 
