Wavelength	rt0712west_far00000.asd
350	 0.117369277062737 
351	 0.118695046850219 
352	 0.118841710574783 
353	 0.118336928812752 
354	 0.118012426174968 
355	 0.11826812255701 
356	 0.11947138981716 
357	 0.119270399985351 
358	 0.116439495451507 
359	 0.118110961924465 
360	 0.118541302993014 
361	 0.117707410359029 
362	 0.11930544319035 
363	 0.119467025854696 
364	 0.119243756868554 
365	 0.119198888479175 
366	 0.118172813021112 
367	 0.118905783080228 
368	 0.119664667020017 
369	 0.118717199061587 
370	 0.118728079269424 
371	 0.118814414417889 
372	 0.119011495356841 
373	 0.119736794667106 
374	 0.119825030582282 
375	 0.119727087764458 
376	 0.119969371760048 
377	 0.120892980201686 
378	 0.120987119655557 
379	 0.120531986421169 
380	 0.120225079640766 
381	 0.120486076962435 
382	 0.121021382119349 
383	 0.121485249419263 
384	 0.121581925842955 
385	 0.121528264561853 
386	 0.121412986090084 
387	 0.121291402131994 
388	 0.121198954045392 
389	 0.12154202140896 
390	 0.122660937790169 
391	 0.124102443793524 
392	 0.12357749342578 
393	 0.123490860460081 
394	 0.123466643760921 
395	 0.122711879538244 
396	 0.124354302440772 
397	 0.124621540491758 
398	 0.123573758755712 
399	 0.124622458226952 
400	 0.124889226158012 
401	 0.124486720880706 
402	 0.124183423395306 
403	 0.125267207564501 
404	 0.125321011206118 
405	 0.124990043475749 
406	 0.125656712763352 
407	 0.125679713382428 
408	 0.125770819221696 
409	 0.126047851098709 
410	 0.125949780701945 
411	 0.126347494396432 
412	 0.126700772971366 
413	 0.126716543448527 
414	 0.127404209962902 
415	 0.127420590067685 
416	 0.127223652249816 
417	 0.127781481555795 
418	 0.128270328222087 
419	 0.128559276364195 
420	 0.128826575820262 
421	 0.129496501380831 
422	 0.129674289939306 
423	 0.129702293697881 
424	 0.130017583953666 
425	 0.130586937902078 
426	 0.13106673670794 
427	 0.131491116109021 
428	 0.132027560582145 
429	 0.132229130148632 
430	 0.132829980186712 
431	 0.13364582472773 
432	 0.133337909074507 
433	 0.13387399737236 
434	 0.134684115473517 
435	 0.135022152712757 
436	 0.135385751208498 
437	 0.135711609289805 
438	 0.136111945250021 
439	 0.136731908143002 
440	 0.137180644512295 
441	 0.137691904435248 
442	 0.138286280916129 
443	 0.13857681626521 
444	 0.138609932424716 
445	 0.138988151671017 
446	 0.140035229193368 
447	 0.140474631794463 
448	 0.140606462184701 
449	 0.140793750547231 
450	 0.141359717185791 
451	 0.141747683555408 
452	 0.142112868587413 
453	 0.142533951084877 
454	 0.142679590639882 
455	 0.143174081473144 
456	 0.143676573875151 
457	 0.143687474213749 
458	 0.143888095638945 
459	 0.144109527826084 
460	 0.144311322059363 
461	 0.144619981662088 
462	 0.145049561121039 
463	 0.145414760418596 
464	 0.14562212555559 
465	 0.145958547570177 
466	 0.146056960370705 
467	 0.146076036028738 
468	 0.146382323502512 
469	 0.146729995786897 
470	 0.147114175203408 
471	 0.147422829219072 
472	 0.147373509025505 
473	 0.147456483605502 
474	 0.147937276758934 
475	 0.148755999789295 
476	 0.149006149643466 
477	 0.149301148607294 
478	 0.14965510494235 
479	 0.149732088549183 
480	 0.15025798582582 
481	 0.150573783456882 
482	 0.150555588600195 
483	 0.151583709488425 
484	 0.152106676554654 
485	 0.152214483471353 
486	 0.152541029176805 
487	 0.153028749358363 
488	 0.153481240235781 
489	 0.153879998452665 
490	 0.154388058148703 
491	 0.155101626411253 
492	 0.155731962738075 
493	 0.156122506572154 
494	 0.156699014991247 
495	 0.157132967857024 
496	 0.157513004996547 
497	 0.158092072474303 
498	 0.158611672451559 
499	 0.158905106986694 
500	 0.159108495612181 
501	 0.159811290295876 
502	 0.160507949497281 
503	 0.161054537554831 
504	 0.161491460721476 
505	 0.162095251638235 
506	 0.162849501141552 
507	 0.16361157529923 
508	 0.16416794339451 
509	 0.164529004766613 
510	 0.165199243654844 
511	 0.166269771145749 
512	 0.166702152523869 
513	 0.167427888927787 
514	 0.168203249881606 
515	 0.168493047454968 
516	 0.169529792151464 
517	 0.170439258531346 
518	 0.170964112662151 
519	 0.171831882574371 
520	 0.172514200580293 
521	 0.173202156419428 
522	 0.174129435130046 
523	 0.175126161104385 
524	 0.175898530817769 
525	 0.176594694511118 
526	 0.177619101705643 
527	 0.178308477822877 
528	 0.178955594273453 
529	 0.179822131182323 
530	 0.180880111324373 
531	 0.181664921245785 
532	 0.182437888181078 
533	 0.183581284073792 
534	 0.18440265522443 
535	 0.18515840025675 
536	 0.186011575559384 
537	 0.186941145274171 
538	 0.187756498577005 
539	 0.188628088868052 
540	 0.189656071262262 
541	 0.190380268472262 
542	 0.191257323756088 
543	 0.192210076296868 
544	 0.192888116174851 
545	 0.193793117261047 
546	 0.194988024482287 
547	 0.196269594240721 
548	 0.197042977284543 
549	 0.197915504839943 
550	 0.19884486631236 
551	 0.199658270321373 
552	 0.200823817048765 
553	 0.201832180997054 
554	 0.202553997478284 
555	 0.203338395369512 
556	 0.204097815521861 
557	 0.205037866670294 
558	 0.206153534914821 
559	 0.206588970568139 
560	 0.207029567935629 
561	 0.207742968907025 
562	 0.208671672258745 
563	 0.20936199956256 
564	 0.209893991548297 
565	 0.210397600317851 
566	 0.210948578344096 
567	 0.211432648117458 
568	 0.211797975763937 
569	 0.212091270225269 
570	 0.212778059165732 
571	 0.213188290961719 
572	 0.213307402294087 
573	 0.213872964531359 
574	 0.214162636534706 
575	 0.214449625605162 
576	 0.214963835159724 
577	 0.215057315464833 
578	 0.215165327891355 
579	 0.215323961687182 
580	 0.215340705699529 
581	 0.215336938123657 
582	 0.215182973643875 
583	 0.21485373798472 
584	 0.214578063778954 
585	 0.214011436794699 
586	 0.21310478171552 
587	 0.211929198633898 
588	 0.210619531776269 
589	 0.209760550465689 
590	 0.209416997548626 
591	 0.208933268904381 
592	 0.208420336110102 
593	 0.207950171215843 
594	 0.207438126472863 
595	 0.206237766623652 
596	 0.205232301779083 
597	 0.204316310367415 
598	 0.202989926546118 
599	 0.202241993386295 
600	 0.201691997821064 
601	 0.200968633046959 
602	 0.199932879986223 
603	 0.199317261441406 
604	 0.199020702248887 
605	 0.198757495615531 
606	 0.198856760783712 
607	 0.198734100053273 
608	 0.19836489496162 
609	 0.198324580913738 
610	 0.198242049020172 
611	 0.198168064641876 
612	 0.19816527816929 
613	 0.198084148841258 
614	 0.197990729830127 
615	 0.197856169930416 
616	 0.197627133996264 
617	 0.197509985202668 
618	 0.197214887406879 
619	 0.196861614328878 
620	 0.197366950504708 
621	 0.197307373592457 
622	 0.196863011314351 
623	 0.196643937069244 
624	 0.196514546441009 
625	 0.196341299377069 
626	 0.195967333556426 
627	 0.195275641311996 
628	 0.195220601727129 
629	 0.195239984741409 
630	 0.194957393162916 
631	 0.195367636993558 
632	 0.19538285715666 
633	 0.195083635874123 
634	 0.19501785192269 
635	 0.194649390921398 
636	 0.1946378787888 
637	 0.195032080864352 
638	 0.194898849982004 
639	 0.194438228255593 
640	 0.194191121400453 
641	 0.194420102960504 
642	 0.193754741000775 
643	 0.193266939397874 
644	 0.193017675754867 
645	 0.192208149998735 
646	 0.191665925326586 
647	 0.191188393232221 
648	 0.190696639081818 
649	 0.190858075845626 
650	 0.190899381611067 
651	 0.190600560261109 
652	 0.190032245635005 
653	 0.189584028529277 
654	 0.188828090216718 
655	 0.187633776956754 
656	 0.18654120025662 
657	 0.185761069286971 
658	 0.185214302265208 
659	 0.184711077694523 
660	 0.183925450673406 
661	 0.183452983821872 
662	 0.183100689792934 
663	 0.182319119976604 
664	 0.182093532630294 
665	 0.181886048237234 
666	 0.181377864444893 
667	 0.180978090216726 
668	 0.180587655669007 
669	 0.18043805902321 
670	 0.18061526090286 
671	 0.179971620875388 
672	 0.179721801883501 
673	 0.180026547051042 
674	 0.179989726071777 
675	 0.179841209339559 
676	 0.179903313649042 
677	 0.180251747474608 
678	 0.180294569558827 
679	 0.180204365112943 
680	 0.180008643605945 
681	 0.179767800312767 
682	 0.180136846420847 
683	 0.180353173172283 
684	 0.180073167631242 
685	 0.179617955701659 
686	 0.179781706624061 
687	 0.17989793435814 
688	 0.179265602291847 
689	 0.179351792709511 
690	 0.178982373084017 
691	 0.178114146057395 
692	 0.177365897511509 
693	 0.176388725845692 
694	 0.175787199344034 
695	 0.175695275664408 
696	 0.175454624306905 
697	 0.174506553666854 
698	 0.17288962321711 
699	 0.171177958502559 
700	 0.170310576514884 
701	 0.16944782232429 
702	 0.168172752300771 
703	 0.166483699423693 
704	 0.165354506933282 
705	 0.16380821024045 
706	 0.161576705376277 
707	 0.160315337897206 
708	 0.158904711254714 
709	 0.157017244830663 
710	 0.154743012547344 
711	 0.152465690334883 
712	 0.15020748378622 
713	 0.147821829171394 
714	 0.144944683166409 
715	 0.141817377594743 
716	 0.137892712094097 
717	 0.133363745012694 
718	 0.129608424948744 
719	 0.127083935777181 
720	 0.125586317355166 
721	 0.124090884058212 
722	 0.122203445715946 
723	 0.118874197226273 
724	 0.114945879932831 
725	 0.112912126769013 
726	 0.11075131368638 
727	 0.108317273116131 
728	 0.105843719316646 
729	 0.103524672828429 
730	 0.100443745373093 
731	 9.78443332251959E-02 
732	 9.66277495490356E-02 
733	 9.54829514971197E-02 
734	 9.41491819801779E-02 
735	 0.09271915945135 
736	 9.17004076685039E-02 
737	 9.11584319190989E-02 
738	 9.08166391657819E-02 
739	 9.04428006438865E-02 
740	 9.00753950934489E-02 
741	 8.99560186015795E-02 
742	 9.00995057528007E-02 
743	 9.03339563819241E-02 
744	 9.00818065943156E-02 
745	 8.96184893532118E-02 
746	 8.93745321432041E-02 
747	 8.98528656905465E-02 
748	 9.00849556494101E-02 
749	 8.99552027133264E-02 
750	 8.96702815540385E-02 
751	 0.089691163782073 
752	 8.95092269189577E-02 
753	 0.089276474877166 
754	 8.94007132108848E-02 
755	 8.91651825756737E-02 
756	 8.89468120390959E-02 
757	 8.88678151840542E-02 
758	 8.84317717632635E-02 
759	 8.78997845576359E-02 
760	 8.67895204101303E-02 
761	 8.56508496975195E-02 
762	 0.086303775783761 
763	 8.70390898558769E-02 
764	 8.75741980404196E-02 
765	 8.81662817691822E-02 
766	 0.088579637429173 
767	 0.088950242078611 
768	 8.92115530361113E-02 
769	 8.91151449861074E-02 
770	 8.91578390979158E-02 
771	 8.94038348046438E-02 
772	 8.97048659219658E-02 
773	 8.95503981318764E-02 
774	 8.97780016604962E-02 
775	 9.01282967877297E-02 
776	 9.00510579482051E-02 
777	 9.04110191036905E-02 
778	 9.05878322969849E-02 
779	 9.06166947900373E-02 
780	 9.12153277780802E-02 
781	 0.091095025978553 
782	 9.12249969082794E-02 
783	 9.20875428806313E-02 
784	 9.20272766891623E-02 
785	 9.24207358268237E-02 
786	 9.27051443979556E-02 
787	 9.20138175025467E-02 
788	 9.22099981372116E-02 
789	 9.29778006599214E-02 
790	 9.37927390752283E-02 
791	 9.41825114206577E-02 
792	 0.09458560825665 
793	 9.47285984212984E-02 
794	 9.45564135693033E-02 
795	 9.44722192020843E-02 
796	 9.52151818290017E-02 
797	 0.096100751806106 
798	 9.63380651753175E-02 
799	 9.61177708604258E-02 
800	 0.096201008888123 
801	 0.09679261080243 
802	 9.75966805066116E-02 
803	 9.79876944180153E-02 
804	 9.80427479279353E-02 
805	 9.80652786545969E-02 
806	 9.84368443847568E-02 
807	 0.098070819532026 
808	 9.72940942620929E-02 
809	 9.67032803705512E-02 
810	 9.68222206391071E-02 
811	 9.63638423096596E-02 
812	 9.54046816516969E-02 
813	 9.46703996296072E-02 
814	 0.093588735401639 
815	 9.31657214517249E-02 
816	 9.31869927892961E-02 
817	 9.24677306966276E-02 
818	 9.23060372697879E-02 
819	 0.092859316859974 
820	 9.32208066114618E-02 
821	 9.12646091926244E-02 
822	 8.98983156140565E-02 
823	 8.85812390790679E-02 
824	 8.68652741224016E-02 
825	 8.65232838240887E-02 
826	 8.50192187956193E-02 
827	 8.34055958039459E-02 
828	 8.35576946779281E-02 
829	 8.19268832066389E-02 
830	 8.02984906946962E-02 
831	 7.93173815902894E-02 
832	 7.87165350733749E-02 
833	 7.88637404501061E-02 
834	 7.91605510290683E-02 
835	 7.90714632594819E-02 
836	 7.82795674657929E-02 
837	 7.81290245742531E-02 
838	 7.85665500846679E-02 
839	 7.89846862292889E-02 
840	 7.81659461329098E-02 
841	 0.077880153684912 
842	 7.78699081176868E-02 
843	 0.077470479194627 
844	 7.77036254637006E-02 
845	 7.74328868655407E-02 
846	 7.71240792447267E-02 
847	 7.80031277651305E-02 
848	 7.76842788280462E-02 
849	 7.70336933734174E-02 
850	 7.68735524858085E-02 
851	 7.73504006422462E-02 
852	 7.67061978091521E-02 
853	 7.62493264636617E-02 
854	 7.67266512126744E-02 
855	 7.63250982743101E-02 
856	 0.076200436433552 
857	 7.64770491315361E-02 
858	 7.68868005364209E-02 
859	 7.68753479460094E-02 
860	 7.64970471666432E-02 
861	 7.58674055716985E-02 
862	 7.52606502500637E-02 
863	 0.075570231688022 
864	 7.63066803285155E-02 
865	 7.67109379792626E-02 
866	 7.61134011307774E-02 
867	 7.61292181216596E-02 
868	 7.58539924157324E-02 
869	 7.50499197084857E-02 
870	 7.47666510481352E-02 
871	 7.55458261314323E-02 
872	 7.56881028137949E-02 
873	 7.45200672157791E-02 
874	 7.47624304042953E-02 
875	 7.51142576125309E-02 
876	 7.50104873510792E-02 
877	 7.43833261077629E-02 
878	 7.41245964765251E-02 
879	 7.38976248721676E-02 
880	 7.36564466875767E-02 
881	 7.34818335731733E-02 
882	 7.33324115213544E-02 
883	 7.32109271033012E-02 
884	 7.32642923866585E-02 
885	 7.36244669454016E-02 
886	 7.33367128268066E-02 
887	 7.35483389617708E-02 
888	 7.40770868993632E-02 
889	 7.31055472373173E-02 
890	 7.26135894318135E-02 
891	 7.25882200354917E-02 
892	 7.26779828634589E-02 
893	 7.25839249772925E-02 
894	 7.20754017248843E-02 
895	 7.11596163623532E-02 
896	 6.98240788817686E-02 
897	 6.74715042209593E-02 
898	 6.69786499639432E-02 
899	 0.068466063914457 
900	 7.01108858382202E-02 
901	 6.94318999041184E-02 
902	 6.81309712614049E-02 
903	 0.067986044258216 
904	 6.98818741836914E-02 
905	 7.11993838525079E-02 
906	 6.85836517383309E-02 
907	 6.57917411883741E-02 
908	 7.09430781383988E-02 
909	 7.11779162672541E-02 
910	 0.07090517451304 
911	 7.12458377016084E-02 
912	 0.068870060642524 
913	 6.61941143732005E-02 
914	 6.63390773476498E-02 
915	 6.99637924942066E-02 
916	 7.40137399183835E-02 
917	 6.92295600460999E-02 
918	 6.71597424848317E-02 
919	 0.070558183033599 
920	 6.96242493727574E-02 
921	 7.13719960995026E-02 
922	 7.17611763045995E-02 
923	 6.76834680634582E-02 
924	 6.24844837777445E-02 
925	 6.28214272954868E-02 
926	 6.93163733113505E-02 
927	 7.65898864953314E-02 
928	 6.55781747907856E-02 
929	 0.079937757041345 
930	 0.104261922166042 
931	 7.36268721890707E-02 
932	 4.04259704365845E-02 
933	 5.63294032580201E-02 
934	 9.11730522457949E-02 
935	 7.49880500207278E-02 
936	 9.03739069529222E-02 
937	 0.104406759565897 
938	 9.48278431793888E-02 
939	 6.13687202405441E-02 
940	 6.96430925030161E-02 
941	 6.60277336884146E-02 
942	 5.89015179401729E-02 
943	 7.81101517424682E-02 
944	 5.18014139395875E-02 
945	 6.34703570291441E-02 
946	 8.24576225884417E-02 
947	 3.87383755250683E-02 
948	 0.067377918980872 
949	 6.38754454738336E-02 
950	 5.06051228403468E-02 
951	 0.103187707548688 
952	 9.37539231812842E-02 
953	 8.84948631157168E-02 
954	 8.33266687690917E-02 
955	 4.19885660018677E-02 
956	 6.46836604540282E-02 
957	 7.73876628831214E-02 
958	 6.61740757316628E-02 
959	 6.19615098766025E-02 
960	 6.46787175006902E-02 
961	 6.15371425924411E-02 
962	 6.44051256907877E-02 
963	 8.69453646640003E-02 
964	 7.42368320476237E-02 
965	 5.50427672590696E-02 
966	 5.29407277973688E-02 
967	 7.32040964465235E-02 
968	 7.37538786395581E-02 
969	 6.86254396548088E-02 
970	 6.87508906933818E-02 
971	 7.60556539485724E-02 
972	 7.05724490995017E-02 
973	 6.52189908855444E-02 
974	 6.54102408937368E-02 
975	 6.49240787371576E-02 
976	 6.63215008229741E-02 
977	 6.74306228872451E-02 
978	 6.80481501501238E-02 
979	 6.94925052854388E-02 
980	 6.99666320897302E-02 
981	 6.80555641852602E-02 
982	 6.71597985508361E-02 
983	 7.22063047617318E-02 
984	 7.66839768822703E-02 
985	 7.25937479429702E-02 
986	 6.61458746713134E-02 
987	 7.06741323205174E-02 
988	 7.49085864089541E-02 
989	 7.19359088393855E-02 
990	 6.64233886430938E-02 
991	 6.91254102460661E-02 
992	 7.32424262312041E-02 
993	 7.10807918724623E-02 
994	 0.068264512007576 
995	 7.51049840327141E-02 
996	 0.073668698671065 
997	 7.37578159085032E-02 
998	 0.075646189408669 
999	 7.34548016118833E-02 
1000	 6.83618707917633E-02 
1001	 6.22713073710713E-02 
1002	 0.067157795285974 
1003	 0.069928234530573 
1004	 7.42277018083666E-02 
1005	 7.56642780514802E-02 
1006	 7.41437783356194E-02 
1007	 7.46873181279125E-02 
1008	 7.36794329748733E-02 
1009	 7.17095546095726E-02 
1010	 6.86972653491648E-02 
1011	 6.43767765132521E-02 
1012	 6.10620410051724E-02 
1013	 6.02722006731534E-02 
1014	 6.00430877343333E-02 
1015	 6.27297947214042E-02 
1016	 6.31645296774049E-02 
1017	 0.062310766418644 
1018	 6.31794520439435E-02 
1019	 6.55856820592627E-02 
1020	 6.69828396107179E-02 
1021	 6.88754596949203E-02 
1022	 7.01047289692545E-02 
1023	 7.08227216323691E-02 
1024	 6.97416694877862E-02 
1025	 6.94715847326426E-02 
1026	 7.05991654732308E-02 
1027	 7.05384838787276E-02 
1028	 7.01917480525732E-02 
1029	 0.069822391718137 
1030	 6.91576159274161E-02 
1031	 6.82985711111725E-02 
1032	 6.65360539839814E-02 
1033	 6.63522525537497E-02 
1034	 6.69257149763414E-02 
1035	 0.06672103339091 
1036	 6.82561156372501E-02 
1037	 6.81364915610901E-02 
1038	 6.38666753952994E-02 
1039	 6.43009775682747E-02 
1040	 6.71116639727131E-02 
1041	 6.73435920930693E-02 
1042	 6.87010413400493E-02 
1043	 7.32080691398685E-02 
1044	 7.26218054357898E-02 
1045	 6.80608332914847E-02 
1046	 6.68399298890948E-02 
1047	 6.46736350521089E-02 
1048	 6.42903261149139E-02 
1049	 6.65250641488713E-02 
1050	 6.73626036476254E-02 
1051	 6.86848365845311E-02 
1052	 6.84451240790886E-02 
1053	 6.59496475574925E-02 
1054	 6.59614444092949E-02 
1055	 6.59380855040808E-02 
1056	 6.66250868330303E-02 
1057	 6.83171409816014E-02 
1058	 7.33406573849013E-02 
1059	 7.39195053971927E-02 
1060	 7.25983975521924E-02 
1061	 7.23558114082092E-02 
1062	 7.08876366792521E-02 
1063	 6.98233254382387E-02 
1064	 6.92118071381685E-02 
1065	 6.87612792267352E-02 
1066	 6.75904975268844E-02 
1067	 6.71257270069146E-02 
1068	 6.75314089484816E-02 
1069	 6.80165082022491E-02 
1070	 6.89083143838348E-02 
1071	 6.93186263188589E-02 
1072	 7.02131716026784E-02 
1073	 7.04159547351844E-02 
1074	 7.07774158364588E-02 
1075	 7.18250214691002E-02 
1076	 0.070147892746306 
1077	 6.61603478294633E-02 
1078	 6.49392518575057E-02 
1079	 6.15464995484121E-02 
1080	 6.12203011996565E-02 
1081	 6.67840703383762E-02 
1082	 6.74805627867719E-02 
1083	 6.58650037812386E-02 
1084	 6.57696937549103E-02 
1085	 6.29164367611824E-02 
1086	 6.26117339119895E-02 
1087	 6.70845436864533E-02 
1088	 6.81429316586031E-02 
1089	 6.91627881736586E-02 
1090	 6.80311589034937E-02 
1091	 6.62726462539695E-02 
1092	 6.06731369300503E-02 
1093	 0.059438487725572 
1094	 5.90283325619335E-02 
1095	 6.07947927633514E-02 
1096	 6.69273677794153E-02 
1097	 6.88688089600215E-02 
1098	 7.12219647245935E-02 
1099	 7.19171612595935E-02 
1100	 6.98215417813689E-02 
1101	 6.86855003068628E-02 
1102	 6.26530098744721E-02 
1103	 6.21511144318927E-02 
1104	 0.068332639260456 
1105	 6.89470901690734E-02 
1106	 6.68974447299703E-02 
1107	 7.59340046075471E-02 
1108	 0.068305857498924 
1109	 5.70094501418893E-02 
1110	 5.71313705577687E-02 
1111	 6.82043808197868E-02 
1112	 6.93319351980169E-02 
1113	 7.23162548810925E-02 
1114	 7.48284082716444E-02 
1115	 6.85391966651624E-02 
1116	 6.88187307210169E-02 
1117	 8.70851335865051E-02 
1118	 0.105508997504653 
1119	 0.135674381757042 
1120	 0.126196141026165 
1121	 5.51214947156182E-02 
1122	-6.18622359094385E-02 
1123	-7.03908651388962E-02 
1124	 4.43811456414657E-02 
1125	 5.33334907460585E-02 
1126	 0.111995422575007 
1127	 3.28393624297321E-04 
1128	-0.232142319503377 
1129	-0.179827799326794 
1130	 0.096047518937658 
1131	 0.19268964089212 
1132	 0.359995008871085 
1133	 0.359020073423147 
1134	 0.28498378584999 
1135	 0.260117737499568 
1136	 0.160439666572053 
1137	 0.139969171143008 
1138	 0.189331348630163 
1139	 0.136733695997948 
1140	 0.144695460012382 
1141	 0.133791363732976 
1142	 0.030609325808043 
1143	 4.32975801740001E-03 
1144	-1.74338034394025E-02 
1145	 3.77970522664847E-03 
1146	 8.18858959743293E-02 
1147	 0.109566580072432 
1148	 0.119723794690585 
1149	 6.74380303000329E-02 
1150	 6.14729869769944E-02 
1151	 7.93707815204497E-02 
1152	 6.98805984074709E-02 
1153	 4.67110388839484E-02 
1154	 5.09794213017423E-02 
1155	 6.87554490507625E-02 
1156	 3.52952396474877E-02 
1157	 2.24705131183486E-02 
1158	 4.55208274192172E-02 
1159	 3.93242581506184E-02 
1160	 3.61888770529288E-02 
1161	 5.24520440974887E-02 
1162	 5.73053556464615E-02 
1163	 5.89027910935685E-02 
1164	 0.059873656167285 
1165	 5.23500080677336E-02 
1166	 5.09627243408043E-02 
1167	 5.80296051215383E-02 
1168	 6.42243869512265E-02 
1169	 6.72658125056296E-02 
1170	 6.58467356544401E-02 
1171	 6.50775903267235E-02 
1172	 5.78837175876099E-02 
1173	 5.72343473245075E-02 
1174	 6.01286045173272E-02 
1175	 6.37187452962816E-02 
1176	 6.62858558351712E-02 
1177	 6.65191637345392E-02 
1178	 6.52022922985018E-02 
1179	 6.37324175110286E-02 
1180	 6.39240503250243E-02 
1181	 6.34578077963748E-02 
1182	 5.89957880907063E-02 
1183	 5.81807800769964E-02 
1184	 5.90845336784367E-02 
1185	 5.94804008148583E-02 
1186	 6.42466270737123E-02 
1187	 6.52129875317684E-02 
1188	 6.09445126949382E-02 
1189	 5.88022461799221E-02 
1190	 5.92759324496097E-02 
1191	 0.0636935458637 
1192	 6.49094716910446E-02 
1193	 6.75332108214466E-02 
1194	 6.49474123424203E-02 
1195	 6.36179634461156E-02 
1196	 6.33863502207088E-02 
1197	 6.43812256019908E-02 
1198	 6.62341964346679E-02 
1199	 6.47646198889654E-02 
1200	 6.10741632818044E-02 
1201	 5.93432302210191E-02 
1202	 6.24873480521806E-02 
1203	 0.065057598352857 
1204	 6.48713735407156E-02 
1205	 6.40723836461633E-02 
1206	 5.98183023724211E-02 
1207	 5.66272145846367E-02 
1208	 5.93451662539683E-02 
1209	 6.10988815522212E-02 
1210	 5.89079322927043E-02 
1211	 0.059366909885073 
1212	 6.23813037670174E-02 
1213	 0.062370673888567 
1214	 6.23368567561308E-02 
1215	 6.38216248040208E-02 
1216	 6.82004465659809E-02 
1217	 6.98496988328415E-02 
1218	 6.88665774623222E-02 
1219	 7.07491876624346E-02 
1220	 7.08173687866899E-02 
1221	 6.78576369880791E-02 
1222	 6.86129424618995E-02 
1223	 7.00389787238571E-02 
1224	 6.82154344388869E-02 
1225	 6.60883007282374E-02 
1226	 6.70176412703531E-02 
1227	 6.96980147388408E-02 
1228	 7.17805133033148E-02 
1229	 7.16959562011443E-02 
1230	 6.71681942868324E-02 
1231	 6.46124635437468E-02 
1232	 6.79444788278625E-02 
1233	 6.94722658846135E-02 
1234	 6.82961814765485E-02 
1235	 0.06866691157468 
1236	 6.77539771755944E-02 
1237	 0.066689976681532 
1238	 6.58955331382172E-02 
1239	 6.64744829250735E-02 
1240	 6.76328881426995E-02 
1241	 6.58246379280323E-02 
1242	 6.32594949596482E-02 
1243	 6.56110462223156E-02 
1244	 6.66845884781846E-02 
1245	 6.41091422887222E-02 
1246	 6.36882158397684E-02 
1247	 0.066230171792649 
1248	 6.61719844843217E-02 
1249	 6.42737666759901E-02 
1250	 6.63202492275819E-02 
1251	 6.65964655018917E-02 
1252	 6.59182030112116E-02 
1253	 0.069585799638512 
1254	 7.13754902046624E-02 
1255	 0.068587763387117 
1256	 0.067533472076552 
1257	 6.67043141444846E-02 
1258	 6.65768340527014E-02 
1259	 6.65797800329739E-02 
1260	 6.72780407613361E-02 
1261	 0.069165604560111 
1262	 6.84291824333541E-02 
1263	 6.58392569089133E-02 
1264	 6.54570887076751E-02 
1265	 6.52383385721042E-02 
1266	 6.31642731798043E-02 
1267	 6.29103344495934E-02 
1268	 6.52823281491127E-02 
1269	 6.43491577756883E-02 
1270	 6.69314132068544E-02 
1271	 7.24931323640914E-02 
1272	 7.30485763248354E-02 
1273	 7.14416169925615E-02 
1274	 0.068820023000778 
1275	 6.60509364411707E-02 
1276	 6.47770633703556E-02 
1277	 6.40052464358823E-02 
1278	 6.38081770115317E-02 
1279	 6.39585078241112E-02 
1280	 6.25426940742215E-02 
1281	 6.15212585350465E-02 
1282	 6.20613282810106E-02 
1283	 6.27145970965612E-02 
1284	 6.12984011055538E-02 
1285	 6.14466790053886E-02 
1286	 6.58153975657393E-02 
1287	 6.54407860096296E-02 
1288	 6.04052138185878E-02 
1289	 6.07284213028375E-02 
1290	 6.31464300863245E-02 
1291	 6.18533531169862E-02 
1292	 6.32350637512105E-02 
1293	 6.68338580888946E-02 
1294	 6.80450216361992E-02 
1295	 6.85562882839148E-02 
1296	 6.56569383087089E-02 
1297	 6.38048094507042E-02 
1298	 0.063573032188361 
1299	 5.86693290560096E-02 
1300	 6.01207032816397E-02 
1301	 6.74073529406331E-02 
1302	 6.67005718295083E-02 
1303	 6.58117576126953E-02 
1304	 7.01000484869102E-02 
1305	 6.73961625714795E-02 
1306	 6.40169844173047E-02 
1307	 5.79931251499977E-02 
1308	 0.057994838106696 
1309	 0.058523023510775 
1310	 5.58224576817825E-02 
1311	 5.63348539827105E-02 
1312	 5.77854036380385E-02 
1313	 5.43650007916913E-02 
1314	 5.28728233765842E-02 
1315	 5.88335954589368E-02 
1316	 6.03507263882158E-02 
1317	 0.053221323091581 
1318	 5.26921689482948E-02 
1319	 5.94966089583798E-02 
1320	 6.38450784307459E-02 
1321	 7.10244936149471E-02 
1322	 7.34755253629725E-02 
1323	 6.48594290824743E-02 
1324	 5.94258378900173E-02 
1325	 5.85369230773886E-02 
1326	 5.03882966599333E-02 
1327	 4.48429024281401E-02 
1328	 4.73517807489834E-02 
1329	 4.65724130812936E-02 
1330	 4.41502474794177E-02 
1331	 0.02907728249501 
1332	 2.50405664743568E-02 
1333	 5.30318594120196E-02 
1334	 6.22544532610919E-02 
1335	 4.15966352302229E-02 
1336	 2.69723004726104E-03 
1337	 4.26569315671921E-03 
1338	-1.71627575213539E-02 
1339	-2.52863554676517E-02 
1340	 0.052189576982776 
1341	 9.03182978525076E-02 
1342	 6.69851177857387E-02 
1343	 4.14181588881241E-02 
1344	 1.72231106427219E-02 
1345	 1.74394872965686E-02 
1346	 2.35674315632395E-02 
1347	-0.037906896718231 
1348	-0.156095758857125 
1349	-0.195513811444124 
1350	-0.387865201451584 
1351	-0.64664769218735 
1352	-0.561932344578031 
1353	-0.362913935577131 
1354	 8.32416080619519E-02 
1355	 0.460684163659581 
1356	-6.55299758468347 
1357	-2.97159931940838 
1358	-8.27203960787949 
1359	 9.60032012524211 
1360	-3.33993357951387 
1361	-0.542926318274069 
1362	-0.77774699074284 
1363	-2.75504921628121 
1364	-2.50432978050127 
1365	-0.913217452720525 
1366	-1.82572037095314 
1367	-24.2537878554957 
1368	 13.1375878621427 
1369	 0.992858754661941 
1370	 0.529603082490476 
1371	-0.140491824996675 
1372	-0.487439078130143 
1373	 1.12863924530691 
1374	-0.148126147982957 
1375	 2.92843864061628 
1376	 18.9542598724148 
1377	-2.05600514771675 
1378	-2.32324711736255 
1379	 1.26702167130772E-02 
1380	 3.26486260302343E-02 
1381	-3.8991602232996 
1382	-6.23652167051476 
1383	-1.55501159765026 
1384	-1.27804677577793 
1385	-0.447306665989064 
1386	-0.263095665591959 
1387	-2.10278627804627 
1388	-1.73460376911463 
1389	 0.306760556648797 
1390	 7.69917912507185E-03 
1391	-6.04812073945213 
1392	-2.99059119103861 
1393	 3.00568097813992E-02 
1394	-2.11157858463071E-02 
1395	 0.270107543082112 
1396	-0.546390033969443 
1397	-0.970434106964602 
1398	-0.401720517302232 
1399	-8.65786409742496 
1400	 1.68957505494215 
1401	 0.711300318233542 
1402	-0.361180998366739 
1403	-0.286730403305919 
1404	-0.631554222487977 
1405	-1.2313456316376 
1406	 1.68355945059087 
1407	 2.74205606520553 
1408	-3.16450927955819 
1409	-2.77279356915287 
1410	-3.71625010700166 
1411	-2.80079200626246 
1412	-0.202907927331972 
1413	-5.65728569658819E-02 
1414	 1.23354511154802 
1415	 2.5204849582677 
1416	-1.65693469912362 
1417	-1.53413849102021 
1418	-0.826248251659982 
1419	-0.503474319307491 
1420	-0.21068124857413 
1421	-0.488361592239475 
1422	-0.924401082649363 
1423	-1.72696054104029 
1424	 4.32383145008187 
1425	 3.74735053725474 
1426	-19.5493881489757 
1427	-3.32683291008513 
1428	-1.01606959897671 
1429	-0.412027944038947 
1430	 1.32991153659882 
1431	 1.58099827786066 
1432	 0.170954006047087 
1433	-0.244374569351872 
1434	-0.252750349307182 
1435	-0.49980259775444 
1436	-2.65761292849689 
1437	-3.54434624970704 
1438	-0.835207719715399 
1439	-0.907685565191265 
1440	-16.8494525665248 
1441	 50.6300698626352 
1442	-2.19709194841214 
1443	-2.31017845733427 
1444	-3.0574084457619 
1445	-1.71021419534841 
1446	-1.46437669569876 
1447	-4.522414263875 
1448	-2.73632171577516 
1449	-1.12478147370428 
1450	 1.29926756034562 
1451	 0.994684373875285 
1452	-13.1746106720087 
1453	-0.658688394330643 
1454	-0.237752055600098 
1455	 92.332336299042 
1456	 0.896783426106762 
1457	-8.21189710249375E-02 
1458	 0.146102660994392 
1459	 0.444671075399965 
1460	 0.244264919851839 
1461	 0.174278997221157 
1462	 0.300594962041379 
1463	 0.496454699521613 
1464	 8.24191278339863E-02 
1465	 0.628383802964114 
1466	 0.826406075902181 
1467	-0.464762339805547 
1468	-0.652817571514519 
1469	 2.58370839011849 
1470	 1.34452678733824 
1471	-13.9499951163227 
1472	-4.1688957765299 
1473	 51.9717785216413 
1474	-0.484327538354264 
1475	 0.228036637113835 
1476	 9.86198565904788E-02 
1477	-0.381153445322651 
1478	-0.522454480240051 
1479	-2.0148229840046 
1480	 152.020087493611 
1481	-160.162526553937 
1482	 24.8662938327131 
1483	 16.606432531739 
1484	-33.0270508780616 
1485	-0.439339584436713 
1486	 0.404696741552484 
1487	 0.140360039127651 
1488	 0.199944630420568 
1489	 0.274869999067594 
1490	 0.319893159514942 
1491	 0.463235405727324 
1492	 0.4815067328113 
1493	 0.314335826119232 
1494	 0.267633920414108 
1495	 0.299023321041719 
1496	 0.199475220844421 
1497	 0.118410424322372 
1498	 5.56294045315129E-02 
1499	-0.152097489449354 
1500	-0.136776705755414 
1501	 0.095999247186102 
1502	 9.16040112712207E-02 
1503	-5.48247661989238E-02 
1504	-3.36767327880234E-02 
1505	-1.89494555629813E-02 
1506	-6.28461766330699E-02 
1507	-6.91928490209466E-02 
1508	-2.54713721603564E-02 
1509	-3.47669178424364E-02 
1510	-0.110848795461109 
1511	-0.12436594056118 
1512	-5.06302812619554E-02 
1513	 1.16887862107849E-02 
1514	 1.64482745904305E-02 
1515	 4.11389107292691E-02 
1516	 3.40171861247617E-02 
1517	-4.63048242478055E-02 
1518	-6.97185638986432E-02 
1519	-9.2712413001901E-03 
1520	 0.010132631224785 
1521	 1.70271611500536E-02 
1522	 1.52474343216688E-02 
1523	-3.02389770241287E-02 
1524	-3.55199154957369E-02 
1525	-1.49495463629206E-02 
1526	-9.49020706372634E-03 
1527	-8.92863538118148E-03 
1528	 1.07710109695261E-02 
1529	 9.80903699890499E-03 
1530	-3.35674822344394E-02 
1531	-2.53378276896497E-02 
1532	-8.22480575312316E-03 
1533	-3.68482380175821E-02 
1534	-3.04095299858932E-02 
1535	 1.26297174252862E-02 
1536	 2.31462598325309E-02 
1537	 9.92549909714401E-03 
1538	 2.65586733440541E-02 
1539	 3.12393477736123E-02 
1540	 0.002857780982805 
1541	-2.07740049507811E-03 
1542	 1.26480889005854E-02 
1543	 1.40206762245217E-02 
1544	 0.01262819773467 
1545	 2.91798551111773E-02 
1546	 4.05289344254034E-02 
1547	 4.65625656272656E-02 
1548	 0.053410274147173 
1549	 5.05854048308558E-02 
1550	 5.99898085238002E-02 
1551	 4.76530856681671E-02 
1552	 0.012930672213673 
1553	 1.35054574100467E-02 
1554	 0.049162615193251 
1555	 6.78187676246324E-02 
1556	 0.050678029552266 
1557	 5.21613907637621E-02 
1558	 4.34298195169305E-02 
1559	 2.21069356623102E-02 
1560	 4.06009340687251E-02 
1561	 4.95971957527932E-02 
1562	 3.35125500892491E-02 
1563	 2.24202530659421E-02 
1564	 0.013763287116887 
1565	 1.22233704848971E-02 
1566	 1.64563452573246E-02 
1567	 9.38139372297393E-03 
1568	 1.80245924995099E-02 
1569	 4.12412720996896E-02 
1570	 0.031008168583479 
1571	 2.18956115906068E-02 
1572	 3.14853577156455E-02 
1573	 2.76898898593853E-02 
1574	 1.94520933225638E-02 
1575	 0.017050389225641 
1576	 3.33560510248644E-02 
1577	 4.52224483510591E-02 
1578	 4.03260065864713E-02 
1579	 5.71444323027831E-02 
1580	 5.02889109292047E-02 
1581	 3.28438779537181E-02 
1582	 4.31079483455274E-02 
1583	 5.67130223797345E-02 
1584	 8.62558742352784E-02 
1585	 9.09513330229252E-02 
1586	 7.84160585171934E-02 
1587	 8.13412046882279E-02 
1588	 0.063887822187616 
1589	 5.13187371278784E-02 
1590	 6.76180780448349E-02 
1591	 8.55152950007842E-02 
1592	 9.24137077105968E-02 
1593	 0.084869419135487 
1594	 7.42887809012638E-02 
1595	 6.76291849550169E-02 
1596	 6.28577917215422E-02 
1597	 5.91669072845519E-02 
1598	 0.054913820198321 
1599	 0.058662173196071 
1600	 5.92453363967236E-02 
1601	 0.048137575251117 
1602	 6.03907814551537E-02 
1603	 7.20207367140014E-02 
1604	 4.66513574806295E-02 
1605	 5.31376245522235E-02 
1606	 9.24010325326006E-02 
1607	 9.07352174666986E-02 
1608	 7.01547414903523E-02 
1609	 7.62486084391461E-02 
1610	 7.27363711368175E-02 
1611	 5.70428760938414E-02 
1612	 6.20372922550321E-02 
1613	 7.17959764722835E-02 
1614	 7.88873305591152E-02 
1615	 7.30584554660833E-02 
1616	 7.59423041641134E-02 
1617	 9.34900612617676E-02 
1618	 7.24162785823946E-02 
1619	 0.060902787720118 
1620	 8.21081728128549E-02 
1621	 7.24708605531264E-02 
1622	 5.61470297066835E-02 
1623	 5.86631603250226E-02 
1624	 0.06709197037516 
1625	 6.33569658919179E-02 
1626	 5.86787685038385E-02 
1627	 7.46189176384746E-02 
1628	 6.38980553865146E-02 
1629	 0.048675369027838 
1630	 5.78895323283924E-02 
1631	 4.78898344869755E-02 
1632	 3.91477971375265E-02 
1633	 5.52288022630667E-02 
1634	 0.069646533414984 
1635	 6.88879755656146E-02 
1636	 6.99968860742205E-02 
1637	 7.22358798604261E-02 
1638	 6.93380827365929E-02 
1639	 6.51187418328706E-02 
1640	 5.97652751441451E-02 
1641	 0.061557235269029 
1642	 6.89311811798758E-02 
1643	 8.45076001690152E-02 
1644	 9.57795270462771E-02 
1645	 8.26766150589276E-02 
1646	 6.60241027651583E-02 
1647	 6.25020750741975E-02 
1648	 7.64419531547796E-02 
1649	 0.096949420251341 
1650	 9.42066817435715E-02 
1651	 7.35328862026598E-02 
1652	 7.03260999384391E-02 
1653	 8.51746528446771E-02 
1654	 7.43723506341468E-02 
1655	 5.43692127012566E-02 
1656	 4.84261504799019E-02 
1657	 3.04555209851192E-02 
1658	 1.90752314919193E-02 
1659	 3.29392725742682E-02 
1660	 3.67194889721997E-02 
1661	 1.98843705838983E-02 
1662	 1.53758059275953E-02 
1663	 2.87410526220947E-02 
1664	 2.81446698796391E-02 
1665	 1.61105365352239E-02 
1666	 1.39947015851857E-02 
1667	 1.11486702325049E-02 
1668	 1.72187894351652E-02 
1669	 3.65675505523851E-02 
1670	 4.50617465088169E-02 
1671	 0.042548105168951 
1672	 4.26223162944483E-02 
1673	 4.16638643181467E-02 
1674	 4.78930865006206E-02 
1675	 5.75241423722805E-02 
1676	 4.75437113942677E-02 
1677	 0.029186990894242 
1678	 2.75801557789074E-02 
1679	 3.15005707022401E-02 
1680	 3.23458445694179E-02 
1681	 3.89226021176987E-02 
1682	 4.06484266457769E-02 
1683	 3.32477773700153E-02 
1684	 2.69971142749162E-02 
1685	 3.19319066179661E-02 
1686	 4.48585513887509E-02 
1687	 5.60141033289796E-02 
1688	 6.34756733593718E-02 
1689	 5.75038006298405E-02 
1690	 4.11162607170502E-02 
1691	 2.99259427773606E-02 
1692	 2.78122670735343E-02 
1693	 3.19354541469061E-02 
1694	 3.35493375142824E-02 
1695	 3.59811249352769E-02 
1696	 0.025164435975005 
1697	 0.016280528693222 
1698	 3.33406534898759E-02 
1699	 3.86509417401003E-02 
1700	 4.53576326020822E-02 
1701	 5.61959002594693E-02 
1702	 5.10210877297279E-02 
1703	 5.30422961515474E-02 
1704	 5.44522357743621E-02 
1705	 5.63414479884866E-02 
1706	 5.62830748686384E-02 
1707	 0.041059444560083 
1708	 4.74924960821715E-02 
1709	 7.17203270863479E-02 
1710	 0.064236179098497 
1711	 6.96611161833273E-02 
1712	 7.86543985952915E-02 
1713	 0.054175479746875 
1714	 5.80863258215891E-02 
1715	 4.19671920341951E-02 
1716	 3.48589401225998E-02 
1717	 6.93579704804103E-02 
1718	 7.17923145633535E-02 
1719	 0.068329284291839 
1720	 7.80566828702821E-02 
1721	 6.31518258634279E-02 
1722	 5.59907395105184E-02 
1723	 7.66136900108902E-02 
1724	 7.92490899856182E-02 
1725	 6.32662221828339E-02 
1726	 0.063514758939726 
1727	 5.73730758564722E-02 
1728	 5.12870038923954E-02 
1729	 9.11827021592858E-02 
1730	 8.73031192570796E-02 
1731	 0.048075748161228 
1732	 5.27318985849959E-02 
1733	 2.42573324661166E-02 
1734	 1.64162863653906E-02 
1735	 5.90251559944375E-02 
1736	 7.38259343013148E-02 
1737	 7.79819603091796E-02 
1738	 6.99470693842708E-02 
1739	 6.94432097690957E-02 
1740	 7.75563267159083E-02 
1741	 6.93488467935442E-02 
1742	 7.40743085909611E-02 
1743	 6.68517739095577E-02 
1744	 0.055808107852097 
1745	 6.85766037078274E-02 
1746	 0.045797133133917 
1747	 4.69809104702921E-02 
1748	 0.052808085203223 
1749	 5.95762293260395E-02 
1750	 9.76589779252942E-02 
1751	 0.103711341182188 
1752	 7.95841399901143E-02 
1753	 7.65944672047191E-02 
1754	 6.54237314414544E-02 
1755	 6.89682748168656E-02 
1756	 0.106845685619871 
1757	 8.58917851019428E-02 
1758	 7.28456996063154E-02 
1759	 8.97908874563908E-02 
1760	 0.069549916714317 
1761	 3.55823159466463E-02 
1762	 0.050208447547488 
1763	 7.48332917281535E-02 
1764	 8.48418612967751E-02 
1765	 8.98807457877305E-02 
1766	 7.25497147210609E-02 
1767	 2.13384680637517E-02 
1768	-3.10906800716424E-03 
1769	 0.030919836786183 
1770	 6.06147102715191E-02 
1771	 8.00362475455036E-02 
1772	 7.64580505865765E-02 
1773	 1.42328510463317E-02 
1774	 9.19112660927552E-03 
1775	 0.079039395447225 
1776	 5.95186024671667E-02 
1777	 8.44318697905272E-03 
1778	 6.3822420211416E-03 
1779	-5.17098643012031E-03 
1780	-0.103012714818637 
1781	-0.24393705492759 
1782	-0.209857086445829 
1783	-0.130070085095348 
1784	-0.11505667693462 
1785	 0.151907588326249 
1786	 0.127820117015184 
1787	-0.444664737213936 
1788	-0.539816593395234 
1789	-0.391198150397711 
1790	-0.352426608999334 
1791	-2.91022738772872E-02 
1792	 7.04865665680922E-02 
1793	 0.151189372935961 
1794	 0.389080297053684 
1795	 2.46326777112985E-02 
1796	 0.293999908168152 
1797	 0.578069674934075 
1798	-0.960613572217867 
1799	-5.78926149846414 
1800	-0.718000931162108 
1801	-0.598479534499927 
1802	 7.90087957495354E-02 
1803	 0.112064611727967 
1804	-0.945399414267529 
1805	-2.13581588531196 
1806	-0.545476806765428 
1807	-14.3383656826787 
1808	-0.750633461330655 
1809	-0.763505830225147 
1810	 0.433801707863185 
1811	 7.44831011671175E-02 
1812	-0.913928921098971 
1813	-1.5378256965515 
1814	 1.10133626019401 
1815	 0.424912478969794 
1816	-0.029804750315546 
1817	-0.399307314715286 
1818	-0.892723856303778 
1819	-1.89005561119804 
1820	 22.5473517705991 
1821	-1.24687659860598 
1822	-0.332176830298669 
1823	 0.28003790676369 
1824	 0.647040463605991 
1825	-1.58861624178122E-02 
1826	 0.158428024403199 
1827	 0.218781524456399 
1828	 0.654764961057427 
1829	-0.726478777107925 
1830	-0.46067573148566 
1831	 6.07755256103868 
1832	 12.4447320414706 
1833	-4.28197919748369 
1834	-2.6697635803628 
1835	 2.9194931013571 
1836	 45.428943845566 
1837	-0.945562325472259 
1838	-0.869724015201132 
1839	-0.519713809310398 
1840	-12.8678608023282 
1841	-0.746921989513074 
1842	 0.180514968377354 
1843	 0.523974627356545 
1844	 4.60793649824413 
1845	 7.57788634941468 
1846	 1.43428694612813 
1847	 1.45219940913118 
1848	 5.03727643520646 
1849	 9.26160338099765 
1850	 0.104890126388806 
1851	 1.90980758374922 
1852	-2.72822021187594 
1853	-1.1587029557019 
1854	-0.930951946303508 
1855	-0.381996098045812 
1856	-0.175708797598694 
1857	-8.61404492174288E-02 
1858	 2.79125393549267E-02 
1859	 0.303107046265321 
1860	 0.357800666506072 
1861	 9.96656624953259E-02 
1862	-0.158957217387074 
1863	-0.181298772555454 
1864	-0.171483328767789 
1865	-0.185324827075275 
1866	 0.170948894848576 
1867	 0.268327296540949 
1868	-0.485488386238766 
1869	 1.08516128197314 
1870	 0.290217770073555 
1871	-0.339809743272366 
1872	-0.400446578936659 
1873	-2.03066569126189E-03 
1874	-3.85538556738648E-03 
1875	-0.400122776516419 
1876	-0.399186222831689 
1877	-3.68185445413935E-03 
1878	 1.06913148831828E-02 
1879	-0.236431537219687 
1880	-0.373857672754225 
1881	-0.595492169711482 
1882	-1.11195036090573 
1883	-2.40923903324099 
1884	 0.414057801133141 
1885	-0.538252329184032 
1886	-1.36818001928998 
1887	 1.29228267344403 
1888	 0.220472305637861 
1889	 3.30195206176988E-02 
1890	-0.155086127044902 
1891	-0.293931381514013 
1892	-0.555148027934207 
1893	-1.92471643140365 
1894	-5.09325829663741 
1895	 5.59184152411346 
1896	 1.99804308206311 
1897	 1.46888231794011 
1898	 1.34567858872143 
1899	 1.52911815495415 
1900	 1.24722227563709 
1901	 0.448999787317883 
1902	 4.99219848222231E-02 
1903	-0.253859499578527 
1904	-0.655381836484603 
1905	 0.88922921424941 
1906	-4.56766813349587 
1907	-0.959418515804598 
1908	-0.793734546714352 
1909	-0.488513915505203 
1910	-0.580191062227758 
1911	-1.00198420057835 
1912	 0.402504182491879 
1913	 0.124348990232453 
1914	 0.196503667202244 
1915	 0.498873484239383 
1916	 1.17719056996114 
1917	 1.3743641813894 
1918	 9.17794763448179 
1919	 37.9163827783542 
1920	-6.45705013627181 
1921	 5.46766461397824 
1922	 1.33297229215019 
1923	 0.985142970615118 
1924	 0.450139921742107 
1925	 0.140054088339577 
1926	 0.107942252064149 
1927	 0.049247578502469 
1928	 0.195145496814706 
1929	 1.74855268801424 
1930	 15.7935985258955 
1931	 4.9647936198993 
1932	 3.24178671043943 
1933	 2.71098702112112 
1934	 1.98886550869129 
1935	-6.06660544596405 
1936	-1.88346136701014 
1937	-1.87324474860289 
1938	-1.75916140838072 
1939	-1.89430312896582 
1940	-2.98737247683769 
1941	-2.49097374012385 
1942	-0.956118746765836 
1943	-0.243462600654592 
1944	 0.125314407343217 
1945	 0.969725520880158 
1946	-6.81754319152041E-02 
1947	-1.00094676983246 
1948	-0.623284762318732 
1949	-0.586236259441461 
1950	-0.322148485200899 
1951	-6.08781655904099E-02 
1952	-0.241216215389293 
1953	 2.77307511705225E-02 
1954	-0.183016128383501 
1955	-0.412913398786706 
1956	-0.829118649672474 
1957	-0.526451554798035 
1958	-0.573101017597807 
1959	 1.5435748227648 
1960	 0.533537570859644 
1961	 0.410896491028606 
1962	 8.21587555145664E-02 
1963	-0.684343988444253 
1964	-2.83927729664253 
1965	-3.23939670598751 
1966	-4.56521241673848 
1967	-20.0852957578831 
1968	 2.33177080233704 
1969	 2.10804855012967 
1970	 7.71905614098606 
1971	-7.32312479472562 
1972	-4.43270634137365 
1973	-2.56643112581761 
1974	-2.09979035024954 
1975	-7.68785878623268 
1976	-2.41668237652278 
1977	-4.90314194289097 
1978	-2.91280029578767 
1979	-1.90720053161997 
1980	-1.27212416216425 
1981	-5.59206511055786 
1982	-4.39731276693807E-02 
1983	-0.22504636589478 
1984	-0.850988196338671 
1985	-1.25166996322785 
1986	-1.18490194018673 
1987	-0.620823846143555 
1988	-0.555713678558136 
1989	-0.174430792862686 
1990	 6.41562680041728E-03 
1991	-5.13172914553205E-02 
1992	 5.09790234194931E-02 
1993	 3.77113039680138E-03 
1994	-6.18161480047848E-02 
1995	-0.583609354669515 
1996	-1.86707094951819 
1997	 93.2600913489966 
1998	 1.56284492172909 
1999	 0.63221608051714 
2000	 0.596753008582951 
2001	 3.55258918763192E-02 
2002	-0.551381460034341 
2003	-8.38844391830428E-02 
2004	-0.033268528485051 
2005	 6.45105858283728 
2006	-46.814033572177 
2007	-3.23546249017068 
2008	-32.1135822315367 
2009	 12.5015431733715 
2010	 1.63414027333287 
2011	 1.53811768633239 
2012	 0.811411723339116 
2013	-1.49600183346858 
2014	-0.799990500695521 
2015	-0.448005510478387 
2016	 0.032626104949577 
2017	 6.71203759048447E-02 
2018	-4.07432827997183E-02 
2019	-0.488731919619875 
2020	-6.63274405125443 
2021	 5.82235546247657 
2022	-5.38243803061207 
2023	-0.407817154919827 
2024	-0.383732638955747 
2025	-0.653066052010005 
2026	-0.798143373238756 
2027	-2.91796233892913 
2028	 1.90307944330982 
2029	 1.03209876528438 
2030	 1.43900404197555 
2031	 142.030436786406 
2032	-2.15926350625711 
2033	-0.972430340610639 
2034	-0.919084437642793 
2035	-1.84292458908141 
2036	-2.65613883572864 
2037	 1.03817558428487 
2038	 2.76427889479964 
2039	 2.88575295610369 
2040	 1.94029117296419 
2041	 1.64445310003419 
2042	 1.26989776034133 
2043	 0.724601268483423 
2044	 0.362276259489346 
2045	 0.321563724249681 
2046	 0.419411801026672 
2047	 0.720605874405211 
2048	 1.44188857889635 
2049	-2.59207060912312 
2050	-1.59808925653485 
2051	 6.14208903186446E-02 
2052	 0.215838848609317 
2053	-0.345885455952677 
2054	-0.155127010895778 
2055	 0.446103105878578 
2056	 0.374340920372691 
2057	-0.652770017319824 
2058	-0.689595652265972 
2059	-0.62138396831356 
2060	-0.898966285174655 
2061	-0.599199847833219 
2062	-0.440902588856787 
2063	-1.84637686024799 
2064	-2.05430064901818 
2065	-1.05129524962956 
2066	-0.4998063506649 
2067	-0.648407824895908 
2068	-0.653416168779808 
2069	-0.67635124568293 
2070	-1.19515830247638 
2071	-1.03401104420362 
2072	-0.598384020523837 
2073	-0.59816824620019 
2074	-1.38480695047554 
2075	-1.10328334691285 
2076	-0.859226092834839 
2077	-0.795898733215522 
2078	-0.397006739600744 
2079	-0.270355363743367 
2080	-0.135537498816463 
2081	 1.90166905966815E-03 
2082	 2.58922989305234 
2083	 57.2652327955462 
2084	 1.88819985015252 
2085	 0.834486785378747 
2086	 0.370639354746001 
2087	-0.16751912220959 
2088	-0.556826033405146 
2089	 3.40512348767577 
2090	-1.27535406123953 
2091	-3.67555648613588 
2092	-5.30799756799341 
2093	 6.95824482787052 
2094	 1.10696405977437 
2095	-0.373560484964958 
2096	-0.461331057732829 
2097	 0.159178052068241 
2098	 0.157438609631202 
2099	-5.12451076351759E-03 
2100	 6.18804641905604E-02 
2101	-0.301736430348243 
2102	-0.976448863234275 
2103	-0.936093274669905 
2104	-0.370964214019348 
2105	-6.53274005702594E-02 
2106	 5.89988509116207E-02 
2107	 0.210388674536756 
2108	 0.214751478480531 
2109	-0.198823900308848 
2110	-0.511480187497979 
2111	-0.44397313359104 
2112	-0.532073145113036 
2113	-0.506933632673287 
2114	-0.319192998405872 
2115	-0.211971069496665 
2116	-9.45209056989328E-02 
2117	-0.106177018276672 
2118	-0.106201027961734 
2119	-0.114092058890774 
2120	-0.23766044012439 
2121	-0.357729994822701 
2122	-0.2136279708657 
2123	-6.55787219035911E-02 
2124	-7.51584170258328E-02 
2125	-1.13144758933496E-03 
2126	 0.12216651501079 
2127	 0.118044094351463 
2128	-1.20291560850091E-02 
2129	-2.39256813166788E-02 
2130	-6.60507511204423E-03 
2131	-3.06674421388917E-02 
2132	 8.17391758816867E-02 
2133	 0.108556554144226 
2134	 0.112618704404274 
2135	 4.74768127861428E-02 
2136	 0.055103737006634 
2137	 3.99560132143822E-02 
2138	 9.56632689907502E-02 
2139	 0.23334371244425 
2140	 0.297673246847693 
2141	 0.384160491978065 
2142	 0.48004839503474 
2143	 0.681480721622971 
2144	 0.507402673140267 
2145	 0.365029863650035 
2146	 0.344246642680308 
2147	 0.224885589249709 
2148	 0.230101671441282 
2149	 0.17632492111395 
2150	 9.87363672279706E-02 
2151	 1.22312925274502E-02 
2152	-0.127939942441111 
2153	-0.185134666745905 
2154	-0.161290638491294 
2155	-3.35274156695637E-03 
2156	 0.221121873103191 
2157	 0.317600603838208 
2158	 0.48331664721848 
2159	 0.432456248893675 
2160	 6.32791440063994E-02 
2161	-2.25415205081352E-02 
2162	-3.06470571353942E-02 
2163	-1.68983018351651E-02 
2164	 7.31133183556376E-02 
2165	 0.10514466503429 
2166	 0.123442127550493 
2167	 0.100859478627032 
2168	 2.63327217122596E-02 
2169	-1.36564022878035E-02 
2170	-4.65403703555322E-02 
2171	-0.141918641118867 
2172	-0.14891415153029 
2173	-0.153079669634879 
2174	-0.249855316014265 
2175	-0.189392710120175 
2176	-4.61034431698946E-02 
2177	 1.45912308553065E-02 
2178	 0.116954948590213 
2179	 0.15824198345017 
2180	 0.089890137936922 
2181	 2.31884698888492E-02 
2182	 5.16895062343805E-02 
2183	 0.094662326774543 
2184	 0.196803694142173 
2185	 0.332260931425475 
2186	 0.334056623421618 
2187	 0.241544389952807 
2188	 0.164964634867678 
2189	-1.30420786213803E-02 
2190	-0.104355008153661 
2191	-0.138973387917533 
2192	-0.191890020423078 
2193	-0.283272819128224 
2194	-0.304985975330408 
2195	-0.201009013852356 
2196	-0.184515855801685 
2197	-0.17219012950031 
2198	-0.146497957202809 
2199	-0.163016297996419 
2200	-0.268973760233527 
2201	-0.283138529692808 
2202	-0.27107734124365 
2203	-0.274781644047213 
2204	-0.279057809149185 
2205	-0.152456180554322 
2206	-0.167149160209828 
2207	-0.210978795261888 
2208	-0.22255883335824 
2209	-0.297867951471546 
2210	-0.292300457609035 
2211	-0.284447270311238 
2212	-0.256904319905538 
2213	-0.137761186341245 
2214	-0.110812827145013 
2215	-8.10318027522042E-02 
2216	-2.70112774583984E-02 
2217	-1.97754049861651E-02 
2218	-2.55483768687821E-02 
2219	-2.27283130440769E-02 
2220	-5.83719252559119E-02 
2221	-9.42178064125062E-02 
2222	-0.124892444105381 
2223	-0.157073764510746 
2224	-0.193342718574046 
2225	-0.227594076040193 
2226	-0.30337903424487 
2227	-0.306860381644307 
2228	-0.27290679075282 
2229	-0.225211718687488 
2230	-5.77369050241672E-02 
2231	-5.05967821733507E-03 
2232	-6.51109945559974E-02 
2233	-7.30862952528609E-02 
2234	-0.119724152017942 
2235	-6.03882742303573E-02 
2236	-8.63254717356707E-02 
2237	-0.110158087668293 
2238	-0.110135358928888 
2239	-0.135872432494819 
2240	-0.124601758235621 
2241	-4.24885826379773E-02 
2242	 4.11492820055867E-02 
2243	-4.47768257203589E-03 
2244	-4.69423197500018E-02 
2245	-0.101743154502054 
2246	-0.238865211977099 
2247	-0.339917933518202 
2248	-0.313064943282662 
2249	-0.354526597708504 
2250	-0.409095674648944 
2251	-0.594499716588486 
2252	-0.885840359766846 
2253	-1.01515092039148 
2254	-1.08459121128508 
2255	-0.609176311193608 
2256	-0.242678737739034 
2257	 6.23540216824276E-02 
2258	 0.266684143524514 
2259	 0.132664434424644 
2260	 0.117607997003594 
2261	 0.137849618966492 
2262	 0.146694345157685 
2263	 0.155929382410363 
2264	 0.137788957082383 
2265	 2.65841412978924E-02 
2266	-0.057239694467563 
2267	-0.542446422926025 
2268	-0.33413190986772 
2269	 0.686195012402914 
2270	 0.71761030582239 
2271	 0.635292181885044 
2272	 0.601911953329592 
2273	 0.204812467221466 
2274	 4.77364881455805E-02 
2275	 6.05890765784484E-02 
2276	-3.04420512571324E-02 
2277	-0.139278629251503 
2278	-0.155234860042572 
2279	-0.104690304993118 
2280	-0.162197094632884 
2281	-0.219104340155127 
2282	-0.213040068670641 
2283	-0.305240600243393 
2284	-0.405507239782506 
2285	-7.01599435951042E-02 
2286	-0.865249098700617 
2287	 4.1687932561092 
2288	-598.686069422906 
2289	-2.0979263316699 
2290	-2.63817681492092 
2291	-1.49833158550435 
2292	-2.75404789208237 
2293	-11.1553160020565 
2294	-21.7616823280228 
2295	-25.3607314944524 
2296	-2.56693116946977 
2297	-1.42592621865976 
2298	-1.69162337598776 
2299	-1.08178433423526 
2300	-0.713449540643241 
2301	-0.844407168383664 
2302	-0.589664147933942 
2303	-0.224119273296649 
2304	-0.452597141193198 
2305	-9.72853778997585E-02 
2306	-2.65515931103389E-02 
2307	 1.47513830908935E-02 
2308	 0.121831599188423 
2309	-0.227546003732428 
2310	-0.242476106908466 
2311	-0.186541485186709 
2312	-0.135557820287604 
2313	 0.359786696531141 
2314	 0.348385693612458 
2315	 0.167746308315983 
2316	-0.142632758827676 
2317	-0.913018693134377 
2318	-1.68915627933029 
2319	-1.4642075693088 
2320	 0.409101990010271 
2321	 0.6537251524204 
2322	 1.03028142750381 
2323	 0.671614824880662 
2324	-1.09921678720992 
2325	-0.932303658681297 
2326	-0.518345432130831 
2327	 0.116268204887402 
2328	 0.684109841742968 
2329	 0.120101628952454 
2330	-0.508507824768429 
2331	-0.817537034750402 
2332	-0.735405882925104 
2333	-1.14799624817879 
2334	-0.931016070254666 
2335	 0.11376462413799 
2336	-0.635330621661579 
2337	-0.854870892883528 
2338	-0.71597069834483 
2339	-3.10251482157009 
2340	-3.50873755012841 
2341	-1.54281012874153 
2342	-0.83673405211319 
2343	-0.278785001363579 
2344	 1.90885381177389 
2345	 10.8421450952465 
2346	-1.67506338994736 
2347	-1.48507419732425 
2348	-2.47344140811381 
2349	-3.9806540363997 
2350	 2.50678728241384 
2351	 0.188271031564174 
2352	-1.07632983290227 
2353	-0.439322425798759 
2354	 0.359016828529355 
2355	 0.197808388661812 
2356	-7.85275598939987E-02 
2357	-3.46373844900903 
2358	-4.54918956017116E-02 
2359	 0.281370674092619 
2360	-7.36070208989318E-02 
2361	-0.985616014097385 
2362	-0.10406645075809 
2363	 0.51586831571623 
2364	 0.681519451043399 
2365	 1.42405992776647 
2366	 1.08953403214039 
2367	-4.89687008067729 
2368	-1.28302449408065 
2369	-1.09901456059958 
2370	-0.508076279211242 
2371	-0.847482795005137 
2372	-1.80188324355626 
2373	-3.61377285054352 
2374	-3.34471895554895 
2375	-6.0534773980317 
2376	-7.79906209374858 
2377	-1.80894536451069 
2378	 0.406212049085176 
2379	 0.13468439405314 
2380	-8.98820077686771E-02 
2381	-0.460550956201381 
2382	-2.98821644321904E-02 
2383	-3.08687432902381 
2384	-9.10415255729489E-02 
2385	-0.651261522286368 
2386	-6.10263826487519 
2387	-1.41025827093837 
2388	-3.34048997327974 
2389	 3.31291845828001 
2390	 1.13746641751029 
2391	 0.308110710381136 
2392	 0.345782919379786 
2393	 0.982258495154486 
2394	-7.44851021570956E-02 
2395	-7.05861599000399E-03 
2396	-0.430366650301933 
2397	 0.403787789343524 
2398	 0.738347029352831 
2399	 1.56897706259838 
2400	 3.4058430866873 
2401	 0.138460962617746 
2402	 1.16825113354161 
2403	-2.83892293550756 
2404	-3.5354749541493 
2405	-1.47378696511355 
2406	 0.470459481811121 
2407	 3.06086097961887 
2408	-5.1921851050202 
2409	 1.45995231051614 
2410	 0.678099930789269 
2411	 0.824434176224359 
2412	 0.879243933270886 
2413	 0.477202149949931 
2414	 0.360588617744236 
2415	 0.264949534105387 
2416	-0.251706674866857 
2417	-1.61795662250408 
2418	-4.93983754720734 
2419	-7.2977071701702 
2420	-8.45704357955283 
2421	 1.98899553783209 
2422	-0.319608830398023 
2423	-0.410827082201227 
2424	-0.463293632477469 
2425	-1.88632063392056 
2426	-4.28060389835131 
2427	 3.69142308282006 
2428	 1.29395774444197 
2429	 0.678153227020322 
2430	 0.25673315449856 
2431	 0.465552225371451 
2432	 0.565144598192619 
2433	-0.601000867924928 
2434	-0.940745302276566 
2435	-0.540192396014474 
2436	-12.9588692208111 
2437	-3.26750643527314 
2438	-1.93106076564389 
2439	-1.3924597743619 
2440	-1.91957769975224 
2441	-2.68788036427168 
2442	 3.3090521090494 
2443	-0.618848013320044 
2444	 0.649751898824442 
2445	 1.15180483790686 
2446	 0.817636344961506 
2447	 0.871080255274884 
2448	 1.07685832537684 
2449	 0.29217444420158 
2450	-2.02943688243074 
2451	 2.29739398225979 
2452	-4.59283963552693 
2453	-0.757171754676356 
2454	-0.653743658842783 
2455	-0.411499434678214 
2456	 2.7143364139117 
2457	-0.049694344695303 
2458	 1.30871087517713 
2459	 1.699037950154 
2460	 2.72808986736251 
2461	 6.95259391349553 
2462	 13.6575999244161 
2463	 0.401313423517097 
2464	 0.879432732235334 
2465	-52.0727228101165 
2466	-5.34022251768388 
2467	-5.29912996126082 
2468	-1.99824589810256 
2469	-0.773363156658872 
2470	-0.302232476488772 
2471	 3.88168156593085E-02 
2472	-0.690340794771867 
2473	 0.845335209600376 
2474	 0.33609907138266 
2475	 0.143847942502568 
2476	-1.61383489378288 
2477	-1.8545013935578 
2478	-1.21325660271136 
2479	-1.19815132540693 
2480	-1.99562719035777 
2481	-1.05447188398441 
2482	 0.798644227288974 
2483	 0.670220113800514 
2484	 1.374952760772 
2485	 1.09549777746975 
2486	 0.910584221248665 
2487	 0.785806721064663 
2488	 0.660800733438 
2489	-3.37560561714645 
2490	-0.469023940620739 
2491	-0.227396361836418 
2492	-0.313724408673027 
2493	 0.468219362887962 
2494	 0.578037635706858 
2495	 10.434191662144 
2496	 0.196783629688669 
2497	-1.93896057167713 
2498	-0.90558636504854 
2499	 0.108658240891025 
2500	-0.507678546580572 
