Wavelength	rt0712west_far200008.asd
350	 0.075630295064308 
351	 7.53920192218111E-02 
352	 7.52324589392489E-02 
353	 7.54048191470704E-02 
354	 7.57717883343437E-02 
355	 7.53458249706582E-02 
356	 7.69178090769741E-02 
357	 7.75166654830352E-02 
358	 7.46562853588633E-02 
359	 7.58710364175247E-02 
360	 0.076409398337113 
361	 7.60330853122841E-02 
362	 7.74539311629418E-02 
363	 7.70461296797901E-02 
364	 7.68544262593834E-02 
365	 7.75136793543216E-02 
366	 7.64541836700359E-02 
367	 7.65658032085718E-02 
368	 7.71859655303535E-02 
369	 7.71412744658288E-02 
370	 7.69751685653174E-02 
371	 7.68145757915219E-02 
372	 7.67990286950772E-02 
373	 7.70376150699812E-02 
374	 7.74983847582708E-02 
375	 7.73393971936931E-02 
376	 7.69944194606521E-02 
377	 7.86420710320267E-02 
378	 7.88446060105474E-02 
379	 0.078006015615899 
380	 7.74765031310954E-02 
381	 7.83634643943536E-02 
382	 7.91880483213791E-02 
383	 7.91813164089232E-02 
384	 7.83774745023592E-02 
385	 7.93917673634569E-02 
386	 7.91204547273289E-02 
387	 7.79096129807314E-02 
388	 8.01309350586153E-02 
389	 7.94761810790881E-02 
390	 7.97060089394627E-02 
391	 8.29108643857819E-02 
392	 8.24906303493006E-02 
393	 8.10699330533305E-02 
394	 8.01413498712687E-02 
395	 8.04097061297949E-02 
396	 8.08556365813164E-02 
397	 0.081475264795975 
398	 8.20508670731052E-02 
399	 8.21567598194986E-02 
400	 8.15086843380725E-02 
401	 8.12884065502285E-02 
402	 8.20786645181076E-02 
403	 8.28999824577731E-02 
404	 8.24208331326977E-02 
405	 8.19045932638222E-02 
406	 8.29593491768148E-02 
407	 8.29069650274395E-02 
408	 8.25628771688358E-02 
409	 0.08265858407405 
410	 8.35256157605108E-02 
411	 0.083556843563021 
412	 8.33239644832987E-02 
413	 8.35444001627573E-02 
414	 8.43831124937155E-02 
415	 8.44444281014419E-02 
416	 0.084249773078593 
417	 8.48308936341223E-02 
418	 8.49328285565944E-02 
419	 8.49870056824906E-02 
420	 8.53723056593198E-02 
421	 8.62395310926517E-02 
422	 8.60517742782558E-02 
423	 8.58736619180649E-02 
424	 8.65774702231676E-02 
425	 8.69156500900579E-02 
426	 8.73152900408608E-02 
427	 8.78525297266351E-02 
428	 8.83540257995946E-02 
429	 8.80005617462543E-02 
430	 8.82174380823742E-02 
431	 8.91939676801132E-02 
432	 8.94595508379837E-02 
433	 8.96579077827469E-02 
434	 9.00143930621001E-02 
435	 9.04893667167274E-02 
436	 9.04399230506323E-02 
437	 9.08974513924169E-02 
438	 9.17195942683517E-02 
439	 9.21247987784218E-02 
440	 9.20074180063409E-02 
441	 9.22724588142264E-02 
442	 0.09308679098756 
443	 9.33822565667981E-02 
444	 0.093587387813991 
445	 9.39119419007421E-02 
446	 9.44086195850264E-02 
447	 9.47406041932528E-02 
448	 9.49027082837204E-02 
449	 9.50931447848989E-02 
450	 9.55951239445201E-02 
451	 0.095837849426259 
452	 9.59663995526392E-02 
453	 9.61862834291485E-02 
454	 9.66219403716709E-02 
455	 9.69013424617969E-02 
456	 9.70654173863741E-02 
457	 9.72893733780848E-02 
458	 9.75576060233521E-02 
459	 9.77018060161762E-02 
460	 9.77332588666028E-02 
461	 9.78536708552097E-02 
462	 9.82654512336877E-02 
463	 9.84364056820556E-02 
464	 9.81874747946524E-02 
465	 9.87514081201235E-02 
466	 9.91095224021341E-02 
467	 9.91532778578993E-02 
468	 0.099243574993719 
469	 9.95849618273807E-02 
470	 0.099826861813834 
471	 9.98428345076784E-02 
472	 9.98763446657891E-02 
473	 9.99404581657855E-02 
474	 0.100336241235378 
475	 0.101087655981136 
476	 0.101005334355644 
477	 0.101208138645537 
478	 0.101693271472921 
479	 0.101750272272572 
480	 0.102133530859355 
481	 0.102409478269646 
482	 0.102425664547192 
483	 0.102909384541602 
484	 0.103478428262915 
485	 0.103775552575098 
486	 0.103680738614524 
487	 0.104282246783535 
488	 0.1047894968345 
489	 0.104995495691765 
490	 0.105347711898099 
491	 0.105764627620973 
492	 0.106296499556161 
493	 0.106893125571123 
494	 0.107169911852647 
495	 0.107580684041529 
496	 0.10810055638337 
497	 0.108467368871436 
498	 0.108643882278606 
499	 0.109053029040939 
500	 0.109679443788731 
501	 0.109730260961375 
502	 0.110408430071604 
503	 0.111142839162738 
504	 0.111240101898742 
505	 0.111731741569591 
506	 0.112623238774498 
507	 0.113391485585534 
508	 0.113280297030068 
509	 0.11405599987519 
510	 0.114955277347319 
511	 0.115334113268964 
512	 0.11571815376146 
513	 0.116476773665009 
514	 0.117336001575654 
515	 0.117811428043485 
516	 0.118378543972915 
517	 0.119087292926568 
518	 0.119821399740599 
519	 0.120318105566281 
520	 0.120808179504776 
521	 0.121485230039505 
522	 0.122377440601458 
523	 0.122968931375455 
524	 0.123762736644257 
525	 0.124658436028891 
526	 0.125185609007821 
527	 0.125925575611268 
528	 0.126743059421817 
529	 0.127492179625323 
530	 0.128214380367441 
531	 0.128922313731728 
532	 0.12964343824746 
533	 0.130404473624034 
534	 0.131216621528189 
535	 0.132053685738518 
536	 0.132819013838308 
537	 0.133339400281892 
538	 0.133993892232795 
539	 0.134786896855136 
540	 0.135608055901486 
541	 0.136321272550066 
542	 0.137034828808212 
543	 0.137787471905611 
544	 0.138566468731115 
545	 0.139249051640474 
546	 0.14014947682071 
547	 0.141295363150498 
548	 0.142092193276199 
549	 0.142712838149462 
550	 0.143407982392791 
551	 0.144379804343423 
552	 0.145304960297612 
553	 0.146223619302124 
554	 0.14701961151522 
555	 0.147386339794571 
556	 0.148043428999457 
557	 0.148967616175466 
558	 0.149874968015618 
559	 0.150339289799056 
560	 0.150710589688795 
561	 0.151219057605688 
562	 0.151972785049332 
563	 0.152687876574188 
564	 0.15321623063864 
565	 0.153545404913547 
566	 0.15387267847131 
567	 0.154168449642344 
568	 0.154538504529724 
569	 0.155061302599838 
570	 0.155427779359031 
571	 0.155732588323923 
572	 0.156085190547144 
573	 0.156568644242143 
574	 0.156878155589949 
575	 0.15715747552586 
576	 0.157536374174914 
577	 0.157741360613186 
578	 0.157991548702278 
579	 0.158258168514611 
580	 0.158373592603146 
581	 0.158394567807156 
582	 0.158319914098021 
583	 0.158168227581256 
584	 0.15802104925143 
585	 0.157601890497953 
586	 0.156758566975531 
587	 0.155478883419069 
588	 0.154460078252121 
589	 0.153645105651463 
590	 0.153151363326289 
591	 0.153200877248046 
592	 0.153155099006521 
593	 0.152890580428138 
594	 0.15240340740928 
595	 0.15164624294717 
596	 0.150933967250343 
597	 0.150406574576793 
598	 0.150051796279313 
599	 0.149442808189621 
600	 0.148924735770788 
601	 0.148610766453426 
602	 0.148087170054986 
603	 0.14781804030534 
604	 0.147719196144081 
605	 0.147574082087529 
606	 0.147413348830215 
607	 0.147464143489707 
608	 0.147529936705683 
609	 0.147022489130677 
610	 0.147131222045846 
611	 0.147444649885783 
612	 0.147427783094456 
613	 0.147204845898007 
614	 0.147199490338307 
615	 0.14724962402296 
616	 0.146941993323151 
617	 0.146973306575321 
618	 0.146838120390881 
619	 0.146480901182846 
620	 0.146819416488405 
621	 0.146535257439224 
622	 0.146169745602299 
623	 0.146482351553106 
624	 0.14612013431489 
625	 0.145575515214071 
626	 0.145187889114469 
627	 0.145076155627385 
628	 0.145010938429363 
629	 0.144895931112033 
630	 0.14479906489892 
631	 0.145195452004838 
632	 0.145220316940959 
633	 0.144934759721644 
634	 0.144819114696788 
635	 0.144794317138329 
636	 0.144869074298217 
637	 0.14497342705388 
638	 0.144929740739731 
639	 0.144780763748887 
640	 0.144605278901885 
641	 0.144424061787219 
642	 0.143901254316808 
643	 0.143736016027054 
644	 0.143643075214242 
645	 0.142524962786751 
646	 0.141600681861871 
647	 0.141183325654466 
648	 0.141186646038315 
649	 0.141064977124053 
650	 0.141160956440282 
651	 0.141368490469949 
652	 0.141391715226705 
653	 0.140930341375238 
654	 0.140047861721354 
655	 0.139048040512851 
656	 0.138639618608117 
657	 0.138305495260307 
658	 0.137989151709114 
659	 0.137731618810322 
660	 0.137596245943261 
661	 0.137247679990568 
662	 0.136800221357308 
663	 0.136626528212719 
664	 0.136583880483278 
665	 0.136442833805725 
666	 0.136179674107668 
667	 0.136162834050648 
668	 0.136034541557297 
669	 0.13585070758461 
670	 0.13571995077787 
671	 0.135250941882354 
672	 0.135163192556698 
673	 0.135439317014088 
674	 0.13536708507755 
675	 0.135428999049966 
676	 0.135407411077001 
677	 0.135218187077582 
678	 0.135446007328943 
679	 0.135671731724945 
680	 0.135566498371392 
681	 0.135031868485315 
682	 0.135249900333425 
683	 0.135422152999901 
684	 0.135117928270113 
685	 0.134563668432079 
686	 0.13397113296985 
687	 0.133427374595215 
688	 0.133094286583063 
689	 0.133524535037807 
690	 0.133362497723077 
691	 0.132360972481293 
692	 0.131006065013085 
693	 0.130331339149683 
694	 0.130344562459924 
695	 0.130511738164103 
696	 0.130134652455435 
697	 0.129372993420118 
698	 0.128139715389097 
699	 0.126610786887146 
700	 0.125669257344188 
701	 0.125238011494884 
702	 0.124739288947296 
703	 0.123417478973591 
704	 0.122202659943648 
705	 0.121057588242476 
706	 0.119923701115944 
707	 0.118822611889868 
708	 0.117614602711651 
709	 0.116395772162257 
710	 0.115241303284808 
711	 0.113350002867834 
712	 0.111319476328717 
713	 0.109330126601503 
714	 0.106987810333824 
715	 0.103877241886023 
716	 0.100031957026405 
717	 9.66178277767718E-02 
718	 9.40886534119654E-02 
719	 9.20111727010003E-02 
720	 9.07885102747682E-02 
721	 9.01370036449272E-02 
722	 8.85091183011215E-02 
723	 8.56615102962002E-02 
724	 0.082578556873165 
725	 8.08305071148998E-02 
726	 0.079133762234521 
727	 7.70070739476903E-02 
728	 7.44241105082046E-02 
729	 7.20342124073607E-02 
730	 0.069846827003736 
731	 6.81714137433027E-02 
732	 6.69224226265483E-02 
733	 6.59904752370703E-02 
734	 0.064866791366641 
735	 6.35172888783288E-02 
736	 6.25620764379091E-02 
737	 6.22614035747789E-02 
738	 6.19697371737581E-02 
739	 6.13365415064836E-02 
740	 6.13291536819263E-02 
741	 6.11790895134076E-02 
742	 6.10415386665607E-02 
743	 6.13747993392148E-02 
744	 6.14046213898219E-02 
745	 6.09779745144532E-02 
746	 6.05269248632607E-02 
747	 6.11423195865619E-02 
748	 0.06126690550362 
749	 6.09732711593381E-02 
750	 6.07192648577521E-02 
751	 6.07499885731956E-02 
752	 6.07314294885675E-02 
753	 6.05657772982063E-02 
754	 6.03216869405168E-02 
755	 6.01725670701465E-02 
756	 6.02446599638702E-02 
757	 6.04426945840303E-02 
758	 0.060306636842025 
759	 5.99310251925747E-02 
760	 5.88290116027905E-02 
761	 5.76793477602528E-02 
762	 5.75638080925731E-02 
763	 5.80428433051345E-02 
764	 5.88704321783627E-02 
765	 5.97762398974081E-02 
766	 6.00065362792438E-02 
767	 0.059992027588338 
768	 6.00523698056765E-02 
769	 6.04652771703046E-02 
770	 6.10050655062969E-02 
771	 6.13367617852137E-02 
772	 6.13281796923523E-02 
773	 0.061402090073182 
774	 6.16691761784666E-02 
775	 6.18240884792281E-02 
776	 6.15814617357428E-02 
777	 6.20114621793982E-02 
778	 6.22719098134211E-02 
779	 6.22239243479733E-02 
780	 6.25482504366893E-02 
781	 6.29556264138974E-02 
782	 6.31267260116625E-02 
783	 6.29939935764439E-02 
784	 0.063046277656817 
785	 6.36592909057834E-02 
786	 0.064145520085405 
787	 6.37002563085624E-02 
788	 6.36533882185278E-02 
789	 6.40329691735967E-02 
790	 0.064672545850138 
791	 6.53107572600671E-02 
792	 6.60255461434431E-02 
793	 6.62972051050154E-02 
794	 6.60356949170673E-02 
795	 6.58983694923705E-02 
796	 6.62979189482953E-02 
797	 6.70482533119176E-02 
798	 6.76777926024726E-02 
799	 6.73738562213208E-02 
800	 6.72641640091236E-02 
801	 6.79125752957032E-02 
802	 6.91468689406918E-02 
803	 6.89358431578451E-02 
804	 6.90463091523435E-02 
805	 6.96807610621476E-02 
806	 6.92320466922697E-02 
807	 6.93345364678632E-02 
808	 6.90779403282241E-02 
809	 6.78679400162403E-02 
810	 6.76392726967948E-02 
811	 6.74741552269954E-02 
812	 6.68849709066863E-02 
813	 6.56784269143329E-02 
814	 6.50421010996762E-02 
815	 6.36980521832851E-02 
816	 6.27276929784182E-02 
817	 6.43877261981757E-02 
818	 6.38364385461426E-02 
819	 6.32611245020495E-02 
820	 6.33620754816746E-02 
821	 6.26678604923016E-02 
822	 6.06491904420715E-02 
823	 5.88160001578576E-02 
824	 5.82264121438779E-02 
825	 5.76873644813952E-02 
826	 5.67254262515328E-02 
827	 5.55574230451327E-02 
828	 5.47781774584121E-02 
829	 5.41913768157717E-02 
830	 5.30360385640637E-02 
831	 5.17259924368741E-02 
832	 5.13874017159709E-02 
833	 5.13416894918568E-02 
834	 5.12051669341993E-02 
835	 5.08418923547727E-02 
836	 5.03519241787123E-02 
837	 4.97017452357516E-02 
838	 4.97475391508127E-02 
839	 0.050538801717328 
840	 4.98054243071167E-02 
841	 4.92784307824942E-02 
842	 4.92252887086039E-02 
843	 4.92886199575006E-02 
844	 4.86584455902773E-02 
845	 4.92057189087386E-02 
846	 5.02851556228427E-02 
847	 0.049825976453559 
848	 0.049467803269234 
849	 4.88264583684249E-02 
850	 4.80804299820564E-02 
851	 0.048274011286807 
852	 4.80169759244462E-02 
853	 4.82726310941263E-02 
854	 4.91127005935587E-02 
855	 4.78009346521421E-02 
856	 0.047913516183575 
857	 4.83784466457502E-02 
858	 4.77821596874079E-02 
859	 4.82316708359875E-02 
860	 4.84748630306704E-02 
861	 4.79526770034642E-02 
862	 4.68403404118704E-02 
863	 4.70712583351828E-02 
864	 4.81448079681988E-02 
865	 4.85963801396432E-02 
866	 4.68258908877928E-02 
867	 4.68873451438405E-02 
868	 4.73471988627188E-02 
869	 4.71391147055943E-02 
870	 4.67291026366968E-02 
871	 4.63514623996634E-02 
872	 4.61450113668807E-02 
873	 4.62097147633043E-02 
874	 4.67162565064346E-02 
875	 4.61836240379858E-02 
876	 4.54922312126896E-02 
877	 4.56932858784355E-02 
878	 4.54676564218579E-02 
879	 4.52833124935559E-02 
880	 0.04511086230628 
881	 4.48203943418049E-02 
882	 4.50964117606582E-02 
883	 4.54381388097419E-02 
884	 0.045600897022158 
885	 4.55914855379068E-02 
886	 4.53135392030667E-02 
887	 0.044796450301389 
888	 4.44016670212798E-02 
889	 0.044741377770807 
890	 4.45767739716442E-02 
891	 4.37105392665663E-02 
892	 0.042774892112434 
893	 4.38139309651219E-02 
894	 4.38172764908149E-02 
895	 4.23925166710284E-02 
896	 4.06776730182433E-02 
897	 4.12184890069971E-02 
898	 4.26813909657505E-02 
899	 0.043650464614559 
900	 4.33276952010924E-02 
901	 4.24243206528481E-02 
902	 0.040936910661149 
903	 4.02499487176324E-02 
904	 4.14774432761705E-02 
905	 4.27314083365783E-02 
906	 3.97489725110587E-02 
907	 3.62600456228308E-02 
908	 4.09470107591098E-02 
909	 3.92137843955232E-02 
910	 3.77271747943287E-02 
911	 3.91328943708536E-02 
912	 4.02275623831615E-02 
913	 4.28694511602958E-02 
914	 0.043163853415527 
915	 4.03743142116931E-02 
916	 3.82143321528743E-02 
917	 3.66768232495132E-02 
918	 3.91239254777304E-02 
919	 4.31998387970419E-02 
920	 4.03990707519095E-02 
921	 4.01517190698241E-02 
922	 4.07004734342816E-02 
923	 0.038972657742342 
924	 3.33661431898231E-02 
925	 3.56878188508275E-02 
926	 4.18119899957106E-02 
927	 4.24373652251239E-02 
928	 3.65151175281783E-02 
929	 0.043481353284761 
930	 4.89286601404908E-02 
931	 1.78331789962807E-02 
932	 3.79349392381583E-02 
933	 6.68826017100937E-02 
934	 6.62032500141704E-02 
935	 3.97226413528169E-02 
936	 5.04037351474432E-02 
937	 5.18972524023431E-02 
938	 4.27398196268355E-02 
939	 3.35308025262766E-02 
940	 2.13993023218689E-02 
941	 3.37758444949091E-02 
942	 4.26631205534403E-02 
943	 6.48426573370643E-03 
944	 0.012946233938699 
945	 1.68555624954788E-02 
946	 2.87931089766697E-02 
947	 7.18684399606138E-02 
948	 0.04951800445861 
949	 0.021334730061705 
950	 0.020379788937667 
951	 3.48970422216624E-02 
952	 2.68157396318515E-02 
953	 2.89741676505818E-02 
954	 4.06370300719362E-02 
955	 0.041456820812633 
956	 5.07613270018321E-02 
957	 3.71727685991975E-02 
958	 2.26189681394361E-02 
959	 4.64067235806396E-02 
960	 0.041200749051191 
961	 0.030605337491433 
962	 3.49084179448693E-02 
963	 5.50368951842013E-02 
964	 3.44389405105684E-02 
965	 2.40448543453914E-02 
966	 3.24806922640044E-02 
967	 3.72671943882634E-02 
968	 3.55813715998558E-02 
969	 0.034018687160454 
970	 3.54986636179348E-02 
971	 3.86085356035402E-02 
972	 3.73380203190505E-02 
973	 3.98985367168854E-02 
974	 4.59394317687415E-02 
975	 4.59053652794342E-02 
976	 3.83724427082541E-02 
977	 3.51607297999864E-02 
978	 3.76024707339488E-02 
979	 3.83053300066316E-02 
980	 3.67548541490435E-02 
981	 0.037707072675225 
982	 4.10154802479749E-02 
983	 4.29310334053187E-02 
984	 4.32039670586362E-02 
985	 0.041023061937059 
986	 4.00455263938721E-02 
987	 4.48147224147627E-02 
988	 4.44361237439441E-02 
989	 4.03398860250306E-02 
990	 3.61254039394664E-02 
991	 3.56869608765455E-02 
992	 0.037855525661311 
993	 3.94664644253927E-02 
994	 4.06409374203458E-02 
995	 4.30359642464339E-02 
996	 4.24188756813339E-02 
997	 0.043568344541153 
998	 4.63939675629952E-02 
999	 4.68748348733228E-02 
1000	 0.040183165344096 
1001	 3.42664693511368E-02 
1002	 3.54492526094673E-02 
1003	 0.03743390051908 
1004	 4.14377135853049E-02 
1005	 0.04200416060379 
1006	 4.14380866236859E-02 
1007	 4.27441660451864E-02 
1008	 4.06417551086477E-02 
1009	 4.01524942426379E-02 
1010	 3.91452821910326E-02 
1011	 0.03913964250957 
1012	 4.01454427498879E-02 
1013	 3.89322330614259E-02 
1014	 3.94260374234795E-02 
1015	 4.22777360295704E-02 
1016	 4.21415402519207E-02 
1017	 3.95281434598103E-02 
1018	 3.96453255274631E-02 
1019	 4.06381938283727E-02 
1020	 4.12235932951288E-02 
1021	 4.24849599764664E-02 
1022	 4.51901264359912E-02 
1023	 4.46561901232959E-02 
1024	 4.24679041090197E-02 
1025	 4.37771097311927E-02 
1026	 4.14627699262207E-02 
1027	 3.90015805488476E-02 
1028	 0.03473187562046 
1029	 3.36862598380617E-02 
1030	 3.23950469697805E-02 
1031	 3.28386107903878E-02 
1032	 3.79004277254262E-02 
1033	 3.93345512578952E-02 
1034	 3.78408926868057E-02 
1035	 3.88360215382021E-02 
1036	 3.97175676313318E-02 
1037	 4.13219609838102E-02 
1038	 4.57031568953595E-02 
1039	 4.83250843419247E-02 
1040	 4.88299604787759E-02 
1041	 5.01777223483956E-02 
1042	 4.95712686266874E-02 
1043	 4.66026408755435E-02 
1044	 4.56374025666507E-02 
1045	 0.045153508369849 
1046	 4.35517534268038E-02 
1047	 4.09904626793182E-02 
1048	 4.00617128710462E-02 
1049	 3.82327553973008E-02 
1050	 3.85717079242178E-02 
1051	 0.043102929337373 
1052	 4.43633457962471E-02 
1053	 0.045146261350689 
1054	 4.50419207296155E-02 
1055	 4.11361980586794E-02 
1056	 0.04007375246719 
1057	 3.99998614775243E-02 
1058	 4.15706576574768E-02 
1059	 0.040765112254972 
1060	 3.98385209425958E-02 
1061	 4.00827154638225E-02 
1062	 3.86536290846012E-02 
1063	 3.93573009176801E-02 
1064	 4.42614371657655E-02 
1065	 4.53309819017386E-02 
1066	 4.40751662199533E-02 
1067	 4.41791166152743E-02 
1068	 4.38198559783048E-02 
1069	 4.33078867217887E-02 
1070	 0.043225633117112 
1071	 4.33019839929788E-02 
1072	 4.52477506249146E-02 
1073	 4.14218660972276E-02 
1074	 0.042894638728063 
1075	 4.77957818628181E-02 
1076	 4.79770223245604E-02 
1077	 4.79506898977736E-02 
1078	 4.70884763045121E-02 
1079	 4.16750077998786E-02 
1080	 3.95405884443326E-02 
1081	 3.81229684289788E-02 
1082	 3.90401713299106E-02 
1083	 4.37466136503741E-02 
1084	 4.52484326316556E-02 
1085	 4.76427837164058E-02 
1086	 4.83851367073175E-02 
1087	 4.45421864957516E-02 
1088	 4.32103061996922E-02 
1089	 4.43550198188125E-02 
1090	 4.36996386103948E-02 
1091	 4.28213887526495E-02 
1092	 4.24821642306413E-02 
1093	 4.13387269315157E-02 
1094	 0.037097273182785 
1095	 3.78931087669349E-02 
1096	 4.22574896076148E-02 
1097	 4.41015522750745E-02 
1098	 4.93614735248296E-02 
1099	 5.05018330161812E-02 
1100	 4.63917944751645E-02 
1101	 4.46234903577303E-02 
1102	 4.08478266449942E-02 
1103	 4.02307065907405E-02 
1104	 4.52263274738591E-02 
1105	 4.41022300999442E-02 
1106	 0.044640317553678 
1107	 4.59185357872373E-02 
1108	 4.18059190800269E-02 
1109	 4.31150831012126E-02 
1110	 4.57850252490134E-02 
1111	 5.50871791513875E-02 
1112	 5.72580081029035E-02 
1113	 5.28747624238524E-02 
1114	 5.66614997981182E-02 
1115	 6.54820317136194E-02 
1116	 6.68054310093253E-02 
1117	 7.74768540908075E-02 
1118	 9.31629756582843E-02 
1119	 6.60191157909882E-02 
1120	 0.074077901447482 
1121	 0.174791641065638 
1122	 0.295942484358514 
1123	 0.232431752221401 
1124	 0.318950761081851 
1125	 0.46776518297949 
1126	 0.581807108257815 
1127	 0.707004620010262 
1128	 0.799723898306144 
1129	 0.668091722473358 
1130	 0.187122199868543 
1131	 0.130885930365136 
1132	 0.197552229848121 
1133	 0.179119272326031 
1134	 0.271393021947103 
1135	 0.272797312673422 
1136	 0.130046955143422 
1137	 0.101873807706807 
1138	 0.105967554222868 
1139	 0.126070422708189 
1140	 0.188846216406197 
1141	 0.209296824394973 
1142	 0.180695232054773 
1143	 0.098430583144223 
1144	-8.29428669543259E-03 
1145	 4.95048433432661E-03 
1146	 5.76378938374696E-02 
1147	 0.017753118422888 
1148	 5.55899070615454E-02 
1149	 0.110133412750322 
1150	 9.46132233912654E-02 
1151	 5.41804763382416E-02 
1152	 6.02326243973282E-02 
1153	 4.68261721095771E-02 
1154	 3.28394560706281E-02 
1155	 3.01473707114191E-02 
1156	 3.84005613525018E-02 
1157	 3.47423562827278E-02 
1158	 0.037902976897569 
1159	 3.53990656828672E-02 
1160	 2.34670736682387E-02 
1161	 1.86817204684133E-02 
1162	 2.07242698577493E-02 
1163	 2.88091850856298E-02 
1164	 2.99363036735173E-02 
1165	 2.99231102971866E-02 
1166	 3.72821297014375E-02 
1167	 0.038818223570602 
1168	 4.25204470504668E-02 
1169	 4.83462765859734E-02 
1170	 4.38106278787704E-02 
1171	 4.26147384597097E-02 
1172	 4.47550973461263E-02 
1173	 4.59368617813894E-02 
1174	 4.77886229131679E-02 
1175	 4.26712409757203E-02 
1176	 4.01580825100256E-02 
1177	 3.79127678932868E-02 
1178	 3.69741918613089E-02 
1179	 4.09292424464385E-02 
1180	 4.32357197864889E-02 
1181	 4.00927783367879E-02 
1182	 3.41848453208276E-02 
1183	 3.26066752162158E-02 
1184	 3.66603720173071E-02 
1185	 3.66861856299268E-02 
1186	 3.73668966921303E-02 
1187	 0.042697745731042 
1188	 4.23517853112401E-02 
1189	 4.11256430610753E-02 
1190	 4.59005732333418E-02 
1191	 4.78727909620197E-02 
1192	 4.71636188211988E-02 
1193	 0.044573708338226 
1194	 4.65973553116115E-02 
1195	 4.40706680957941E-02 
1196	 3.49468238264422E-02 
1197	 3.40336598544238E-02 
1198	 4.04877706905243E-02 
1199	 4.11184254595165E-02 
1200	 4.22742428802901E-02 
1201	 4.61475340508392E-02 
1202	 4.23381779225628E-02 
1203	 3.81017902041704E-02 
1204	 4.03585913994839E-02 
1205	 4.25588041687682E-02 
1206	 0.040564883766708 
1207	 3.69401821009146E-02 
1208	 3.60860325452003E-02 
1209	 3.68721745333507E-02 
1210	 3.68487010926157E-02 
1211	 4.04039887466373E-02 
1212	 4.37614827350044E-02 
1213	 4.07077371048619E-02 
1214	 0.040337996828323 
1215	 4.02255768112961E-02 
1216	 4.07600830716599E-02 
1217	 3.92860947220721E-02 
1218	 4.27548745816676E-02 
1219	 4.39165012801549E-02 
1220	 4.07125442922169E-02 
1221	 4.06006058435286E-02 
1222	 3.97903093310469E-02 
1223	 3.78698867363558E-02 
1224	 3.85989239751371E-02 
1225	 4.10571418852948E-02 
1226	 4.23944132460287E-02 
1227	 4.21851007101448E-02 
1228	 4.37160362847918E-02 
1229	 4.50787570987522E-02 
1230	 4.46024046469727E-02 
1231	 0.042890147846762 
1232	 4.12721755228231E-02 
1233	 4.02211275277146E-02 
1234	 3.93456453869298E-02 
1235	 3.88487950264075E-02 
1236	 4.02646891387769E-02 
1237	 3.99450354184945E-02 
1238	 3.81676814819785E-02 
1239	 0.038474030394419 
1240	 3.81585212362182E-02 
1241	 3.73184144566821E-02 
1242	 3.88878356991644E-02 
1243	 3.93513401895691E-02 
1244	 3.85174148802534E-02 
1245	 3.89044310243975E-02 
1246	 3.87442802523485E-02 
1247	 3.95256651755892E-02 
1248	 3.96528345627366E-02 
1249	 4.05303905033201E-02 
1250	 4.26796321473438E-02 
1251	 3.91879056718175E-02 
1252	 3.81298277634126E-02 
1253	 4.28042746505645E-02 
1254	 4.05317162547919E-02 
1255	 3.65543584804811E-02 
1256	 3.71239569670203E-02 
1257	 3.87924467309591E-02 
1258	 3.82785861870429E-02 
1259	 4.12680616416266E-02 
1260	 4.26316361402944E-02 
1261	 0.039250629449588 
1262	 3.79085973102871E-02 
1263	 3.63410274506966E-02 
1264	 4.24626935298059E-02 
1265	 4.53796164253132E-02 
1266	 4.35941475096783E-02 
1267	 0.042930854732198 
1268	 4.01985427211806E-02 
1269	 0.038516163420561 
1270	 3.82612711717327E-02 
1271	 0.038640567547437 
1272	 4.04914391118771E-02 
1273	 3.92542330975755E-02 
1274	 0.040031826013977 
1275	 4.29869375618223E-02 
1276	 4.05508793223706E-02 
1277	 3.90102955621567E-02 
1278	 4.17987721751432E-02 
1279	 4.20719931136176E-02 
1280	 4.20467237297458E-02 
1281	 4.11584921807954E-02 
1282	 3.70138709054517E-02 
1283	 3.52006876198401E-02 
1284	 3.30501976852438E-02 
1285	 0.034384657147956 
1286	 4.35016764289176E-02 
1287	 4.39263313555162E-02 
1288	 3.70172751359512E-02 
1289	 0.037536927726878 
1290	 3.98005651864683E-02 
1291	 3.65451367770212E-02 
1292	 3.43384010857296E-02 
1293	 3.84364160984701E-02 
1294	 3.98744374426035E-02 
1295	 3.79699229428396E-02 
1296	 4.10127508391772E-02 
1297	 4.69364885930774E-02 
1298	 4.50800679393604E-02 
1299	 0.040274699594569 
1300	 4.27354926164052E-02 
1301	 4.14304002654813E-02 
1302	 3.57805082801222E-02 
1303	 4.13046632087719E-02 
1304	 4.79432681444847E-02 
1305	 4.52171526117303E-02 
1306	 4.49183345830607E-02 
1307	 4.30691027046661E-02 
1308	 0.044848402075635 
1309	 5.17544424918231E-02 
1310	 5.04136649077122E-02 
1311	 4.33879416387094E-02 
1312	 4.22927631686616E-02 
1313	 3.46631760053889E-02 
1314	 0.03322559753326 
1315	 4.78793183651076E-02 
1316	 5.23627405425844E-02 
1317	 5.06595175923676E-02 
1318	 0.048517234940192 
1319	 4.00624902608774E-02 
1320	 3.84048456458352E-02 
1321	 3.94817463146788E-02 
1322	 3.65275923824654E-02 
1323	 3.18042275567729E-02 
1324	 3.24042978861274E-02 
1325	 2.99977483609241E-02 
1326	 3.52492526564657E-02 
1327	 0.042347651711586 
1328	 0.039375763555281 
1329	 3.18964655771862E-02 
1330	 1.25910479626777E-02 
1331	 3.08014481563727E-03 
1332	 1.05854179250809E-02 
1333	 3.33366478158034E-02 
1334	 6.50950681324749E-02 
1335	 6.76991643756084E-02 
1336	 3.57109909791145E-02 
1337	 4.37540753609604E-02 
1338	 6.43842977695659E-02 
1339	 5.34796307228683E-02 
1340	 4.21525952197895E-02 
1341	 6.35731181094169E-02 
1342	 8.09645059274979E-02 
1343	 4.56841121579118E-02 
1344	 9.34384447758193E-03 
1345	 5.07867180394221E-03 
1346	-0.100460387033857 
1347	-0.157658439876373 
1348	 1.70648283776019E-02 
1349	 0.137601017597058 
1350	 0.134404244556823 
1351	 0.141277778192193 
1352	 5.69295152443473E-02 
1353	 9.58001947135194E-02 
1354	 5.32846625912109E-02 
1355	 0.893957281172694 
1356	 9.20795280849156 
1357	 1.09510275674899 
1358	 3.01412502361555 
1359	-2.34977995385196 
1360	-0.706541083811855 
1361	 0.117366470125691 
1362	 0.689374406054685 
1363	 0.968681627323384 
1364	 1.46055890366163 
1365	 0.718527893754095 
1366	-0.61842102528145 
1367	-19.7478086742976 
1368	 12.4518622519821 
1369	 0.361364633030524 
1370	 5.53490455242172E-02 
1371	-0.434824765348053 
1372	-1.24551649718529 
1373	-0.284894126874315 
1374	 3.89637393198263 
1375	-1.37158586888362 
1376	-7.99950070822486 
1377	 1.56327124673096 
1378	 1.30819483908294 
1379	-0.988281533226231 
1380	-1.02496991168984 
1381	-4.20789322382012 
1382	-4.34668669778024 
1383	-0.124456961491841 
1384	 0.163745610395663 
1385	 0.545466450527272 
1386	 0.817552563131258 
1387	 4.47204254612218 
1388	 9.00840959747011 
1389	 0.445587465583384 
1390	 0.256958696730059 
1391	 1.77331301796537 
1392	-0.261187464946482 
1393	-1.28654184370467 
1394	 5.58915992971687 
1395	 0.290963806182599 
1396	-5.95162472495082E-03 
1397	 1.06878819318633 
1398	 0.667560603872473 
1399	 1.88700709967339 
1400	 0.243697694757083 
1401	 0.695796171137606 
1402	 0.446570580838165 
1403	 9.99971377647946E-02 
1404	-0.681821211962689 
1405	-1.84006402288053 
1406	 3.68367600228332 
1407	 2.80645488174155 
1408	-1.32913446183827 
1409	-1.13710237014226 
1410	 7.35140385271366E-02 
1411	 0.75852907476989 
1412	-9.71258005248713E-02 
1413	-1.00203671608481 
1414	 4.69834795872957E-02 
1415	 0.159805867528006 
1416	-1.71170138218012 
1417	-1.18485806348882 
1418	-0.465074978151749 
1419	-0.290469364273951 
1420	 7.02979586403486E-02 
1421	 0.184748786003882 
1422	 0.868018287785471 
1423	 1.48004519263582 
1424	 1.50900691745934 
1425	 0.987425048727058 
1426	 9.01512651747401 
1427	 1.53859436627915 
1428	-0.757619317886852 
1429	-0.721622766469331 
1430	-1.06370632936473 
1431	-1.59088503039163 
1432	-1.0033041903481 
1433	-0.384618449830888 
1434	-0.865102702320867 
1435	-1.1795029037193 
1436	-4.76909181408638 
1437	-6.79404016993447 
1438	-0.882823902768934 
1439	 0.167098983902325 
1440	 6.41698919638035 
1441	-23.4826278279461 
1442	-0.162114980010919 
1443	-1.3834938162963 
1444	-1.46349513514879 
1445	-0.547872070359007 
1446	 0.191492749063984 
1447	 3.49422909572547 
1448	 2.63593812981582 
1449	 0.030496449437972 
1450	 1.54439506098077 
1451	-0.173712775431595 
1452	-3.58428919457279 
1453	-0.669239676946841 
1454	-0.508834586455317 
1455	-115.764400796123 
1456	-2.79674805296662 
1457	-0.944331459491771 
1458	-0.756873911507803 
1459	-1.15509176542432 
1460	-0.75522610995333 
1461	-1.01034197277108E-02 
1462	 0.300593048643878 
1463	 1.71437225200269 
1464	 0.81983320416786 
1465	-0.160887407616066 
1466	 0.163790494123539 
1467	 0.218699190153767 
1468	 0.172584206533761 
1469	-1.59346954844743 
1470	-0.944090584600016 
1471	 3.57108263616251 
1472	-0.637556470930042 
1473	 64.5264381464299 
1474	-1.75656419862347 
1475	-0.558633567191326 
1476	-0.526776246107608 
1477	-1.77801345243743E-02 
1478	 7.75508069243691E-02 
1479	-0.492371543063283 
1480	 67.5514304462182 
1481	-161.340549021232 
1482	 25.0429799339392 
1483	 2.06330201847237 
1484	-8.23057516116169 
1485	-3.42959705864199 
1486	-1.64203613923905 
1487	-0.36988721085989 
1488	-0.515184457969657 
1489	-1.43926970547784 
1490	-0.361000172032013 
1491	 0.103699204130325 
1492	-8.60953963419694E-02 
1493	 0.116217407911729 
1494	 0.212779824192719 
1495	-0.185381487478437 
1496	-0.342365580904482 
1497	-4.83877755169849E-02 
1498	 1.38015095307783E-02 
1499	-1.33987897847547E-02 
1500	-7.25986774080285E-02 
1501	-0.238206992253895 
1502	-0.217070654386115 
1503	 7.70024943290954E-03 
1504	 7.05246824598175E-03 
1505	-3.07006788423065E-02 
1506	-1.76261596961039E-02 
1507	-3.96394642780449E-02 
1508	-0.077218012919309 
1509	 3.22374693879838E-02 
1510	 0.127364670962547 
1511	 0.119576210334541 
1512	 8.96984995698313E-02 
1513	 3.83487763582973E-02 
1514	 0.026008798865597 
1515	 2.54038017153021E-02 
1516	-1.19311344096763E-02 
1517	-8.38166020120614E-03 
1518	 2.53797574188406E-02 
1519	-1.25370316338053E-03 
1520	-1.64389061782487E-02 
1521	 2.77696927247067E-02 
1522	 5.10116618275957E-02 
1523	 1.37684483047469E-02 
1524	-1.70870668791023E-02 
1525	 5.41412024531471E-03 
1526	 2.38037297044735E-02 
1527	-1.60093642918648E-02 
1528	-2.71560696786818E-02 
1529	-1.64803621791235E-02 
1530	-0.039394360201092 
1531	-4.39818865594342E-02 
1532	-3.71448762303723E-02 
1533	-1.35433604958201E-02 
1534	-4.4806957701756E-03 
1535	 1.66709289250588E-02 
1536	 7.90033291283935E-02 
1537	 7.34712937725812E-02 
1538	 5.16453260426441E-02 
1539	 4.86029207189564E-02 
1540	 3.50251445679044E-02 
1541	 2.60224684883437E-02 
1542	 2.74002497620533E-03 
1543	 0.022703472278132 
1544	 5.94628346400111E-02 
1545	 3.31602614899728E-02 
1546	 1.28520630590186E-02 
1547	 1.50968196727105E-02 
1548	 2.22127856098106E-03 
1549	 0.013075360335416 
1550	 3.72869586532163E-02 
1551	 0.025267887298255 
1552	 1.06939025878925E-02 
1553	 1.69098863613651E-02 
1554	 0.026627729764007 
1555	 2.96926451375305E-02 
1556	 3.16340833868152E-02 
1557	 1.77367071480984E-02 
1558	-9.63269867465429E-05 
1559	 5.94698497769169E-03 
1560	 1.35703982983031E-02 
1561	 1.57915772740712E-02 
1562	 1.94677865330249E-02 
1563	 2.60098382135676E-02 
1564	 2.35428523949357E-02 
1565	 4.42708283329208E-03 
1566	-5.26336737869345E-03 
1567	 3.92260074974791E-03 
1568	 6.01634149182656E-03 
1569	 6.00508346771383E-03 
1570	 3.18221373500297E-02 
1571	 4.79767546226897E-02 
1572	 3.30243034931496E-02 
1573	 2.84762300884133E-02 
1574	 3.22007307835151E-02 
1575	 2.43600455724424E-02 
1576	 1.19016591613904E-02 
1577	 3.22299102718324E-03 
1578	 1.38097075973602E-02 
1579	-8.93692139512057E-04 
1580	-3.71501150380428E-02 
1581	-1.81230421892381E-02 
1582	 6.73780646666752E-05 
1583	-2.15817056213307E-02 
1584	-1.49474001566592E-02 
1585	 8.36270244156879E-03 
1586	 1.27506972637794E-02 
1587	 1.18205719382203E-02 
1588	 2.18500483421508E-02 
1589	 4.26087502214291E-02 
1590	 3.41948102496799E-02 
1591	 1.50214129602441E-02 
1592	 2.88156968608783E-02 
1593	 0.023124885037547 
1594	-1.81666559004992E-03 
1595	 2.41658552018799E-03 
1596	 1.45785756229153E-02 
1597	 1.48556784468755E-02 
1598	 6.25787357932246E-03 
1599	 9.46723352888362E-03 
1600	 1.98068961356201E-02 
1601	 3.29564488335481E-02 
1602	 5.29802839990618E-02 
1603	 5.22457415155428E-02 
1604	 4.31468485245938E-02 
1605	 3.79806113892722E-02 
1606	 2.80738267955818E-02 
1607	 2.75628811457337E-02 
1608	 4.30941689671568E-02 
1609	 4.62344190609965E-02 
1610	 3.77941971693469E-02 
1611	 4.30093233388953E-02 
1612	 3.67857041596195E-02 
1613	 1.88442560887738E-02 
1614	 2.19287089354431E-02 
1615	 4.03117035900538E-02 
1616	 4.95610169713969E-02 
1617	 5.07466300594819E-02 
1618	 4.31129390842549E-02 
1619	 2.88636932261521E-02 
1620	 2.32601056563566E-02 
1621	 2.60808539536966E-02 
1622	 2.25089192809666E-02 
1623	 1.73952374098483E-02 
1624	 3.39781419992628E-02 
1625	 3.91611897607899E-02 
1626	 2.83086408045923E-02 
1627	 4.59135216350209E-02 
1628	 5.99004969276878E-02 
1629	 0.051347834904466 
1630	 4.48078624537289E-02 
1631	 3.56181931657224E-02 
1632	 2.41269821875887E-02 
1633	 2.68369393861592E-02 
1634	 4.85767375586405E-02 
1635	 5.41584994765792E-02 
1636	 2.64247921280821E-02 
1637	 9.70207172611846E-03 
1638	 2.82816659284135E-02 
1639	 4.32134215963878E-02 
1640	 2.74356195179807E-02 
1641	 2.60531245801926E-03 
1642	 2.31606361095424E-03 
1643	 2.35351063820031E-03 
1644	-3.69163819112768E-03 
1645	 1.08704835686225E-02 
1646	 7.08160058140849E-03 
1647	 1.97797229893576E-03 
1648	 1.35288995865865E-02 
1649	 1.38934735626484E-02 
1650	 8.19052769159724E-03 
1651	-9.66951103234846E-03 
1652	-5.0032719173507E-03 
1653	 4.03720329988941E-02 
1654	 4.58884209217389E-02 
1655	 3.78261588205489E-02 
1656	 3.76609659954305E-02 
1657	 2.17873111257188E-02 
1658	 1.93198401396099E-02 
1659	 3.20119047428282E-02 
1660	 3.90293213983723E-02 
1661	 4.52800227446484E-02 
1662	 3.47840179853079E-02 
1663	 0.014694260958783 
1664	 1.85625563437439E-02 
1665	 2.02847959443865E-02 
1666	 1.99139722317014E-02 
1667	 4.07088434583532E-02 
1668	 3.63454832139024E-02 
1669	 2.60318872578909E-02 
1670	 0.013303407164209 
1671	 2.23167313751901E-02 
1672	 2.72032244184304E-02 
1673	 1.18267674314171E-02 
1674	 1.41584785193814E-02 
1675	 1.78570489340678E-02 
1676	 1.19470884216658E-02 
1677	 2.34490430694062E-02 
1678	 3.02263683967344E-02 
1679	 2.19382708490306E-02 
1680	 3.04507980571225E-02 
1681	 3.82973266744141E-02 
1682	 2.32945283273418E-02 
1683	 1.16438942047958E-02 
1684	 1.58860371512382E-02 
1685	 2.03825619014311E-02 
1686	 0.023568568412392 
1687	 3.66568890279305E-02 
1688	 3.39036629443105E-02 
1689	 1.96194476724391E-02 
1690	 2.60687882767802E-02 
1691	 1.70317559092294E-02 
1692	 2.33217751362155E-03 
1693	 5.42689762665942E-04 
1694	-9.27578895625969E-03 
1695	 6.63329733392879E-03 
1696	 2.13794692552494E-02 
1697	 1.18952248700342E-02 
1698	 2.38396888214485E-02 
1699	 3.52562298082586E-02 
1700	 3.58525295019913E-02 
1701	 4.09555759834403E-02 
1702	 2.95879606416946E-02 
1703	 2.87462769043551E-02 
1704	 3.68327633198395E-02 
1705	 3.30445221071588E-02 
1706	 4.12788088232024E-02 
1707	 2.91387471329806E-02 
1708	 1.60652563898965E-02 
1709	 3.43225363790979E-02 
1710	 4.14670515895092E-02 
1711	 4.47690776469786E-02 
1712	 3.96471012142651E-02 
1713	 0.011080311666418 
1714	 8.09075012793502E-03 
1715	 0.018358052622121 
1716	 1.64928952941405E-02 
1717	 3.62778245226484E-02 
1718	 3.66596759026709E-02 
1719	 5.00747448307689E-03 
1720	-2.44379019962972E-03 
1721	-4.77830235230988E-03 
1722	-1.43874121371107E-02 
1723	 1.57776633001134E-02 
1724	 3.58364008447129E-02 
1725	 1.40483242933277E-02 
1726	 3.87219556590756E-02 
1727	 6.85536398037316E-02 
1728	 5.04214309845031E-02 
1729	 0.070680363815904 
1730	 7.11620290453161E-02 
1731	-2.68467228003624E-03 
1732	-1.62019545036208E-02 
1733	 3.28283963907963E-03 
1734	-6.63715054861516E-03 
1735	 1.97231913439275E-02 
1736	 2.74760135927467E-02 
1737	-1.85093293487769E-02 
1738	-3.57789550578547E-02 
1739	-2.42699199096802E-02 
1740	-1.36337014736187E-03 
1741	 4.76996915710999E-02 
1742	 6.22597816242937E-02 
1743	 5.77104268770773E-02 
1744	 7.57246088040284E-02 
1745	 5.27375945817533E-02 
1746	 3.74206664251101E-02 
1747	 4.36056939513816E-02 
1748	 4.41628757068058E-02 
1749	 3.92546228821144E-02 
1750	 4.87030780221812E-02 
1751	 3.95237766215394E-02 
1752	 8.0875672324401E-03 
1753	 3.78434936558914E-03 
1754	 1.90695226850222E-02 
1755	 2.74891336754167E-02 
1756	 2.79576802471347E-02 
1757	 1.77862545118745E-02 
1758	 3.24419312291541E-02 
1759	 4.43905897637206E-02 
1760	 5.20653856092769E-02 
1761	-1.65935838449654E-03 
1762	-5.27051446119657E-02 
1763	-3.57774156091562E-02 
1764	-3.57859976364366E-02 
1765	 2.71670655959204E-02 
1766	 8.15356818501438E-02 
1767	-1.61285619884595E-02 
1768	-5.63806285919778E-02 
1769	-2.80486556882117E-02 
1770	-3.68217496220278E-02 
1771	-2.05069078666485E-02 
1772	 6.43289805848335E-03 
1773	-9.97341867394077E-02 
1774	-0.187448120935073 
1775	 1.36533881489736E-04 
1776	 7.64394752533838E-03 
1777	 1.44786170512365E-02 
1778	 3.62294586209779E-02 
1779	-0.122060473983769 
1780	-0.130744237821518 
1781	 7.66627960089063E-02 
1782	 9.79796048716522E-02 
1783	 1.78888977834559E-02 
1784	 0.081708771530739 
1785	 0.208960674127494 
1786	 0.247280952793481 
1787	 0.495779154932034 
1788	 0.416969640373715 
1789	 0.033189973900097 
1790	 9.26625384043204E-02 
1791	-5.35949817360909E-02 
1792	-0.145168706456375 
1793	-0.201005324926812 
1794	-0.608482736899799 
1795	-0.362179061404149 
1796	 0.540253489044135 
1797	 0.709531787608528 
1798	 0.782438529851826 
1799	 2.96739375983606 
1800	-1.34963229702487 
1801	-1.0200008168796 
1802	 6.10068510342277E-02 
1803	 0.119784526417988 
1804	 0.233677216553114 
1805	 0.367954480487071 
1806	-7.93854110859696 
1807	-85.6270552212616 
1808	 0.332498453291768 
1809	 1.39318074235779 
1810	-2.53363052450638 
1811	-1.8789996962821 
1812	-0.672073041870903 
1813	-0.758881859718648 
1814	 5.87504559386936E-02 
1815	 0.202187125421452 
1816	 0.968899828171185 
1817	 0.984563005449074 
1818	 1.21779331532361 
1819	 1.57973144244872 
1820	-17.7962021333119 
1821	 2.98375446240196 
1822	 2.83942026595502 
1823	 1.26012665811385 
1824	 1.56999772221545 
1825	-1.70285734646768 
1826	-1.38486051079279 
1827	-0.989638174974094 
1828	-1.13659011511301 
1829	 0.199941649792569 
1830	 0.137810756526382 
1831	 3.8671361417003 
1832	 6.33556600911249 
1833	 0.181701779476218 
1834	 1.03526247223888 
1835	-0.504615965695103 
1836	-8.81444660870057 
1837	-0.011098206602782 
1838	-8.05394719819748E-02 
1839	 9.36038155761978E-02 
1840	-1.6241363287851 
1841	 1.42426713775386 
1842	 0.630655135036001 
1843	 0.32134440674563 
1844	 1.30802045764914 
1845	-0.364394704527647 
1846	-2.36191482092053 
1847	-2.87180016320445 
1848	-7.38119405152914 
1849	-19.1481076629316 
1850	-1.99842050872066 
1851	-1.94443904708787 
1852	 1.82932517614355 
1853	 0.31936849082022 
1854	 0.300944862446871 
1855	 0.233176264962129 
1856	 6.21713085067346E-02 
1857	-0.140772194939637 
1858	-0.184943299461961 
1859	-0.384957278167963 
1860	-0.308263967817802 
1861	-0.262571419446065 
1862	 0.348246428521406 
1863	 0.664911215067365 
1864	 0.694235411795011 
1865	 0.850440410089272 
1866	 1.05020306711874 
1867	 1.17588628117 
1868	 2.84601803352272 
1869	-3.48080881972836 
1870	-0.824740548053485 
1871	-0.234198996583178 
1872	-0.297300643297152 
1873	 0.273728347820693 
1874	-2.48724833832525 
1875	-2.51170345806621 
1876	-2.21995625019087 
1877	-2.39107204226518 
1878	-2.02050160075496 
1879	-0.738190119145002 
1880	-0.317239455919393 
1881	-0.14737426726303 
1882	 0.315174749127246 
1883	 1.36201309757861 
1884	-1.59163902860029 
1885	-1.28359812637012 
1886	-0.990496891801294 
1887	 0.127522377130088 
1888	-2.40862363644304E-02 
1889	-0.100322496449484 
1890	-3.64665024467439E-02 
1891	 1.09832915993118E-02 
1892	 5.68256135278069E-02 
1893	 0.217343120889288 
1894	 0.448313047223292 
1895	-0.250573054707051 
1896	-0.129933629835995 
1897	-0.105772375401695 
1898	-0.189434308765557 
1899	-0.276363841882733 
1900	-0.3054498576982 
1901	-0.155896462060214 
1902	-0.127722086928948 
1903	-0.163108581326547 
1904	-0.242541515698621 
1905	-0.979554361210036 
1906	 1.3518213633856 
1907	-0.08787825322177 
1908	 0.111915794100419 
1909	 0.150919288798971 
1910	 4.88527836146945E-02 
1911	-0.423518149391126 
1912	 1.15621673977039 
1913	 0.488016586432716 
1914	 0.415867706075884 
1915	 0.158575466598242 
1916	-0.532920322575984 
1917	-0.992799241989783 
1918	-7.44170544848725 
1919	-25.0951852025221 
1920	 5.69707043078299 
1921	-5.73000014481639 
1922	-1.28976194162014 
1923	-1.36630652283598 
1924	-1.42150557786473 
1925	-1.06710524485738 
1926	-0.962091356232065 
1927	-0.851751477455837 
1928	-0.728564972008503 
1929	-0.189849858726644 
1930	 1.7773954465751 
1931	 0.73976356003088 
1932	 1.04934942406986 
1933	 1.67939406522573 
1934	 1.28736029057841 
1935	-3.55882811734209 
1936	-1.40248920741032 
1937	-0.780430690201712 
1938	-0.298439669114028 
1939	-6.28048035042357E-02 
1940	 7.34756542950659E-02 
1941	 0.490084311071457 
1942	 0.276795496276444 
1943	-0.40274399047707 
1944	-0.951681089495261 
1945	-1.4431998570321 
1946	-2.19302612441298 
1947	-1.72165346829075 
1948	-1.22686511384483 
1949	-0.727525695027697 
1950	-0.630333493453745 
1951	 0.418130466441769 
1952	-0.190856403901958 
1953	-0.446935707659913 
1954	 0.059748923868271 
1955	 0.327033973677279 
1956	 0.254504814381146 
1957	 0.227805989257205 
1958	 0.161819298420464 
1959	 0.141046325271914 
1960	 0.185444616801423 
1961	 0.338337003612059 
1962	 0.697634617286694 
1963	 1.71621557393433 
1964	 3.31786133127943 
1965	 2.47666497457377 
1966	 3.02534865979775 
1967	 9.69955016905357 
1968	-0.232362790360415 
1969	-0.223463834621105 
1970	-1.39684015972768 
1971	-2.20021216075971 
1972	-0.459559101095085 
1973	 0.678439730010159 
1974	 1.05494051820404 
1975	 3.03244116855785 
1976	 0.666624777104126 
1977	 1.17328489973728 
1978	 1.34324966398938 
1979	 1.35739795077376 
1980	 1.82006786496683 
1981	 20.2706394981619 
1982	 2.90661941147226 
1983	 1.48666304976426 
1984	 0.993245805762974 
1985	-3.49393542530162E-02 
1986	-0.594586111295978 
1987	-1.39824565389814 
1988	-1.18205468193789 
1989	-0.216892957337956 
1990	-0.13265801431495 
1991	-0.146724395978277 
1992	-0.346625049830158 
1993	-0.646767776789236 
1994	-0.85802693009614 
1995	-1.33184697859039 
1996	-1.98277146460899 
1997	 65.2353777946176 
1998	 1.41482243942855 
1999	 1.04065960888093 
2000	 0.802750560233684 
2001	 0.858642095966211 
2002	 1.15471125547475 
2003	 1.03590916550058 
2004	 0.386584831815655 
2005	-13.5645572265441 
2006	 58.3977053474572 
2007	 5.20071854577126 
2008	 41.628913027345 
2009	-13.3254645147833 
2010	-1.33682836517711 
2011	-1.18635285815757 
2012	-0.717889307598452 
2013	 0.914144526147723 
2014	-0.100367303551066 
2015	-0.55253584966919 
2016	-0.516760074012159 
2017	-0.832093773559873 
2018	-1.03879162073052 
2019	-0.296572662503132 
2020	 2.22847958616045 
2021	-3.05951723215805 
2022	 7.87857957670223 
2023	 1.42753456372218 
2024	 0.912453489651681 
2025	-0.186644537619763 
2026	-0.384315746071034 
2027	-0.989599177208635 
2028	 0.536377215556291 
2029	-2.88676690724306E-02 
2030	-1.03181028747431 
2031	-155.425360496284 
2032	 1.63891421864424 
2033	 0.628346868001788 
2034	 0.601614391612356 
2035	 1.08682253033781 
2036	 2.34615457966732 
2037	 2.17395434924755 
2038	 1.83040127209852 
2039	 1.92274998195799 
2040	 1.66799773550448 
2041	 1.32750436021939 
2042	 1.58675989955792 
2043	 0.990052906380455 
2044	 0.321633311844751 
2045	 3.44893973085888E-02 
2046	-0.359117273993487 
2047	-0.593627174959125 
2048	-1.11177515112747 
2049	 1.58696148531685 
2050	 0.380736355056927 
2051	 3.62160285857411 
2052	 0.322014751482863 
2053	-0.241845752731081 
2054	-0.673814251292749 
2055	-0.603359955936013 
2056	-0.542995142723664 
2057	 0.538719806027992 
2058	 0.622968489290694 
2059	-6.24012358317015E-02 
2060	-0.351301212142259 
2061	-0.843613814122817 
2062	-1.27386279386063 
2063	-1.20255211298584 
2064	-0.728705312773856 
2065	-0.969534300728954 
2066	-0.421165240996109 
2067	-0.256436736450278 
2068	-0.242536186246195 
2069	-1.06761257564571E-02 
2070	 0.103179777449309 
2071	 0.053795930769419 
2072	 0.143135565363825 
2073	 0.291127234085388 
2074	 2.10009508825671 
2075	 2.38545283507445 
2076	 0.785658460973351 
2077	 0.492544554740146 
2078	 0.117993658886699 
2079	 0.15163600602624 
2080	 0.712105034294868 
2081	 1.22141349081756 
2082	 4.09873777203679 
2083	 53.0056174843509 
2084	 1.21237472252122 
2085	 0.812275391667231 
2086	 0.963864852547886 
2087	 0.931500420301654 
2088	 1.23748287193578 
2089	-11.67281230845 
2090	-0.431504885674652 
2091	 0.343178460205117 
2092	 1.33253937621653 
2093	-2.40389510937887 
2094	-1.1359136601706 
2095	-0.645723273090587 
2096	-0.919459972488909 
2097	-1.8383204499344 
2098	-1.94624031620216 
2099	-2.73561679605546 
2100	-8.15466067665583 
2101	-2.17405577966899 
2102	-0.385635545439058 
2103	 8.02557093237299E-02 
2104	-0.055344051018955 
2105	-6.19494045892874E-02 
2106	-0.148210097595619 
2107	-0.390432088193553 
2108	-0.507847954834436 
2109	-0.745097405748087 
2110	-0.785875544525765 
2111	-0.327274276180927 
2112	 0.528056251805958 
2113	 0.801830519426503 
2114	 0.512045393110533 
2115	 0.480591146767185 
2116	 0.18738919673153 
2117	 0.134179131445136 
2118	 0.184990408470714 
2119	 0.157277436855228 
2120	 0.100136193079781 
2121	 0.134585985242363 
2122	 0.122336593407319 
2123	 0.226814438311052 
2124	 0.247457719979486 
2125	 0.203795085950312 
2126	 0.198303633941266 
2127	 0.140061449751264 
2128	 0.262565128132818 
2129	 0.199117881015887 
2130	 0.083031657337965 
2131	 0.094039636878364 
2132	-4.23912431924749E-02 
2133	-7.20596726252505E-02 
2134	-0.122364025199707 
2135	-0.19054626078285 
2136	-0.26292367923335 
2137	-0.396037457504077 
2138	-0.379788171992753 
2139	-0.266812998276915 
2140	-0.238772290642767 
2141	-0.07775617454496 
2142	-2.21552340824775E-02 
2143	-0.112704419310726 
2144	-0.232383562371271 
2145	-0.172162570492458 
2146	-4.39080919867487E-02 
2147	 3.48104188227036E-02 
2148	 0.327229287156296 
2149	 0.513690017555572 
2150	 0.333232001730759 
2151	 0.267259756938912 
2152	 0.145782745985506 
2153	-1.04483246462368E-02 
2154	-0.103361337759767 
2155	-0.271166237968662 
2156	-0.408134893398534 
2157	-0.466312276419544 
2158	-0.474825565419443 
2159	-0.360376720690529 
2160	-0.064504408688357 
2161	-6.66176395960937E-03 
2162	 7.55086935675178E-02 
2163	 0.126805515271441 
2164	 1.69565480565802E-02 
2165	-9.04014397852049E-04 
2166	 4.29182402434914E-02 
2167	 3.48481718181302E-02 
2168	 2.22300242676299E-02 
2169	 2.47687713953777E-02 
2170	 1.33710020154283E-02 
2171	-4.04877217398419E-03 
2172	 5.95362248370818E-02 
2173	 8.42549885163065E-02 
2174	 5.28695029963927E-02 
2175	 5.03806210174554E-02 
2176	-0.133895084062215 
2177	-0.285264018894686 
2178	-0.315875476447425 
2179	-0.308748602329931 
2180	-0.17290604328779 
2181	-6.00476551938677E-03 
2182	 0.132386348873363 
2183	 0.174707497051002 
2184	 0.084371556856839 
2185	 0.101271604057717 
2186	 6.60318830824995E-02 
2187	-7.49135049544911E-02 
2188	-0.075285946106527 
2189	 9.15050415738596E-03 
2190	 1.32698179886314E-02 
2191	 9.74586388063513E-02 
2192	 7.04307465260835E-02 
2193	-0.122837332051839 
2194	-0.177030604884036 
2195	-0.207053522280238 
2196	-0.175073307857593 
2197	 3.64023090014633E-02 
2198	 0.108988753870591 
2199	 0.188979304804705 
2200	 0.128031500088793 
2201	-6.92603277824358E-02 
2202	-0.130369272724476 
2203	-0.212908829390231 
2204	-0.25261810970432 
2205	-0.211194467550957 
2206	-0.223678920011461 
2207	-0.161132868287274 
2208	-0.084304217815739 
2209	-1.15643571625949E-02 
2210	-1.65532296655687E-02 
2211	-0.152166844389262 
2212	-0.331041158687202 
2213	-0.351533791234677 
2214	-0.403013229301844 
2215	-0.299650791287679 
2216	-9.29550494056267E-02 
2217	-3.83770113579589E-02 
2218	-0.047328764916591 
2219	-7.05285111020775E-03 
2220	 3.61473220513927E-03 
2221	-1.79318513175311E-02 
2222	-5.19536442024701E-02 
2223	-5.19709113931187E-02 
2224	-7.29654653861142E-02 
2225	-9.98180490577194E-02 
2226	-3.97200766505012E-02 
2227	-3.03899515583765E-02 
2228	-0.133484737768723 
2229	-0.154320690273497 
2230	-0.159170880095279 
2231	-0.131556994870275 
2232	-8.43498174433304E-04 
2233	 5.61391223777195E-02 
2234	 0.121633438459986 
2235	 0.20020654187311 
2236	 0.142700376737891 
2237	-0.109243065339438 
2238	-0.295205978272553 
2239	-0.336139125719232 
2240	-0.302093941800856 
2241	-0.22930098923837 
2242	-9.32081261800007E-02 
2243	-4.48103281303579E-02 
2244	-0.149044297086943 
2245	-6.31990072075937E-02 
2246	 0.057894769188344 
2247	-4.77351771840753E-02 
2248	 5.22761242208427E-02 
2249	 0.214780442231936 
2250	 0.125806361681879 
2251	 0.217953164107365 
2252	 0.378989514323309 
2253	 0.146394265904267 
2254	 4.64224145984899E-02 
2255	 0.222813602513264 
2256	 0.226656994031672 
2257	 0.24966421471972 
2258	 0.394044942950253 
2259	 0.209109226112467 
2260	 0.160781092154562 
2261	 8.89763804346133E-02 
2262	 0.125983448537171 
2263	 0.343974914920007 
2264	 0.364505976038933 
2265	 0.254195938853824 
2266	 0.189261402915095 
2267	-0.243620632107606 
2268	-0.703387889656338 
2269	-0.567254547191756 
2270	-0.558282026572727 
2271	-0.654079648891427 
2272	-0.592018487053053 
2273	-0.316872830910891 
2274	-0.143349091468955 
2275	 0.208932582037901 
2276	 0.335915832111652 
2277	 6.79823765999244E-02 
2278	 1.43842740028929E-02 
2279	-7.94539287060614E-02 
2280	-5.92756413388799E-02 
2281	 0.075025181778012 
2282	 0.21155016948451 
2283	 0.254661770716918 
2284	 0.438820261733922 
2285	 0.936083663104576 
2286	 2.10383424516583 
2287	-2.44815859030739 
2288	 236.017773114701 
2289	-5.42119385749007E-02 
2290	-0.758331270939433 
2291	-0.666008749612213 
2292	-0.573213917651276 
2293	-0.933577205714686 
2294	-5.24184416019657 
2295	-9.4532995162755 
2296	-1.50799475073585 
2297	-0.656234981626929 
2298	-4.51548662460157E-02 
2299	 1.79195268239584E-02 
2300	-0.281419355081967 
2301	-0.820333082746822 
2302	-1.21432761139351 
2303	-1.36160141987812 
2304	-1.07661077674732 
2305	-0.708737657124994 
2306	-0.308519872554648 
2307	-0.14527274967978 
2308	-0.21127669512818 
2309	 5.63274336096055E-02 
2310	 0.193786410617574 
2311	-0.249483693995661 
2312	-0.321460098029622 
2313	-0.439885332711663 
2314	-0.598245887717332 
2315	-0.452506108536261 
2316	-8.78371662110349E-02 
2317	-2.33365275297488E-02 
2318	-0.239743524329936 
2319	 0.047743215088854 
2320	-0.400290595183518 
2321	 0.149141294624918 
2322	 1.55593533019563 
2323	 1.46443193529536 
2324	 5.05373595400012E-02 
2325	-0.731064079471648 
2326	-1.19729318322793 
2327	-1.34001158485083 
2328	-1.14137436118042 
2329	-0.497474917087724 
2330	-0.496594560479087 
2331	-0.421449865930063 
2332	-0.423957640739124 
2333	-1.3035432936705 
2334	-2.58268193900818 
2335	-1.87258281649602 
2336	-1.78995874856724 
2337	-1.15557759671461 
2338	-1.65515390396973 
2339	-3.54094989021706 
2340	-3.3420524641537 
2341	-1.95064255288387 
2342	-1.12500623694363 
2343	-0.654471420389108 
2344	-1.78838621352148 
2345	-16.654375146737 
2346	 1.90724586311771 
2347	 1.92335158283846 
2348	 3.14453832408214 
2349	 2.92271043116032 
2350	-3.11972311141563 
2351	-2.53071220203423 
2352	 1.7599363746873 
2353	 0.904457236052995 
2354	 0.206501415593429 
2355	-0.236965414676348 
2356	-1.06995373697978 
2357	 53.9842626490655 
2358	 2.8993922914139 
2359	 1.04341098283829 
2360	 0.520135599829408 
2361	 1.11199824248991 
2362	 0.331831277112283 
2363	-0.414150613498208 
2364	-0.676695485477345 
2365	-0.712971191397985 
2366	-0.817990637042981 
2367	 31.8871617795179 
2368	 9.76213075589308E-04 
2369	-0.346178513821275 
2370	-0.324294571036391 
2371	-0.557557431345202 
2372	-0.986422765557928 
2373	-1.93924345344187 
2374	-2.09316463726018 
2375	-3.00725318461784 
2376	-3.39254543557753 
2377	-0.529196521774247 
2378	-0.478945240934754 
2379	 5.53727541924443E-02 
2380	 0.62928392188438 
2381	 1.18945490729996 
2382	 6.96414551920384 
2383	-16.1835587735051 
2384	-6.68566231804326 
2385	-7.56493087541714 
2386	-19.7092228934659 
2387	-4.77480325674483 
2388	-4.57676180558028 
2389	 0.226896961437049 
2390	 1.52981003989445 
2391	 1.55326977130641 
2392	 2.81678359563182 
2393	-11.10136045146 
2394	-3.53198510667606 
2395	-0.286085883882785 
2396	-2.00648646136507 
2397	-1.154846011216 
2398	-1.15446000220349 
2399	-1.00773723422031 
2400	 1.08241517051526 
2401	-0.774935239172964 
2402	-1.09164812422136 
2403	 1.0230680244496 
2404	 0.917833317210845 
2405	 1.18173889548585 
2406	 0.647458662259807 
2407	 3.36355531521256 
2408	-4.46381745687558 
2409	 0.109624380598931 
2410	-0.292862841675317 
2411	-0.843051456045163 
2412	-0.731974071510691 
2413	-0.403292900268691 
2414	-9.93696292506296E-02 
2415	 0.10843065567011 
2416	 0.223592272324094 
2417	 0.421606327821265 
2418	 0.662644587034396 
2419	-0.47724298055069 
2420	-0.890070288463687 
2421	-0.333821979641696 
2422	 0.072650771798811 
2423	 0.259354124702609 
2424	-0.160811277252627 
2425	-1.26454898916991E-02 
2426	-8.14860555259128E-02 
2427	 2.52323463017433 
2428	 0.917597105218083 
2429	 0.265166571579362 
2430	 0.322917431329162 
2431	 0.474696681851326 
2432	 0.544637812809356 
2433	 1.51627894512615 
2434	 1.7211237246116 
2435	 1.117769233839 
2436	-263.866196411561 
2437	-6.32561312806103 
2438	-2.72816737719467 
2439	-2.48758736540222 
2440	-3.79429999901943 
2441	-4.75024675610565 
2442	 16.9509039220133 
2443	 2.27925886128075 
2444	-7.21673733154119 
2445	-2.02128196782833 
2446	-0.548841167892794 
2447	 0.28280734385048 
2448	 0.720335037825266 
2449	 2.13079086926061 
2450	 3.12882580555338 
2451	-0.482496638169785 
2452	-2.37051508805037 
2453	-1.24019023438455 
2454	-1.76253567156227 
2455	-1.39283902086409 
2456	-2.52719027839833 
2457	-0.381511629813446 
2458	-0.715675391654918 
2459	-1.0015163892214 
2460	-1.16449049104372 
2461	-4.87193617701782 
2462	-87.351154287747 
2463	-22.3228565171733 
2464	-9.50779963401978 
2465	 103.898806031272 
2466	 5.56771579137464 
2467	 4.00511952065073 
2468	-0.610011513550667 
2469	-0.806936729609301 
2470	-1.17242708133347 
2471	-1.59519262022425 
2472	-1.7721350700977 
2473	 0.942728741192963 
2474	 0.925118260977239 
2475	 1.54914393533194 
2476	 2.55628643085469 
2477	 2.09595420834673 
2478	 2.05246309951364 
2479	 3.00367311035346 
2480	 5.24007479304196 
2481	 11.1987050408124 
2482	 5.25485095712339 
2483	 4.02847276978676 
2484	 3.09777505670997 
2485	 1.43641038925365 
2486	 1.14867380574553 
2487	 1.16979726148067 
2488	 1.39757672360807 
2489	-8.96810640303331 
2490	-1.2799194093026 
2491	-0.560470629380402 
2492	-0.516081244953989 
2493	-0.421540757927647 
2494	-0.649187643337765 
2495	 3.62431547848948 
2496	-1.73149811375906 
2497	-1.91832927600309 
2498	-2.84206549970899 
2499	-4.71007338952763 
2500	-8.00124441872561 
