Wavelength	rt0712west_far00005.asd
350	 9.78965454471755E-02 
351	 9.90158410075438E-02 
352	 9.87311074064288E-02 
353	 9.77922438589333E-02 
354	 9.73637840208486E-02 
355	 9.85625386802724E-02 
356	 0.100138245235291 
357	 0.100029477506297 
358	 9.76001081229728E-02 
359	 9.89186726375324E-02 
360	 0.099478803166753 
361	 9.88341545431468E-02 
362	 9.93581384987808E-02 
363	 9.92994257417713E-02 
364	 9.94245283840416E-02 
365	 0.099862897985929 
366	 9.93190458153343E-02 
367	 9.96045648800933E-02 
368	 0.099826914904232 
369	 9.92020306295276E-02 
370	 0.100072866065988 
371	 9.99139593553199E-02 
372	 9.92505260318618E-02 
373	 0.100131148339056 
374	 0.100605306213802 
375	 0.100707240919476 
376	 0.100769250655482 
377	 0.101219920819047 
378	 0.101242294973487 
379	 0.100974335230479 
380	 0.100858670642207 
381	 0.10155831593564 
382	 0.101562539877672 
383	 0.101544067840655 
384	 0.102832536203379 
385	 0.103433499856966 
386	 0.102348820292316 
387	 0.101117834320715 
388	 0.103609212792214 
389	 0.103815782117961 
390	 0.103719039205308 
391	 0.105059634933162 
392	 0.105112140703254 
393	 0.104044272273937 
394	 0.103271084233558 
395	 0.104117146181506 
396	 0.10495976496171 
397	 0.10524502794064 
398	 0.105149720344731 
399	 0.10535243197511 
400	 0.105249730383916 
401	 0.105454921411172 
402	 0.10613051697265 
403	 0.106066828741199 
404	 0.105799726122644 
405	 0.105719920049839 
406	 0.106075586643105 
407	 0.106654971402545 
408	 0.106476278138191 
409	 0.106025379814784 
410	 0.107091758386267 
411	 0.107143211088464 
412	 0.107175988271271 
413	 0.107949567600745 
414	 0.108100741538896 
415	 0.10805409877936 
416	 0.108243607416094 
417	 0.10891790757604 
418	 0.10906842230719 
419	 0.109311136431793 
420	 0.109803819078743 
421	 0.110093450281024 
422	 0.110115165657271 
423	 0.110322458123353 
424	 0.110933288015736 
425	 0.111187902692216 
426	 0.111638271283129 
427	 0.112260460067902 
428	 0.112754746606772 
429	 0.112976746627627 
430	 0.113519237476547 
431	 0.114256869307531 
432	 0.114177157874048 
433	 0.114438387245925 
434	 0.115045479664928 
435	 0.115661101492699 
436	 0.1157016351171 
437	 0.116207617412686 
438	 0.116945932706584 
439	 0.117097281544106 
440	 0.117488947055414 
441	 0.118054023942853 
442	 0.118621075578517 
443	 0.119023139764816 
444	 0.119249575759468 
445	 0.119648308394148 
446	 0.120418858262462 
447	 0.120848372698224 
448	 0.12101854598925 
449	 0.121154518988938 
450	 0.121540106660417 
451	 0.121900564915183 
452	 0.122183844687407 
453	 0.122434779679701 
454	 0.122815425550273 
455	 0.123386328703765 
456	 0.123747046783551 
457	 0.123608121945562 
458	 0.124230001864651 
459	 0.124535220086645 
460	 0.124394967371345 
461	 0.12471931792254 
462	 0.125042893520184 
463	 0.125136004026845 
464	 0.125059075431308 
465	 0.125563699234022 
466	 0.126002730488106 
467	 0.126215801810863 
468	 0.126321163729767 
469	 0.12652294541489 
470	 0.12678529604222 
471	 0.127056106126839 
472	 0.127296845802485 
473	 0.127490318035336 
474	 0.127840997085506 
475	 0.128423019515375 
476	 0.128644383840836 
477	 0.128961602708768 
478	 0.129376090538912 
479	 0.129594804885099 
480	 0.129778090762987 
481	 0.130028289489227 
482	 0.13037529777804 
483	 0.13070635801307 
484	 0.131272918507666 
485	 0.131759729982856 
486	 0.131837617686742 
487	 0.132259550901095 
488	 0.132868626107099 
489	 0.13343467771036 
490	 0.133740552605753 
491	 0.134292258174396 
492	 0.134994434824981 
493	 0.1356372862663 
494	 0.136054774724376 
495	 0.13636682861557 
496	 0.136742058369287 
497	 0.13731794052019 
498	 0.137737314100407 
499	 0.138092813478664 
500	 0.138470451811863 
501	 0.138858739305115 
502	 0.139527813468943 
503	 0.140222761985101 
504	 0.140658463247588 
505	 0.141092716627942 
506	 0.141652387347818 
507	 0.142273702251104 
508	 0.142779267454774 
509	 0.143596690799259 
510	 0.144305350581373 
511	 0.144707376439607 
512	 0.145393184660005 
513	 0.146349310099528 
514	 0.147179802373338 
515	 0.147481444856745 
516	 0.148297661842644 
517	 0.149073365197147 
518	 0.14962242207373 
519	 0.150387387273776 
520	 0.151074637809889 
521	 0.15175250371868 
522	 0.15252712075317 
523	 0.153344440684773 
524	 0.15408888412227 
525	 0.154821771998486 
526	 0.155720325327887 
527	 0.156713463052013 
528	 0.157486117371706 
529	 0.158029583339933 
530	 0.159014269002553 
531	 0.159823563237386 
532	 0.160593278184217 
533	 0.161641149975759 
534	 0.162675924337462 
535	 0.163446374945935 
536	 0.164057915170958 
537	 0.164995344089342 
538	 0.165874911074599 
539	 0.166711932809571 
540	 0.167582113215198 
541	 0.168435366880154 
542	 0.16934495545607 
543	 0.170225728721449 
544	 0.170941216131066 
545	 0.171820681807488 
546	 0.173038830217161 
547	 0.174403799834855 
548	 0.175062428482487 
549	 0.175932203545435 
550	 0.176954806127203 
551	 0.177826213188719 
552	 0.178957388374528 
553	 0.179860316089452 
554	 0.180492873368407 
555	 0.181354186836914 
556	 0.182236269057457 
557	 0.183178676665715 
558	 0.184151113700874 
559	 0.184763118879912 
560	 0.185360772757086 
561	 0.186070244563895 
562	 0.18685332781004 
563	 0.187507665834999 
564	 0.188080394397249 
565	 0.188610388356204 
566	 0.189029008773866 
567	 0.189601743083592 
568	 0.190210789798153 
569	 0.190638190431556 
570	 0.191091826829076 
571	 0.191534901763366 
572	 0.191922204815402 
573	 0.192214151885227 
574	 0.19267290288368 
575	 0.193179086323544 
576	 0.19354927935162 
577	 0.193699313197925 
578	 0.193929180356246 
579	 0.194268661934409 
580	 0.194562773912582 
581	 0.194684986303508 
582	 0.194633398227618 
583	 0.194422224020565 
584	 0.194045756112023 
585	 0.193624905481634 
586	 0.192993236055694 
587	 0.191903298762201 
588	 0.190545765914385 
589	 0.189582449151209 
590	 0.189319356661633 
591	 0.189418000943393 
592	 0.189436868248833 
593	 0.188936879225839 
594	 0.187854624353131 
595	 0.187088153837591 
596	 0.186444812678662 
597	 0.185847041503471 
598	 0.185264970988521 
599	 0.184592436012233 
600	 0.183753064298647 
601	 0.182868965935705 
602	 0.182363504891311 
603	 0.182173530012454 
604	 0.182120626009023 
605	 0.182004541572133 
606	 0.181782747896553 
607	 0.181640769284385 
608	 0.181523747446561 
609	 0.181149471404055 
610	 0.18130289364499 
611	 0.18153462872361 
612	 0.181401509743782 
613	 0.181257709906346 
614	 0.181291242617335 
615	 0.181300342270225 
616	 0.18095595223812 
617	 0.181060530979309 
618	 0.180965533757737 
619	 0.180553862467899 
620	 0.180849602464219 
621	 0.180631156452241 
622	 0.180300169852819 
623	 0.18048943445248 
624	 0.180192573302248 
625	 0.179881723350693 
626	 0.179690079573362 
627	 0.179382064334455 
628	 0.179278326629277 
629	 0.179234676626272 
630	 0.179114524100812 
631	 0.179069267986535 
632	 0.178933468624275 
633	 0.178830840517882 
634	 0.178948090870475 
635	 0.178836892637128 
636	 0.178892587162774 
637	 0.179169225817827 
638	 0.179143414939565 
639	 0.178972786213022 
640	 0.178820412355846 
641	 0.178732560851682 
642	 0.17819015070684 
643	 0.177871656440479 
644	 0.177653343187007 
645	 0.176747676045303 
646	 0.176085917195989 
647	 0.175838355083411 
648	 0.175855370717405 
649	 0.17567519388446 
650	 0.175615961468001 
651	 0.175471393671865 
652	 0.174950282957681 
653	 0.17439448000748 
654	 0.173619196970736 
655	 0.172764064829148 
656	 0.172523416870195 
657	 0.171976715039274 
658	 0.171367478140203 
659	 0.170929997079656 
660	 0.170217117046442 
661	 0.169549149957152 
662	 0.169060250823619 
663	 0.168775065770193 
664	 0.168664000106589 
665	 0.168419492454336 
666	 0.167940670558087 
667	 0.167515329635536 
668	 0.16751342922098 
669	 0.167644862133558 
670	 0.167454591061829 
671	 0.166900342471737 
672	 0.166744303145978 
673	 0.167008752903257 
674	 0.167006417363995 
675	 0.166805926429204 
676	 0.166670970188062 
677	 0.16675927795135 
678	 0.166854721444178 
679	 0.1669723068165 
680	 0.16696505762885 
681	 0.166734689788961 
682	 0.167012000313086 
683	 0.167207724321422 
684	 0.167003069389784 
685	 0.166536632713759 
686	 0.16641368950085 
687	 0.166242154148507 
688	 0.165645988704677 
689	 0.165715770530208 
690	 0.165537284249191 
691	 0.164843496086552 
692	 0.163772077078744 
693	 0.162853914674298 
694	 0.162408615903074 
695	 0.162290634909388 
696	 0.161908898931785 
697	 0.161032737409487 
698	 0.159541794177221 
699	 0.157786781158239 
700	 0.157212560481799 
701	 0.156353560122446 
702	 0.155001678236428 
703	 0.153874058562886 
704	 0.152509289455687 
705	 0.150946283227123 
706	 0.149388475899868 
707	 0.14798127793815 
708	 0.146452404427037 
709	 0.144768683421057 
710	 0.143023817904671 
711	 0.141144907264145 
712	 0.138888518673895 
713	 0.136278063502112 
714	 0.133574655303634 
715	 0.130372234484992 
716	 0.126230215733399 
717	 0.121815775526052 
718	 0.118924097205263 
719	 0.11657542442393 
720	 0.114924218751395 
721	 0.113690724278451 
722	 0.111911276928004 
723	 0.108902626222604 
724	 0.105492272206769 
725	 0.103541816589429 
726	 0.10130728477017 
727	 9.87479401527999E-02 
728	 9.60789907584426E-02 
729	 9.32247320501635E-02 
730	 8.98805316403805E-02 
731	 8.73098136676814E-02 
732	 8.61399047560228E-02 
733	 8.51322603319779E-02 
734	 8.36413736916829E-02 
735	 0.081876209983713 
736	 8.11545154652558E-02 
737	 8.02920322381091E-02 
738	 7.95957193736014E-02 
739	 7.94423197024918E-02 
740	 7.95444129557527E-02 
741	 7.93385239370507E-02 
742	 7.91312693548529E-02 
743	 7.94694995968363E-02 
744	 7.92470629689197E-02 
745	 7.89430947173146E-02 
746	 0.07887482778229 
747	 7.89432331562709E-02 
748	 7.89995390722075E-02 
749	 7.88092475986053E-02 
750	 7.83751948538342E-02 
751	 7.84812791071085E-02 
752	 7.86225895483203E-02 
753	 7.86331721352042E-02 
754	 0.078545578766483 
755	 7.83348572151986E-02 
756	 0.078079613286731 
757	 7.78617855966015E-02 
758	 0.077770420657272 
759	 7.71912892724523E-02 
760	 7.58991129027825E-02 
761	 7.53906609018948E-02 
762	 7.51222322320581E-02 
763	 7.54262080977984E-02 
764	 7.62980507093255E-02 
765	 7.73842052902435E-02 
766	 7.77724277126721E-02 
767	 7.80117988630414E-02 
768	 7.82715365467523E-02 
769	 7.84372968086681E-02 
770	 0.078634092304294 
771	 7.86781668316183E-02 
772	 7.85893470031175E-02 
773	 7.91060698807069E-02 
774	 7.95448630824805E-02 
775	 7.97561063310421E-02 
776	 7.98438440034914E-02 
777	 7.98317707094033E-02 
778	 8.00704801809287E-02 
779	 8.05341128875614E-02 
780	 8.08088838743709E-02 
781	 8.09514068235715E-02 
782	 8.11174621445518E-02 
783	 8.13697303854204E-02 
784	 8.14774662936818E-02 
785	 8.18633781822581E-02 
786	 8.22324657899432E-02 
787	 8.21769954123059E-02 
788	 8.24254525699096E-02 
789	 0.082742579883351 
790	 8.32286978927934E-02 
791	 8.41777347870422E-02 
792	 8.46368372964861E-02 
793	 8.47670016069907E-02 
794	 8.47577075525117E-02 
795	 8.45474117568262E-02 
796	 8.54149658574736E-02 
797	 8.64661858598735E-02 
798	 8.66605219751082E-02 
799	 0.086572527140234 
800	 8.68203737558428E-02 
801	 8.74815513990269E-02 
802	 8.81938432236295E-02 
803	 8.85169939918598E-02 
804	 8.88778213698341E-02 
805	 8.92118574196786E-02 
806	 8.89074276956421E-02 
807	 8.88048400461908E-02 
808	 8.81914386896363E-02 
809	 8.68479781824293E-02 
810	 8.70618560779452E-02 
811	 8.68526029352258E-02 
812	 0.085817933369675 
813	 8.44447321797362E-02 
814	 8.37752664895152E-02 
815	 8.27507432981198E-02 
816	 8.19754338536814E-02 
817	 8.29992255528328E-02 
818	 8.26198689602645E-02 
819	 8.25652389473811E-02 
820	 8.29502075138325E-02 
821	 8.16604606926243E-02 
822	 7.97645902320499E-02 
823	 7.79455482890119E-02 
824	 7.66816612540514E-02 
825	 7.61109103106925E-02 
826	 7.47048810480024E-02 
827	 7.31400009015839E-02 
828	 7.26992003437829E-02 
829	 7.12623173209958E-02 
830	 6.97254349543254E-02 
831	 6.85603912609582E-02 
832	 6.78230028519376E-02 
833	 6.70166716697871E-02 
834	 6.69736780447846E-02 
835	 6.74000471123573E-02 
836	 6.66511018741823E-02 
837	 6.64660145033468E-02 
838	 0.066349648743112 
839	 6.58742221127888E-02 
840	 6.59095550866537E-02 
841	 6.58137642523261E-02 
842	 6.58043209496646E-02 
843	 6.60348675213357E-02 
844	 6.49573896856983E-02 
845	 6.46155114739034E-02 
846	 6.52785120301444E-02 
847	 6.58845221761124E-02 
848	 6.55696963103823E-02 
849	 6.49640338431999E-02 
850	 6.44992653511377E-02 
851	 6.40680045984956E-02 
852	 6.38273783337608E-02 
853	 6.42047999053759E-02 
854	 6.48207250563752E-02 
855	 6.36170806543897E-02 
856	 0.063449092924603 
857	 6.39457670566592E-02 
858	 6.40953618278659E-02 
859	 6.39872932354545E-02 
860	 0.064218750201119 
861	 6.40917703204929E-02 
862	 6.27369462512768E-02 
863	 6.22717245753577E-02 
864	 0.062886466140381 
865	 6.34752816853464E-02 
866	 6.23111855971779E-02 
867	 0.062490703502674 
868	 6.30276656903486E-02 
869	 6.29523651251861E-02 
870	 6.21451739595742E-02 
871	 6.24026293003179E-02 
872	 6.24153051170398E-02 
873	 6.15186501566366E-02 
874	 6.21033491411391E-02 
875	 6.19811331838078E-02 
876	 0.061314381457054 
877	 6.09530896438144E-02 
878	 0.061371847112453 
879	 6.13487153772408E-02 
880	 6.07520165424485E-02 
881	 6.01348121387521E-02 
882	 6.02272110310493E-02 
883	 0.060230851317993 
884	 6.02667522023418E-02 
885	 6.10038093751022E-02 
886	 6.09376451558075E-02 
887	 6.04649100070006E-02 
888	 0.060175747041895 
889	 6.05155493859152E-02 
890	 6.03745772369797E-02 
891	 5.90417173009119E-02 
892	 5.72374257599186E-02 
893	 5.87189050892519E-02 
894	 5.84774237226194E-02 
895	 5.71212429659911E-02 
896	 5.68484965154252E-02 
897	 5.69107870609639E-02 
898	 0.058786698852134 
899	 6.06127308779754E-02 
900	 6.02041979661858E-02 
901	 5.86802237017356E-02 
902	 0.056725213758705 
903	 5.58881947291894E-02 
904	 5.71441734604883E-02 
905	 5.78296142303829E-02 
906	 5.73567516871019E-02 
907	 5.55964429186339E-02 
908	 5.34875628005666E-02 
909	 0.054853207613229 
910	 5.75658692248722E-02 
911	 5.86518722883094E-02 
912	 5.63584808283363E-02 
913	 0.059368166317252 
914	 5.66987195585514E-02 
915	 5.00228930618435E-02 
916	 5.51964319655291E-02 
917	 5.33093158357843E-02 
918	 5.28168946904172E-02 
919	 0.056738376852638 
920	 5.80878243845377E-02 
921	 5.96363600271636E-02 
922	 6.05953211358838E-02 
923	 5.93723117688915E-02 
924	 0.0536947363945 
925	 5.05924544135166E-02 
926	 5.44528363363958E-02 
927	 6.34606778430164E-02 
928	 0.053253152151618 
929	 5.92760533609013E-02 
930	 7.42146892015429E-02 
931	 5.64165231800164E-02 
932	 4.77504876653177E-02 
933	 0.04872445948292 
934	 5.11089565534005E-02 
935	 5.36498458078285E-02 
936	 0.112942628873091 
937	 0.116466077894883 
938	 8.50905114645605E-02 
939	 7.06224118332393E-02 
940	 8.61931442738408E-02 
941	 8.16079711758523E-02 
942	 6.92928068456025E-02 
943	 8.06994157800969E-02 
944	 2.54575864642241E-02 
945	 0.014877213784565 
946	 5.87997234243971E-02 
947	 8.56821880853936E-02 
948	 0.101129018987221 
949	 0.094783910890005 
950	 6.49267992366191E-02 
951	 2.60862113686376E-02 
952	 6.44010569040629E-02 
953	 8.98791683812745E-02 
954	 7.31630887439712E-02 
955	 0.045231191812991 
956	 7.72134402831744E-02 
957	 7.23174854664186E-02 
958	 4.93071311753055E-02 
959	 8.02935716333165E-02 
960	 0.056573204163253 
961	 5.10448493979393E-02 
962	 6.63482239274316E-02 
963	 6.12454834445407E-02 
964	 0.052698531693517 
965	 5.11895135372148E-02 
966	 0.054130854343272 
967	 5.26890467766722E-02 
968	 5.27600628086546E-02 
969	 5.23703567024441E-02 
970	 0.053148348406606 
971	 5.80735271365214E-02 
972	 5.13107951817753E-02 
973	 5.45895115110964E-02 
974	 6.64809535432065E-02 
975	 6.24426509765358E-02 
976	 5.85140500756815E-02 
977	 5.91019921027877E-02 
978	 5.98638792218684E-02 
979	 5.37225468165584E-02 
980	 5.38624905984688E-02 
981	 5.10272883374786E-02 
982	 4.80296480449021E-02 
983	 5.49387588897794E-02 
984	 6.08716767746331E-02 
985	 5.83474467653196E-02 
986	 5.31765987220639E-02 
987	 5.75792272536932E-02 
988	 0.062114751882009 
989	 5.51820361842452E-02 
990	 0.047277982694417 
991	 5.82823290125976E-02 
992	 5.77707268966651E-02 
993	 5.72017470943668E-02 
994	 5.84524915860851E-02 
995	 0.056549775315873 
996	 6.01766147866243E-02 
997	 5.85718281499747E-02 
998	 5.52980651703535E-02 
999	 5.98054836611729E-02 
1000	 5.74227307238895E-02 
1001	 4.49307746608872E-02 
1002	 4.70990009617198E-02 
1003	 4.83586408112941E-02 
1004	 4.88731946893201E-02 
1005	 4.97212479225765E-02 
1006	 5.15854256334983E-02 
1007	 5.22436210839826E-02 
1008	 5.27596183718501E-02 
1009	 5.14744459657832E-02 
1010	 4.93312470746648E-02 
1011	 5.05407083310516E-02 
1012	 5.19606742666248E-02 
1013	 5.17927086590634E-02 
1014	 5.26526799461271E-02 
1015	 0.054817910192667 
1016	 5.47329696525744E-02 
1017	 5.37929426916425E-02 
1018	 5.35798619247444E-02 
1019	 5.15559531866196E-02 
1020	 0.0509876984208 
1021	 5.14857702340696E-02 
1022	 0.052408864687112 
1023	 5.34955401062378E-02 
1024	 0.052543374052175 
1025	 5.35006682707743E-02 
1026	 5.41605400512865E-02 
1027	 5.37907573617008E-02 
1028	 0.053044434769569 
1029	 5.31183937166622E-02 
1030	 5.28715004422691E-02 
1031	 5.19881168908686E-02 
1032	 5.06773202337148E-02 
1033	 5.10983390975875E-02 
1034	 5.08018587567706E-02 
1035	 5.17527830250838E-02 
1036	 5.59947988791239E-02 
1037	 5.81686209667763E-02 
1038	 6.01259005941748E-02 
1039	 6.14346041677214E-02 
1040	 5.85920509595961E-02 
1041	 0.057568737321157 
1042	 5.69196809509411E-02 
1043	 5.48868966299077E-02 
1044	 5.44242126940393E-02 
1045	 5.58434335892194E-02 
1046	 5.67330316157736E-02 
1047	 5.85201815904446E-02 
1048	 5.79649359744235E-02 
1049	 0.05640729643682 
1050	 5.60206304557175E-02 
1051	 5.36548726189248E-02 
1052	 5.27680976770503E-02 
1053	 0.054711225801381 
1054	 5.50604659607871E-02 
1055	 5.37543078773989E-02 
1056	 0.053716642907827 
1057	 5.40495920968886E-02 
1058	 5.49986078693515E-02 
1059	 5.47862659043481E-02 
1060	 5.43831705858557E-02 
1061	 5.47009970016214E-02 
1062	 5.48685399423291E-02 
1063	 5.45343062392062E-02 
1064	 5.47399655793398E-02 
1065	 5.47672700206813E-02 
1066	 5.34531217017736E-02 
1067	 5.31225248079146E-02 
1068	 5.42178538541927E-02 
1069	 5.43855608419931E-02 
1070	 5.45900231590509E-02 
1071	 5.39993096845952E-02 
1072	 0.050948024541365 
1073	 5.05875847947553E-02 
1074	 5.11791738380205E-02 
1075	 0.052434352735819 
1076	 5.35024378850746E-02 
1077	 5.76532600411854E-02 
1078	 5.77759777008731E-02 
1079	 0.054198313876695 
1080	 5.36965335839513E-02 
1081	 5.31841059348383E-02 
1082	 5.31186811845924E-02 
1083	 5.56537372180626E-02 
1084	 5.59819221465551E-02 
1085	 5.41959135532863E-02 
1086	 5.36756415956366E-02 
1087	 5.27786239280361E-02 
1088	 5.26232038176143E-02 
1089	 5.44700059966603E-02 
1090	 5.45535124866668E-02 
1091	 5.48891621028888E-02 
1092	 5.55319214005085E-02 
1093	 5.54063295083494E-02 
1094	 5.43241818161945E-02 
1095	 5.34839246101036E-02 
1096	 0.050872660751633 
1097	 0.050665430998234 
1098	 5.34580181099427E-02 
1099	 5.37844345226747E-02 
1100	 5.44281433854755E-02 
1101	 0.054737565628644 
1102	 4.97038972322809E-02 
1103	 4.91969843813954E-02 
1104	 5.29700269597361E-02 
1105	 5.88793240634592E-02 
1106	 5.67557337510937E-02 
1107	 5.62956308674998E-02 
1108	 5.09045237570187E-02 
1109	 4.52967702344022E-02 
1110	 0.045403388393814 
1111	 5.82162294635727E-02 
1112	 5.91639946312436E-02 
1113	 5.12498929493186E-02 
1114	 5.00482900321773E-02 
1115	 4.86082702881064E-02 
1116	 4.78518182645744E-02 
1117	 6.53975599239201E-02 
1118	 6.89772515396987E-02 
1119	 6.04086445162626E-02 
1120	 2.53697915347586E-02 
1121	-9.78560401343352E-02 
1122	-0.249692133418498 
1123	-0.355006077634024 
1124	-0.346936393261613 
1125	-0.184518161660327 
1126	-0.101607982703374 
1127	-0.103782945973746 
1128	-0.106156072121417 
1129	-5.43494330030047E-02 
1130	 2.75676002730105E-02 
1131	 2.13896335428995E-02 
1132	 2.52341779733356E-02 
1133	-2.30124300854045E-02 
1134	-0.175136399561238 
1135	-0.201424645383228 
1136	-0.171328571042466 
1137	-0.132989902232826 
1138	-6.87654010337938E-02 
1139	-1.28290565309776E-02 
1140	 7.58165242754823E-02 
1141	 7.89124354934526E-02 
1142	-2.76023828723454E-02 
1143	-5.56062969629519E-02 
1144	-5.35866560422846E-02 
1145	-6.79872328246671E-02 
1146	-1.84876552724054E-02 
1147	 1.81389651003427E-02 
1148	 1.52740925076187E-02 
1149	 4.88020253093298E-02 
1150	 6.20288647829475E-02 
1151	 0.10383146260362 
1152	 7.86800987404838E-02 
1153	 6.7395237548966E-03 
1154	 3.97202897763612E-03 
1155	 1.40942813881807E-03 
1156	 2.36511406799903E-02 
1157	 5.36217211338087E-02 
1158	 6.29101269258233E-02 
1159	 4.58791585783149E-02 
1160	 2.93183049297641E-02 
1161	 3.02264528495977E-02 
1162	 3.84061502750416E-02 
1163	 4.78860000253674E-02 
1164	 5.13948264694472E-02 
1165	 4.68761748064573E-02 
1166	 4.20782701200956E-02 
1167	 4.23952145860967E-02 
1168	 4.82514022419605E-02 
1169	 5.36572394162384E-02 
1170	 5.79317711537946E-02 
1171	 5.85518352264451E-02 
1172	 5.32734419049448E-02 
1173	 5.12508422071605E-02 
1174	 4.94032298886774E-02 
1175	 4.84305046970339E-02 
1176	 4.69988827779388E-02 
1177	 4.99563964258595E-02 
1178	 5.34710387308338E-02 
1179	 4.93172240385827E-02 
1180	 4.69526910266148E-02 
1181	 4.99148110956601E-02 
1182	 4.72848638959136E-02 
1183	 4.66762919592309E-02 
1184	 5.06126065289395E-02 
1185	 4.91568500899599E-02 
1186	 4.60174127483397E-02 
1187	 4.94885306277863E-02 
1188	 5.26229190023802E-02 
1189	 5.19985862089067E-02 
1190	 5.60362905982672E-02 
1191	 5.72070069599763E-02 
1192	 5.49985675585563E-02 
1193	 0.046907456298595 
1194	 4.56939329787733E-02 
1195	 5.15497785242093E-02 
1196	 5.19345269362017E-02 
1197	 5.07859633046075E-02 
1198	 5.33951413429808E-02 
1199	 4.89632968651276E-02 
1200	 4.76026835530196E-02 
1201	 5.49784541894295E-02 
1202	 5.46223258293961E-02 
1203	 4.93032414207994E-02 
1204	 4.84800200653882E-02 
1205	 4.92716932531587E-02 
1206	 4.96776957110567E-02 
1207	 4.99880549965478E-02 
1208	 4.68327912077503E-02 
1209	 4.38210651338378E-02 
1210	 4.72791840728969E-02 
1211	 5.25127133918557E-02 
1212	 5.27841913891061E-02 
1213	 4.96722927245945E-02 
1214	 0.048919485043583 
1215	 4.55699514590223E-02 
1216	 4.42541474553978E-02 
1217	 4.78074572402307E-02 
1218	 5.05882909271462E-02 
1219	 4.79605515307704E-02 
1220	 4.66002694025101E-02 
1221	 4.88134608102841E-02 
1222	 4.96057913407138E-02 
1223	 4.97592394433103E-02 
1224	 5.10210829483078E-02 
1225	 5.12193200535265E-02 
1226	 5.19482331447817E-02 
1227	 5.49652294553465E-02 
1228	 5.54778314630077E-02 
1229	 5.23746084330485E-02 
1230	 5.02184898622326E-02 
1231	 5.00250151840829E-02 
1232	 5.09730311124623E-02 
1233	 0.050718610690171 
1234	 4.79818421435015E-02 
1235	 4.73728182261601E-02 
1236	 4.74070025251983E-02 
1237	 4.69137079935485E-02 
1238	 4.59916059379177E-02 
1239	 4.91156631548221E-02 
1240	 5.17177766076739E-02 
1241	 5.13924555796277E-02 
1242	 0.051911610038761 
1243	 5.20790692588234E-02 
1244	 5.01932061163735E-02 
1245	 4.77560081901534E-02 
1246	 4.91162942032577E-02 
1247	 5.09000619775536E-02 
1248	 4.98841343052455E-02 
1249	 5.09553474253164E-02 
1250	 5.08386964680316E-02 
1251	 4.76163187505908E-02 
1252	 4.80233197185958E-02 
1253	 5.12170598334338E-02 
1254	 5.12336694301631E-02 
1255	 5.02310495750409E-02 
1256	 5.02289715613188E-02 
1257	 4.80045470139485E-02 
1258	 4.71146051027963E-02 
1259	 4.94173081288462E-02 
1260	 4.97694214401633E-02 
1261	 4.72752871741644E-02 
1262	 4.69786372763049E-02 
1263	 0.04710743630096 
1264	 0.049551408113377 
1265	 4.97093186338918E-02 
1266	 4.93899157813669E-02 
1267	 4.82330387693074E-02 
1268	 4.52873377744594E-02 
1269	 4.50169057534579E-02 
1270	 4.74811892699698E-02 
1271	 5.06585140551414E-02 
1272	 0.049960016292839 
1273	 4.84210676551968E-02 
1274	 5.07170775451576E-02 
1275	 5.06359940100416E-02 
1276	 4.88230410196869E-02 
1277	 4.86155368521676E-02 
1278	 4.83698058039088E-02 
1279	 4.79471636051473E-02 
1280	 4.91629756092132E-02 
1281	 4.98185871443381E-02 
1282	 5.04815430750698E-02 
1283	 5.12166836435907E-02 
1284	 5.22781740029257E-02 
1285	 5.16256929323357E-02 
1286	 4.99974130326328E-02 
1287	 4.96006723171308E-02 
1288	 4.89514058489367E-02 
1289	 4.79132597271633E-02 
1290	 4.76242843331299E-02 
1291	 4.70381467048591E-02 
1292	 4.66252830984993E-02 
1293	 4.90916078109717E-02 
1294	 5.19305609270316E-02 
1295	 5.20808909174248E-02 
1296	 5.01392871022711E-02 
1297	 4.92158447361336E-02 
1298	 5.02714454982793E-02 
1299	 0.049998947918826 
1300	 4.99028708588438E-02 
1301	 4.72717889574678E-02 
1302	 4.46787867655938E-02 
1303	 4.54707097405391E-02 
1304	 4.78623171403949E-02 
1305	 5.38292391423031E-02 
1306	 5.63305533870601E-02 
1307	 5.88483310954868E-02 
1308	 6.03694068833971E-02 
1309	 5.93092314440003E-02 
1310	 0.056261747655137 
1311	 4.99096795261295E-02 
1312	 4.81247575396728E-02 
1313	 4.98391858255626E-02 
1314	 4.49849105754765E-02 
1315	 3.27401157927098E-02 
1316	 3.20446823841895E-02 
1317	 3.49015738024425E-02 
1318	 3.39100213100472E-02 
1319	 4.63912328903682E-02 
1320	 0.053489421529305 
1321	 5.75097892895022E-02 
1322	 0.044334705016384 
1323	 3.34009798091197E-02 
1324	 2.91924197838947E-02 
1325	 2.99287132850938E-02 
1326	 3.24850898585942E-02 
1327	 4.72380803198495E-02 
1328	 5.05933316835878E-02 
1329	 3.20963054508234E-02 
1330	 3.22566221467558E-02 
1331	 4.43680629801618E-02 
1332	 5.12847386124324E-02 
1333	 4.96894707874996E-02 
1334	 4.38184312446216E-02 
1335	 4.32677035527013E-02 
1336	 3.93460563298284E-02 
1337	 1.69943851759092E-02 
1338	-1.68549824244131E-02 
1339	-2.06654550576698E-02 
1340	-3.32149278373617E-02 
1341	-4.54596583322408E-02 
1342	-1.38237029585173E-02 
1343	-3.45517839426267E-03 
1344	-1.50188591464318E-02 
1345	-4.02573574393494E-02 
1346	-8.71740565274479E-02 
1347	-0.104287330260235 
1348	-0.194204343618161 
1349	-0.249042360509581 
1350	-7.13967155377556E-02 
1351	 0.010247143447169 
1352	-5.74174750300005E-02 
1353	-7.42388850159826E-02 
1354	-9.47791305634598E-02 
1355	-0.33992121188448 
1356	-1.75172270252572 
1357	 0.499496171572818 
1358	 3.49596265018915 
1359	-3.15160453144351 
1360	 0.564729477592496 
1361	 4.47429313455464E-03 
1362	 0.139196550343329 
1363	 0.600015334790523 
1364	 0.033045962646684 
1365	-0.201929639356477 
1366	-0.913026057698865 
1367	-17.9046713859103 
1368	 10.8933737447499 
1369	 0.394657484945907 
1370	 0.381556814335215 
1371	 1.71562837676432 
1372	 5.25257303321024 
1373	-7.50937410827127 
1374	-40.4294904715763 
1375	-0.435478702931227 
1376	-0.751205140122787 
1377	-2.06831199454147 
1378	-2.87534887214112 
1379	-2.06296368763823 
1380	-1.54235394023206 
1381	-0.623579426201129 
1382	 0.360664943175375 
1383	-0.72321071779033 
1384	-0.491816838668083 
1385	 0.068504845843318 
1386	 0.232415687025624 
1387	 3.70235190519927 
1388	 12.0231761458189 
1389	 0.270804474134669 
1390	 7.69882434874821E-03 
1391	 2.4007081723725 
1392	 2.6010462385404 
1393	-0.520900493304768 
1394	 3.00259938799172 
1395	 0.199464546670796 
1396	 0.399302741196763 
1397	 1.25574289318939 
1398	 0.250061768595524 
1399	-2.85717926922946 
1400	 0.272451233957499 
1401	-3.14858708544022E-02 
1402	-0.35768303696353 
1403	-0.617360108316896 
1404	-1.65273069972256 
1405	-2.56466178986186 
1406	 2.09316258894885 
1407	 1.02780242579904 
1408	-9.31754495683492E-02 
1409	-0.365105444864369 
1410	-2.06856406000326 
1411	-1.31440712393989 
1412	-0.519751093225072 
1413	-1.2464176376252 
1414	-0.820298266226073 
1415	-2.76154951154425 
1416	 0.646914068088368 
1417	 0.343776095905916 
1418	 0.525496049913042 
1419	 0.376763266426172 
1420	 1.00498333785743E-02 
1421	-9.29294636297615E-02 
1422	-0.341279992614813 
1423	-0.948737579884865 
1424	-0.179188730518515 
1425	-1.39566380964504E-02 
1426	-10.1378295462605 
1427	-2.31846763471124 
1428	-0.38722145267526 
1429	-8.87535743872087E-03 
1430	 2.04345325472991 
1431	 1.97093275775477 
1432	-1.33127257637303 
1433	-1.80031485029157 
1434	-0.514126620036256 
1435	-0.701893421609803 
1436	-2.17355939380942 
1437	 2.58840080245762 
1438	-0.321338431793753 
1439	-1.22693114785499 
1440	-15.0056055006729 
1441	 19.7648342398366 
1442	-0.774807449308594 
1443	-0.383659276174911 
1444	-2.67450489160697E-02 
1445	 5.14456534190001E-02 
1446	 0.270463982866175 
1447	 1.45092437410754 
1448	 2.62533244943361 
1449	 2.69060671323055 
1450	-0.760638990571017 
1451	-0.351099500707128 
1452	 5.11712595392604 
1453	 6.52771331980379E-03 
1454	-0.28040690887526 
1455	 30.0887675274709 
1456	-0.342668336359385 
1457	-1.03625732307385 
1458	-1.19764102539678 
1459	-1.17380083617332 
1460	-0.710637588842444 
1461	-0.111578242593596 
1462	-0.278707110737163 
1463	-3.07815121488182 
1464	-2.04310889033132 
1465	-2.5941896656596 
1466	-6.65503837179839 
1467	-0.548313374698717 
1468	-0.358742820974411 
1469	 2.63612712314998 
1470	 1.39358871961525 
1471	-9.66137191271679 
1472	-2.57476035380942 
1473	 45.8298252504217 
1474	-1.36487818161564 
1475	-0.511172751620447 
1476	-0.422226468611971 
1477	-0.297299532554649 
1478	-0.368186500657808 
1479	-1.60417434228082 
1480	 73.7340576101486 
1481	-43.4243697574625 
1482	 9.70423061520309 
1483	 7.03415820302185 
1484	-9.44550772620657 
1485	 0.244721320762047 
1486	-0.232656834624169 
1487	-0.541173930482235 
1488	-0.475603781653077 
1489	-1.63074859778144 
1490	-1.50968856492851 
1491	-0.326349333212763 
1492	 3.80051580148253E-02 
1493	 0.1499942801973 
1494	 7.62965579582335E-02 
1495	-9.25458945494696E-02 
1496	-8.30130269397259E-02 
1497	-7.18465252610105E-02 
1498	-0.160093491729342 
1499	-0.266034342915629 
1500	-0.209967240041886 
1501	-0.177328422268807 
1502	-0.170198459470757 
1503	 0.102758492436214 
1504	 0.140160777010818 
1505	-8.13721709138973E-02 
1506	-0.203202918379015 
1507	-0.111586003297638 
1508	-0.101975615751077 
1509	-5.57781786974896E-02 
1510	 3.99185408928828E-02 
1511	 2.74409290988773E-02 
1512	-3.45378368788865E-02 
1513	-5.32547147484213E-02 
1514	-0.115229066843016 
1515	-0.1474715542234 
1516	-0.10829500141168 
1517	-7.19357020639134E-02 
1518	 1.94498390262004E-02 
1519	 3.47399022364603E-02 
1520	-0.025313947735171 
1521	-6.70790189089429E-02 
1522	-8.07447010085975E-02 
1523	-3.83844530181388E-02 
1524	 2.85453110929268E-03 
1525	 2.77188733332639E-02 
1526	 6.01168706517261E-02 
1527	 8.66442562774032E-02 
1528	 7.25606681003588E-02 
1529	 2.85346054122356E-02 
1530	 1.91413139356348E-02 
1531	 2.87123134049179E-02 
1532	 3.07000333117224E-02 
1533	 6.45867295316706E-02 
1534	 7.66045849941031E-02 
1535	 0.033338230800167 
1536	 1.60186402129003E-02 
1537	 2.11054565530661E-02 
1538	 2.50175949271847E-02 
1539	 0.058673856758353 
1540	 8.86814013559886E-02 
1541	 7.64707301000095E-02 
1542	 3.69296029246342E-02 
1543	 1.77441340851594E-02 
1544	-1.48990508635544E-03 
1545	-3.10057386832559E-02 
1546	-3.47082094887972E-02 
1547	-3.19187643745029E-02 
1548	-3.67803337615678E-02 
1549	-0.035514775588338 
1550	-2.59806607796857E-02 
1551	-3.92260020812993E-02 
1552	-6.35605178999611E-02 
1553	-6.39816269244767E-02 
1554	-3.89541199219277E-02 
1555	-3.05573071686974E-05 
1556	 1.07176523387598E-02 
1557	 2.03225450219103E-02 
1558	 4.41748000550103E-02 
1559	 3.23363344597598E-02 
1560	 2.72469002357377E-02 
1561	 3.73626887864103E-02 
1562	 2.53998474023814E-02 
1563	 3.17761116886955E-02 
1564	 4.62048712398918E-02 
1565	 0.054305489820376 
1566	 5.52777795580688E-02 
1567	 4.62878569357197E-02 
1568	 6.11024866976757E-02 
1569	 5.89401401158855E-02 
1570	 3.24178901685487E-02 
1571	 3.05284508840851E-02 
1572	 2.35456677380028E-02 
1573	 2.29361838608025E-02 
1574	 4.75102871575606E-02 
1575	 0.037968747574991 
1576	 1.64281303775002E-02 
1577	 3.46660480613167E-02 
1578	 0.034789324935419 
1579	 1.22656125828759E-02 
1580	 0.018419719051505 
1581	 3.28288513153517E-02 
1582	 4.62626256848456E-02 
1583	 5.83228890492905E-02 
1584	 6.74096741947278E-02 
1585	 5.68190195295112E-02 
1586	 3.05490832366887E-02 
1587	 3.02094423739761E-02 
1588	 3.25944868180616E-02 
1589	 1.99793301843005E-02 
1590	 2.02085491171011E-02 
1591	 3.13685220685693E-02 
1592	 3.78470011893631E-02 
1593	 2.78310483142816E-02 
1594	 1.13631678584766E-02 
1595	 1.10018662788738E-02 
1596	 2.45315013004329E-02 
1597	 3.55418277984203E-02 
1598	 2.92987146263259E-02 
1599	 1.86540004830545E-02 
1600	 1.33569556111223E-02 
1601	-9.56792853129919E-04 
1602	-5.69146002128875E-03 
1603	 0.012728531332324 
1604	 0.015047207791195 
1605	 4.81872628913743E-03 
1606	 2.49994041740364E-02 
1607	 2.95639738330342E-02 
1608	 1.39993660324057E-02 
1609	 0.039989247941746 
1610	 0.060409726506896 
1611	 4.71468110113033E-02 
1612	 3.38541059583101E-02 
1613	 2.73208353009972E-02 
1614	 3.24720964894342E-02 
1615	 2.84757563510645E-02 
1616	 2.63604593169137E-02 
1617	 2.87488751757666E-02 
1618	 1.75851104410076E-02 
1619	 2.86159630519023E-02 
1620	 3.32448089921027E-02 
1621	 8.99730459923878E-03 
1622	 4.74788946861866E-03 
1623	 1.92798422351233E-02 
1624	 2.43850388120474E-02 
1625	 3.22972641530934E-02 
1626	 4.46229096110209E-02 
1627	 3.35910544079234E-02 
1628	 2.31981676778351E-02 
1629	 3.15159066415452E-02 
1630	 1.99405009479635E-02 
1631	 1.35151554436895E-02 
1632	 3.12588629897375E-02 
1633	 2.73846709007316E-02 
1634	 1.00520555369847E-02 
1635	 8.25914058921874E-03 
1636	 1.16239242416549E-02 
1637	 1.32674765875072E-02 
1638	 2.07168697585396E-02 
1639	 2.41142527511512E-02 
1640	 1.32573982903043E-02 
1641	 1.40555371878466E-02 
1642	 2.90776257611212E-02 
1643	 3.13858671508844E-02 
1644	 1.85380086245035E-02 
1645	 8.19784331060204E-03 
1646	 2.05623280603736E-02 
1647	 4.22717233303799E-02 
1648	 3.84112490759151E-02 
1649	 3.03627693294805E-02 
1650	 3.14948413513028E-02 
1651	 2.17819966415382E-02 
1652	 1.80885805727776E-02 
1653	 3.20587164882123E-02 
1654	 3.79269215172014E-02 
1655	 4.41631199004125E-02 
1656	 4.30494377455308E-02 
1657	 3.41098355160576E-02 
1658	 3.26955329615149E-02 
1659	 2.81781885083366E-02 
1660	 2.45364776238487E-02 
1661	 0.029742461910615 
1662	 3.08511013208174E-02 
1663	 2.35980909577636E-02 
1664	 2.86523833949144E-02 
1665	 4.40664501027903E-02 
1666	 4.26482249637163E-02 
1667	 3.73995985383949E-02 
1668	 3.15312216866936E-02 
1669	 2.84897063527865E-02 
1670	 0.036197434424819 
1671	 4.20016743542428E-02 
1672	 4.56576436461777E-02 
1673	 3.92038787862502E-02 
1674	 3.99659626156179E-02 
1675	 0.052852814480474 
1676	 0.059223409780603 
1677	 6.31086745312016E-02 
1678	 6.04215004177877E-02 
1679	 5.45177652247737E-02 
1680	 4.81913255203016E-02 
1681	 4.56102660980058E-02 
1682	 6.32919191361431E-02 
1683	 7.56699495798957E-02 
1684	 0.073022000840354 
1685	 7.77261582005515E-02 
1686	 7.76358576807421E-02 
1687	 0.060399407099087 
1688	 4.43840879797217E-02 
1689	 4.66893015873319E-02 
1690	 4.46138246692611E-02 
1691	 3.26985914517337E-02 
1692	 3.92001528790111E-02 
1693	 5.40885252406483E-02 
1694	 5.15214057688969E-02 
1695	 5.18428755629709E-02 
1696	 6.48447185769203E-02 
1697	 0.050326166914283 
1698	 3.33299909531813E-02 
1699	 4.44516975093979E-02 
1700	 3.96634023905044E-02 
1701	 3.04381527546472E-02 
1702	 4.27236717779233E-02 
1703	 4.49384446811174E-02 
1704	 3.61620811666171E-02 
1705	 3.76006193405265E-02 
1706	 3.63487616544266E-02 
1707	 2.83576163403009E-02 
1708	 0.027212505087466 
1709	 0.027563372055327 
1710	 2.80474112650069E-02 
1711	 3.11395951901896E-02 
1712	 1.35166357182143E-02 
1713	 4.40932240313427E-03 
1714	 8.48969915380814E-03 
1715	 1.58329437326509E-02 
1716	 0.028271762185801 
1717	 0.02901744126801 
1718	 1.64219737533266E-02 
1719	 1.15006340289019E-02 
1720	 2.50141635612725E-02 
1721	 3.25861301754844E-02 
1722	 1.69472273403106E-02 
1723	 1.02894809153021E-02 
1724	 2.33503796576156E-02 
1725	 8.2601183138783E-03 
1726	 2.99854941047806E-03 
1727	 4.28355555534336E-02 
1728	 6.35451001261411E-02 
1729	 6.96742969904778E-02 
1730	 7.15597486511402E-02 
1731	 4.42073879684719E-02 
1732	 2.61453469570648E-02 
1733	 3.61029246741078E-02 
1734	 6.32483046591051E-02 
1735	 0.087720517397984 
1736	 6.57214376123122E-02 
1737	 3.29935636827701E-02 
1738	 3.52106087605752E-02 
1739	 3.63229941820522E-02 
1740	 3.19549429362205E-02 
1741	 3.00145440817432E-02 
1742	 2.28071191917301E-02 
1743	 1.18350323490733E-02 
1744	 1.58332753238253E-02 
1745	 4.06174655232062E-02 
1746	 2.56365688924279E-02 
1747	 1.64659530863807E-02 
1748	 2.85143749231234E-02 
1749	 3.78319492173064E-02 
1750	 2.32972470729788E-02 
1751	 2.68478877674687E-02 
1752	 6.12848189025623E-02 
1753	 4.71234144553928E-02 
1754	 1.42856806460203E-02 
1755	 1.52734068273987E-02 
1756	-3.08760850808399E-02 
1757	-6.17234164564331E-03 
1758	 4.74875601761868E-02 
1759	 1.64116773572155E-02 
1760	 4.97981539930639E-02 
1761	 7.81778844120541E-02 
1762	 3.75597953289465E-02 
1763	 4.05305269795402E-02 
1764	 4.82000050281327E-02 
1765	 4.15147888370364E-02 
1766	 4.48404343250968E-02 
1767	 4.91725565001015E-02 
1768	 3.74204035090991E-02 
1769	-1.22993849423496E-04 
1770	-2.52996830028056E-02 
1771	-4.43347516578948E-03 
1772	 8.13291062039423E-03 
1773	-2.97415959508666E-02 
1774	-0.02316560926903 
1775	-0.112604733508632 
1776	-0.131961860813282 
1777	-7.06813809941622E-02 
1778	-8.74523478206318E-02 
1779	-0.161819718968996 
1780	-0.157005774039647 
1781	-0.147134561953643 
1782	-0.136087581313794 
1783	 2.46470004469461E-02 
1784	 1.44311794391049E-02 
1785	-0.253443288710427 
1786	-0.31726500680321 
1787	-0.412775478406782 
1788	-0.342387286137444 
1789	 2.06175366951526E-03 
1790	 7.09218552400696E-02 
1791	 0.14765795418353 
1792	 0.148401499510281 
1793	 6.60444650806298E-02 
1794	-3.35837733421589E-02 
1795	-0.284517982424483 
1796	-0.350045583903339 
1797	-7.93919242388379E-02 
1798	 0.648894375103848 
1799	 7.10498484702803 
1800	 0.281001550077224 
1801	-4.38640556468329E-02 
1802	-0.293393865675773 
1803	-0.486814202254061 
1804	-1.89760898160369 
1805	-3.89258670601661 
1806	-12.57586957514 
1807	-104.106465685618 
1808	 0.299752572666291 
1809	 1.43761034490128 
1810	-2.07708741606727 
1811	-1.07588509049899 
1812	 0.382520145045414 
1813	 0.813497069628022 
1814	-1.4956773352274 
1815	-0.90112679941522 
1816	 0.014614816096749 
1817	-0.120876559308942 
1818	-0.940148450951765 
1819	-2.10809742300177 
1820	 17.9005644905386 
1821	-4.51626510355057 
1822	-3.55115413536448 
1823	-1.17272817272668 
1824	-1.26981958602314 
1825	 0.337374903958222 
1826	-2.21721986397347E-02 
1827	 6.82392548143675E-02 
1828	-9.71298950571286E-03 
1829	 0.229948004500856 
1830	 0.288967091869488 
1831	-0.964836803770812 
1832	-3.31376971530145 
1833	 5.17174798731317 
1834	 4.81023174408985 
1835	 5.0101031488207 
1836	 42.7025150437353 
1837	-0.395833053754298 
1838	-7.50346146251073E-02 
1839	-0.916500150308445 
1840	 15.0941108768919 
1841	 1.26778159048502 
1842	 0.517019808623739 
1843	 0.17015430947667 
1844	-0.264120096052669 
1845	-7.68737385263817E-02 
1846	-0.186212430750933 
1847	-3.64476799635311E-02 
1848	 1.14790962636955 
1849	 10.5410372479886 
1850	 2.50370719259232 
1851	-17.6642282994527 
1852	 5.83355853940599 
1853	 1.47034559649839 
1854	 1.1551364892722 
1855	 1.34141782118309 
1856	 0.830589098602718 
1857	 0.187644401752545 
1858	-7.68780732430801E-02 
1859	-0.680903849177906 
1860	-0.938612001838461 
1861	-0.920069958538365 
1862	-0.61143884213387 
1863	-0.380043462462411 
1864	-0.341422307317679 
1865	-0.280898849532346 
1866	-0.535563700988296 
1867	-0.61984818789424 
1868	 0.254347075111764 
1869	-0.945983557931267 
1870	 0.403218830392571 
1871	 0.249671554195101 
1872	-8.75913188514628E-03 
1873	-0.418569407857103 
1874	 1.56974169232888 
1875	 1.21974311987516 
1876	 0.911629050298651 
1877	 0.16864767458552 
1878	-0.316058243326561 
1879	-0.764659065556552 
1880	-1.03389326610954 
1881	-1.71501927545536 
1882	-2.13479409751268 
1883	-2.56206372508159 
1884	 1.6349697473794 
1885	 0.43931698202171 
1886	 0.146662284349101 
1887	 0.352920379319574 
1888	 0.461018433838139 
1889	 0.338788083225182 
1890	 9.54189947397329E-02 
1891	 2.59186584328591E-02 
1892	-0.110840851312063 
1893	-1.51329597383878 
1894	-1.98380624968564 
1895	 0.897599058396262 
1896	 0.406481048310523 
1897	 2.65056319196109E-02 
1898	 7.05475205861606E-02 
1899	 0.38465569602552 
1900	 0.409214484325449 
1901	 0.223067710740668 
1902	-5.12253604242892E-02 
1903	-0.696011825317353 
1904	-1.04177261695983 
1905	-1.02749162602185 
1906	 2.333220632623 
1907	 0.536285052939169 
1908	 0.299850709371883 
1909	 0.149866944357421 
1910	 1.39497506790258E-02 
1911	-0.613001609634881 
1912	 0.946552699422841 
1913	 0.580220074121991 
1914	 0.563841920367354 
1915	 0.463557593007078 
1916	 0.217502501146019 
1917	 0.433055575956213 
1918	 4.00370622743941 
1919	 17.0997247055526 
1920	-5.48470456209847 
1921	 4.96787434103893 
1922	 0.393215272953806 
1923	-0.166448077062272 
1924	-0.416541832038652 
1925	-0.442226623175466 
1926	-0.464007110804296 
1927	-0.41224190161123 
1928	-0.588069096933724 
1929	-0.869596039514804 
1930	-2.91284590895091 
1931	-0.797260550287504 
1932	-1.23410258671532 
1933	-0.747771263794059 
1934	 0.181104471781818 
1935	 1.46399232610657 
1936	-0.537061467696906 
1937	-0.774883809241422 
1938	-0.15211240275436 
1939	-0.129538178767182 
1940	-0.582452658606017 
1941	-1.01337060553775 
1942	-1.01204449688713 
1943	-0.809877163251834 
1944	-0.477342929583223 
1945	-0.136783101341152 
1946	-0.569044650587744 
1947	-1.15822403310797 
1948	-1.14362246407538 
1949	-1.14446596852459 
1950	-1.7487152738877 
1951	-0.123778034577379 
1952	-1.08640073317304 
1953	-1.43123481395804 
1954	-1.48369934599009 
1955	-2.32572848181398 
1956	-3.14729408532029 
1957	-1.52923879349138 
1958	-1.08897740092438 
1959	 0.680123146231587 
1960	-0.386985561023742 
1961	-0.39451778309943 
1962	 0.233640277761615 
1963	 1.14287734476388 
1964	 3.24260294751378 
1965	 3.46257394457884 
1966	 4.46646978538799 
1967	 13.2686214102902 
1968	-0.518165742525418 
1969	 4.36064035710056E-02 
1970	-1.04192891112446 
1971	 1.78528813666224 
1972	 1.14177676890116 
1973	 1.3249723124664 
1974	 1.49376260086793 
1975	 4.68405780166465 
1976	 1.90156664299531 
1977	 6.37238214015412 
1978	 4.90708350528155 
1979	 3.29718310272576 
1980	 2.00178419311905 
1981	 15.9402177396013 
1982	 1.02738249971201 
1983	-8.40218224275677E-02 
1984	 0.720559514622827 
1985	 0.448099691934268 
1986	 0.312899854866933 
1987	 0.501183298681034 
1988	 0.101317679573911 
1989	-0.189372659344718 
1990	-1.45528565192323E-02 
1991	 0.163340035902442 
1992	 0.282252284423151 
1993	 0.525669925347683 
1994	 0.818194079265053 
1995	 1.79445985785054 
1996	 3.88856515632152 
1997	-202.033073084828 
1998	-5.02504478796607 
1999	-4.07733514515886 
2000	-3.61287501584758 
2001	-1.91313440408485 
2002	-1.97458722162348 
2003	-1.79531758631888 
2004	-1.1065417983756 
2005	-9.98477308828235 
2006	-21.830662769331 
2007	-4.119599304792 
2008	-11.1434710652653 
2009	-0.919794123250505 
2010	-1.78755398009557 
2011	-2.70585811557648 
2012	-2.4223915858513 
2013	 2.89415984881401 
2014	 1.21995409350553 
2015	 1.34802032398054 
2016	 0.867700358130679 
2017	 0.856293336642133 
2018	 0.839859759999837 
2019	 0.38223418359418 
2020	 1.27490209835621 
2021	-1.72078222677776 
2022	 2.08351808835909 
2023	 0.393006535060848 
2024	 0.487979366454553 
2025	 0.482317244265304 
2026	 0.61889749950329 
2027	 2.71466126779358 
2028	-1.62333206024053 
2029	-0.548456061249879 
2030	-0.83750730264341 
2031	-109.700306320647 
2032	 1.20762032187135 
2033	 0.747250382920604 
2034	 0.657092213387153 
2035	 0.514916419643757 
2036	 1.06985110158994 
2037	 3.11253937816504E-02 
2038	 0.972183906840075 
2039	 0.749203310298148 
2040	 0.173764494535892 
2041	-6.82815400525901E-02 
2042	-0.681113125205722 
2043	-0.571987492186628 
2044	-0.231909621563614 
2045	-0.185386119065323 
2046	-2.43678486268774E-02 
2047	 0.505593813552723 
2048	 1.21815595229952 
2049	-2.31142745012948 
2050	-2.58470176231905 
2051	 9.02375206779403 
2052	 1.76588264877999 
2053	 0.953281857640111 
2054	 1.12466652074761 
2055	 1.91370044426316 
2056	 2.01734125997907 
2057	 2.35947186402733 
2058	 1.22485658503461 
2059	-0.323171185681633 
2060	-0.763102976950011 
2061	-0.747684770267384 
2062	-0.154154122026638 
2063	 0.119296950210275 
2064	-0.572084706707839 
2065	-0.695376897449513 
2066	-0.504221182212295 
2067	-0.690460972296701 
2068	-0.628119931356113 
2069	-0.233501847776122 
2070	-0.287250603961637 
2071	-0.459915181519079 
2072	-0.132288885882173 
2073	-1.32221299381126E-02 
2074	 2.98531161892411E-02 
2075	-7.66357727727008E-02 
2076	-0.347787102569254 
2077	-0.248464390738434 
2078	-7.36470924628086E-02 
2079	 1.62357157089009E-02 
2080	 0.508194906907727 
2081	 1.24668063041318 
2082	 2.60255653670645 
2083	 16.255588205529 
2084	-2.76279985586025E-02 
2085	-8.96065114315049E-02 
2086	-4.40625605068087E-03 
2087	-0.180155938609474 
2088	-1.09311130038194 
2089	 18.7396010191234 
2090	 1.45337833019796 
2091	 0.942857433333757 
2092	 0.463819336807026 
2093	 5.05690863222459 
2094	 1.94350084156115 
2095	 0.512945788809452 
2096	 0.430262906638024 
2097	 0.596729701724565 
2098	 0.384178113627331 
2099	-0.157086232074509 
2100	-3.4782949487642 
2101	-2.34338958645475 
2102	-1.04308454810401 
2103	-0.207856974608987 
2104	 0.180953895140938 
2105	 0.399173534178491 
2106	 0.401185332560509 
2107	 0.270496792065636 
2108	 0.338443567459682 
2109	 0.636916834521141 
2110	 1.09654897490554 
2111	 1.89324776195239 
2112	 2.94108814106002 
2113	 2.36254097203818 
2114	 0.608725585109777 
2115	 0.308859653345721 
2116	 0.244341353439777 
2117	 0.143532179142671 
2118	 8.72735524835278E-02 
2119	 8.94837069680261E-02 
2120	 8.73400180043043E-02 
2121	 4.48256928450388E-02 
2122	 0.238470318689124 
2123	 0.257916796227878 
2124	 0.274258062156463 
2125	 0.291861038820583 
2126	 0.168450653096128 
2127	 7.68309360953486E-02 
2128	-6.06603485146756E-02 
2129	-8.27244460523445E-02 
2130	 6.98967495659558E-02 
2131	 0.296133087239087 
2132	 0.325493839217537 
2133	 0.274518502950471 
2134	 0.285264508331767 
2135	 0.163472213181962 
2136	 8.69367303093079E-02 
2137	 0.129382588728527 
2138	 8.36700153969475E-02 
2139	-0.111055693900996 
2140	-0.183798890956091 
2141	-0.282789729298639 
2142	-0.210191161024705 
2143	 0.122004360896878 
2144	 0.227012892942987 
2145	 0.310849065739169 
2146	 0.509207237957375 
2147	 0.297810059246123 
2148	 0.234864956548602 
2149	 0.307110475530795 
2150	 0.23452441350581 
2151	 0.213379042681985 
2152	 0.175493742636293 
2153	 0.14851049027413 
2154	 9.00210425998249E-02 
2155	 8.94517197565512E-02 
2156	 0.186564931381958 
2157	 0.179654636115623 
2158	 0.123679598983462 
2159	 0.108503678979071 
2160	 6.43056466961471E-02 
2161	 2.74693045146455E-02 
2162	-5.58664651683231E-03 
2163	-3.45955499225643E-02 
2164	-9.02489919926366E-02 
2165	-6.60930096213927E-02 
2166	-1.21723509611143E-02 
2167	 5.28188249773502E-02 
2168	 0.171275057958643 
2169	 0.26921136160725 
2170	 0.467260065229259 
2171	 0.574137271186665 
2172	 0.492667167880538 
2173	 0.461683117833196 
2174	 0.161388759354216 
2175	-3.26375510328604E-02 
2176	-0.14642612656279 
2177	-0.299287188767798 
2178	-0.277352143548274 
2179	-0.192648615048586 
2180	-0.141575808309908 
2181	 0.10031073594794 
2182	 0.305914605109691 
2183	 0.232221499568285 
2184	 0.158775999038818 
2185	 0.11143722396301 
2186	 0.107223228302357 
2187	 0.145710715712394 
2188	 0.113508569945014 
2189	 7.32475856170302E-02 
2190	 2.61361695575939E-02 
2191	-0.137081936511302 
2192	-0.135446361078465 
2193	 5.11877053993916E-03 
2194	 4.35135691565344E-02 
2195	 7.51753897663934E-02 
2196	 0.115217006535133 
2197	 0.157193719954001 
2198	 0.146796540667036 
2199	 0.167394767868832 
2200	 9.24550947350147E-02 
2201	-0.105449226533933 
2202	-4.81309973754081E-02 
2203	 5.97340802121322E-03 
2204	-0.131439870597203 
2205	-0.219237872880497 
2206	-0.433098889915125 
2207	-0.382276078583958 
2208	-0.26420647871209 
2209	-0.334166960901031 
2210	-0.345742349714823 
2211	-0.464670079125912 
2212	-0.547440931224622 
2213	-0.320930281004166 
2214	-0.151447833093363 
2215	 1.34398321138281E-02 
2216	 7.19552216089306E-02 
2217	 9.96863956464737E-02 
2218	 5.31253528927369E-02 
2219	 3.20813511570342E-02 
2220	-2.29264046294754E-02 
2221	-4.10853854965792E-03 
2222	 0.100948819692752 
2223	 0.122940184239881 
2224	 0.149515688978706 
2225	 0.114656551951522 
2226	-8.13073375826679E-02 
2227	-0.182228126151434 
2228	-0.30122218601357 
2229	-0.33963105935076 
2230	-0.285572650548971 
2231	-0.2305268371264 
2232	-5.75611842750512E-02 
2233	 7.03980526884822E-02 
2234	 0.199902549499845 
2235	 0.39987203313186 
2236	 0.413097769056335 
2237	 0.241321955840472 
2238	 0.251040347185396 
2239	 0.238354760008659 
2240	 0.118435552866437 
2241	 0.289355648260669 
2242	 0.320823265152141 
2243	 0.288349680519567 
2244	 0.365028293150382 
2245	 0.213640811428068 
2246	 0.21504197844012 
2247	 0.265373073811515 
2248	 0.318594013836878 
2249	 0.353741785882993 
2250	 0.136977857044532 
2251	 2.42606934575466E-02 
2252	-7.30787105434095E-02 
2253	-9.91086721534521E-02 
2254	 7.57898318792858E-02 
2255	-5.85474101821532E-02 
2256	-0.306295293335547 
2257	-0.336198908860841 
2258	-0.33184734426992 
2259	-0.239160766161673 
2260	-0.172812568637816 
2261	-5.78356168299259E-02 
2262	-0.039137505180014 
2263	-4.08017847450926E-02 
2264	-0.118697315186943 
2265	-0.349100402750062 
2266	-0.378905859089209 
2267	-0.522926711661527 
2268	-0.447821677085937 
2269	 0.190819041139684 
2270	 0.223243029302824 
2271	 4.29637992810897E-02 
2272	 4.83447870070128E-03 
2273	-0.173358958280691 
2274	-0.204790475538279 
2275	-4.77225896954416E-02 
2276	-8.52338738970052E-02 
2277	-0.269873680809596 
2278	-0.188531958293889 
2279	-5.65682742142753E-02 
2280	 2.20115697223696E-02 
2281	 0.203281981934003 
2282	 0.52983481745365 
2283	 0.412801471106649 
2284	 0.166351004513406 
2285	-1.01441104653195E-02 
2286	-0.826028121345379 
2287	 1.99349391276217 
2288	-255.152144339539 
2289	-0.940542065340688 
2290	-1.28818496756397 
2291	-1.0552268759302 
2292	-2.35291406730863 
2293	-8.9224351871766 
2294	-17.2150106975565 
2295	-16.7833605667703 
2296	-0.523596221067841 
2297	 0.029922839657965 
2298	-0.365410041551663 
2299	-0.172189751154172 
2300	-0.050031688330388 
2301	-0.11834242258666 
2302	 0.443201195626254 
2303	 1.67930483085881 
2304	 1.77802874804122 
2305	 1.25409897633573 
2306	 0.904625436437026 
2307	 0.356096335611749 
2308	 0.114721714953994 
2309	 0.161690352745305 
2310	 9.00493869683424E-02 
2311	 0.156663285864764 
2312	 9.37831686593211E-02 
2313	-0.233964601917504 
2314	-0.14855347235521 
2315	 7.60694941630491E-02 
2316	 0.144820037393998 
2317	 5.73346641500957E-02 
2318	 0.166328195269623 
2319	 4.63700309430713E-02 
2320	-0.325405006928707 
2321	-0.220066592876852 
2322	 0.429674781350105 
2323	 1.45403000663009 
2324	 1.04132076464084 
2325	 1.06619992292681 
2326	 1.18235149490718 
2327	 1.06399492886751 
2328	 0.914744129539692 
2329	 0.443650606750938 
2330	 0.408311733664076 
2331	 0.144471093954854 
2332	-0.382946710345932 
2333	-1.2270173769892 
2334	-3.77737884981427 
2335	-2.78552685817416 
2336	-2.61621120195045 
2337	-2.9286439813984 
2338	-1.5641897911678 
2339	-1.91655331419636 
2340	-1.28082585881369 
2341	-0.227167580185256 
2342	-0.439009548643332 
2343	-0.397935405112191 
2344	-0.714191141963505 
2345	-1.05185251387641 
2346	-1.17851633500667 
2347	-1.4813372417355 
2348	-3.69808200368193 
2349	-3.0917255591759 
2350	-2.09425447449793 
2351	-3.21787985532724 
2352	 2.98003811046528 
2353	 1.52907864124394 
2354	 1.02252169603726 
2355	 1.61613759015636 
2356	 3.25372754608353 
2357	-49.3763328957428 
2358	-2.62920779211631 
2359	-1.42064215157731 
2360	 0.422918757737314 
2361	-3.95231035806745 
2362	-0.545191814641849 
2363	-0.544283305177983 
2364	-0.307699778262554 
2365	-0.165009640524446 
2366	-0.237533083720636 
2367	-17.9477745643706 
2368	-0.689459025973676 
2369	 8.06060613354428E-02 
2370	-4.81665960660015E-04 
2371	-4.76536723211833E-03 
2372	-0.194241212383682 
2373	-1.51218611519088 
2374	-2.20397930037326 
2375	-3.44357023290609 
2376	-5.95031075171219 
2377	-4.03665470688885 
2378	 1.5142649360436 
2379	 0.614108468761226 
2380	 0.381659660548508 
2381	 0.121804587381694 
2382	-1.1173174831465 
2383	-0.785451437470145 
2384	-1.95816954147973 
2385	-2.84683283507534 
2386	-7.09858881489143 
2387	-1.72938801787706 
2388	-2.05522353447048 
2389	 0.75305572047017 
2390	 0.788433375979859 
2391	 0.654875909031732 
2392	 1.45565649295338 
2393	-2.38295530714112 
2394	-1.93705133120024 
2395	-8.50254954322239 
2396	 4.71702731386371 
2397	 1.83961853004187 
2398	 2.93184621414146 
2399	 4.33897825018643 
2400	 6.27747015107785 
2401	-1.02519867035913 
2402	-0.755653047096966 
2403	 0.86951508672503 
2404	-1.43234742275273E-02 
2405	 0.249246690304299 
2406	 0.382240501473685 
2407	 0.968355131788126 
2408	-2.32620352911416 
2409	 0.952618349948786 
2410	 0.470292575877123 
2411	 0.474701550281294 
2412	 0.469431912433684 
2413	 0.258096901180101 
2414	 0.106037228371617 
2415	 0.24596289153566 
2416	 0.441721785573175 
2417	 0.706779026515905 
2418	 0.949509544243494 
2419	-0.25175353500557 
2420	-4.6584560306026 
2421	 2.60329754933731 
2422	 0.890467462854205 
2423	 0.37317669949537 
2424	-0.304679556186005 
2425	-0.385628075291438 
2426	-1.47022799133722 
2427	 3.24978076761012 
2428	 0.954010999701804 
2429	 0.296358756268242 
2430	 0.407647550649939 
2431	 0.54656188423038 
2432	 0.560190525109833 
2433	 1.73885146300698 
2434	 1.51782556287588 
2435	 1.08004449897126 
2436	-235.0195169071 
2437	-3.3608232073073 
2438	-1.15929543680186 
2439	-1.04674968988704 
2440	-1.20663161880046 
2441	-0.717437339468679 
2442	 3.60653078771934 
2443	-0.468708379468764 
2444	 2.28265057034865 
2445	-0.545729986326053 
2446	-0.511627894607806 
2447	-0.838506222242442 
2448	-1.02459401990607 
2449	-0.662208567264686 
2450	 0.160384793219312 
2451	-0.147028671762474 
2452	 1.82150615744058 
2453	 0.917537800023087 
2454	 1.32435299689177 
2455	 1.00393081033009 
2456	 7.21816964655304 
2457	-0.599998151128964 
2458	 0.134172008218819 
2459	 0.203622485603647 
2460	-0.13142858951205 
2461	-0.919094417724943 
2462	-68.0639657460647 
2463	-39.668573968725 
2464	-20.9619283168509 
2465	 293.992581840987 
2466	 16.1399112496713 
2467	 11.6176863797505 
2468	 2.19849402822979 
2469	 0.546261288460215 
2470	 0.775826575805626 
2471	 0.552858354721846 
2472	 1.35911544918134 
2473	-2.43601235615102 
2474	-0.33493818798073 
2475	 0.14821249442074 
2476	 0.60757963249801 
2477	 1.65707551703715 
2478	 1.31381375396628 
2479	 1.1102621344375 
2480	 1.38882392202817 
2481	 0.347543998578307 
2482	-0.637436109680614 
2483	-0.442488306670305 
2484	-0.530183822581203 
2485	-0.42023054239994 
2486	-0.588876005420106 
2487	-0.973354428368532 
2488	-1.1362710767837 
2489	 7.08637953636854 
2490	 1.26970389883963 
2491	 0.51996917772939 
2492	 0.735670046218735 
2493	 0.676982739939972 
2494	 0.257797103296997 
2495	 6.64565316444268 
2496	-1.31843365955251 
2497	-2.98982053663988 
2498	-1.18183258344111 
2499	-2.1374016556559 
2500	-9.03575634418795 
