Wavelength	rt0712west_close00009.asd
350	 7.30374618791212E-02 
351	 0.072844283865164 
352	 7.27257634359568E-02 
353	 7.25926655428485E-02 
354	 7.26262612360426E-02 
355	 7.41506030542812E-02 
356	 7.46443187271443E-02 
357	 7.35804212158384E-02 
358	 7.18049200520908E-02 
359	 7.27170140945096E-02 
360	 0.072631995065519 
361	 7.23584006890516E-02 
362	 7.51612679672886E-02 
363	 0.074614493987006 
364	 0.073534311782532 
365	 7.37692986961578E-02 
366	 7.39163140363022E-02 
367	 7.45587949841807E-02 
368	 7.46173057444169E-02 
369	 7.37259784444133E-02 
370	 7.56972850372533E-02 
371	 7.54674268395744E-02 
372	 7.39384977139521E-02 
373	 7.50197593404486E-02 
374	 7.47312450533135E-02 
375	 7.47638694375065E-02 
376	 7.57267206449488E-02 
377	 7.59855015144081E-02 
378	 7.62594916140351E-02 
379	 7.64078583398427E-02 
380	 7.62108106810725E-02 
381	 7.56775512944404E-02 
382	 7.57795839752093E-02 
383	 7.63677711837287E-02 
384	 7.68567956318805E-02 
385	 7.81861055866436E-02 
386	 7.85397838923211E-02 
387	 7.78849974764059E-02 
388	 7.82913607887144E-02 
389	 7.77001438721372E-02 
390	 7.81424109966707E-02 
391	 8.02139752368346E-02 
392	 7.91422004812475E-02 
393	 7.91000549632237E-02 
394	 7.94419379491745E-02 
395	 7.85137642118216E-02 
396	 7.96982922121331E-02 
397	 0.080159899689219 
398	 7.96780634753031E-02 
399	 8.04208445830381E-02 
400	 8.04017515981619E-02 
401	 8.01838766989922E-02 
402	 0.0804128170534 
403	 8.11779397324994E-02 
404	 8.08547890136137E-02 
405	 8.04872754572104E-02 
406	 8.15770405972722E-02 
407	 8.19978433412226E-02 
408	 8.18226911999186E-02 
409	 8.16066183148077E-02 
410	 8.21421811929253E-02 
411	 8.21554910870713E-02 
412	 8.23812352528053E-02 
413	 8.32500265515211E-02 
414	 0.083663909373957 
415	 8.34770399377722E-02 
416	 8.33701691151225E-02 
417	 8.40803966031374E-02 
418	 8.43009174807091E-02 
419	 8.44282415361902E-02 
420	 8.47010048297512E-02 
421	 8.50478919072201E-02 
422	 8.52536311105524E-02 
423	 8.55089102699511E-02 
424	 8.59870087134678E-02 
425	 8.66405922946785E-02 
426	 8.67434823195329E-02 
427	 8.68007628965484E-02 
428	 8.76866906902115E-02 
429	 8.81383050822839E-02 
430	 8.85946965885235E-02 
431	 0.089154602393444 
432	 8.93436080245909E-02 
433	 0.089466668725914 
434	 0.090020113258937 
435	 0.090979026139786 
436	 9.05823960497106E-02 
437	 9.09389302624671E-02 
438	 9.19739614361978E-02 
439	 9.24499159887337E-02 
440	 9.26149362882949E-02 
441	 9.30754154399627E-02 
442	 9.38180269701659E-02 
443	 9.38504668103007E-02 
444	 9.41250384958141E-02 
445	 0.094658079877278 
446	 9.52013614812632E-02 
447	 0.095595390253963 
448	 9.57247217332741E-02 
449	 9.58616402152933E-02 
450	 9.64697811513736E-02 
451	 9.66395955926969E-02 
452	 9.68227796623543E-02 
453	 0.097262838934481 
454	 9.73368003781121E-02 
455	 9.77515286997129E-02 
456	 9.81755667120987E-02 
457	 9.81335707952023E-02 
458	 9.85413371964799E-02 
459	 9.87144398236434E-02 
460	 9.86390097963192E-02 
461	 9.90196469639879E-02 
462	 9.93526133719348E-02 
463	 9.94846909704962E-02 
464	 9.94779392594775E-02 
465	 9.97857474468386E-02 
466	 0.100088236547729 
467	 0.100263096535709 
468	 0.100327866834947 
469	 0.100546875154945 
470	 0.10078619417716 
471	 0.100965709466552 
472	 0.101131089462397 
473	 0.101063457574489 
474	 0.101245389392771 
475	 0.10195214465045 
476	 0.102058966515484 
477	 0.10231367621685 
478	 0.102781928030164 
479	 0.103072157908301 
480	 0.103376370939146 
481	 0.103565943659402 
482	 0.103684687667784 
483	 0.104213679143589 
484	 0.10469693010527 
485	 0.104988656167511 
486	 0.105155500002321 
487	 0.105695160509138 
488	 0.106209543631388 
489	 0.106526354793059 
490	 0.106756424787697 
491	 0.107290629799441 
492	 0.107899080452177 
493	 0.108376679743824 
494	 0.108977697040872 
495	 0.109351930041889 
496	 0.109735626488132 
497	 0.110525470663099 
498	 0.110709191096291 
499	 0.111026230535729 
500	 0.111707261614213 
501	 0.111883754185308 
502	 0.112529908188138 
503	 0.113343785375336 
504	 0.113806913788862 
505	 0.114109010319579 
506	 0.114790598784159 
507	 0.115681595721955 
508	 0.11611392919356 
509	 0.116698303896617 
510	 0.117501393553608 
511	 0.118391433456552 
512	 0.118979786822076 
513	 0.119731398320192 
514	 0.120449246824185 
515	 0.120795631786246 
516	 0.12162115711165 
517	 0.122482823626084 
518	 0.123203675099467 
519	 0.124081619500602 
520	 0.124701838210934 
521	 0.125289094058646 
522	 0.126097040476492 
523	 0.126941116640595 
524	 0.127799876100447 
525	 0.128641165939633 
526	 0.129439183544636 
527	 0.130250646723956 
528	 0.131121636594208 
529	 0.132052843484991 
530	 0.132969415129154 
531	 0.133864217787064 
532	 0.13482974588443 
533	 0.135920830469957 
534	 0.136757253000429 
535	 0.137577250912576 
536	 0.138528196464883 
537	 0.139599300465291 
538	 0.140381769996516 
539	 0.14117660076306 
540	 0.142229725671817 
541	 0.142963451785558 
542	 0.143798233716944 
543	 0.144787395711151 
544	 0.145761548935392 
545	 0.146779301684756 
546	 0.148011583998495 
547	 0.149383617578588 
548	 0.150336722614008 
549	 0.151245895020006 
550	 0.152278489508612 
551	 0.153475963184085 
552	 0.154599537373399 
553	 0.155560739614969 
554	 0.156402131089517 
555	 0.157291188001327 
556	 0.158194241649667 
557	 0.159245892833742 
558	 0.160433468977218 
559	 0.161206270950518 
560	 0.161890593960194 
561	 0.162685857132033 
562	 0.163661063756455 
563	 0.164373137834319 
564	 0.16504738497857 
565	 0.165776675199379 
566	 0.166189194768114 
567	 0.166740251205439 
568	 0.167288363777375 
569	 0.167595955991813 
570	 0.168289406065946 
571	 0.169081394396865 
572	 0.169754786361927 
573	 0.170230676198837 
574	 0.170623031545917 
575	 0.171059337298531 
576	 0.171629282342999 
577	 0.172342550646354 
578	 0.172822704801794 
579	 0.173207509102255 
580	 0.173865525511747 
581	 0.174074794943137 
582	 0.17431309458567 
583	 0.174725992723389 
584	 0.174592028362837 
585	 0.174221116886415 
586	 0.173447344356882 
587	 0.17205301907912 
588	 0.170732315597218 
589	 0.170271863578451 
590	 0.170632931050785 
591	 0.170831977599631 
592	 0.17118978911755 
593	 0.171201508443528 
594	 0.170640783789215 
595	 0.170510115800443 
596	 0.170397027680618 
597	 0.170171413338266 
598	 0.169883632775869 
599	 0.169776685146721 
600	 0.169804621536186 
601	 0.16985342801366 
602	 0.1697686368105 
603	 0.169430163991286 
604	 0.169266120233639 
605	 0.169642352137027 
606	 0.169685618783096 
607	 0.169568452975057 
608	 0.169458524210943 
609	 0.169469281368661 
610	 0.169726402130421 
611	 0.169912472382517 
612	 0.169817885665493 
613	 0.16981910001609 
614	 0.169877478515046 
615	 0.16982360459244 
616	 0.16951406019148 
617	 0.169807168788672 
618	 0.169924898558234 
619	 0.16961915296566 
620	 0.169791689654485 
621	 0.169679459509364 
622	 0.169488690799879 
623	 0.169550030852504 
624	 0.169202951820434 
625	 0.168833232916005 
626	 0.168484680821905 
627	 0.1678777739991 
628	 0.167941997235168 
629	 0.168195350040709 
630	 0.168245706635042 
631	 0.168752024610344 
632	 0.168879863334449 
633	 0.168677785291562 
634	 0.168629832679089 
635	 0.169002401822045 
636	 0.169212398937851 
637	 0.169095408935774 
638	 0.169184728599543 
639	 0.16929152735527 
640	 0.169300180174499 
641	 0.169145865672876 
642	 0.168930303458109 
643	 0.168531421158111 
644	 0.167900995782963 
645	 0.167064708806778 
646	 0.166206285228947 
647	 0.165786762680599 
648	 0.166032167662506 
649	 0.166593870579431 
650	 0.166713799673681 
651	 0.16656328294568 
652	 0.16657807206577 
653	 0.166266222446196 
654	 0.165674634163012 
655	 0.164969450249249 
656	 0.164529574572298 
657	 0.164609731982769 
658	 0.164577531167294 
659	 0.16408824081499 
660	 0.164046224415561 
661	 0.163889538516284 
662	 0.163528815376888 
663	 0.163201520706565 
664	 0.163352016035903 
665	 0.163297119864914 
666	 0.162835893161734 
667	 0.162886247508499 
668	 0.162637305185836 
669	 0.162498744961933 
670	 0.162927208090178 
671	 0.162546055182553 
672	 0.162413968922087 
673	 0.162699105306044 
674	 0.16266540600177 
675	 0.162647015838296 
676	 0.162819490908069 
677	 0.163145506210683 
678	 0.163101670921021 
679	 0.163202240758558 
680	 0.16312938060001 
681	 0.162477567807427 
682	 0.163094791848414 
683	 0.163320041872946 
684	 0.16262028031737 
685	 0.162319313691842 
686	 0.161741678337533 
687	 0.161044696213687 
688	 0.160771239286907 
689	 0.161534996143225 
690	 0.161153787120847 
691	 0.159677184947361 
692	 0.158541965866334 
693	 0.157745353241296 
694	 0.157862004549624 
695	 0.158625804623583 
696	 0.158982131619764 
697	 0.157900941013138 
698	 0.156044046060605 
699	 0.154776133028856 
700	 0.154062711760324 
701	 0.153772023190478 
702	 0.153508218587862 
703	 0.152786799368792 
704	 0.151776053900515 
705	 0.150514702085082 
706	 0.149229498757387 
707	 0.148412842494321 
708	 0.147218419622278 
709	 0.145814070314384 
710	 0.144621425195368 
711	 0.143018787053423 
712	 0.141176763651087 
713	 0.139161491461893 
714	 0.13681080498589 
715	 0.133053728509829 
716	 0.127872890679721 
717	 0.123186390498844 
718	 0.121554884736832 
719	 0.119705058913929 
720	 0.118405594896647 
721	 0.118462275600183 
722	 0.116257511473144 
723	 0.112282709049595 
724	 0.108482196575904 
725	 0.106906655345306 
726	 0.105011979163652 
727	 0.102532552526382 
728	 0.099772903489414 
729	 0.097161795655877 
730	 9.38735823654548E-02 
731	 9.10715536666048E-02 
732	 8.95644586643603E-02 
733	 8.84687643000429E-02 
734	 0.086770824386893 
735	 8.45772541074885E-02 
736	 8.35060811312342E-02 
737	 8.27121555919095E-02 
738	 8.20540020171527E-02 
739	 8.16449451973527E-02 
740	 8.19329374762942E-02 
741	 8.16232424101812E-02 
742	 8.12663586904443E-02 
743	 8.19812082758164E-02 
744	 8.19449944792804E-02 
745	 8.15367222931529E-02 
746	 8.12509769963527E-02 
747	 8.14406938303859E-02 
748	 8.13662038018351E-02 
749	 8.11974518963171E-02 
750	 8.11984047051118E-02 
751	 8.11222071523099E-02 
752	 8.11037500079985E-02 
753	 8.10929058917202E-02 
754	 8.09693172220066E-02 
755	 8.09229622147749E-02 
756	 8.08885915360678E-02 
757	 8.07714576614751E-02 
758	 8.03550612807419E-02 
759	 0.079187469491761 
760	 7.70110316429747E-02 
761	 7.61148224468328E-02 
762	 7.59794535177826E-02 
763	 7.70997258266119E-02 
764	 7.85782727270174E-02 
765	 0.079642571150635 
766	 8.04437536016895E-02 
767	 0.080773487597543 
768	 8.10571688476732E-02 
769	 8.22085871614588E-02 
770	 8.24852962459347E-02 
771	 0.082511193382159 
772	 8.29113247892684E-02 
773	 8.29948580090471E-02 
774	 0.083482463519459 
775	 8.40088532760087E-02 
776	 8.39772558381092E-02 
777	 8.44503421050725E-02 
778	 8.47265040804998E-02 
779	 0.08481884439015 
780	 0.085503272521007 
781	 8.55119752881503E-02 
782	 8.57700565116651E-02 
783	 8.67245330878986E-02 
784	 8.67338845540321E-02 
785	 8.71304451852332E-02 
786	 8.78042521139489E-02 
787	 8.81145979898729E-02 
788	 8.77850766724723E-02 
789	 8.82215053497695E-02 
790	 8.92438884001214E-02 
791	 8.94863862350313E-02 
792	 9.07633682068017E-02 
793	 9.14245818580056E-02 
794	 9.09190660182409E-02 
795	 9.10714878659646E-02 
796	 9.17311732174136E-02 
797	 0.092452773803314 
798	 9.28905474349147E-02 
799	 9.33618709802704E-02 
800	 9.35646101125253E-02 
801	 9.39306439345079E-02 
802	 9.50464784084234E-02 
803	 9.53706778565919E-02 
804	 9.55058331902467E-02 
805	 9.57658434257431E-02 
806	 9.59525410163916E-02 
807	 9.58109486953646E-02 
808	 9.48581867375344E-02 
809	 9.32926207178867E-02 
810	 9.35231801567967E-02 
811	 9.33421636360946E-02 
812	 9.20098883781445E-02 
813	 8.98547771327804E-02 
814	 0.089678417757409 
815	 8.86689975930464E-02 
816	 8.70261651005849E-02 
817	 8.75333652413867E-02 
818	 8.71687462665785E-02 
819	 8.72954187132894E-02 
820	 8.76552694778064E-02 
821	 0.085714385295232 
822	 8.31274515100992E-02 
823	 8.11962327838777E-02 
824	 8.02351440845434E-02 
825	 7.89348084146199E-02 
826	 7.62489276027416E-02 
827	 0.073822390408793 
828	 7.36096422672203E-02 
829	 7.00690679367327E-02 
830	 6.77296779232694E-02 
831	 6.69621894932358E-02 
832	 6.53487987390042E-02 
833	 6.51325599862436E-02 
834	 0.064863475009751 
835	 0.063903710297817 
836	 6.29963666739273E-02 
837	 6.26847117803002E-02 
838	 6.29992508221569E-02 
839	 6.33616296073793E-02 
840	 6.19600951453053E-02 
841	 6.14512962262392E-02 
842	 0.061811374105842 
843	 6.19470486195906E-02 
844	 6.07163267104423E-02 
845	 0.060059484324307 
846	 6.03545847035987E-02 
847	 6.07567287678281E-02 
848	 6.02140122404909E-02 
849	 5.94571335415092E-02 
850	 5.89486028738441E-02 
851	 5.84775350650723E-02 
852	 5.81814697748932E-02 
853	 5.82233784959781E-02 
854	 5.83297833095947E-02 
855	 0.057351745793341 
856	 5.70938501635087E-02 
857	 5.73400047673243E-02 
858	 5.74218752650357E-02 
859	 5.72004269816739E-02 
860	 5.73147313496443E-02 
861	 0.057085146841883 
862	 5.56607119759519E-02 
863	 5.52089984353089E-02 
864	 0.05628054867385 
865	 5.71136566133233E-02 
866	 5.47163125676052E-02 
867	 5.43400287519055E-02 
868	 5.48552899328872E-02 
869	 5.48603067374158E-02 
870	 5.38891060884175E-02 
871	 5.25933539748802E-02 
872	 5.20804782141109E-02 
873	 5.26871651007853E-02 
874	 0.052923252438333 
875	 5.27368817412231E-02 
876	 5.19883811204164E-02 
877	 5.08827218628643E-02 
878	 5.06390511180496E-02 
879	 5.06607420653633E-02 
880	 5.03749186013007E-02 
881	 4.94849053667595E-02 
882	 4.89595693709579E-02 
883	 4.86324843933642E-02 
884	 4.86391669867317E-02 
885	 4.91683418114944E-02 
886	 4.85162380531767E-02 
887	 4.81731298752085E-02 
888	 4.82887274420702E-02 
889	 4.71680998615892E-02 
890	 0.046485615977239 
891	 4.57620421973981E-02 
892	 4.48676571527131E-02 
893	 4.53379689463479E-02 
894	 4.57867628977629E-02 
895	 4.44287773342258E-02 
896	 0.040987330073359 
897	 4.12752946501719E-02 
898	 4.45365016092084E-02 
899	 4.70071685165188E-02 
900	 4.54607130498145E-02 
901	 4.14801406402078E-02 
902	 4.05896366907371E-02 
903	 4.08920725631531E-02 
904	 3.95700298455655E-02 
905	 0.04385210715692 
906	 4.23138642890057E-02 
907	 0.03647398999386 
908	 3.81016809571568E-02 
909	 0.03847891995694 
910	 3.78438094492353E-02 
911	 3.72113872636261E-02 
912	 3.73194537305029E-02 
913	 3.65114004272331E-02 
914	 3.86267657479712E-02 
915	 4.14945745976845E-02 
916	 3.74139707762256E-02 
917	 0.038483799474041 
918	 3.87617581062073E-02 
919	 3.66873954533174E-02 
920	 3.81732894618191E-02 
921	 3.98814303318958E-02 
922	 4.04653995257458E-02 
923	 3.89726990972848E-02 
924	 3.44529778184394E-02 
925	 3.39951765586265E-02 
926	 3.86024388364809E-02 
927	 4.34876059690446E-02 
928	 3.00184645910098E-02 
929	 3.56077615184003E-02 
930	 5.25924134141669E-02 
931	 3.57896119883291E-02 
932	 2.80601478399601E-02 
933	 4.14648698831453E-02 
934	 6.13300461344442E-02 
935	 6.00934980828379E-02 
936	 6.27449563770373E-02 
937	 7.68433876584246E-02 
938	 7.24862939961324E-02 
939	 3.15345794153468E-02 
940	 0.018269488620963 
941	 4.91758494243125E-02 
942	 6.74254607674172E-02 
943	 2.88236581217971E-03 
944	 1.14830985622099E-03 
945	 2.37961494872183E-02 
946	 3.10919870220055E-02 
947	 1.27746777061291E-02 
948	 3.79622798246047E-02 
949	 0.033249916494868 
950	 1.62274674197546E-02 
951	 0.043349870474197 
952	 3.55739723293041E-02 
953	 0.04345827000424 
954	 4.77004415811632E-02 
955	 7.53085950944431E-03 
956	 5.46250410241483E-02 
957	 4.21995941921155E-02 
958	 1.40307763312163E-03 
959	 4.85252694366318E-02 
960	 0.042917829040218 
961	 2.41843623908531E-02 
962	 2.63243590747859E-02 
963	 5.37932348590264E-02 
964	 3.66819514624952E-02 
965	 2.03468465242661E-02 
966	 2.69231619970809E-02 
967	 4.86599339333411E-02 
968	 3.42322031689348E-02 
969	 2.77918036693473E-02 
970	 0.037597575497677 
971	 3.87549413350515E-02 
972	 3.12647996923052E-02 
973	 3.51069144043307E-02 
974	 4.42221139074075E-02 
975	 3.15013204385473E-02 
976	 3.56454386022757E-02 
977	 3.93403022259496E-02 
978	 3.46096786867936E-02 
979	 2.80940879074133E-02 
980	 3.48807999068618E-02 
981	 0.037296637579783 
982	 0.032187531745238 
983	 2.97179013386814E-02 
984	 4.19493112537668E-02 
985	 4.02581449560657E-02 
986	 3.04807990111354E-02 
987	 3.94118223797017E-02 
988	 4.07995451138902E-02 
989	 3.38645641143234E-02 
990	 3.05855207128085E-02 
991	 4.35785398857514E-02 
992	 3.76759707932232E-02 
993	 3.27832599572921E-02 
994	 3.51003644033732E-02 
995	 3.78416648803225E-02 
996	 3.57970248792892E-02 
997	 3.58156237310489E-02 
998	 3.87677086331792E-02 
999	 4.00646165337963E-02 
1000	 3.21616613744304E-02 
1001	 3.81474005501806E-02 
1002	 0.039405673213835 
1003	 4.04969148101107E-02 
1004	 0.0423467117984 
1005	 4.30518712515811E-02 
1006	 4.38253792822969E-02 
1007	 4.37797409808573E-02 
1008	 4.17814089891512E-02 
1009	 4.29663468331314E-02 
1010	 4.18308661367243E-02 
1011	 3.96177638898508E-02 
1012	 3.90665304356335E-02 
1013	 3.72033654826658E-02 
1014	 3.69017164750133E-02 
1015	 3.94961464313301E-02 
1016	 3.81689969898405E-02 
1017	 3.46931644125358E-02 
1018	 3.31222092489546E-02 
1019	 2.90195312225255E-02 
1020	 2.83016293436557E-02 
1021	 0.030495239870579 
1022	 3.22324358501209E-02 
1023	 3.70288856916636E-02 
1024	 4.00978166466526E-02 
1025	 4.09547726895356E-02 
1026	 4.30507740921978E-02 
1027	 4.26960730695716E-02 
1028	 3.88620584072815E-02 
1029	 3.77540559888824E-02 
1030	 3.71669433741085E-02 
1031	 3.58978188491223E-02 
1032	 3.52662328334983E-02 
1033	 3.39574440214228E-02 
1034	 3.04128323880897E-02 
1035	 2.99696477519786E-02 
1036	 3.16616708556193E-02 
1037	 3.17795260380066E-02 
1038	 3.18888419667293E-02 
1039	 3.37398945749504E-02 
1040	 3.35881157742271E-02 
1041	 3.44826483144061E-02 
1042	 3.49594397845085E-02 
1043	 3.62644334673703E-02 
1044	 3.69334157549056E-02 
1045	 3.79808659608826E-02 
1046	 3.64015542480348E-02 
1047	 3.25858494186995E-02 
1048	 3.15915919882553E-02 
1049	 0.028761625099239 
1050	 0.028518252960191 
1051	 3.26172288263491E-02 
1052	 3.45232278748015E-02 
1053	 3.72222149820537E-02 
1054	 3.78983594017249E-02 
1055	 3.56536478697424E-02 
1056	 3.55208275074591E-02 
1057	 3.56381752401952E-02 
1058	 3.52869004639413E-02 
1059	 3.45416597366774E-02 
1060	 3.52307256142012E-02 
1061	 3.46715291112907E-02 
1062	 3.08336385592313E-02 
1063	 3.11299982674358E-02 
1064	 3.53366465631142E-02 
1065	 3.58579677655419E-02 
1066	 0.036466582726931 
1067	 3.63129655435819E-02 
1068	 3.30166778656541E-02 
1069	 3.14736224637486E-02 
1070	 2.94736636039163E-02 
1071	 2.98051544022529E-02 
1072	 3.20700426926706E-02 
1073	 0.034551252553904 
1074	 3.58238517524621E-02 
1075	 3.94218897319707E-02 
1076	 3.90620156049186E-02 
1077	 3.40763328907026E-02 
1078	 3.34978257095404E-02 
1079	 3.35257660760613E-02 
1080	 3.40255831697741E-02 
1081	 3.79042483420991E-02 
1082	 0.038369506843066 
1083	 3.61888173718481E-02 
1084	 0.035595794158646 
1085	 3.44233997684882E-02 
1086	 3.37409030776885E-02 
1087	 3.42922163938276E-02 
1088	 3.44182190397986E-02 
1089	 0.032945947937068 
1090	 3.39072576892328E-02 
1091	 3.44349276098768E-02 
1092	 3.55998707066004E-02 
1093	 3.61807242194853E-02 
1094	 3.73524031928038E-02 
1095	 3.70750931777184E-02 
1096	 3.36425102086014E-02 
1097	 3.48974059767455E-02 
1098	 4.04779796991395E-02 
1099	 4.15750696199035E-02 
1100	 0.045938812497656 
1101	 4.54113994823791E-02 
1102	 3.17494664506883E-02 
1103	 2.73025569973144E-02 
1104	 2.69250164299359E-02 
1105	 2.55683689164948E-02 
1106	 3.01474089288071E-02 
1107	 3.79017439844988E-02 
1108	 4.02885037746884E-02 
1109	 4.08253082933873E-02 
1110	 4.04264792527614E-02 
1111	 3.78698291813304E-02 
1112	 3.66522032337655E-02 
1113	 0.029444503658904 
1114	 0.032503809580405 
1115	 4.67405761553995E-02 
1116	 5.48550146524221E-02 
1117	 7.93140400699852E-02 
1118	 9.48734435104481E-02 
1119	 9.21162177707743E-02 
1120	 9.77292786721964E-02 
1121	 0.111401898389505 
1122	 5.67922729590658E-02 
1123	 6.71331874954825E-02 
1124	 0.110258605257095 
1125	 0.137118791086695 
1126	 0.16810368675504 
1127	 0.118568608056453 
1128	 6.63948285552341E-02 
1129	-5.56489596743897E-03 
1130	-0.110708088548607 
1131	-6.49607042324716E-02 
1132	 4.40247935928259E-02 
1133	 5.14349209560712E-02 
1134	 0.100915721676387 
1135	 0.136058157846292 
1136	 0.108771820760114 
1137	 8.61951978345602E-02 
1138	 8.24626805030128E-02 
1139	 0.113595539445942 
1140	 9.19172257574648E-02 
1141	 3.98482950387609E-02 
1142	 6.30739926526638E-02 
1143	 0.110645056707091 
1144	 4.00807294767264E-02 
1145	 3.22217758121844E-02 
1146	 0.176584106445738 
1147	 0.206937127381015 
1148	 0.16220450487013 
1149	 0.178849566141877 
1150	 0.148031034113713 
1151	 7.23769542073374E-03 
1152	-4.84043050010797E-03 
1153	 5.84723972126422E-02 
1154	 0.054943410178347 
1155	 4.22212831897156E-02 
1156	 3.42948769158997E-02 
1157	 3.87257554828975E-02 
1158	 4.22940493392138E-02 
1159	 4.59232983699008E-02 
1160	 5.22181586860916E-02 
1161	 3.95668852392631E-02 
1162	 2.00629795190482E-02 
1163	 0.02425361357702 
1164	 3.69847557828645E-02 
1165	 3.93591652268269E-02 
1166	 4.15709871693275E-02 
1167	 4.26513491928576E-02 
1168	 4.05270014081647E-02 
1169	 3.96165140883035E-02 
1170	 0.039798817367482 
1171	 3.96258307362527E-02 
1172	 3.49630058528306E-02 
1173	 3.27364264349389E-02 
1174	 3.16738680297994E-02 
1175	 3.40426998354981E-02 
1176	 3.50329873638461E-02 
1177	 3.45597082343201E-02 
1178	 3.44395485336653E-02 
1179	 3.71733865692131E-02 
1180	 3.80352634703792E-02 
1181	 0.036996013657449 
1182	 3.90686173845572E-02 
1183	 3.90561416966514E-02 
1184	 3.33023480931269E-02 
1185	 2.90331560091156E-02 
1186	 3.29570813368058E-02 
1187	 3.74456348328764E-02 
1188	 3.64151965810703E-02 
1189	 3.68975110795488E-02 
1190	 3.47392833207293E-02 
1191	 3.07272581229299E-02 
1192	 2.95394986163963E-02 
1193	 3.36281518983927E-02 
1194	 3.50510770472221E-02 
1195	 3.33173759372058E-02 
1196	 3.48505518723588E-02 
1197	 3.80769991802314E-02 
1198	 4.25413501017891E-02 
1199	 4.53212057678066E-02 
1200	 3.98761645709683E-02 
1201	 3.06419830291067E-02 
1202	 2.94699279973357E-02 
1203	 3.00773732328919E-02 
1204	 3.05122428913848E-02 
1205	 3.60205959443363E-02 
1206	 3.76023611480181E-02 
1207	 3.54900335517138E-02 
1208	 3.48691089128313E-02 
1209	 3.38319351618461E-02 
1210	 3.41263356353556E-02 
1211	 3.39239714767591E-02 
1212	 3.13527899234415E-02 
1213	 3.10840316976068E-02 
1214	 3.08065848059178E-02 
1215	 0.028993263395448 
1216	 2.62869056700758E-02 
1217	 0.028858364562122 
1218	 3.34735413023625E-02 
1219	 0.033165445578733 
1220	 3.27379836747494E-02 
1221	 3.55250811808856E-02 
1222	 3.24290818549412E-02 
1223	 0.031016529298517 
1224	 0.037659682523228 
1225	 3.71552006081024E-02 
1226	 3.28727628156621E-02 
1227	 0.032639658225799 
1228	 3.07824023788917E-02 
1229	 3.09405391670947E-02 
1230	 3.61466748643198E-02 
1231	 3.98940667188847E-02 
1232	 3.75070986543223E-02 
1233	 3.38914204746264E-02 
1234	 3.49972764020799E-02 
1235	 3.53224405327965E-02 
1236	 3.50513605789391E-02 
1237	 3.51999807019839E-02 
1238	 3.78531676133112E-02 
1239	 0.036386304166131 
1240	 3.29806443561539E-02 
1241	 3.49624731791317E-02 
1242	 3.64599633655653E-02 
1243	 3.54308367722576E-02 
1244	 3.66832786765962E-02 
1245	 3.79237316396431E-02 
1246	 3.64319763931845E-02 
1247	 3.72117471051789E-02 
1248	 3.98047143392289E-02 
1249	 3.75805161947779E-02 
1250	 3.54799178487671E-02 
1251	 3.58900913811762E-02 
1252	 3.45559190330008E-02 
1253	 3.43050675638838E-02 
1254	 3.54472477343718E-02 
1255	 3.43002726748644E-02 
1256	 3.43245815793014E-02 
1257	 3.43037558042042E-02 
1258	 3.31054130513743E-02 
1259	 3.20461090967784E-02 
1260	 3.23293783066667E-02 
1261	 3.07165282918306E-02 
1262	 3.10143432215207E-02 
1263	 3.46548350986808E-02 
1264	 3.65492389574185E-02 
1265	 0.034845728530181 
1266	 3.45219140366975E-02 
1267	 3.51278450240175E-02 
1268	 0.034676251941184 
1269	 3.64852738931929E-02 
1270	 3.79072641587581E-02 
1271	 3.70171863106666E-02 
1272	 3.53220567564248E-02 
1273	 3.17100680556396E-02 
1274	 0.030546587803064 
1275	 3.23629999271544E-02 
1276	 3.20437871010667E-02 
1277	 3.27959948359009E-02 
1278	 3.44230480386704E-02 
1279	 3.54358606377395E-02 
1280	 3.62836396602775E-02 
1281	 3.55303186692369E-02 
1282	 3.40196705808498E-02 
1283	 0.034854927528624 
1284	 3.52406937410394E-02 
1285	 3.39677779323662E-02 
1286	 3.39266673504818E-02 
1287	 0.033811447687132 
1288	 3.00114955316303E-02 
1289	 2.91529720419223E-02 
1290	 3.08834241095425E-02 
1291	 3.56935320003342E-02 
1292	 3.56639134742186E-02 
1293	 3.52844481498456E-02 
1294	 3.96117516247819E-02 
1295	 0.038198216297475 
1296	 3.08596640451051E-02 
1297	 3.00953010441537E-02 
1298	 3.60873557370149E-02 
1299	 0.034914135938904 
1300	 2.85249927835529E-02 
1301	 3.16310490007125E-02 
1302	 3.82191643578762E-02 
1303	 3.49532364441514E-02 
1304	 3.33815315613697E-02 
1305	 3.89655933117193E-02 
1306	 0.040224191453917 
1307	 2.68236173963572E-02 
1308	 2.51000817654892E-02 
1309	 3.64816408580045E-02 
1310	 0.039341925407575 
1311	 3.72019939424399E-02 
1312	 3.80943349641302E-02 
1313	 0.043274766635956 
1314	 4.12966227732602E-02 
1315	 2.93235381432892E-02 
1316	 2.80429305329503E-02 
1317	 3.26514520191116E-02 
1318	 3.21766688786393E-02 
1319	 3.07184625141802E-02 
1320	 3.61235667721485E-02 
1321	 4.89587240786047E-02 
1322	 4.81158603378178E-02 
1323	 0.041576903851588 
1324	 4.41686528030441E-02 
1325	 3.11970930888391E-02 
1326	 1.49059295014243E-02 
1327	 1.05538068054866E-02 
1328	 2.46272866536045E-02 
1329	 3.46209680335904E-02 
1330	 1.16335272021523E-02 
1331	 1.51994269596804E-02 
1332	 4.28143243136251E-02 
1333	 0.046555681302116 
1334	 4.40306995956273E-02 
1335	 4.80368460331917E-02 
1336	 4.90103240493511E-02 
1337	 6.06133066311442E-02 
1338	 9.21567888511019E-02 
1339	 0.095905091580966 
1340	 7.42483539299168E-02 
1341	 7.90099800101886E-02 
1342	 8.51594477888982E-02 
1343	 6.98686409797469E-02 
1344	 6.27693862664246E-02 
1345	 6.73707455718761E-02 
1346	 2.78513050487472E-02 
1347	-4.23557086175547E-03 
1348	 0.037864450153534 
1349	 0.160230716428401 
1350	 0.294610823196062 
1351	 0.426635614625074 
1352	 0.67030696932572 
1353	 0.792728882089921 
1354	 0.467618684520048 
1355	 1.44547932966284 
1356	 14.9297443895164 
1357	 4.38301265955291 
1358	 6.99504627119105 
1359	-3.65425541657968 
1360	 3.40810765875468 
1361	 1.40602610461403 
1362	 1.02321137813089 
1363	 2.96899602269247 
1364	 1.89704813813745 
1365	-1.38471408316169E-02 
1366	 0.376401602842696 
1367	 15.2077332115609 
1368	-8.40138044473205 
1369	-5.88966308460909E-02 
1370	 5.81690410875495E-02 
1371	 0.097296038404767 
1372	-1.03166570241912 
1373	 4.53757902891641 
1374	 47.1135664940798 
1375	-4.5599782330158 
1376	-26.2530957087436 
1377	 3.21747116269418 
1378	 2.60949111788524 
1379	-0.879401279190183 
1380	-0.878856279183607 
1381	-0.565840972857502 
1382	-0.927792624466773 
1383	-1.85183940961964E-02 
1384	 0.206203384221805 
1385	 0.124547101484469 
1386	 0.120375729504186 
1387	 3.2026222599909 
1388	 10.5513609802437 
1389	 0.744169146128695 
1390	 1.05245921020138 
1391	 8.13156821035986 
1392	 3.77609228896671 
1393	 3.04177905587717 
1394	-7.13711885482628 
1395	-0.362279921169146 
1396	 0.318546265722838 
1397	-0.328571250114531 
1398	-0.792995374369313 
1399	-3.81740420056813 
1400	 0.743874235090535 
1401	 1.7483474163433 
1402	 0.932971200133055 
1403	 0.320648736958953 
1404	 1.89702503857886 
1405	 2.99825265857141 
1406	-0.461629934550158 
1407	-1.71145161249745 
1408	 4.89494667020979 
1409	 4.1119429709612 
1410	 3.85791448946568 
1411	 4.14520053146663 
1412	 3.17341140323316 
1413	 7.20366178256769 
1414	-4.60937346217024 
1415	-9.6376862706354 
1416	 4.07639750139146 
1417	 1.65904987952945 
1418	 0.90975926186101 
1419	 0.702537764682024 
1420	 0.728570980640146 
1421	 0.892577814577103 
1422	 0.76616769747843 
1423	 1.25796901909947 
1424	-1.71196350493612 
1425	-1.60144708294024 
1426	 21.5326257245884 
1427	 5.20208870938657 
1428	 1.55082504280958 
1429	 1.45379566544192 
1430	 2.83498468005283 
1431	 2.44089625119103 
1432	 2.10947381052797 
1433	 2.38138577415464 
1434	 1.40365379349925 
1435	 1.30518411250321 
1436	 7.48468190213475 
1437	 11.8453762783669 
1438	 1.98905921482612 
1439	 1.16593303448768 
1440	 20.1473157158799 
1441	-73.6269889574609 
1442	 2.54015916437953 
1443	 1.81490051174263 
1444	 1.37297472364452 
1445	 0.861995572070672 
1446	 0.841728711468394 
1447	 2.14533097182642 
1448	 4.24356196652344 
1449	 5.57117083174378 
1450	-4.06315344827834 
1451	-1.53762344200513 
1452	 20.0019665506375 
1453	 1.52672191929258 
1454	 1.53303281022666 
1455	 415.160309786764 
1456	 5.92189167868851 
1457	 1.26126173996254 
1458	 1.19527477833368 
1459	 1.55898637195448 
1460	 1.02333158553418 
1461	 0.507514179277083 
1462	 0.705783924353847 
1463	 3.02668676274839 
1464	 1.40199911173802 
1465	 0.724885838781951 
1466	 1.25778083644655 
1467	-0.211732578718427 
1468	-0.147611956849281 
1469	-1.98809721490117 
1470	-1.66034449091197 
1471	 22.8321330745969 
1472	 7.31307782815006 
1473	-115.630299504921 
1474	 3.02999809915252 
1475	 0.685702201525117 
1476	 0.540489610232322 
1477	 0.659617560005548 
1478	 0.758971653649323 
1479	 1.81280784750553 
1480	-107.035115095471 
1481	 173.367429236026 
1482	-31.8717886925681 
1483	-14.3403143918941 
1484	 31.2307671325746 
1485	 3.80610860552751 
1486	 2.01736859401784 
1487	 0.7987926598499 
1488	 0.984257684425761 
1489	 3.92644603684525 
1490	 2.79209000586677 
1491	 0.754389294376684 
1492	 0.799890208840534 
1493	 0.768013912207109 
1494	 0.541782470969785 
1495	 0.852218806658855 
1496	 0.936697032046363 
1497	 0.555702396122445 
1498	 0.395257465709564 
1499	 0.350071189362104 
1500	 0.362222116305145 
1501	 0.3219864306725 
1502	 0.23123663236914 
1503	 0.168730120398421 
1504	 0.177596667591326 
1505	 0.125916230597522 
1506	 6.85999450555676E-02 
1507	 0.16449358882159 
1508	 0.272737589606494 
1509	 0.32286896500685 
1510	 0.280135421112095 
1511	 0.190075836924331 
1512	 0.178916004574024 
1513	 0.197595049011074 
1514	 0.197465240651818 
1515	 0.181508999434634 
1516	 9.84802384762328E-02 
1517	 5.17042020036339E-02 
1518	 0.097535424596674 
1519	 0.157856974880462 
1520	 0.181784211642348 
1521	 0.153027288560042 
1522	 7.98842244423888E-02 
1523	-1.64832859470812E-02 
1524	-1.49605727135153E-02 
1525	 6.39851048632641E-02 
1526	 6.34279532233149E-02 
1527	 5.42379411104291E-02 
1528	 0.108855486443457 
1529	 0.117540817405201 
1530	 7.53685348958023E-02 
1531	 6.77967141264643E-02 
1532	 8.23354725708398E-02 
1533	 9.29155486204096E-02 
1534	 0.104516079949386 
1535	 0.120573116411492 
1536	 0.138534212197604 
1537	 0.134293757553183 
1538	 0.10220962826617 
1539	 7.34941147665066E-02 
1540	 7.30189299465949E-02 
1541	 6.75510433047436E-02 
1542	 5.25561989792656E-02 
1543	 5.64533151859019E-02 
1544	 5.81755935699439E-02 
1545	 5.00743846635895E-02 
1546	 6.46871975732896E-02 
1547	 7.82879674643433E-02 
1548	 0.068081300621775 
1549	 5.32434974308367E-02 
1550	 3.72232220284835E-02 
1551	 4.43768653389067E-02 
1552	 6.51296755339492E-02 
1553	 6.15375494767739E-02 
1554	 5.46804001144656E-02 
1555	 5.47026857785049E-02 
1556	 4.81513304419616E-02 
1557	 5.13322875205499E-02 
1558	 5.25884098677641E-02 
1559	 2.51462522965095E-02 
1560	 4.08285504815476E-03 
1561	 5.88523296581597E-03 
1562	 2.02077944187177E-02 
1563	 3.53225613967342E-02 
1564	 3.30761130414141E-02 
1565	 0.031276542842189 
1566	 2.96034252465038E-02 
1567	 4.18151627067242E-02 
1568	 6.69460517345064E-02 
1569	 8.21809111599022E-02 
1570	 9.55337731013071E-02 
1571	 8.02080980726111E-02 
1572	 4.92692421698008E-02 
1573	 0.05905228420103 
1574	 6.22802372016864E-02 
1575	 2.52934693092057E-02 
1576	 2.40951077044428E-02 
1577	 3.61775159942901E-02 
1578	 1.68693572587318E-02 
1579	 1.46470410275215E-02 
1580	 4.39261237229029E-02 
1581	 6.77842882166725E-02 
1582	 4.82066765110894E-02 
1583	 3.45462867984462E-02 
1584	 0.062957255755399 
1585	 6.69639250858186E-02 
1586	 4.89435594056593E-02 
1587	 6.37738207574821E-02 
1588	 7.45020832909299E-02 
1589	 4.09802388945197E-02 
1590	 2.86585370077041E-02 
1591	 4.75098101188961E-02 
1592	 3.54061488096801E-02 
1593	 2.15998947282862E-02 
1594	 3.00307917482281E-02 
1595	 0.023220082706966 
1596	 1.28318191765461E-02 
1597	 1.73970104782463E-02 
1598	 0.01680257951475 
1599	 2.45711959970937E-02 
1600	 3.58163457101696E-02 
1601	 2.83000014842638E-02 
1602	 3.29152560298219E-02 
1603	 4.11640084126999E-02 
1604	 3.15736730941702E-02 
1605	 0.032062591427779 
1606	 3.87685539128833E-02 
1607	 3.42893260333143E-02 
1608	 3.80712413174261E-02 
1609	 4.00516377792611E-02 
1610	 3.13497620137397E-02 
1611	 3.63278082540941E-02 
1612	 4.55274294135083E-02 
1613	 5.37057050407996E-02 
1614	 5.12643879758677E-02 
1615	 3.74622643375712E-02 
1616	 3.02543021982302E-02 
1617	 0.021848460518094 
1618	 3.08114354853004E-02 
1619	 5.65978430922293E-02 
1620	 5.06765589576521E-02 
1621	 2.02338961913658E-02 
1622	 0.032965209464295 
1623	 0.047759678205894 
1624	 2.80171459793843E-02 
1625	 4.22649186126249E-02 
1626	 5.17583486855694E-02 
1627	 3.76810333342136E-02 
1628	 3.99629247651565E-02 
1629	 4.47056612952094E-02 
1630	 4.49352547066856E-02 
1631	 4.05531405999532E-02 
1632	 3.15710086167757E-02 
1633	 2.70423249029431E-02 
1634	 2.94963963356649E-02 
1635	 2.83101976293888E-02 
1636	 2.47073245359632E-02 
1637	 3.62384180410856E-02 
1638	 4.47145037924976E-02 
1639	 0.028939427607334 
1640	 3.02347024314907E-02 
1641	 4.03720247795618E-02 
1642	 2.42227343548075E-02 
1643	 0.030170939345591 
1644	 5.14196232870843E-02 
1645	 0.045555686235603 
1646	 3.78223100580427E-02 
1647	 2.21560185859462E-02 
1648	 9.75228808493031E-03 
1649	 0.017581273272059 
1650	 1.81780127098334E-02 
1651	 2.19704108884588E-02 
1652	 3.05191219738691E-02 
1653	 3.01871210716232E-02 
1654	 3.54422561687046E-02 
1655	 5.21472250038503E-02 
1656	 0.056453505785532 
1657	 5.35881347166439E-02 
1658	 5.50149353002076E-02 
1659	 4.88646684532886E-02 
1660	 4.76420553005498E-02 
1661	 5.90988538673916E-02 
1662	 5.53355502843585E-02 
1663	 3.60557277783962E-02 
1664	 3.59256857425264E-02 
1665	 3.89775421956845E-02 
1666	 3.73578268097926E-02 
1667	 5.05442809798472E-02 
1668	 4.40503301052318E-02 
1669	 3.87423025657251E-02 
1670	 4.87747984415531E-02 
1671	 4.53697242544038E-02 
1672	 4.08181479517035E-02 
1673	 3.58522065298174E-02 
1674	 0.033256438056674 
1675	 4.52457109158182E-02 
1676	 4.21795907057502E-02 
1677	 3.54628952410332E-02 
1678	 3.64086538182933E-02 
1679	 3.06085995056061E-02 
1680	 3.53040790028615E-02 
1681	 3.58274871060925E-02 
1682	 3.74200358574453E-02 
1683	 5.42086045284192E-02 
1684	 5.15997249102928E-02 
1685	 4.80324541906314E-02 
1686	 4.44802995780871E-02 
1687	 0.024880152368924 
1688	 2.66418122411363E-02 
1689	 4.58780968621907E-02 
1690	 5.78566321216547E-02 
1691	 6.07762244371749E-02 
1692	 5.86537135690776E-02 
1693	 6.33111323182425E-02 
1694	 6.37897706578479E-02 
1695	 5.38818625898776E-02 
1696	 5.57593537650916E-02 
1697	 4.91338209342751E-02 
1698	 3.44612878615678E-02 
1699	 4.45234843251993E-02 
1700	 4.74699272149811E-02 
1701	 4.36593392041684E-02 
1702	 5.19434416326076E-02 
1703	 5.66146592114912E-02 
1704	 5.79462552088591E-02 
1705	 5.35388531141129E-02 
1706	 5.64209202898821E-02 
1707	 7.18451641122599E-02 
1708	 7.05417059738158E-02 
1709	 5.59895962951729E-02 
1710	 6.17303046859354E-02 
1711	 6.59946587521888E-02 
1712	 6.14124389128938E-02 
1713	 0.084741452630732 
1714	 8.90323674833993E-02 
1715	 6.84114497922367E-02 
1716	 5.62352682913475E-02 
1717	 5.45419238765439E-02 
1718	 4.42906630401172E-02 
1719	 3.04767632810897E-02 
1720	 3.34948318561538E-02 
1721	 2.07523572092179E-02 
1722	 1.48668624762583E-02 
1723	 3.85037742775034E-02 
1724	 3.38882987848333E-02 
1725	 3.33588412043136E-02 
1726	 2.52208912094898E-02 
1727	-1.95661621485774E-02 
1728	 9.40580379027849E-03 
1729	 6.34179217066939E-02 
1730	 5.82644906075607E-02 
1731	 7.33163060636902E-02 
1732	 7.63226573023045E-02 
1733	 1.14720274116303E-02 
1734	 3.42329586791203E-03 
1735	 5.23009173356114E-02 
1736	 5.71211465858181E-02 
1737	 7.41422527284949E-02 
1738	 8.41561872763494E-02 
1739	 4.81375464882104E-02 
1740	 2.33057891813686E-02 
1741	 2.00412416536153E-02 
1742	 5.29817723528302E-02 
1743	 8.97176290543398E-02 
1744	 7.45429364310596E-02 
1745	 5.88647607285371E-02 
1746	 3.72818391429958E-02 
1747	 0.03038477872243 
1748	 6.13272199982768E-02 
1749	 7.44219262137989E-02 
1750	 6.47521115962604E-02 
1751	 7.36964669532851E-02 
1752	 0.106030080414352 
1753	 0.109491404981743 
1754	 0.104983573431333 
1755	 9.97204194536192E-02 
1756	 6.24586219864034E-02 
1757	 5.59862583749601E-02 
1758	 7.34409778999893E-02 
1759	 7.96830902750266E-02 
1760	 8.20994417835101E-02 
1761	 7.65601704045665E-02 
1762	 5.60649107725775E-02 
1763	 6.24378595678357E-02 
1764	 6.81544575278936E-02 
1765	 6.73561021450907E-02 
1766	 8.99376882845342E-02 
1767	 6.41544736203619E-02 
1768	 0.034780125597922 
1769	 8.18975956069795E-02 
1770	 0.10740693850782 
1771	 0.124983148414911 
1772	 0.199769936371605 
1773	 0.237044300369132 
1774	 0.216251451608676 
1775	 0.18563138199162 
1776	 0.165130553324977 
1777	 7.25512939700396E-02 
1778	 7.56577739644731E-02 
1779	 0.262332850540913 
1780	 0.295665297953983 
1781	 0.287453821856432 
1782	 0.24471001440689 
1783	-7.29169631256267E-02 
1784	-7.82366519684328E-02 
1785	 0.193336992286369 
1786	 0.272183330454821 
1787	 0.588410482265595 
1788	 0.501157330133074 
1789	-3.85792808132826E-03 
1790	-2.6442696134688E-03 
1791	-2.34269316327779E-02 
1792	 8.85219538590424E-03 
1793	 0.25335008875675 
1794	 0.371494405082522 
1795	 0.42611199146192 
1796	 1.05977819559237 
1797	 0.786778161997153 
1798	 1.06602266974994 
1799	 9.12982951986337 
1800	 1.60711915150972 
1801	 0.920082420059066 
1802	 3.45351507286233E-02 
1803	-0.158969772044022 
1804	-1.30331499986705 
1805	-3.13673878038278 
1806	-6.07874351264869 
1807	-18.6347929579399 
1808	 0.683940377545546 
1809	 1.19672386646554 
1810	-0.51624513086801 
1811	-0.516331557474856 
1812	-0.390658403314872 
1813	-0.667047891333288 
1814	 1.70366477929922 
1815	 0.958162240624248 
1816	 0.31784786923808 
1817	 0.325501501487108 
1818	-0.277681376734984 
1819	-0.150819884216835 
1820	-10.7025587243011 
1821	 2.24475231270114 
1822	 2.61846780861732 
1823	 1.4533356416238 
1824	 2.1976094485936 
1825	-2.03975707695036 
1826	-1.75184325355641 
1827	-1.95655589189052 
1828	-2.91886086156965 
1829	 1.08828556854335 
1830	 0.761523074039834 
1831	-3.69891561540313 
1832	-6.96602804336232 
1833	 3.60916275859012 
1834	 2.99406236194257 
1835	 2.81107820337081 
1836	 16.0275679596269 
1837	-0.246824276344972 
1838	 0.119498118097804 
1839	 1.2561822001869 
1840	-16.2789669465271 
1841	-0.926548622107927 
1842	-1.11151110893641 
1843	-0.59955246917162 
1844	 2.64305425142282 
1845	 5.7249038219934 
1846	 1.37768993540321 
1847	 1.61846532646138 
1848	 4.54470212387706 
1849	 11.3040231678757 
1850	 3.03269972078784 
1851	-29.4143376567203 
1852	 10.0643118190528 
1853	 2.5080479408701 
1854	 1.72814901123647 
1855	 0.548178585444581 
1856	 0.278537268514811 
1857	 0.484246201818118 
1858	 0.51757459946073 
1859	 0.767950458124726 
1860	 0.820064649133788 
1861	 0.671376295192301 
1862	 0.931635912711532 
1863	 0.923040702566398 
1864	 1.0629108178486 
1865	 1.10820262541605 
1866	 1.0959500361492 
1867	 1.21839487544543 
1868	 1.90861670958453 
1869	-1.45001316930173 
1870	-0.559085135128323 
1871	-0.652093762834286 
1872	-0.474611601472959 
1873	-0.639567957926027 
1874	 1.91916130130725 
1875	 1.32756333489594 
1876	 1.28769702416986 
1877	 2.16689464184881 
1878	 2.23517772121485 
1879	 1.96892747615951 
1880	 2.26489381467966 
1881	 2.96579008548871 
1882	 3.55839117598737 
1883	 8.4102836542858 
1884	-4.33839642839031 
1885	-2.46444946442774 
1886	-3.55415133416487 
1887	 2.87602862503063 
1888	 0.815756355416941 
1889	 0.606099493782587 
1890	 0.463629487737906 
1891	 0.452544344843922 
1892	 0.610392837710564 
1893	 1.85625899073559 
1894	 3.51247580358218 
1895	-1.53689700879802 
1896	-0.174799718857999 
1897	 6.90441202845655E-02 
1898	-3.84311263914114E-02 
1899	-0.756555649275829 
1900	-1.00534120048315 
1901	-1.71042498712093 
1902	-2.28276023831079 
1903	-2.02601082201014 
1904	-0.668885375259033 
1905	 0.223141301821823 
1906	-0.316444823373927 
1907	-0.166074822629029 
1908	-0.381140240417644 
1909	-0.627958484102934 
1910	-0.728034275927176 
1911	-1.81850332048248 
1912	 2.08689425400551 
1913	 0.657433996924849 
1914	 0.392505634655762 
1915	 0.480055936683137 
1916	 0.416249667979898 
1917	 0.403779240983742 
1918	 4.33082408422046 
1919	 20.4200217345753 
1920	-6.50136216459225 
1921	 5.58057078320981 
1922	 1.61713998574497 
1923	 1.49952638344387 
1924	 1.44691219439705 
1925	 1.27082124316106 
1926	 0.959754427318136 
1927	 9.18540580791837E-02 
1928	-0.628682754389585 
1929	-1.72284003447764 
1930	-9.19896253896764 
1931	-2.56132535595087 
1932	-0.952721246266843 
1933	-0.612581124007525 
1934	-0.786324349848932 
1935	 2.57574638508055 
1936	 0.755491680034649 
1937	 0.443831540418579 
1938	 0.678044107918891 
1939	 0.876058917407936 
1940	 1.42938424847424 
1941	 0.973736600527265 
1942	 0.662940134718957 
1943	 3.54155289881673E-02 
1944	-0.443025812958272 
1945	-0.45837557824175 
1946	-0.298693539216906 
1947	 0.580282934553089 
1948	 0.766775347881864 
1949	 4.48325694726388E-03 
1950	-0.493914659610797 
1951	 1.65291342644033 
1952	 1.62583955551586 
1953	 2.44945505061741 
1954	 1.45944208637306 
1955	 1.44000457839214 
1956	 1.45776090980464 
1957	-0.268472332984988 
1958	-1.54007446379685 
1959	 6.08917273723265 
1960	 2.59667514073554 
1961	 1.86327361973717 
1962	 1.45557580388212 
1963	 1.91650212958239 
1964	 3.86912414646143 
1965	 2.60901025968183 
1966	 2.50348338887887 
1967	 8.85175892101424 
1968	-1.5575628728755 
1969	-0.528464608382589 
1970	 1.93786685919723 
1971	-4.34926938152025 
1972	-1.41401013887924 
1973	-0.486699830304465 
1974	 0.211260008894006 
1975	 3.35512763571924 
1976	 1.24327358851545 
1977	 3.58738742651166 
1978	 2.2937955301613 
1979	 1.81239820664821 
1980	 1.46006265953427 
1981	 15.1578949468737 
1982	 1.97423589586241 
1983	 0.754310927905007 
1984	 0.237939800174213 
1985	-0.392740205002444 
1986	 0.211313081726935 
1987	 0.58021933633062 
1988	 0.367995691126677 
1989	 0.405937375642043 
1990	 0.173647736179896 
1991	 0.114977845489006 
1992	 0.172014915021629 
1993	 0.265170584102617 
1994	 0.444645278681338 
1995	 1.28892424667093 
1996	 2.1904859404547 
1997	-89.2512393387004 
1998	-2.33469348506605 
1999	-1.35187962220868 
2000	-1.34257297023298 
2001	-1.06651006149086 
2002	-0.882754371925591 
2003	-0.751064094182838 
2004	-0.142335293270537 
2005	 1.50655010836293 
2006	 58.5995197570857 
2007	 5.75374014952101 
2008	 64.9927547211639 
2009	-28.7532984173268 
2010	-4.08732314208859 
2011	-3.33426587030781 
2012	-1.32280501673358 
2013	 1.57495073726856 
2014	 0.522577132961474 
2015	 0.853371699578579 
2016	 0.553173029749115 
2017	 0.443786352136674 
2018	 0.652671760345317 
2019	 0.920001053214103 
2020	 0.61201543364709 
2021	 1.4429178864705 
2022	-2.79720085885574 
2023	-0.610314235761052 
2024	-0.566345064940471 
2025	-4.86347187290231E-02 
2026	-0.188351658917414 
2027	-2.54058502054097 
2028	 1.92298470507022 
2029	 0.727146986783847 
2030	 0.577823585288307 
2031	 4.42048079697035 
2032	 0.289736368778669 
2033	-3.85800482044575E-02 
2034	-0.283066153378078 
2035	-0.943534759108522 
2036	-2.99278922021906 
2037	-1.96254241411338 
2038	-1.33694953721433 
2039	-0.780068003400734 
2040	 0.330431363485857 
2041	 0.483139393182182 
2042	 0.515921215768156 
2043	 0.341277592326116 
2044	-3.21466833209612E-02 
2045	 0.165557858655438 
2046	 0.614233476436153 
2047	 0.88960964854069 
2048	 2.28358937654885 
2049	-2.69030418396087 
2050	-0.758129634214303 
2051	 0.556372441317705 
2052	 0.867466172866745 
2053	 0.317498981550707 
2054	-0.102222932772121 
2055	-0.188397568994334 
2056	-0.108348801822138 
2057	-0.187682633091776 
2058	 0.153886622780402 
2059	 0.820561789741389 
2060	 1.22663775182474 
2061	 1.15018839716929 
2062	 1.83908469240506 
2063	 3.42881136946978 
2064	 1.3820817396899 
2065	 0.391569267419279 
2066	-3.73148778784216E-02 
2067	-0.208574690593628 
2068	-0.141167418742805 
2069	-0.204126323209374 
2070	-0.105190913332789 
2071	 0.488734685471602 
2072	 1.13139962620861 
2073	 1.47352932535994 
2074	 3.79329949515034 
2075	 4.33090186899573 
2076	 2.00674356080201 
2077	 1.17375377100376 
2078	 0.527507410901607 
2079	 0.609905217777855 
2080	 1.14791695253894 
2081	 1.78480052791114 
2082	 5.2326783243259 
2083	 66.455162053718 
2084	 1.10780833380259 
2085	 0.35490607792308 
2086	 0.488731210928453 
2087	 0.705249748550345 
2088	 1.27524240552653 
2089	-16.6612374698803 
2090	-2.33125287908985 
2091	-3.06143982912404 
2092	-4.17413168013806 
2093	 15.2645702471319 
2094	 3.82956349478466 
2095	 0.599639690349533 
2096	 0.36109692642367 
2097	 0.278334551923719 
2098	 0.137273973258551 
2099	 0.437100948212352 
2100	 1.93833550493595 
2101	-5.65820560741805E-02 
2102	 0.669128402909397 
2103	 1.01082027694024 
2104	 0.643155746203228 
2105	 0.691960303684061 
2106	 0.664550186477998 
2107	 0.385223538266111 
2108	 0.200342069828748 
2109	 6.70975013148941E-02 
2110	-0.228486331022974 
2111	-0.271446825335812 
2112	-0.277459760134448 
2113	-0.225156551385115 
2114	-0.043207312583639 
2115	-4.67508949918339E-02 
2116	-0.187364434732651 
2117	-9.09997952567669E-02 
2118	 7.91632783593842E-02 
2119	 0.117082052543302 
2120	 0.262982527143787 
2121	 0.222318767646792 
2122	 8.19139298564062E-02 
2123	-2.05613345837534E-02 
2124	-0.182852824720981 
2125	-0.176622433011657 
2126	-0.234728977722183 
2127	-0.334357849146926 
2128	-8.54561245420283E-02 
2129	 0.136497158392443 
2130	 0.250409791264827 
2131	 0.453187134670353 
2132	 0.483955111110147 
2133	 0.405419949105901 
2134	 0.326013914252093 
2135	 6.96930880367894E-02 
2136	 3.40575806479039E-02 
2137	 0.113341433632868 
2138	 0.146192968544228 
2139	 0.317906244984681 
2140	 0.404198032051662 
2141	 0.406459545677795 
2142	 0.339034803588636 
2143	 0.183467506954464 
2144	 5.57416363931938E-02 
2145	-6.57638689272711E-02 
2146	-0.108244754718832 
2147	-9.03131233682262E-02 
2148	-0.113886840265326 
2149	-6.69107657081254E-02 
2150	-0.111634435059984 
2151	-9.10749788076415E-02 
2152	-2.98096361549111E-02 
2153	-0.106400523834636 
2154	-0.184363307175036 
2155	-0.315392848147983 
2156	-0.41862160370535 
2157	-0.336661279801106 
2158	-3.26749450919824E-02 
2159	 6.80175976458573E-02 
2160	 0.196486193343814 
2161	 0.234683448558029 
2162	 0.124107080724517 
2163	 8.89371703676664E-02 
2164	 0.105814373628494 
2165	 8.19975487280925E-02 
2166	 5.80138500852807E-02 
2167	 8.49041223006389E-02 
2168	 0.117956225744916 
2169	 0.130147138320603 
2170	 0.211697889590372 
2171	 0.16032725040682 
2172	 0.100041174456857 
2173	 0.1479298938752 
2174	 7.95572673922278E-02 
2175	 8.64975362179629E-02 
2176	 0.115449353683228 
2177	-1.62241948588251E-04 
2178	 2.83527558357087E-02 
2179	 0.137938809141632 
2180	 0.126516961299671 
2181	 0.217596807776878 
2182	 0.265686248354705 
2183	 0.165055209923057 
2184	 0.204512690753951 
2185	 0.241498909149419 
2186	 0.202312949406412 
2187	 8.69004781992772E-02 
2188	 3.86672950998805E-02 
2189	-5.72495571581088E-02 
2190	-5.63006550148757E-02 
2191	 7.61117634008792E-02 
2192	 0.108604522987604 
2193	 0.11590347945719 
2194	 6.56636488462567E-02 
2195	-5.83209662753235E-02 
2196	-0.102407654668004 
2197	-0.156872743554677 
2198	-0.195721648932422 
2199	-0.195316315962158 
2200	-0.164662563363159 
2201	-0.191480596078678 
2202	 1.28887616338281E-03 
2203	 8.02512891121269E-02 
2204	 0.131745447598283 
2205	 0.1289164065697 
2206	-6.94572483704308E-02 
2207	 2.40738413348579E-02 
2208	 6.39344293569196E-02 
2209	 3.45150826752015E-02 
2210	 2.28949334748202E-02 
2211	 2.76363971314049E-02 
2212	 6.97564831646653E-03 
2213	-6.55368136480327E-02 
2214	-1.73746716255173E-02 
2215	-1.38171439833604E-02 
2216	-0.066865522754318 
2217	-7.34568093505081E-02 
2218	-6.25527728710466E-03 
2219	 2.59760906932387E-02 
2220	 8.25781391008821E-03 
2221	 2.26832721127265E-02 
2222	 9.63865948645816E-02 
2223	 9.89635887852453E-02 
2224	 0.065392793912013 
2225	 6.46738524241971E-02 
2226	 9.18719949376693E-03 
2227	-1.32108898908575E-02 
2228	 2.75957786969473E-02 
2229	 0.027793300696606 
2230	 3.31427488488588E-02 
2231	 2.93267774711543E-02 
2232	-1.53750790302189E-02 
2233	-3.49105176239204E-02 
2234	-2.17829627852417E-02 
2235	-8.93225526906282E-02 
2236	-0.155174518319833 
2237	-0.111476966567534 
2238	-0.216954450446083 
2239	-0.216006918444525 
2240	-2.98391498575159E-02 
2241	-0.049646882456674 
2242	-3.64569559412547E-02 
2243	 3.44230103444731E-02 
2244	 4.34092900973229E-02 
2245	-5.21618012317612E-03 
2246	 4.03353780000393E-02 
2247	 5.27107099385224E-02 
2248	 0.005749968615676 
2249	 7.47217051404159E-02 
2250	 8.15444561096755E-03 
2251	 0.107574352229294 
2252	 0.420986040339333 
2253	 0.446880398165333 
2254	 0.522630761929232 
2255	 0.508505085844727 
2256	 0.328799695439304 
2257	 0.193502390331564 
2258	 0.177069425010263 
2259	 9.81383586149805E-02 
2260	 7.68816681253482E-02 
2261	 3.78969230415606E-02 
2262	 0.119229584956223 
2263	 0.390032762416624 
2264	 0.462811060649423 
2265	 0.557118860517537 
2266	 0.660410336600202 
2267	 0.366018184562428 
2268	 0.29281874827063 
2269	 0.6652159062572 
2270	 0.618262119009812 
2271	 0.415363086084036 
2272	 0.383400372005352 
2273	 0.311607927163744 
2274	 0.266407399390257 
2275	 0.228257617111076 
2276	 0.283081787844975 
2277	 0.348286562551664 
2278	 0.406938719052466 
2279	 0.760181934918324 
2280	 0.673976194417309 
2281	 0.283182291413352 
2282	 0.292525519455362 
2283	 0.214339110698877 
2284	 0.14288935914739 
2285	 0.198774268946388 
2286	 0.52122244522877 
2287	-2.04676242597231 
2288	 421.822924708245 
2289	 1.49258116920134 
2290	 2.01604429735351 
2291	 0.574879112266317 
2292	-0.11597415072772 
2293	 0.576268054447473 
2294	-5.55282243269551 
2295	-10.9214159316811 
2296	-0.774344302874821 
2297	-0.417128107538758 
2298	-0.371622152376937 
2299	-5.97730728194221E-02 
2300	-0.104761042224766 
2301	 7.92753869576871E-02 
2302	 0.396981400905272 
2303	 0.669606623895593 
2304	 1.48821230642446 
2305	 1.08810325155296 
2306	 0.698663846467541 
2307	 0.426616352841936 
2308	 8.25628782370179E-02 
2309	-0.178041982368908 
2310	-0.433817597048891 
2311	-0.54285496256422 
2312	-0.740119604727085 
2313	-0.834218719627925 
2314	-0.579257812770358 
2315	-0.389493597453549 
2316	-0.522036800152283 
2317	-0.808046173233344 
2318	-0.56202145025764 
2319	 7.56218506025824E-02 
2320	 1.74240295573682 
2321	 2.90143722559402 
2322	 2.57603387521509 
2323	 1.27002736493778 
2324	 0.357953178581871 
2325	 0.236387509996144 
2326	 0.484076815558185 
2327	 0.664983862929028 
2328	 0.569655955218959 
2329	 0.275854463018151 
2330	 0.125665472845217 
2331	 0.122276322623128 
2332	 0.105531028956373 
2333	-0.193217524017823 
2334	-1.03649690962045 
2335	-0.787026043679745 
2336	-0.643743165218455 
2337	-6.08140972300552E-03 
2338	 0.276490712786353 
2339	-0.098266483421903 
2340	-0.314252262749694 
2341	-0.758366544821024 
2342	-0.952353511688455 
2343	-1.30222128729944 
2344	-2.56296233575429 
2345	-7.23243029078183 
2346	-0.60192469187812 
2347	-1.3735554582597 
2348	-1.85973238789682 
2349	-1.49196232677798 
2350	 1.88690993926157 
2351	 1.80189688705696 
2352	-2.43665011276818 
2353	-1.62860098608336 
2354	-0.981308306701538 
2355	-0.609124344087143 
2356	-0.047922673107037 
2357	 5.31805195269611 
2358	 1.65075681908055 
2359	 1.44114589208277 
2360	 1.06250479930738 
2361	-9.74201358150112 
2362	-1.6709696191077 
2363	-1.35536606362667 
2364	-1.26223739473518 
2365	-1.20212822511083 
2366	 1.00491820871244 
2367	-85.3420764304928 
2368	-1.5180942154859 
2369	-0.97268378992063 
2370	-0.214242184257756 
2371	 0.223219570516465 
2372	 0.418538726300537 
2373	 0.849867699980561 
2374	 1.47154793819499 
2375	 1.62732053056781 
2376	 0.105920262882016 
2377	 0.423996068705701 
2378	 0.528287082137214 
2379	 0.370075843603707 
2380	-0.169221073023859 
2381	-0.297378850406019 
2382	-2.57488620160461 
2383	 9.4705086529085 
2384	 2.00700863126046 
2385	 1.54818557434767 
2386	 7.05228237383375 
2387	-9.59810017056324E-02 
2388	-1.92831766433254 
2389	 1.77060625244802 
2390	 4.79147793695826 
2391	 2.30914861386037 
2392	 1.94650786259643 
2393	-2.09207211877975 
2394	 1.12499158371644 
2395	 2.73053870598905 
2396	-5.64904221717322E-02 
2397	 1.20956658674941 
2398	 2.05861652824527 
2399	 1.46223770258611 
2400	-0.484782559620696 
2401	 0.827539558386413 
2402	 1.99523824927488 
2403	-2.68500200219094 
2404	-1.52137543328802 
2405	-1.40615762214519 
2406	-9.40211750020264E-02 
2407	 1.36849266292448 
2408	 1.218269308255 
2409	-0.593328285120962 
2410	 5.46027499598911E-02 
2411	-0.437148502296936 
2412	-4.76049864920465E-02 
2413	 0.26291880897808 
2414	-9.51483747753541E-02 
2415	-0.219751910774538 
2416	-0.45189252189052 
2417	-1.55426185329413 
2418	-1.75606924119095 
2419	-1.01318709385002 
2420	-0.629425122649208 
2421	-0.859091802507008 
2422	 0.534302145229627 
2423	 1.75439888191958 
2424	 2.79282632199731 
2425	 3.21543832596692 
2426	 5.51918516010928 
2427	-6.07449389521858 
2428	-1.70999728542644 
2429	-0.645039149005646 
2430	-1.25687892434872E-02 
2431	 0.540465522805 
2432	 1.33686693705843 
2433	 3.20458084871712 
2434	 2.66664092208051 
2435	 2.23188473563081 
2436	-275.596465126533 
2437	-1.43124725229957 
2438	-5.41776390029306E-02 
2439	 0.378274713559146 
2440	 0.537445700493532 
2441	 0.789535323006584 
2442	-6.68386072116188 
2443	-1.67829174591243 
2444	 12.1269447717759 
2445	 4.56703490443719 
2446	 2.90559655471099 
2447	 1.82739992881824 
2448	 2.00229468703806 
2449	 6.59799130248424 
2450	 11.9367065009938 
2451	-2.43382846791205 
2452	 6.37742009042153 
2453	 9.45401466176373E-02 
2454	-0.785602375701941 
2455	-1.13739382157183 
2456	-10.8318362179495 
2457	 6.63618589541567E-02 
2458	-0.868086065444357 
2459	-1.69880997024068 
2460	-3.50081232905531 
2461	-8.99222349725088 
2462	-38.966567554127 
2463	 1.8800771546403 
2464	-1.66595154030643 
2465	 39.3493153723426 
2466	 6.68474455784243 
2467	 11.7268007053433 
2468	 3.12540513599217 
2469	 0.597875034316565 
2470	-0.340086747002667 
2471	-1.17968447856318 
2472	-3.70459567615075 
2473	 1.9852275343611 
2474	 0.859636460870352 
2475	 0.804931737703169 
2476	-0.18205070755778 
2477	-0.151356827250589 
2478	-0.311212003542938 
2479	-1.03678494769053 
2480	-1.62213505583726 
2481	-3.09749686946377 
2482	-0.992225362274675 
2483	-0.668336975439319 
2484	-0.803426698094145 
2485	-0.363067817678342 
2486	-0.457290665277217 
2487	-0.370358991042862 
2488	 0.288503809202957 
2489	-3.75932647847398 
2490	-0.709417371793009 
2491	-0.171911861767956 
2492	 9.68190364163359E-02 
2493	 1.39511491794856 
2494	 2.67326844904454 
2495	 37.9617199367609 
2496	 5.03245086242234 
2497	 2.7695150660144 
2498	 2.63057281068385 
2499	 2.79214267169242 
2500	 10.1565704280264 
