Wavelength	rt0712west_close00007.asd
350	 7.41444042509008E-02 
351	 7.49979306521449E-02 
352	 7.41471983342642E-02 
353	 7.37123458038682E-02 
354	 7.46960746374373E-02 
355	 0.074341840346464 
356	 7.57309526600471E-02 
357	 7.59938147665228E-02 
358	 7.28433984469244E-02 
359	 7.45149492195528E-02 
360	 7.51970985735109E-02 
361	 7.46777750896573E-02 
362	 7.64082621043522E-02 
363	 7.63297950853111E-02 
364	 7.59553114614179E-02 
365	 7.59567224150978E-02 
366	 7.46219509697552E-02 
367	 7.53958957246517E-02 
368	 7.65114332285227E-02 
369	 0.076007356138412 
370	 7.64734925734119E-02 
371	 7.64880750852523E-02 
372	 7.61433832337435E-02 
373	 7.63783558155273E-02 
374	 7.69985645225752E-02 
375	 7.72180933870557E-02 
376	 7.70625963983486E-02 
377	 7.77199766359661E-02 
378	 7.79893367271995E-02 
379	 7.78882209650971E-02 
380	 7.77286417278398E-02 
381	 7.77009687908315E-02 
382	 7.80294084244085E-02 
383	 7.82898670834254E-02 
384	 7.80951058056867E-02 
385	 7.98332006242009E-02 
386	 7.98680413252371E-02 
387	 7.84536756351394E-02 
388	 8.03871454675681E-02 
389	 8.02862027150996E-02 
390	 8.04534691359442E-02 
391	 8.23666238656769E-02 
392	 8.18572940846044E-02 
393	 8.09811370494969E-02 
394	 8.07737057468215E-02 
395	 8.15065328081069E-02 
396	 8.19139962629304E-02 
397	 8.17345457871544E-02 
398	 8.15575921604031E-02 
399	 8.24790356078861E-02 
400	 8.24799807274929E-02 
401	 8.22179552521192E-02 
402	 8.24373720731426E-02 
403	 8.32431364247015E-02 
404	 8.31711490976485E-02 
405	 8.27575805243483E-02 
406	 8.31088396410276E-02 
407	 8.38002141142459E-02 
408	 8.39770143627352E-02 
409	 8.36831489322035E-02 
410	 8.38223008566534E-02 
411	 8.40043754493861E-02 
412	 8.43735435636167E-02 
413	 8.49189869755702E-02 
414	 8.50683558850268E-02 
415	 8.50871716377862E-02 
416	 0.085305995830969 
417	 8.59099291036399E-02 
418	 8.60116360026321E-02 
419	 8.62175936496781E-02 
420	 8.67301027771378E-02 
421	 0.087202271213443 
422	 8.75026978399783E-02 
423	 8.78097851366986E-02 
424	 0.088181156525791 
425	 8.80624268601252E-02 
426	 8.84503428111446E-02 
427	 8.91496204951182E-02 
428	 8.94653296300287E-02 
429	 8.97197330521675E-02 
430	 9.04793338135232E-02 
431	 9.14250513523837E-02 
432	 9.12283595991416E-02 
433	 9.11537327075017E-02 
434	 9.17775535645459E-02 
435	 9.29328119935225E-02 
436	 9.27598737073037E-02 
437	 9.29883205027491E-02 
438	 9.37456967158182E-02 
439	 9.42668216769108E-02 
440	 0.094501571802775 
441	 0.094928861379567 
442	 9.55883759144218E-02 
443	 0.09578351400842 
444	 9.60447155771096E-02 
445	 9.64840283919198E-02 
446	 9.70397887805654E-02 
447	 0.097492464533841 
448	 9.77030097808617E-02 
449	 0.097860006179012 
450	 9.83282309164438E-02 
451	 9.84487810952626E-02 
452	 9.87106042892469E-02 
453	 9.92724828261548E-02 
454	 9.92436816253716E-02 
455	 0.09961867563621 
456	 0.100064880194219 
457	 0.099993752233022 
458	 0.100178382931673 
459	 0.100428046908144 
460	 0.100684268619143 
461	 0.101053504636121 
462	 0.101227540443924 
463	 0.101268759329785 
464	 0.101324518980213 
465	 0.101532365679225 
466	 0.101918793539915 
467	 0.102205126934854 
468	 0.102098578309099 
469	 0.102424257860277 
470	 0.102720168708572 
471	 0.10280239882189 
472	 0.103022396180534 
473	 0.102872859860641 
474	 0.102936812117918 
475	 0.103650492936402 
476	 0.103900856900642 
477	 0.104238733377316 
478	 0.104673794028098 
479	 0.104870085524763 
480	 0.105042702950195 
481	 0.105344584105395 
482	 0.105798741199687 
483	 0.106193467109666 
484	 0.10652290911233 
485	 0.106818968671098 
486	 0.107167673511035 
487	 0.107810164138904 
488	 0.108234765959178 
489	 0.108436958769052 
490	 0.108919020637044 
491	 0.109602804787506 
492	 0.110095596593122 
493	 0.110261063518475 
494	 0.110836407966645 
495	 0.111381005918074 
496	 0.111868634989975 
497	 0.11242911138577 
498	 0.112632536704393 
499	 0.113057308669819 
500	 0.113807251119847 
501	 0.114074998590449 
502	 0.11460591238324 
503	 0.115157208490177 
504	 0.115423898437289 
505	 0.116030936046261 
506	 0.11694892067001 
507	 0.117855016427042 
508	 0.118280561643684 
509	 0.118762211784067 
510	 0.11949603680243 
511	 0.120431220853872 
512	 0.121102010033372 
513	 0.121911783701584 
514	 0.122646921487787 
515	 0.12298108724826 
516	 0.123784907655123 
517	 0.124622698996027 
518	 0.125305111447502 
519	 0.126095871368203 
520	 0.126742132095282 
521	 0.127341546899891 
522	 0.128073159688092 
523	 0.129123304387405 
524	 0.1300716730178 
525	 0.130873972037281 
526	 0.131759689930217 
527	 0.132677776580715 
528	 0.133433608671515 
529	 0.134102777114909 
530	 0.135406343997673 
531	 0.136175082166987 
532	 0.13675399906707 
533	 0.137872648772428 
534	 0.138878775206203 
535	 0.13973838949943 
536	 0.140574578132531 
537	 0.141630036713841 
538	 0.142598190942356 
539	 0.143452302361141 
540	 0.144273413128387 
541	 0.145272490210605 
542	 0.14607525706938 
543	 0.146897360056921 
544	 0.148229084038016 
545	 0.149182086830718 
546	 0.150298286716727 
547	 0.151749151958206 
548	 0.152657028851255 
549	 0.153541037178192 
550	 0.154556983310076 
551	 0.155699724282519 
552	 0.156753945965921 
553	 0.157846700363485 
554	 0.158871401169765 
555	 0.15944504256766 
556	 0.16035209576761 
557	 0.16148001625742 
558	 0.162531373640061 
559	 0.163459669782371 
560	 0.164149513336174 
561	 0.164837771531224 
562	 0.165898476583774 
563	 0.166569109763742 
564	 0.167231524123126 
565	 0.168058664892384 
566	 0.168487224119022 
567	 0.169071066430458 
568	 0.169659868430345 
569	 0.169982602736774 
570	 0.170733950247759 
571	 0.171483401733252 
572	 0.172004063647133 
573	 0.17236630646259 
574	 0.172928394501296 
575	 0.173597080570211 
576	 0.174197021406619 
577	 0.174697002898173 
578	 0.175130361447507 
579	 0.175617710882664 
580	 0.176257322648084 
581	 0.17642067477104 
582	 0.176568987901246 
583	 0.176884890503485 
584	 0.176808535034441 
585	 0.176479604574702 
586	 0.175807298911042 
587	 0.17466887199163 
588	 0.17331261050545 
589	 0.172624449498292 
590	 0.172758570246624 
591	 0.172900438286875 
592	 0.173391748964467 
593	 0.1735058721496 
594	 0.172901476472392 
595	 0.172939358914377 
596	 0.172882247065391 
597	 0.17270748276971 
598	 0.172711438166554 
599	 0.172469555217556 
600	 0.172119921253068 
601	 0.171863380946961 
602	 0.171916937006821 
603	 0.171877054422672 
604	 0.171847810769589 
605	 0.172010218710429 
606	 0.172074380460254 
607	 0.172044764119393 
608	 0.171900362375032 
609	 0.171608928222913 
610	 0.171938064156027 
611	 0.172246915376136 
612	 0.172042065612578 
613	 0.172172419620099 
614	 0.172421050679196 
615	 0.172410401767901 
616	 0.17185224104413 
617	 0.172247736964954 
618	 0.17227465322296 
619	 0.171672864832309 
620	 0.17244988571656 
621	 0.172201565234468 
622	 0.171641362846756 
623	 0.171984765740568 
624	 0.171564701957663 
625	 0.17105766689627 
626	 0.170779226769859 
627	 0.170603134921074 
628	 0.170299676159883 
629	 0.170356043307224 
630	 0.170927498331341 
631	 0.171046983338853 
632	 0.170974751610987 
633	 0.170907245691807 
634	 0.170998608688404 
635	 0.171125421363504 
636	 0.171308868108698 
637	 0.171529234480095 
638	 0.171703571202034 
639	 0.171617744877776 
640	 0.171515235045945 
641	 0.171601287065143 
642	 0.17132412756553 
643	 0.171062258391353 
644	 0.170590840826379 
645	 0.169208838857759 
646	 0.168228751900944 
647	 0.167958836987638 
648	 0.168246685991464 
649	 0.168538162028366 
650	 0.168927342790737 
651	 0.169103055241506 
652	 0.168751395903044 
653	 0.168575552045094 
654	 0.167958163833152 
655	 0.166976998379061 
656	 0.166883482666637 
657	 0.166908440725929 
658	 0.16675967108011 
659	 0.166464214856443 
660	 0.166706718372536 
661	 0.166225353125138 
662	 0.165514810039988 
663	 0.165926887429821 
664	 0.165560222461226 
665	 0.165301342899652 
666	 0.165553453815806 
667	 0.16523619339054 
668	 0.165137380364846 
669	 0.165208357749364 
670	 0.165138904977502 
671	 0.164679124591802 
672	 0.164656023747206 
673	 0.165032426908421 
674	 0.164963996676282 
675	 0.164994601673104 
676	 0.165102463120835 
677	 0.165200157102268 
678	 0.165279525881812 
679	 0.165543615695785 
680	 0.165626774800586 
681	 0.165143457024849 
682	 0.165585346991607 
683	 0.165716431585032 
684	 0.165092510021624 
685	 0.16456613828267 
686	 0.163959402219743 
687	 0.163562821981887 
688	 0.163576228331305 
689	 0.163510273791411 
690	 0.163234055531113 
691	 0.162450388503638 
692	 0.160864920607075 
693	 0.160224341817349 
694	 0.160522944108935 
695	 0.161117984964077 
696	 0.161453326241922 
697	 0.160272643921025 
698	 0.15839261445393 
699	 0.157387762091544 
700	 0.156963858305999 
701	 0.156681160401976 
702	 0.156158771244848 
703	 0.155168228969088 
704	 0.154352336642402 
705	 0.153158942610589 
706	 0.15156539947592 
707	 0.150924779466617 
708	 0.149925952645927 
709	 0.148483808954556 
710	 0.146991649731881 
711	 0.145678683722455 
712	 0.14381262396549 
713	 0.141293013993213 
714	 0.138682117447477 
715	 0.135515598524456 
716	 0.130934824257614 
717	 0.125353272451319 
718	 0.122431648784766 
719	 0.121651397402704 
720	 0.121320013006056 
721	 0.120268045783911 
722	 0.11834682833778 
723	 0.115127556602488 
724	 0.111486386032837 
725	 0.10900528886905 
726	 0.107019031024303 
727	 0.104570102590031 
728	 0.101360140996102 
729	 9.90873599021894E-02 
730	 9.64701771533797E-02 
731	 9.38208944909789E-02 
732	 9.16310463184084E-02 
733	 9.04540828522018E-02 
734	 8.90400655537217E-02 
735	 8.70998056485595E-02 
736	 0.085671264038128 
737	 8.46585655668299E-02 
738	 8.42038197706428E-02 
739	 8.42450723510931E-02 
740	 8.41447188836296E-02 
741	 8.36624692909447E-02 
742	 0.083364191934566 
743	 8.39305651734112E-02 
744	 8.38119125090939E-02 
745	 8.34580222493659E-02 
746	 8.32806696762842E-02 
747	 8.33759701422598E-02 
748	 8.35426862920969E-02 
749	 8.34642611667088E-02 
750	 8.30751998500819E-02 
751	 8.31787450754699E-02 
752	 0.083306342522157 
753	 8.32219827057498E-02 
754	 8.29048228765066E-02 
755	 8.29042265100472E-02 
756	 8.28273269929377E-02 
757	 8.25136038923135E-02 
758	 8.22042737523777E-02 
759	 8.07368730765137E-02 
760	 7.85071958760622E-02 
761	 7.88115098879881E-02 
762	 7.78373080050055E-02 
763	 7.84298247182467E-02 
764	 8.00756274512809E-02 
765	 8.14555906895356E-02 
766	 8.22302317639474E-02 
767	 8.27719436498784E-02 
768	 8.32696106122091E-02 
769	 8.37665127529909E-02 
770	 8.42771353924653E-02 
771	 8.45138428688795E-02 
772	 8.44903942861952E-02 
773	 8.52167882584486E-02 
774	 8.55715584015062E-02 
775	 8.57082529869684E-02 
776	 8.62162762355796E-02 
777	 8.66613790819402E-02 
778	 8.68340882488552E-02 
779	 8.69958782554167E-02 
780	 8.77829700517841E-02 
781	 8.79040603427066E-02 
782	 8.80775275123465E-02 
783	 8.87254573353867E-02 
784	 8.86573052244477E-02 
785	 8.90592342793666E-02 
786	 8.96895524695549E-02 
787	 8.98638230876074E-02 
788	 8.97900482313945E-02 
789	 9.04833137315574E-02 
790	 9.17520860043962E-02 
791	 9.24436128452015E-02 
792	 9.28676229134023E-02 
793	 9.29861622730315E-02 
794	 9.29905784907937E-02 
795	 9.35045677370347E-02 
796	 9.39839664861453E-02 
797	 9.45432465870941E-02 
798	 9.52976451962841E-02 
799	 0.095575933462159 
800	 9.53225866685962E-02 
801	 9.55013497288897E-02 
802	 9.71558674308178E-02 
803	 9.75276283126226E-02 
804	 9.76852574095918E-02 
805	 9.81082230637025E-02 
806	 9.83160708774323E-02 
807	 9.81041543873354E-02 
808	 9.73224326497152E-02 
809	 9.61285782835876E-02 
810	 9.54783718031436E-02 
811	 9.53868688431471E-02 
812	 9.48257925899404E-02 
813	 9.24439463587651E-02 
814	 9.02463545205404E-02 
815	 8.94253991696134E-02 
816	 8.95817898393159E-02 
817	 8.90522014564535E-02 
818	 8.89360780805212E-02 
819	 8.90896523957336E-02 
820	 8.90206190179196E-02 
821	 8.78549970260382E-02 
822	 8.53531870904506E-02 
823	 8.30369990412271E-02 
824	 8.18723724223558E-02 
825	 8.04717505041626E-02 
826	 0.078277606640966 
827	 7.60878255207456E-02 
828	 7.49592189308362E-02 
829	 7.18716156224688E-02 
830	 7.00361695505506E-02 
831	 0.069316451764211 
832	 6.74648105585799E-02 
833	 6.60232794094931E-02 
834	 6.61569007270573E-02 
835	 6.69665306297566E-02 
836	 6.54613990497726E-02 
837	 0.064574363757571 
838	 6.43686645551089E-02 
839	 6.43142520932882E-02 
840	 6.40030630953446E-02 
841	 6.34478128002638E-02 
842	 6.30019456064275E-02 
843	 6.29227959253655E-02 
844	 6.24157701762147E-02 
845	 0.062135771367652 
846	 6.23287444846955E-02 
847	 6.27720332125715E-02 
848	 6.19849358142534E-02 
849	 6.12675467351336E-02 
850	 6.10947340938447E-02 
851	 0.060466648517539 
852	 6.00146646321004E-02 
853	 6.03115290572191E-02 
854	 6.08222915785912E-02 
855	 5.88145384159267E-02 
856	 5.88417461782441E-02 
857	 5.95910202182577E-02 
858	 5.90825703907723E-02 
859	 5.90143619069968E-02 
860	 5.89819269020592E-02 
861	 5.82446136427872E-02 
862	 5.65020269516278E-02 
863	 5.69818801555933E-02 
864	 5.76580792043799E-02 
865	 5.74841163542526E-02 
866	 5.67992104637925E-02 
867	 5.66359115202176E-02 
868	 0.056463549042173 
869	 0.055924530541391 
870	 5.51956873357117E-02 
871	 5.43035367437223E-02 
872	 5.43330619949867E-02 
873	 5.52539895526514E-02 
874	 5.40940918658564E-02 
875	 5.36781636963623E-02 
876	 5.35563140262421E-02 
877	 5.27697103359756E-02 
878	 5.25265584228074E-02 
879	 5.17886477559533E-02 
880	 5.11011623221902E-02 
881	 0.051338929958472 
882	 5.05507328747416E-02 
883	 0.050463427424782 
884	 5.11146434357107E-02 
885	 5.10402030346364E-02 
886	 0.048987088473478 
887	 4.81405684515578E-02 
888	 4.95163796090267E-02 
889	 5.08938336242242E-02 
890	 4.95142852050441E-02 
891	 4.78365267304253E-02 
892	 4.77420709612697E-02 
893	 0.047432190717884 
894	 4.70253205565613E-02 
895	 4.63242575703964E-02 
896	 4.54497338088982E-02 
897	 4.58866167276277E-02 
898	 4.52294399187521E-02 
899	 4.44593385548031E-02 
900	 4.48662652883185E-02 
901	 4.41103611037081E-02 
902	 4.13502950769427E-02 
903	 4.03755302172658E-02 
904	 4.42095667781114E-02 
905	 4.45707293054013E-02 
906	 4.27483104000711E-02 
907	 4.05650984435295E-02 
908	 4.02823786077548E-02 
909	 4.11378027889113E-02 
910	 4.22030678086076E-02 
911	 4.10109624038282E-02 
912	 3.54397160022186E-02 
913	 3.85690791851592E-02 
914	 4.04940617832476E-02 
915	 3.86002070309201E-02 
916	 4.12888892633142E-02 
917	 4.02482910008202E-02 
918	 4.01459314507559E-02 
919	 0.041368475329582 
920	 3.79338576919909E-02 
921	 3.98359196578905E-02 
922	 4.01399222050565E-02 
923	 3.53202103825011E-02 
924	 3.68802439636582E-02 
925	 3.66475387592976E-02 
926	 3.65580487874089E-02 
927	 3.89398152641004E-02 
928	 0.029993084709989 
929	 0.046749024283833 
930	 6.48867961916758E-02 
931	 1.81238810721554E-02 
932	 2.83829888260217E-02 
933	 0.067123608049568 
934	 8.91084075028413E-02 
935	 7.27225116413561E-02 
936	 8.76035157965083E-02 
937	 8.05651718010835E-02 
938	 6.85499749865971E-02 
939	 7.27577072002396E-02 
940	 4.82040737711189E-02 
941	 0.058979110078286 
942	 6.50061545929578E-02 
943	-2.97289965702015E-03 
944	-1.58485482173618E-02 
945	 1.12045216058019E-02 
946	 2.45865913198712E-02 
947	-9.14494240250942E-03 
948	 3.56917118945857E-02 
949	 4.08636158709363E-02 
950	 5.27645727155626E-03 
951	 4.45000044442206E-03 
952	 4.07543582867783E-02 
953	 4.02584316662634E-02 
954	 2.52653458081187E-02 
955	 5.78877492166086E-02 
956	 4.93105816811394E-02 
957	 3.44072284825421E-02 
958	 3.86773173361536E-02 
959	 6.23903146751729E-02 
960	 4.48164042133597E-02 
961	 2.95438787262146E-02 
962	 3.47736838747998E-02 
963	 4.95362674659604E-02 
964	 0.030112074506496 
965	 2.16706279538252E-02 
966	 3.36149572714917E-02 
967	 0.04666081430248 
968	 4.28334829491303E-02 
969	 3.80321163229803E-02 
970	 3.85694754125125E-02 
971	 4.00566834554473E-02 
972	 0.034232159811719 
973	 3.20903323260359E-02 
974	 3.49143979604777E-02 
975	 0.03332351719472 
976	 3.71899027408902E-02 
977	 3.76576868002156E-02 
978	 3.54113870023552E-02 
979	 3.80319259375573E-02 
980	 3.71074708825161E-02 
981	 3.28099725513548E-02 
982	 3.15286632867141E-02 
983	 0.039928900650013 
984	 4.16984615834696E-02 
985	 3.84921163876721E-02 
986	 3.51537047986322E-02 
987	 3.64522154095343E-02 
988	 3.92382764318029E-02 
989	 3.66512659914296E-02 
990	 0.031998402975243 
991	 3.45358114755489E-02 
992	 3.90231512895681E-02 
993	 0.040628141732382 
994	 3.95141543060248E-02 
995	 3.93039181129649E-02 
996	 0.041966463136928 
997	 4.27802453749765E-02 
998	 0.040751069909019 
999	 3.75871996795499E-02 
1000	 3.16190718409431E-02 
1001	 0.031450121391263 
1002	 3.01475677790816E-02 
1003	 2.93427882018643E-02 
1004	 3.00089399829823E-02 
1005	 3.06472727228205E-02 
1006	 3.21768049102006E-02 
1007	 3.13885396090359E-02 
1008	 3.00390984552477E-02 
1009	 3.21829496296088E-02 
1010	 3.08877114252235E-02 
1011	 0.029747034510401 
1012	 3.23529036668752E-02 
1013	 3.03294189492235E-02 
1014	 2.99264063202544E-02 
1015	 3.03674458584641E-02 
1016	 3.03287897173773E-02 
1017	 2.92757501426181E-02 
1018	 3.00539423118577E-02 
1019	 3.21934556727217E-02 
1020	 3.29062239811656E-02 
1021	 3.47064945924444E-02 
1022	 0.033941321497788 
1023	 3.17966057254466E-02 
1024	 3.24442542510484E-02 
1025	 3.25642683152943E-02 
1026	 3.11869741637682E-02 
1027	 3.12912084028513E-02 
1028	 0.032688470023238 
1029	 3.18457971559552E-02 
1030	 3.00775845129895E-02 
1031	 2.95763385911023E-02 
1032	 2.75964779171171E-02 
1033	 2.71820984658113E-02 
1034	 2.91601805133425E-02 
1035	 2.99007961735133E-02 
1036	 3.02586953221249E-02 
1037	 3.08409113664395E-02 
1038	 3.13555474247874E-02 
1039	 3.20254095771731E-02 
1040	 0.033103991306492 
1041	 3.15796947754966E-02 
1042	 0.031715363800912 
1043	 3.17165107949617E-02 
1044	 3.21505643378667E-02 
1045	 3.33156629058388E-02 
1046	 0.034200948378517 
1047	 3.54903026395234E-02 
1048	 3.54483731041466E-02 
1049	 3.45717515073736E-02 
1050	 0.034177895958741 
1051	 3.33491015515338E-02 
1052	 3.23690112175155E-02 
1053	 3.00713299558565E-02 
1054	 3.04223219948934E-02 
1055	 3.26228727200018E-02 
1056	 3.36506644058731E-02 
1057	 3.50657297925992E-02 
1058	 3.93813223307791E-02 
1059	 3.94070343086935E-02 
1060	 3.71516663509244E-02 
1061	 3.44659712104381E-02 
1062	 2.79894609973057E-02 
1063	 2.67477304600689E-02 
1064	 0.026347200800708 
1065	 2.71838860474886E-02 
1066	 3.46403505074077E-02 
1067	 3.59141298873866E-02 
1068	 3.28946286279883E-02 
1069	 3.23181969947989E-02 
1070	 2.92627873719963E-02 
1071	 2.82654077204056E-02 
1072	 2.96206451227484E-02 
1073	 3.18301231723097E-02 
1074	 0.033146737455622 
1075	 3.54620265849147E-02 
1076	 3.52765925862305E-02 
1077	 3.33926342044727E-02 
1078	 0.032871539723932 
1079	 2.96060472768272E-02 
1080	 3.03517447590575E-02 
1081	 3.74431651307265E-02 
1082	 3.76479266527426E-02 
1083	 3.57232887003798E-02 
1084	 3.38712665450437E-02 
1085	 2.47240265432413E-02 
1086	 2.17525619272712E-02 
1087	 2.31111914413733E-02 
1088	 2.46270402869206E-02 
1089	 3.22743728258036E-02 
1090	 3.45735270621357E-02 
1091	 0.035564075632766 
1092	 3.50610120110592E-02 
1093	 3.55267362244498E-02 
1094	 3.28389300195741E-02 
1095	 3.18694412171889E-02 
1096	 3.18048928599524E-02 
1097	 3.18510774159586E-02 
1098	 3.30337163738744E-02 
1099	 3.35018598642846E-02 
1100	 3.28135449287327E-02 
1101	 3.50911751443855E-02 
1102	 4.24358955467829E-02 
1103	 4.07820643938714E-02 
1104	 3.08889452089104E-02 
1105	 3.19501836553864E-02 
1106	 2.48581492932032E-02 
1107	 1.57243779818739E-02 
1108	 2.73499522433614E-02 
1109	 3.94314778896974E-02 
1110	 3.97755790067029E-02 
1111	 2.94178356876051E-02 
1112	 0.026655320365439 
1113	 8.43380498664785E-03 
1114	 6.99697003391787E-03 
1115	 4.34027473786567E-02 
1116	 5.06210302917212E-02 
1117	 3.61285420776919E-02 
1118	 3.13140585717819E-02 
1119	-1.51353939311376E-02 
1120	-0.034901862988381 
1121	-4.1259617704745E-03 
1122	 7.66315131023746E-02 
1123	 1.89291343284628E-02 
1124	-0.25159750119759 
1125	-0.352837375966342 
1126	-0.260350728039715 
1127	-0.135161455181192 
1128	 5.52515482920184E-02 
1129	 0.119178149145876 
1130	-6.35407024411106E-03 
1131	-5.35498791692121E-02 
1132	-8.22221507800174E-02 
1133	-3.61619468960391E-02 
1134	-1.15819748668738E-02 
1135	 4.27584037009413E-03 
1136	 0.107497589870549 
1137	 0.108817404733332 
1138	 4.76581917816721E-02 
1139	 4.12798813666518E-02 
1140	-4.86855675221488E-02 
1141	-0.123982679014642 
1142	-8.97229211248875E-02 
1143	-7.56134849735152E-02 
1144	-5.69765832355525E-02 
1145	 1.67384705648213E-02 
1146	 1.82498992617634E-02 
1147	-0.034974644476547 
1148	 2.00301448252362E-03 
1149	 9.73741592032305E-03 
1150	 7.79913288980642E-03 
1151	 5.08618347769241E-03 
1152	 8.2113708414791E-03 
1153	 9.67175534456154E-03 
1154	-1.98581044321072E-03 
1155	-1.83613365295469E-02 
1156	-3.03913014288163E-02 
1157	-1.83542367124339E-02 
1158	 4.75227451095662E-03 
1159	 2.27099254612255E-02 
1160	 2.24310162663661E-02 
1161	 1.46500834292653E-02 
1162	 0.01368299770892 
1163	 2.05999555489124E-02 
1164	 2.84770605722532E-02 
1165	 2.96239699763569E-02 
1166	 2.87334558123996E-02 
1167	 2.81924960647709E-02 
1168	 3.11224029638551E-02 
1169	 3.45128450434614E-02 
1170	 2.95612966904698E-02 
1171	 2.90481858312175E-02 
1172	 2.97283446092576E-02 
1173	 0.028273493903522 
1174	 2.59243037565459E-02 
1175	 2.72197429219849E-02 
1176	 2.82795921258854E-02 
1177	 2.48082808506284E-02 
1178	 2.65109245327804E-02 
1179	 3.17855819568059E-02 
1180	 3.52516758798443E-02 
1181	 3.58584526124659E-02 
1182	 3.32373782671724E-02 
1183	 2.93321068323777E-02 
1184	 2.60565621276839E-02 
1185	 0.024807703056662 
1186	 2.64815460133062E-02 
1187	 2.70983901471864E-02 
1188	 2.80822844980354E-02 
1189	 2.94338051447137E-02 
1190	 2.85131638875323E-02 
1191	 3.19196681658679E-02 
1192	 3.24622822338305E-02 
1193	 3.16549278148875E-02 
1194	 0.027332591927361 
1195	 2.74833323600562E-02 
1196	 0.027260792305793 
1197	 2.73848189845396E-02 
1198	 2.94323652014424E-02 
1199	 2.91460552166281E-02 
1200	 3.02511748152048E-02 
1201	 3.30263380959824E-02 
1202	 3.03796629361027E-02 
1203	 2.89104652744244E-02 
1204	 3.11240437509797E-02 
1205	 2.95082463119393E-02 
1206	 2.91330220553064E-02 
1207	 3.15517735677792E-02 
1208	 2.83728515875222E-02 
1209	 2.71871872849741E-02 
1210	 3.11774993672501E-02 
1211	 2.92270584067746E-02 
1212	 0.027216498543687 
1213	 2.99885509961343E-02 
1214	 3.05630330102592E-02 
1215	 0.030026506084063 
1216	 0.031286127812815 
1217	 0.029926189550819 
1218	 2.33052443383654E-02 
1219	 2.12994138889191E-02 
1220	 2.43230888618153E-02 
1221	 2.75089749224006E-02 
1222	 2.95396746064908E-02 
1223	 2.96600804464467E-02 
1224	 2.73947493903906E-02 
1225	 2.60472516241805E-02 
1226	 2.98186801361527E-02 
1227	 3.19612273595262E-02 
1228	 2.92232343921001E-02 
1229	 2.97393514001568E-02 
1230	 3.19582225902478E-02 
1231	 3.14253128402722E-02 
1232	 3.18097767558436E-02 
1233	 3.31901170944578E-02 
1234	 3.09126060933395E-02 
1235	 2.97337272898675E-02 
1236	 3.00758843176799E-02 
1237	 3.12476703189595E-02 
1238	 3.31818146504048E-02 
1239	 3.09223581171718E-02 
1240	 3.18582472827475E-02 
1241	 3.32610501949387E-02 
1242	 3.08103536455037E-02 
1243	 2.97811409659396E-02 
1244	 3.37185913679279E-02 
1245	 3.48623688304319E-02 
1246	 3.20396996574517E-02 
1247	 3.27110809873788E-02 
1248	 3.30978839927634E-02 
1249	 2.89639562172988E-02 
1250	 2.74533319173891E-02 
1251	 3.11321883390292E-02 
1252	 3.22409133674347E-02 
1253	 2.93807189911575E-02 
1254	 3.10261079503845E-02 
1255	 3.30049385163421E-02 
1256	 3.23909161737128E-02 
1257	 3.00661316697197E-02 
1258	 3.10456452157278E-02 
1259	 3.14797877666855E-02 
1260	 3.12637994726331E-02 
1261	 3.30674759741507E-02 
1262	 3.51221308294941E-02 
1263	 3.77787697637233E-02 
1264	 3.54874853102978E-02 
1265	 3.19881635687406E-02 
1266	 3.37065795661024E-02 
1267	 3.34039691412463E-02 
1268	 0.030557081810643 
1269	 3.46619074446441E-02 
1270	 3.70390876645146E-02 
1271	 0.030983282025932 
1272	 2.86612918053587E-02 
1273	 3.17377122215379E-02 
1274	 3.18610955644585E-02 
1275	 3.04936010578254E-02 
1276	 3.26370001595439E-02 
1277	 0.034259221216128 
1278	 3.30003846731065E-02 
1279	 3.15297752539691E-02 
1280	 3.04892464188132E-02 
1281	 3.16226281152261E-02 
1282	 3.42881159030154E-02 
1283	 3.34237055450394E-02 
1284	 3.28787497824763E-02 
1285	 3.30239909731851E-02 
1286	 2.83930393267476E-02 
1287	 2.69695483660957E-02 
1288	 3.19769457909313E-02 
1289	 3.37508621458816E-02 
1290	 3.47290569710355E-02 
1291	 0.031388276117374 
1292	 3.15496102842266E-02 
1293	 3.25540242108348E-02 
1294	 0.031835562437287 
1295	 3.29923528841425E-02 
1296	 0.040503978720003 
1297	 0.042355203702541 
1298	 3.53725134832781E-02 
1299	 3.82722361722956E-02 
1300	 3.98243717614718E-02 
1301	 3.26054123476447E-02 
1302	 3.39565367005098E-02 
1303	 3.84557566571273E-02 
1304	 3.87917252920816E-02 
1305	 3.88258925193144E-02 
1306	 3.78513506411215E-02 
1307	 3.69830324348174E-02 
1308	 3.44125135369781E-02 
1309	 2.71381157567461E-02 
1310	 2.57457575425205E-02 
1311	 2.83371344462178E-02 
1312	 2.83513392218641E-02 
1313	 3.11063750820077E-02 
1314	 2.86391633477741E-02 
1315	 1.71152292790125E-02 
1316	 1.70804316651299E-02 
1317	 2.50906866532271E-02 
1318	 2.56274908339387E-02 
1319	 2.97357815182479E-02 
1320	 3.37993906344296E-02 
1321	 3.03912988208783E-02 
1322	 3.15432009639605E-02 
1323	 3.23659103463577E-02 
1324	 1.99431167373398E-02 
1325	 2.35458728442765E-02 
1326	 3.52098305961289E-02 
1327	 4.82479601151806E-02 
1328	 6.71682026271693E-02 
1329	 6.01300373060945E-02 
1330	 3.19776455082323E-02 
1331	 1.99823565308734E-02 
1332	 0.039808085903575 
1333	 2.05023857073754E-02 
1334	-0.042385828768925 
1335	-5.40789752212705E-02 
1336	-4.66527154120738E-02 
1337	-5.43544054037104E-02 
1338	-0.020014233011757 
1339	-7.68437563252422E-03 
1340	-2.83154357092217E-02 
1341	-5.50051111654468E-02 
1342	-9.87914381242574E-02 
1343	-9.86350733422728E-02 
1344	-8.59142654678049E-02 
1345	-9.14955485065745E-02 
1346	-1.74701176318065E-02 
1347	-1.91628468515165E-03 
1348	-0.156551030352703 
1349	-0.194439832269662 
1350	-0.135281048043714 
1351	-0.136023112104249 
1352	-6.39251714825208E-02 
1353	 5.07036551901474E-02 
1354	 7.58454369986181E-02 
1355	 1.15515908090099 
1356	 5.62971749186206 
1357	-1.25602088069017 
1358	-3.47501458341091 
1359	 2.7236117854258 
1360	-0.723581499198382 
1361	-0.218884383374784 
1362	-0.290454228460257 
1363	 0.377852747945663 
1364	-0.639541602567102 
1365	-0.571833981990388 
1366	-9.18241458852938E-02 
1367	-10.4166238395471 
1368	 12.1718719853367 
1369	 1.03735836871813 
1370	 0.775007070812771 
1371	 3.13923799403162 
1372	 9.02700327110361 
1373	-3.61556200305404 
1374	-12.3165061679432 
1375	 1.56036687230775 
1376	 9.77946698608433 
1377	-0.962841220346857 
1378	-1.5200420503918 
1379	-1.05880501318329 
1380	-1.13015963365528 
1381	-9.36336990001599 
1382	-12.835405553188 
1383	-1.94518051859553 
1384	-1.58768127688294 
1385	-1.37263172400529 
1386	-1.34978823742926 
1387	-6.73969116135404 
1388	-17.1805066674 
1389	-2.26819250494677 
1390	-2.58973177612794 
1391	-8.99612697131022 
1392	-2.55813607957915 
1393	-6.48758793486488E-02 
1394	-0.074132166739475 
1395	 0.280301176516634 
1396	 0.75550558338722 
1397	 2.52029011666909 
1398	 2.39735221527357 
1399	 14.3617446005697 
1400	-1.75367845087158 
1401	-0.848941020801816 
1402	-0.388866051934799 
1403	-0.856067415909311 
1404	-1.99189257488392 
1405	-3.08435574111561 
1406	 5.97155828789914 
1407	 6.01911246974838 
1408	-2.58164550057872 
1409	-2.10374563294459 
1410	-3.30054529987071 
1411	-3.05572732282647 
1412	-1.97425748196559 
1413	-5.31028379936537 
1414	 2.57541973202923 
1415	 6.92108524260481 
1416	-11.6193938706336 
1417	-5.88144238215086 
1418	-0.807047431513338 
1419	-0.603139199918995 
1420	-0.613210780071106 
1421	-0.524901869400022 
1422	-2.79166582870106 
1423	-5.75003146537232 
1424	 2.01441671572926 
1425	 0.637937252329494 
1426	 9.11306932436816E-02 
1427	-0.134747726148147 
1428	-0.613447255824266 
1429	-0.489500872821207 
1430	-0.631635720909288 
1431	-1.01058038843216 
1432	-1.52544068736855 
1433	-0.939589054934566 
1434	-0.313492815846201 
1435	-0.496103903574794 
1436	-4.56710717565928 
1437	-2.47960060130387 
1438	-0.577534684219353 
1439	-1.34271692735722 
1440	-20.3962933564541 
1441	 41.4945731141382 
1442	-1.93249323819132 
1443	-2.18157405741574 
1444	-3.17711601891211 
1445	-1.74329645660067 
1446	-1.51717636609082 
1447	-4.40081285870503 
1448	-2.68059819017381 
1449	-3.05083826687635 
1450	 5.16424539458313 
1451	 2.99360906649189 
1452	-23.8280984870447 
1453	-1.20493582429718 
1454	-1.23487406165738 
1455	-190.594613833786 
1456	-3.01820332570205 
1457	-1.88975928648123 
1458	-1.94192458884466 
1459	-1.51185746748524 
1460	-0.859856891911965 
1461	-0.247945423928103 
1462	-0.341813131023663 
1463	-2.64375771861654 
1464	-1.70408355764591 
1465	-2.04194681856758 
1466	-4.97256206035449 
1467	-0.456565937192864 
1468	-0.167594094116917 
1469	 0.258185990546875 
1470	 0.118621705057983 
1471	 0.708692459948441 
1472	 6.16477934016566E-02 
1473	 65.5046546726729 
1474	-1.95035800069965 
1475	-0.133785946826091 
1476	-0.100924535491385 
1477	-0.237151236846591 
1478	-0.196826829564561 
1479	 0.182615271573422 
1480	 5.01313852074601 
1481	-30.1279711399005 
1482	 7.424757147052 
1483	 9.82337250895473 
1484	-32.602704091776 
1485	-4.6905184874057 
1486	-2.68218417835485 
1487	-1.33111377375775 
1488	-1.22709584052431 
1489	-1.94696189703581 
1490	-1.21325805907269 
1491	-0.51657139199463 
1492	-0.559866751019489 
1493	-0.61643700394877 
1494	-0.535745447741005 
1495	-0.852574869770044 
1496	-0.785960612652155 
1497	-0.387591881187614 
1498	-0.263517681327818 
1499	-0.204669978329751 
1500	-9.39567164194622E-02 
1501	 0.122331983882471 
1502	 0.13845567893834 
1503	-8.76758110987413E-03 
1504	-9.00815987794286E-03 
1505	-3.05488639874492E-02 
1506	-5.69208311707505E-02 
1507	-2.68533341784458E-02 
1508	 6.52568467084714E-02 
1509	 9.20571465905665E-02 
1510	 5.16585194193824E-02 
1511	 0.033206444633424 
1512	 6.26333928009443E-02 
1513	 3.94043529627701E-03 
1514	-0.130308419509092 
1515	-0.126213238412215 
1516	-9.18529682050037E-02 
1517	-8.92099428633867E-02 
1518	-3.17698997425971E-02 
1519	-3.67458346379075E-02 
1520	-7.37112618557188E-02 
1521	-5.40934153289823E-02 
1522	-1.31331141974283E-02 
1523	 2.19700491255339E-02 
1524	 4.79817213415265E-02 
1525	 4.43600809214117E-02 
1526	 3.00463721010683E-02 
1527	 5.79653134992826E-02 
1528	 8.33887188535578E-02 
1529	 5.24382953114241E-02 
1530	 2.68048607278519E-02 
1531	 9.20996777587712E-03 
1532	-1.98404883474377E-02 
1533	-4.70533722245782E-02 
1534	-2.62486789547576E-02 
1535	 1.62266450769172E-02 
1536	-9.43057654137677E-03 
1537	 3.64542753402848E-04 
1538	 5.93820463494826E-02 
1539	 0.055401399995225 
1540	 4.85992456288742E-02 
1541	 3.92520666683751E-02 
1542	 8.75699708686958E-03 
1543	-1.98869515165702E-02 
1544	-5.24854184496486E-02 
1545	-5.59411719142178E-02 
1546	-4.17657845865603E-02 
1547	-4.75253048726195E-02 
1548	-5.22237310912348E-02 
1549	-4.97636465142163E-02 
1550	-0.052030292496625 
1551	-2.65091292386318E-02 
1552	 9.6080104513104E-03 
1553	 4.34266991530956E-02 
1554	 3.83974065476856E-02 
1555	-7.33311463612237E-03 
1556	 8.09841435838102E-03 
1557	 2.12926874883744E-02 
1558	 9.49179710735591E-03 
1559	 3.31573241063999E-02 
1560	 3.90713047115689E-02 
1561	 2.92084347100093E-02 
1562	 2.98675368036953E-02 
1563	 7.98893256318159E-03 
1564	-0.016446425431497 
1565	-3.17815734638157E-02 
1566	-0.041327849734617 
1567	-1.94774536433891E-02 
1568	 1.62185207501329E-02 
1569	 4.68674004809518E-02 
1570	 5.17300197662362E-02 
1571	 1.51461083281425E-02 
1572	-3.65846942431804E-03 
1573	 6.00023724602983E-03 
1574	 1.28121375200222E-02 
1575	 3.70604488031388E-02 
1576	 2.90178409259362E-02 
1577	-1.84215116536602E-02 
1578	-3.41809896669862E-02 
1579	-2.44626331794343E-02 
1580	-1.80678701897108E-02 
1581	-1.40518520740956E-02 
1582	 6.93958195076621E-04 
1583	 7.3535353848665E-03 
1584	 3.55819680684648E-03 
1585	-8.02419317874914E-03 
1586	-0.013367752074351 
1587	 1.49138755488744E-02 
1588	 2.75123998884541E-02 
1589	 2.94686119162683E-02 
1590	 3.32596797383603E-02 
1591	 1.78069681090748E-02 
1592	 1.42150664678769E-02 
1593	 1.10236496394344E-02 
1594	 7.6857877542751E-04 
1595	-1.11491860354887E-02 
1596	-0.024160582603059 
1597	-7.17024957495401E-03 
1598	 1.04531106383769E-02 
1599	 7.73218632798227E-03 
1600	 1.72316890737722E-02 
1601	 1.62205721125038E-02 
1602	-2.29434201475027E-03 
1603	 1.43672923287418E-03 
1604	 8.61588845386516E-03 
1605	-3.75277011427056E-03 
1606	 7.27475781544118E-03 
1607	 0.028642902286669 
1608	 1.55668656301254E-02 
1609	 2.4876918901673E-03 
1610	 1.58762690616721E-02 
1611	 2.13470101353029E-02 
1612	 5.24119524107251E-03 
1613	 9.71403267436422E-03 
1614	 3.19056999709944E-02 
1615	 0.025786020313992 
1616	 2.72038195483038E-02 
1617	 5.48685667438765E-02 
1618	 5.17259862037382E-02 
1619	 3.23803653201528E-02 
1620	 3.01185491078221E-02 
1621	 2.81761513141695E-02 
1622	 2.68139594551694E-02 
1623	 3.01662417115367E-02 
1624	 4.67967051858074E-02 
1625	 5.53535748166728E-02 
1626	 3.06539467810741E-02 
1627	 2.83323195346328E-02 
1628	 4.42555414701299E-02 
1629	 3.36177304628992E-02 
1630	 2.66792402046107E-02 
1631	 2.51125895681873E-02 
1632	 1.32998073279548E-02 
1633	 1.14662563413585E-03 
1634	-2.03939829805745E-03 
1635	-3.19298341461255E-03 
1636	-1.56021225308701E-02 
1637	-2.06841218846933E-02 
1638	-5.71528081390116E-03 
1639	-1.43589264494914E-03 
1640	 3.60854924112794E-04 
1641	 1.33981687560985E-02 
1642	 9.68115442108418E-03 
1643	 6.29507431140621E-03 
1644	 1.79553346638465E-02 
1645	 2.76510429160235E-02 
1646	 2.67915259677617E-02 
1647	 1.70957355957398E-02 
1648	 0.029086829621051 
1649	 4.38904288023918E-02 
1650	 3.41752092428735E-02 
1651	 2.99532652162579E-02 
1652	 1.61841015511184E-02 
1653	 8.16208030332004E-03 
1654	 9.20669398618752E-03 
1655	 2.96375475836865E-02 
1656	 3.96886262367726E-02 
1657	 4.03689951216901E-02 
1658	 4.16801628930998E-02 
1659	 5.57470156711578E-02 
1660	 5.00553604497845E-02 
1661	 2.07301999509842E-02 
1662	 1.00248243997738E-02 
1663	-6.89283560254889E-03 
1664	-8.53476801179509E-03 
1665	 1.46852752720541E-02 
1666	 1.55281795622378E-02 
1667	 7.9660711740763E-03 
1668	 2.03793738174895E-02 
1669	 1.75481323980862E-02 
1670	 0.016990684451457 
1671	 2.86583207188158E-02 
1672	 1.70375913913717E-02 
1673	 3.96836208296421E-03 
1674	 1.91490185519933E-02 
1675	 2.26151987817605E-02 
1676	 9.11893792978368E-03 
1677	 1.89924824786615E-02 
1678	 2.41954692225996E-02 
1679	-2.30547492121634E-03 
1680	-5.8527821750859E-03 
1681	 1.56508821753933E-02 
1682	 2.02715436160182E-02 
1683	 2.03112376636456E-02 
1684	 2.69439406374877E-02 
1685	 2.78975438433084E-02 
1686	 2.05928968120529E-02 
1687	 2.41935374404116E-02 
1688	 3.45612996521899E-02 
1689	 1.67504345042053E-02 
1690	 4.47960703524231E-03 
1691	 1.92827046939425E-02 
1692	 2.22884038964516E-02 
1693	 9.2786215680867E-03 
1694	-3.9460230155066E-03 
1695	-5.63692505434344E-03 
1696	-3.92140281249213E-03 
1697	 4.93816934868358E-03 
1698	 0.018970744291378 
1699	 8.28116903191146E-03 
1700	-5.54206469108923E-03 
1701	 1.02797648886911E-02 
1702	 2.35963936570108E-02 
1703	 0.018006488852279 
1704	 2.81197941293169E-02 
1705	 2.57053082500181E-02 
1706	 1.08871155424559E-02 
1707	 1.65579028979049E-02 
1708	 1.50779669737576E-02 
1709	 1.27656074367291E-02 
1710	 2.16520403009795E-02 
1711	 1.61384320123467E-02 
1712	 5.74743624926308E-03 
1713	-1.10129866552035E-03 
1714	 7.92576670192259E-05 
1715	 0.034147368835879 
1716	 6.11888057068364E-02 
1717	 5.44922439405717E-02 
1718	 5.50439210293629E-02 
1719	 2.19245365445521E-02 
1720	-1.69113993870491E-02 
1721	-5.01122007267183E-03 
1722	-3.59583844064211E-03 
1723	-8.81249472102765E-03 
1724	-4.8820645111936E-03 
1725	-1.42724348185162E-02 
1726	-2.85561657610548E-03 
1727	 1.99909108564848E-02 
1728	 1.24969325189227E-02 
1729	 5.15280457351062E-04 
1730	 0.022739156521666 
1731	 3.82808240706766E-02 
1732	 3.28666149255457E-02 
1733	 0.047716574932505 
1734	 4.53831806005541E-02 
1735	 1.25195124759723E-02 
1736	 1.93581714514992E-02 
1737	 4.31845842517668E-02 
1738	 2.80127504767227E-02 
1739	 2.09752173703953E-02 
1740	 2.20784809967458E-02 
1741	 3.81693567118065E-03 
1742	-3.71010671596684E-02 
1743	-6.12153742846244E-02 
1744	-2.88166422315545E-02 
1745	-2.54624756180562E-02 
1746	-9.88899364817967E-03 
1747	 6.84240993062231E-03 
1748	-2.34081118608652E-02 
1749	-1.91970942040854E-02 
1750	 4.71535411588474E-02 
1751	 6.02930578725308E-02 
1752	 4.14644231072816E-02 
1753	 3.84274828144018E-02 
1754	 2.31636094241131E-02 
1755	-1.34962478585546E-02 
1756	-6.98895624856005E-02 
1757	-5.03536815997013E-02 
1758	-4.40690837071627E-02 
1759	-9.20511115938076E-03 
1760	 1.83097827369716E-02 
1761	-4.98625914360835E-02 
1762	-0.101028894315076 
1763	-0.064107083381227 
1764	-7.27062291256967E-02 
1765	-2.94423065630584E-02 
1766	 5.00895984838119E-02 
1767	 6.87564725289583E-03 
1768	 3.17450698799277E-02 
1769	 2.72622550791143E-02 
1770	-5.80331390150097E-02 
1771	-3.61839232979365E-02 
1772	-6.70152157189931E-02 
1773	-7.16140712549116E-02 
1774	 4.6184298404617E-03 
1775	 0.053863514597932 
1776	 6.16141499464689E-02 
1777	 0.043476806439032 
1778	 2.07371748676474E-02 
1779	-0.130472895207898 
1780	-0.187458714625425 
1781	-0.123598316477566 
1782	-0.09761868082803 
1783	-9.34012371043007E-03 
1784	 1.52602504079763E-02 
1785	 2.22154994599018E-02 
1786	 1.98102951298749E-02 
1787	-5.34281532305252E-02 
1788	-6.22492565935799E-02 
1789	-6.96214802985072E-02 
1790	 1.21955911932189E-02 
1791	 4.65727381245249E-03 
1792	-3.26729875728113E-02 
1793	 0.197194282738689 
1794	 0.254855334354328 
1795	 2.61611447777359E-02 
1796	-0.198664838681048 
1797	-0.568305409535594 
1798	-0.827118589326388 
1799	-1.48408872797359 
1800	 0.362178437340062 
1801	 0.430430381923441 
1802	 0.392078257239809 
1803	 0.257411719631001 
1804	-1.01927532922976 
1805	-2.64942113060046 
1806	-11.508642969468 
1807	-117.4595685243 
1808	 0.967301534326598 
1809	 1.31840412018098 
1810	 0.89510500760033 
1811	 0.75873874560068 
1812	 0.625467806573458 
1813	 0.980498469367131 
1814	-0.220169234562821 
1815	 0.129804060442353 
1816	-5.38468206673278E-02 
1817	 0.136841922648886 
1818	 1.12323105667476 
1819	 0.872943367054609 
1820	 12.0451015252994 
1821	-3.98754255520947 
1822	-4.27121625049945 
1823	-2.15598272647181 
1824	-2.60862984650563 
1825	 1.1890625501081 
1826	 0.621757485439959 
1827	-0.166273155734687 
1828	-0.352246250666523 
1829	-0.706808833629327 
1830	-0.505569275160275 
1831	-2.12692965435287 
1832	-4.42756780845475 
1833	 2.90269573404256 
1834	 2.65644240149674 
1835	 5.55481487989059 
1836	 45.2701984464745 
1837	-0.260547588454332 
1838	 0.170697945324398 
1839	 0.995016480538368 
1840	-22.5226520658936 
1841	-2.45190528368878 
1842	-2.05627650531443 
1843	-1.13611310086506 
1844	 1.81622396632325 
1845	 4.46094549175063 
1846	 2.01320408861143 
1847	 2.28020394473646 
1848	 3.60889892612669 
1849	 2.80862940134073 
1850	-0.394161237657375 
1851	 11.2615919769165 
1852	-3.01034361421683 
1853	-0.471386859683668 
1854	-0.12832846281124 
1855	 1.00680523612294 
1856	 0.881461439651689 
1857	 0.1634695407027 
1858	-6.27588540600735E-03 
1859	-0.274860675971977 
1860	-0.56927318019444 
1861	-0.664789322498162 
1862	-0.733002951428457 
1863	-0.706260322969265 
1864	-0.870263707127177 
1865	-0.965672029290497 
1866	-1.13665392944735 
1867	-1.29795348848789 
1868	-2.10476704664376 
1869	 2.07365569755508 
1870	 0.82688326194229 
1871	 0.517173620921478 
1872	 0.44022331305564 
1873	 0.776644402643544 
1874	 0.78727746632314 
1875	 1.68215414210815 
1876	 1.94093169047897 
1877	 2.8498839564219 
1878	 2.92804374999347 
1879	 2.48646841859343 
1880	 2.34220359632197 
1881	 1.8409996836008 
1882	 1.96082857924749 
1883	 3.03972041149565 
1884	-1.91707266295656 
1885	-1.86458478104612 
1886	-1.82451102117385 
1887	 1.03577697155718 
1888	 0.330615607577577 
1889	 0.2201684009351 
1890	 9.21075504404579E-02 
1891	 3.71673624773467E-02 
1892	 0.118961546040603 
1893	 0.209934115591617 
1894	-2.43181005035375 
1895	 3.76610914397841 
1896	 1.33104307943405 
1897	 1.24555450915132 
1898	 1.23552005942874 
1899	 1.34888605485414 
1900	 1.19967188292168 
1901	 1.23503843516094 
1902	 1.05110852847697 
1903	 9.58093044767141E-02 
1904	-0.563076917183218 
1905	-0.996932119475636 
1906	 1.76049873249985 
1907	 8.49595766295302E-02 
1908	-0.133645924718914 
1909	-0.311262511552562 
1910	-1.1136918417496 
1911	-3.58149258758393 
1912	 3.12443026786308 
1913	 1.20843282146644 
1914	 1.10489870058397 
1915	 1.01848735034644 
1916	 0.761505690167873 
1917	 0.504749721852045 
1918	 2.35133267824077 
1919	-3.1901637534983 
1920	 3.07753414794224 
1921	 3.76475652190111 
1922	 1.28440828670744 
1923	 0.916002996347247 
1924	 0.34818050335702 
1925	-0.70912226745041 
1926	-1.19606336952391 
1927	-1.90682963512657 
1928	-2.23289748271626 
1929	-3.68986467100288 
1930	-8.25533811549753 
1931	-1.35367635615623 
1932	-0.644227694306598 
1933	 0.127489850555694 
1934	 0.697569919074363 
1935	-2.29929031990005 
1936	-0.164616173974715 
1937	 0.541367783633551 
1938	 1.55267932841607 
1939	 1.76473098516718 
1940	 1.84964389870124 
1941	 0.772754007693323 
1942	 0.10447241678592 
1943	-0.338378352570245 
1944	 0.105215826545265 
1945	 0.508184029260486 
1946	 1.20138151190291 
1947	 1.93168071817649 
1948	 1.70721688087946 
1949	 1.44749183968634 
1950	 2.69060655152902 
1951	-2.61006607669794 
1952	-0.577426135435725 
1953	 0.285967972405938 
1954	 0.454488529243855 
1955	 0.545105818993479 
1956	 0.169656288914514 
1957	 9.11625766769032E-02 
1958	 0.447094916754807 
1959	-2.41717863902484 
1960	-1.96664958368469 
1961	-1.56920276400923 
1962	-0.842660360125784 
1963	-1.39123038198716 
1964	-3.81461998151935 
1965	-1.52940851293556 
1966	-1.30419652366496 
1967	-7.442956007543 
1968	 0.304936199529932 
1969	-1.29168741467692 
1970	-0.937832452973336 
1971	 3.9054333026547 
1972	 2.78347811967374 
1973	 0.929410857081047 
1974	 1.51138606920728 
1975	 6.08305885139762 
1976	-0.237051198016016 
1977	-5.68472133516826 
1978	-3.64195064347843 
1979	-2.75671641805093 
1980	-2.47723033020484 
1981	-17.0257018854005 
1982	-0.685041854903952 
1983	 0.606705546279526 
1984	 1.22586630826713 
1985	 1.45179069423746 
1986	 1.46854305672046 
1987	 3.98061818207247E-02 
1988	-1.27230708866097 
1989	-1.14399179238997 
1990	-0.505704322553483 
1991	 0.224681616359431 
1992	 0.593085602388107 
1993	 0.442894300424771 
1994	 0.514272061168857 
1995	 0.483214916141367 
1996	-0.818445441704118 
1997	 47.173016753083 
1998	 7.80762471196175E-02 
1999	 0.440220920656107 
2000	 0.168496598304209 
2001	-0.469893944372315 
2002	 6.47250382738808E-03 
2003	-0.200415973253805 
2004	-5.60254792545179E-02 
2005	 3.91463734571595 
2006	 62.2866791130022 
2007	 6.52880203410656 
2008	 61.0462722700458 
2009	-25.3566816524551 
2010	-2.75720419391226 
2011	-2.53121195186968 
2012	-2.08603726258736 
2013	 3.42024098101941 
2014	 1.31666468768036 
2015	 1.23609941446312 
2016	 0.599191739063135 
2017	 0.494941331076601 
2018	 0.721586571909339 
2019	 1.52273625802201 
2020	 6.43670664274927 
2021	-4.19943705286554 
2022	 5.21459630910955 
2023	-0.423262423862294 
2024	-0.700181580636609 
2025	-0.651139907697552 
2026	-0.762979276838443 
2027	-1.44942433285281 
2028	 0.121474770266852 
2029	-0.355778234464197 
2030	-1.0809640900019 
2031	-126.890073851223 
2032	 2.04491713090405 
2033	 0.704079607967718 
2034	 0.270195696710616 
2035	 0.362463785364599 
2036	-2.81456524357922 
2037	-0.923690604392905 
2038	 0.601818855599261 
2039	 0.402576400958842 
2040	-3.21352429841469E-02 
2041	-0.159872302004826 
2042	-0.831607718689023 
2043	-0.603281550092988 
2044	-0.140019309447492 
2045	-0.200653876528607 
2046	-7.45421792912675E-02 
2047	-0.516953349778298 
2048	-1.39607371577986 
2049	 1.07337493476999 
2050	 0.966707442409497 
2051	 4.31645726949195 
2052	 1.46222305541377 
2053	 0.272164822033292 
2054	 0.280653599602115 
2055	 0.538024529680177 
2056	 0.795643289504148 
2057	 2.91183783329631 
2058	 2.67382707337979 
2059	 0.440545370106549 
2060	 0.682378976969845 
2061	 1.19995076732779 
2062	 1.56383457158297 
2063	 3.02186160997762 
2064	 3.04702251427828 
2065	 1.12368651569904 
2066	-0.133488352364391 
2067	-3.89685952989418E-02 
2068	-8.27685409604592E-02 
2069	-9.50831939325507E-02 
2070	 0.259515905982383 
2071	 0.422933566911163 
2072	 0.276932360400024 
2073	 0.352178387633764 
2074	 0.951395070523876 
2075	 1.19087213517813 
2076	 1.47216771127827 
2077	 1.22964744091329 
2078	 0.323820026216003 
2079	 0.183069384004702 
2080	-0.192909479790243 
2081	-0.376574953504237 
2082	-0.29506389152775 
2083	 10.0973809259273 
2084	 1.39011274435065 
2085	 1.04610726563185 
2086	 0.933206360412912 
2087	 1.5404747981131 
2088	 3.37143180378067 
2089	-38.5315253721103 
2090	-2.92288451688661 
2091	-3.27527916832126 
2092	-3.90967330392446 
2093	 6.66815370037637 
2094	 1.34353447632546 
2095	 0.891892199729579 
2096	 0.670660985418697 
2097	 0.129992227530234 
2098	-4.38293905852273E-02 
2099	-0.113383452934049 
2100	-1.37131864347647 
2101	-0.937335252875071 
2102	-0.348165310047919 
2103	-0.61391194916406 
2104	-0.263806901328997 
2105	-0.174979860165547 
2106	-0.228573790662878 
2107	-7.13433958845663E-03 
2108	 8.55741860701563E-03 
2109	-7.50472172576468E-02 
2110	-2.43725474634382E-02 
2111	-0.158648890578012 
2112	 7.31678895377284E-02 
2113	 0.203796408314237 
2114	 0.294272784244789 
2115	 0.375531308462827 
2116	 0.375086747201391 
2117	 0.286064800180161 
2118	 0.250880756264897 
2119	 0.198299729180208 
2120	-0.014212389174988 
2121	-2.07990236373746E-02 
2122	-4.17542963543777E-03 
2123	 6.16362942019304E-03 
2124	 0.275966522856829 
2125	 0.45290592416521 
2126	 0.432028269632229 
2127	 0.399043885542334 
2128	 0.288650082245302 
2129	 0.167822436599258 
2130	 0.181285996386859 
2131	 0.267180615736406 
2132	 0.248740028628133 
2133	 0.135757470989678 
2134	 6.67993160359749E-02 
2135	-3.38100607060806E-02 
2136	-2.50293803103921E-02 
2137	 0.100254655661165 
2138	 8.67211653128541E-02 
2139	 0.114401841109227 
2140	 0.150189092780364 
2141	-7.25993117968628E-02 
2142	-6.30628295035195E-02 
2143	 0.202667027666275 
2144	 0.305867094056767 
2145	 0.505277120423256 
2146	 0.72489041438915 
2147	 0.595607932249223 
2148	 0.565960278095815 
2149	 0.451124098274762 
2150	 0.179408571455747 
2151	-4.38034480516263E-02 
2152	-0.140982102926107 
2153	-0.281842771938224 
2154	-0.317074777364652 
2155	-0.321541126842471 
2156	-0.380041690818228 
2157	-0.279968532843667 
2158	-0.104815160394319 
2159	-3.28309445396552E-02 
2160	 0.108360299674907 
2161	 0.123716759153151 
2162	 4.71218278353383E-02 
2163	 3.15232172887137E-02 
2164	 3.13467929700663E-02 
2165	-2.62904521848176E-02 
2166	-0.140975331437957 
2167	-0.148731710606013 
2168	-0.113235603812855 
2169	-0.142907318281692 
2170	-0.141873147662606 
2171	-0.169470827559826 
2172	-0.212241715183004 
2173	-0.154994569644675 
2174	-0.116201925909071 
2175	-9.45645251509355E-02 
2176	-0.200858790144745 
2177	-0.26153719417294 
2178	-0.161828651185383 
2179	-0.132719607154773 
2180	-0.187279948454706 
2181	-0.29452660056773 
2182	-0.387854481322252 
2183	-0.429252891746927 
2184	-0.294631727532624 
2185	-0.140472157918568 
2186	-0.104853460426341 
2187	-5.83365830950967E-02 
2188	-6.93727846345053E-02 
2189	-0.261635359857714 
2190	-0.329311117784134 
2191	-0.373710651959137 
2192	-0.342331088057893 
2193	-0.170719688805462 
2194	-0.118821396315963 
2195	-0.104063905417331 
2196	-9.30106800761627E-02 
2197	-0.125643671792194 
2198	-0.148755351347734 
2199	-0.186462898490492 
2200	-0.136540999377574 
2201	-5.87814967689234E-02 
2202	-0.273774869628529 
2203	-0.32086789500104 
2204	-0.436397111268165 
2205	-0.527689139980654 
2206	-0.33061308470485 
2207	-0.118262554529572 
2208	 5.87906691891087E-02 
2209	 0.216143833664482 
2210	 0.192073427398425 
2211	 0.160850450287579 
2212	 3.55811919012368E-02 
2213	-0.193984226922185 
2214	-0.254002871879688 
2215	-0.202891441768679 
2216	-0.130223555542257 
2217	-0.111573102284111 
2218	-4.19303233813579E-02 
2219	-3.44276921233438E-02 
2220	-0.112912940385314 
2221	-0.11712128556695 
2222	-9.50848317627471E-02 
2223	-8.31323025892123E-02 
2224	-6.27069288686022E-02 
2225	-2.34499162436765E-02 
2226	 7.49916070588775E-02 
2227	 0.137099974993497 
2228	 0.199051320019866 
2229	 0.236515086114266 
2230	 0.182507800260288 
2231	 0.161735404993696 
2232	 0.202039954423906 
2233	 0.204085426583007 
2234	 0.151992480397027 
2235	 0.154529830522115 
2236	 0.151115059411897 
2237	 6.25137589174766E-02 
2238	 9.37278109732658E-02 
2239	 0.212930368702182 
2240	 0.280988733204886 
2241	 0.363687164586407 
2242	 0.216222785383436 
2243	 0.14022618971905 
2244	 0.291848002490458 
2245	 0.323259193201941 
2246	 0.298307787840267 
2247	 0.300767953516014 
2248	 6.87710229447095E-02 
2249	-9.37793315022529E-02 
2250	 2.40025272779132E-02 
2251	 4.41391307712604E-03 
2252	-0.05904822687735 
2253	-5.02792846831092E-02 
2254	-0.178341672112255 
2255	-9.34664597602942E-02 
2256	 0.160853770080243 
2257	 0.282986427301189 
2258	 0.148872203701925 
2259	 0.144249045597835 
2260	 0.132943274363309 
2261	-1.30038677453966E-02 
2262	 9.37910556625055E-03 
2263	 0.225475428594995 
2264	 0.265796350746768 
2265	 0.234466529978451 
2266	 0.315241793549162 
2267	 0.528666476544334 
2268	 0.52817905439598 
2269	 0.419310555082341 
2270	 0.291723157526887 
2271	 5.15158919133788E-02 
2272	-2.29189007947377E-02 
2273	-3.94808025194194E-02 
2274	-4.11286939144474E-02 
2275	 3.65728624802435E-02 
2276	-6.51813163143387E-02 
2277	-0.253018003572373 
2278	-0.319448060815868 
2279	-0.565745558804172 
2280	-0.468750843870884 
2281	-0.126588712994844 
2282	-3.76209645156753E-02 
2283	 0.124560382717824 
2284	 0.181544738828848 
2285	-0.295961732639724 
2286	-1.54754308269809 
2287	 1.79165948831474 
2288	-265.349920029149 
2289	-0.12438586939078 
2290	 1.01710967244176 
2291	 0.943122783396646 
2292	 0.740823820664853 
2293	 3.0652510149448 
2294	 7.33810850846648 
2295	 10.4020510875431 
2296	 2.03576812858007 
2297	 0.742911197453248 
2298	 0.262039770288889 
2299	-0.284991863423569 
2300	-0.677274196936704 
2301	-0.635453567500097 
2302	-0.396364182218723 
2303	 0.187561783065663 
2304	 0.970868831786465 
2305	 0.602371923176705 
2306	 0.177277556685006 
2307	-0.179321271893285 
2308	-0.480284321372709 
2309	-1.01807999414131 
2310	-1.72991295961427 
2311	-1.59423894515088 
2312	-1.03055557475341 
2313	-0.457697007640596 
2314	-0.14482351367086 
2315	-0.033701002097941 
2316	-0.24523653581694 
2317	-0.472107580321159 
2318	-5.57189231011552E-03 
2319	-2.33677963389764E-02 
2320	 0.349517981796223 
2321	 1.05491210057372 
2322	 0.274072637777001 
2323	-0.33620829312683 
2324	-0.238421077344778 
2325	-0.917105733763555 
2326	-1.68040193840766 
2327	-1.57266304926582 
2328	-1.28851537883284 
2329	-0.621710426009841 
2330	 1.76618947844777E-02 
2331	 8.23190862408153E-02 
2332	-0.19593168764093 
2333	-0.507057212494364 
2334	-1.24320070933261 
2335	-0.374404238131055 
2336	 0.549219649423297 
2337	 1.33646826175549 
2338	 2.34011646498469 
2339	 3.27138266666892 
2340	 2.78403441549494 
2341	 1.96444017926881 
2342	 1.10746794849273 
2343	 0.788441523664657 
2344	 0.584109048843277 
2345	-10.4856435853382 
2346	 2.51538852563183 
2347	 1.58051277785098 
2348	 3.22513047212217 
2349	 3.47183344069349 
2350	 7.46101643450151E-03 
2351	-0.491413078655515 
2352	 0.755058132142812 
2353	 0.384378321955723 
2354	 0.476154428436394 
2355	 0.638694269193474 
2356	 0.799615178243384 
2357	-17.4267584870883 
2358	-2.15125269106329 
2359	-2.73183451239978 
2360	-1.43385028339663 
2361	 5.04737360559644 
2362	 0.711262459797366 
2363	 0.787019629095678 
2364	 0.575785808115987 
2365	 0.620311344705373 
2366	 0.257575422910196 
2367	 37.397893717795 
2368	-2.18433754535476E-02 
2369	-0.993229790386957 
2370	-0.520812203298366 
2371	-0.43335696280832 
2372	-0.193325836157355 
2373	-0.468030525990205 
2374	-0.838902915310748 
2375	-2.8983623799855 
2376	-11.6544777295556 
2377	-6.65195901069178 
2378	 1.6203596492661 
2379	 0.291800151221797 
2380	-0.197223329066632 
2381	-0.177507666346553 
2382	-1.03996028830956 
2383	 3.44913397925639 
2384	 1.87648478589012 
2385	 2.24465288294567 
2386	 5.66505521169178 
2387	 1.85406487420777 
2388	 2.72456669904944 
2389	-1.52838905039332 
2390	-1.10001934956963 
2391	 8.04843444516077E-02 
2392	 0.58534972968051 
2393	-3.58614837202369 
2394	-2.30037972135827 
2395	-3.94699098342808 
2396	 3.70122732982343 
2397	 0.820812454057894 
2398	 0.834772588919857 
2399	 1.37736295166653 
2400	-1.92596861309162 
2401	 0.863413055631072 
2402	 0.24022159514512 
2403	 0.40506541870513 
2404	 1.0321542779569 
2405	 1.23704010648653 
2406	 9.93251293121352E-02 
2407	-0.19058939323512 
2408	-1.83507034701457 
2409	 0.470023233955589 
2410	-4.44348522049864E-03 
2411	-0.31077086775796 
2412	-0.5193526189347 
2413	-0.302271596187479 
2414	-0.123129177761591 
2415	-9.71482294195122E-02 
2416	 8.49366103073647E-03 
2417	-0.448276100074427 
2418	-2.36237907758055 
2419	-7.79999165149684 
2420	-16.2816622746201 
2421	 5.53727779447592 
2422	 1.26474926192996 
2423	 0.214816196626059 
2424	-0.598708860416513 
2425	-0.474483557445346 
2426	-0.843967162032787 
2427	-0.46905764858071 
2428	-0.891311188328115 
2429	-0.504412330568266 
2430	-0.319392650033278 
2431	-0.416046340206639 
2432	-0.344465606262015 
2433	 0.156427242085448 
2434	 0.166620171205312 
2435	 0.880756521802682 
2436	-305.680085711488 
2437	-3.85729581177351 
2438	-1.33370285846376 
2439	-0.703263601822416 
2440	-0.585866045228839 
2441	-0.637174917185934 
2442	 1.02917985579034 
2443	 0.712791224341487 
2444	-4.41803804979437 
2445	-1.21395928375467 
2446	-0.426563615722511 
2447	-0.168930538837063 
2448	-0.347582340976233 
2449	-4.34129770923739 
2450	-10.4713203311901 
2451	 2.01762838904476 
2452	-2.97411042737347 
2453	-1.03496064923094 
2454	-1.00339858945494 
2455	-0.707477258832283 
2456	 0.785583860835953 
2457	-1.12437760182991 
2458	-0.661601699170124 
2459	-0.225871275204124 
2460	 8.35110513537668E-02 
2461	 4.0908301076189 
2462	 33.9653824728451 
2463	-5.87340609698306 
2464	-0.188895306021276 
2465	-38.3063542599013 
2466	-2.02449741322425 
2467	-7.77234756895559 
2468	-2.11476162967201 
2469	-5.72168394500519E-02 
2470	-0.284061547818665 
2471	-0.174195555235994 
2472	 0.149387922760178 
2473	 0.400807340261059 
2474	 9.87838459504295E-02 
2475	 0.283829959899934 
2476	 0.21590420413497 
2477	 0.307254042053388 
2478	 0.478812301656687 
2479	 0.643446979350879 
2480	 0.983623996539397 
2481	 1.02713685574037 
2482	 0.397723246678679 
2483	-0.11458632472059 
2484	-0.3139640933195 
2485	 0.123933647143887 
2486	 0.349673395475296 
2487	 0.31019398491073 
2488	 0.486893062679596 
2489	 0.142300803331091 
2490	 0.860949762699575 
2491	 0.523894874074889 
2492	 0.376716184584426 
2493	-0.250798197525887 
2494	 0.635751294217565 
2495	 35.915155712422 
2496	 5.98025520008426 
2497	 4.11201952415938 
2498	 1.66819637338548 
2499	-0.942089432749173 
2500	-2.90516014299622 
