Wavelength	rt0712west_far200005.asd
350	 6.87940080291122E-02 
351	 7.05054538087199E-02 
352	 7.04704261020565E-02 
353	 0.070030731788409 
354	 7.02287901151945E-02 
355	 6.96648031617436E-02 
356	 7.09993954213888E-02 
357	 7.20254880315012E-02 
358	 7.04357069716255E-02 
359	 7.03174851861971E-02 
360	 0.069746331739245 
361	 6.93420806154884E-02 
362	 7.10851992385474E-02 
363	 7.10181106171819E-02 
364	 7.07755046528662E-02 
365	 0.071134606056194 
366	 7.04854532544286E-02 
367	 7.01625448490674E-02 
368	 7.03813492899858E-02 
369	 7.09447480358106E-02 
370	 0.071463519668988 
371	 7.11677595622911E-02 
372	 7.06522610924883E-02 
373	 7.10926140682427E-02 
374	 7.08893550853902E-02 
375	 7.11301561148223E-02 
376	 7.19958104928177E-02 
377	 7.20932762683678E-02 
378	 7.26627344225807E-02 
379	 7.27489628662789E-02 
380	 7.18733727098238E-02 
381	 7.25550540676311E-02 
382	 7.36807647374524E-02 
383	 7.40094411344749E-02 
384	 7.28504139086371E-02 
385	 0.073595250118374 
386	 0.073808615086137 
387	 7.29486555843131E-02 
388	 0.073058391470152 
389	 7.32205513922047E-02 
390	 0.07450741644606 
391	 7.67821056208864E-02 
392	 7.62562682613537E-02 
393	 7.53417581481175E-02 
394	 7.47293295260437E-02 
395	 7.45081468090416E-02 
396	 7.54925592669669E-02 
397	 7.57968621905522E-02 
398	 7.55273755364287E-02 
399	 7.64567350422996E-02 
400	 7.63714560866243E-02 
401	 7.59225437293784E-02 
402	 7.59454456373922E-02 
403	 7.68162413436251E-02 
404	 7.67689754949992E-02 
405	 7.64136143282869E-02 
406	 7.69595356273295E-02 
407	 7.74011849543057E-02 
408	 7.73557678483402E-02 
409	 7.71406303422607E-02 
410	 7.76324253131671E-02 
411	 7.76093019794694E-02 
412	 0.077542627833291 
413	 7.78586003343771E-02 
414	 7.81192601169431E-02 
415	 7.85096798715818E-02 
416	 7.89460111796979E-02 
417	 7.92866002950188E-02 
418	 0.079781042915086 
419	 0.079779727281212 
420	 7.95370683742081E-02 
421	 8.02747254627533E-02 
422	 8.07592701274209E-02 
423	 8.10100409785909E-02 
424	 8.11979554633287E-02 
425	 8.10670827599906E-02 
426	 0.081546316672044 
427	 8.23324295242117E-02 
428	 8.26081868253349E-02 
429	 8.27055259370907E-02 
430	 8.30292282746275E-02 
431	 8.35918323809771E-02 
432	 0.083947261653976 
433	 8.41242741463174E-02 
434	 8.45003183363068E-02 
435	 8.51993342147191E-02 
436	 8.53405310644526E-02 
437	 8.56278281103605E-02 
438	 8.61372645179229E-02 
439	 8.65833997245773E-02 
440	 8.68484828984156E-02 
441	 0.087297875566875 
442	 8.78961079992426E-02 
443	 8.79368991500386E-02 
444	 8.81266668646572E-02 
445	 8.86397672763717E-02 
446	 8.93441116164678E-02 
447	 8.95997087564891E-02 
448	 8.96738764245957E-02 
449	 8.98436114587765E-02 
450	 9.03213364942081E-02 
451	 9.06084269256619E-02 
452	 9.07915956155407E-02 
453	 0.091033845564236 
454	 9.14778795014588E-02 
455	 9.18897917653808E-02 
456	 9.20970875727584E-02 
457	 9.20760382370427E-02 
458	 9.24024599524539E-02 
459	 9.26345097352103E-02 
460	 9.27261796932733E-02 
461	 9.30627546204893E-02 
462	 9.33540023673933E-02 
463	 9.34777892422284E-02 
464	 9.34731044809403E-02 
465	 9.37139375700319E-02 
466	 9.39742075855478E-02 
467	 9.42483539920548E-02 
468	 9.45959505011093E-02 
469	 9.47254435579036E-02 
470	 9.49519061409695E-02 
471	 9.52386152300405E-02 
472	 9.50059527231134E-02 
473	 9.48764456232667E-02 
474	 9.52124747375797E-02 
475	 9.59869672363453E-02 
476	 9.61021212594134E-02 
477	 9.64875524851507E-02 
478	 9.70644582066868E-02 
479	 9.71455314747317E-02 
480	 9.76251706209256E-02 
481	 9.78157362397985E-02 
482	 9.75367657351061E-02 
483	 9.80504899775939E-02 
484	 9.86268416188504E-02 
485	 9.90273905471176E-02 
486	 9.92662228414545E-02 
487	 9.97724563234399E-02 
488	 0.100189841056856 
489	 0.10041673469838 
490	 0.1006416541496 
491	 0.101022562738221 
492	 0.101588814077792 
493	 0.102212321963891 
494	 0.10242129348068 
495	 0.102703186947804 
496	 0.103211290955583 
497	 0.103858465617194 
498	 0.104121512640898 
499	 0.104393695084707 
500	 0.104882332329254 
501	 0.105345536511004 
502	 0.105800976507989 
503	 0.106241702800033 
504	 0.106686241982652 
505	 0.107237297373866 
506	 0.107875413845174 
507	 0.108451635623858 
508	 0.108761059651182 
509	 0.10916462585976 
510	 0.10980657296597 
511	 0.110618193687061 
512	 0.111145595122194 
513	 0.111754129917364 
514	 0.112405223881721 
515	 0.112925286238525 
516	 0.113465384551477 
517	 0.114235802272147 
518	 0.115143635160364 
519	 0.115737362868692 
520	 0.116198189992722 
521	 0.116731251256727 
522	 0.117467728360967 
523	 0.118273414256084 
524	 0.119064655483505 
525	 0.119714887764126 
526	 0.120143934087414 
527	 0.121103171124828 
528	 0.121971637389513 
529	 0.12245401600218 
530	 0.123290454831048 
531	 0.12409773861141 
532	 0.124846941486602 
533	 0.125620607780071 
534	 0.126434956833284 
535	 0.127261486396039 
536	 0.128048374145188 
537	 0.128718478738362 
538	 0.129385602530699 
539	 0.130058594836805 
540	 0.130764473971109 
541	 0.13171551782406 
542	 0.132459618059955 
543	 0.133070617681152 
544	 0.133920868471642 
545	 0.134629596769266 
546	 0.135645402843986 
547	 0.136943775990238 
548	 0.137386163831295 
549	 0.138078514771072 
550	 0.138949264763991 
551	 0.139670736561426 
552	 0.1410135195399 
553	 0.141831837650032 
554	 0.142051674798637 
555	 0.142893088900878 
556	 0.143628117460885 
557	 0.144390313520905 
558	 0.145318775757309 
559	 0.14598317215746 
560	 0.146438102333169 
561	 0.146961588612616 
562	 0.147871942638216 
563	 0.148241782961183 
564	 0.148714443393991 
565	 0.149507102864679 
566	 0.149527983253175 
567	 0.150070744665856 
568	 0.150716088480025 
569	 0.150675822103253 
570	 0.151170707525352 
571	 0.151651047737624 
572	 0.1519651106554 
573	 0.152489813187221 
574	 0.152792063563933 
575	 0.153012525331829 
576	 0.153326287297303 
577	 0.153570485517225 
578	 0.153854981564045 
579	 0.154208300966881 
580	 0.154561373381624 
581	 0.154433407184709 
582	 0.154298617418509 
583	 0.15433723920637 
584	 0.153978412774751 
585	 0.1535253608699 
586	 0.152835513364457 
587	 0.151698157580035 
588	 0.150722142617863 
589	 0.149853635371095 
590	 0.149266979784026 
591	 0.14926879962793 
592	 0.149346170838637 
593	 0.149146930386903 
594	 0.14855344333495 
595	 0.147959092826352 
596	 0.147468908262176 
597	 0.146898144190011 
598	 0.146002738099026 
599	 0.145491544561137 
600	 0.145030497641895 
601	 0.14446619240189 
602	 0.144144308233567 
603	 0.143656643350162 
604	 0.143394879151847 
605	 0.143728926597367 
606	 0.143604414145715 
607	 0.143445827436215 
608	 0.143331791098733 
609	 0.142949997119437 
610	 0.143182211591665 
611	 0.143398504356359 
612	 0.14312595172376 
613	 0.143368257497778 
614	 0.143290009573858 
615	 0.142971253668621 
616	 0.142972172332731 
617	 0.143130821747811 
618	 0.142992554132582 
619	 0.142609030366576 
620	 0.142918684123809 
621	 0.142865638699348 
622	 0.1425613139253 
623	 0.14240382358706 
624	 0.14218677109231 
625	 0.141882761657395 
626	 0.141545498802516 
627	 0.141314737301024 
628	 0.141180053775912 
629	 0.141030259426905 
630	 0.140923402042025 
631	 0.141513429318016 
632	 0.141592599832208 
633	 0.141253846206974 
634	 0.141162663569992 
635	 0.141066099616735 
636	 0.141156570124759 
637	 0.14139828938189 
638	 0.141403089543129 
639	 0.14110994219145 
640	 0.140931836271188 
641	 0.141104091045945 
642	 0.14050734949246 
643	 0.13997344578716 
644	 0.13969477765731 
645	 0.139273641477919 
646	 0.138275080899375 
647	 0.137667673539645 
648	 0.13797160181018 
649	 0.137851409079389 
650	 0.138127339854064 
651	 0.138297596088906 
652	 0.137620746998748 
653	 0.137059135866217 
654	 0.136431751998681 
655	 0.135800671264752 
656	 0.135687712620764 
657	 0.13486617542744 
658	 0.134239308567998 
659	 0.134424038823004 
660	 0.134154153481791 
661	 0.133743492743736 
662	 0.13340033372195 
663	 0.133244957189691 
664	 0.132877514465216 
665	 0.132718345453204 
666	 0.132872049577308 
667	 0.132718606427324 
668	 0.13249596373274 
669	 0.132383231588952 
670	 0.132425542495894 
671	 0.132008269369319 
672	 0.131967758244397 
673	 0.132179056250044 
674	 0.131656599727866 
675	 0.131902463467264 
676	 0.132242819547503 
677	 0.132096104585218 
678	 0.132213116307255 
679	 0.131978329183048 
680	 0.131547049910479 
681	 0.131410258236557 
682	 0.131748681244842 
683	 0.131797591787468 
684	 0.131320449813111 
685	 0.13082960120828 
686	 0.130592916669739 
687	 0.130386967805591 
688	 0.129917880361359 
689	 0.129465404781882 
690	 0.129044474795523 
691	 0.128448211611997 
692	 0.127352940988325 
693	 0.126233404020546 
694	 0.125865152577065 
695	 0.12619294416219 
696	 0.126221904745621 
697	 0.124979515729908 
698	 0.12313309379409 
699	 0.122080369276827 
700	 0.122039721265 
701	 0.121225038113971 
702	 0.119739811883761 
703	 0.118944724905227 
704	 0.117990475727045 
705	 0.116651217325133 
706	 0.115109027537738 
707	 0.114014304828332 
708	 0.1128746257358 
709	 0.111415401519269 
710	 0.109622821996995 
711	 0.108170397702609 
712	 0.106416935067242 
713	 0.104192571790978 
714	 0.101848927212255 
715	 9.91892315619539E-02 
716	 9.53873476899537E-02 
717	 9.07485479086375E-02 
718	 8.94009062232398E-02 
719	 8.80220186883285E-02 
720	 8.63402607673263E-02 
721	 8.49211616996783E-02 
722	 8.32455909243368E-02 
723	 8.07648718181262E-02 
724	 7.80171932401673E-02 
725	 7.60427064511405E-02 
726	 7.40895317142175E-02 
727	 7.20919692586067E-02 
728	 7.00573022380726E-02 
729	 6.78022324956344E-02 
730	 6.55167095768911E-02 
731	 6.33798592261952E-02 
732	 6.13448459192433E-02 
733	 0.060539078903718 
734	 5.97133063164969E-02 
735	 5.83814118450021E-02 
736	 5.71091878894745E-02 
737	 5.66560049252799E-02 
738	 5.63920739492587E-02 
739	 5.58942111309886E-02 
740	 5.62457742727947E-02 
741	 5.58990306730193E-02 
742	 5.54258505885291E-02 
743	 5.60744607327098E-02 
744	 5.59193864017761E-02 
745	 5.54306994800784E-02 
746	 5.51976716151468E-02 
747	 5.56489821563889E-02 
748	 5.55809738748986E-02 
749	 5.53907839097705E-02 
750	 0.055585413136243 
751	 5.56201652184552E-02 
752	 5.54743396297211E-02 
753	 5.52863201672424E-02 
754	 0.055243529185654 
755	 5.51126678474343E-02 
756	 5.48333648856958E-02 
757	 5.45324997101871E-02 
758	 5.46732909342161E-02 
759	 5.45310397570477E-02 
760	 5.36709028591489E-02 
761	 5.30081645789766E-02 
762	 5.26155473399853E-02 
763	 5.29070467931663E-02 
764	 5.37005225681945E-02 
765	 5.45499287222042E-02 
766	 5.48717264193548E-02 
767	 5.49565766686892E-02 
768	 5.51341312040633E-02 
769	 5.57808330854677E-02 
770	 5.57573453851949E-02 
771	 5.55414358521786E-02 
772	 5.56744080648296E-02 
773	 5.60147107101404E-02 
774	 5.62141532397529E-02 
775	 5.62910485804295E-02 
776	 5.64265236546868E-02 
777	 5.65890096821184E-02 
778	 5.69299111070816E-02 
779	 5.73552989561413E-02 
780	 5.75273074964296E-02 
781	 5.73474275507899E-02 
782	 5.75587597861653E-02 
783	 5.83696634808242E-02 
784	 5.83719040897334E-02 
785	 5.86110380210654E-02 
786	 5.89184989501874E-02 
787	 0.05881551962128 
788	 0.058827231547145 
789	 5.91247831837871E-02 
790	 5.97062396913404E-02 
791	 6.03883094569763E-02 
792	 6.07073628619152E-02 
793	 6.08691262722234E-02 
794	 6.10125279091581E-02 
795	 0.060976458908254 
796	 6.14923670076421E-02 
797	 6.22349786020425E-02 
798	 6.26587933308645E-02 
799	 6.25010127230822E-02 
800	 6.22046258550419E-02 
801	 6.24518973853137E-02 
802	 6.36724078102672E-02 
803	 6.39804047938002E-02 
804	 6.40646228308913E-02 
805	 6.42374019506445E-02 
806	 6.41828252208963E-02 
807	 6.41850806288976E-02 
808	 6.38685475685572E-02 
809	 0.063099454698352 
810	 6.28759284894272E-02 
811	 6.28034254625108E-02 
812	 0.062358998569695 
813	 6.10971823968098E-02 
814	 6.03942384570003E-02 
815	 5.99326649327183E-02 
816	 5.99236540566485E-02 
817	 6.06886739244683E-02 
818	 5.96371313776838E-02 
819	 5.88031150105965E-02 
820	 5.89320039602997E-02 
821	 5.92737497756007E-02 
822	 5.76759304365475E-02 
823	 0.054916940678053 
824	 5.28468582503455E-02 
825	 5.26795599702893E-02 
826	 5.23906065338827E-02 
827	 5.16647852956993E-02 
828	 5.07266710683942E-02 
829	 4.85471264043515E-02 
830	 4.75782547477391E-02 
831	 4.75091643004082E-02 
832	 4.63708182660708E-02 
833	 4.58353140743004E-02 
834	 4.61242383914122E-02 
835	 4.66386808835976E-02 
836	 4.61300441417369E-02 
837	 4.52435551512516E-02 
838	 4.50549471690434E-02 
839	 4.57523036965257E-02 
840	 4.52383873089935E-02 
841	 4.49375907504404E-02 
842	 4.49425038664576E-02 
843	 4.48397233519996E-02 
844	 4.40019904462919E-02 
845	 4.43363335119511E-02 
846	 0.045421289682318 
847	 4.53804987500801E-02 
848	 0.044580776319457 
849	 4.40697811596442E-02 
850	 0.044085722191587 
851	 4.37189645024774E-02 
852	 4.36103122244296E-02 
853	 0.044002103707332 
854	 4.43271813544237E-02 
855	 4.25401380647482E-02 
856	 4.29284681793866E-02 
857	 4.39183225416098E-02 
858	 4.34105621808209E-02 
859	 4.34488585245142E-02 
860	 4.33973136343893E-02 
861	 0.043016962602647 
862	 4.24285713675309E-02 
863	 0.042553160814039 
864	 0.043103096716167 
865	 4.31269477162288E-02 
866	 4.16593123742151E-02 
867	 4.28134765380844E-02 
868	 4.33327548078365E-02 
869	 4.20872440841341E-02 
870	 4.19412014545867E-02 
871	 4.21867072116047E-02 
872	 4.21132081558538E-02 
873	 4.16721877206491E-02 
874	 4.24217033352063E-02 
875	 4.24586879860099E-02 
876	 4.19980597993812E-02 
877	 4.16188982045605E-02 
878	 4.04318612543848E-02 
879	 4.03335010419173E-02 
880	 4.07398910143643E-02 
881	 4.01923012689614E-02 
882	 3.99198870304086E-02 
883	 4.05545722254614E-02 
884	 4.13714161191646E-02 
885	 4.08650434074348E-02 
886	 3.99830190773989E-02 
887	 4.03456217242377E-02 
888	 4.14454894561305E-02 
889	 4.04489156092434E-02 
890	 3.93522433128823E-02 
891	 3.85591753582516E-02 
892	 3.82997278832359E-02 
893	 3.89972344881903E-02 
894	 3.95305683553342E-02 
895	 3.91068626413676E-02 
896	 3.76796015612838E-02 
897	 3.73447417507235E-02 
898	 3.78827040892422E-02 
899	 4.04342612158289E-02 
900	 4.38528252336697E-02 
901	 3.92982058678947E-02 
902	 3.58698151261596E-02 
903	 3.57771621490774E-02 
904	 3.80519248483803E-02 
905	 4.06504555163072E-02 
906	 3.89431972428493E-02 
907	 3.52650650651544E-02 
908	 3.71655795157883E-02 
909	 3.80152876380531E-02 
910	 3.70254756382156E-02 
911	 3.65566302424726E-02 
912	 4.02225154707725E-02 
913	 4.11002954126478E-02 
914	 3.78639343350892E-02 
915	 3.50898603627805E-02 
916	 4.02224113456765E-02 
917	 3.55432470418442E-02 
918	 3.44265270155758E-02 
919	 3.95287872886495E-02 
920	 3.74138469021546E-02 
921	 3.77008589557898E-02 
922	 3.78444897690176E-02 
923	 3.53434225812281E-02 
924	 0.032611038433032 
925	 3.47648732626074E-02 
926	 4.00158472433115E-02 
927	 0.042630130527186 
928	 3.38108936580065E-02 
929	 3.80579304455322E-02 
930	 5.31589524619186E-02 
931	 5.15012147812928E-02 
932	 3.96315153788546E-02 
933	 0.059187173969087 
934	 8.84060804643142E-02 
935	 7.31531383818401E-02 
936	 6.11468516998397E-02 
937	 7.15832520969251E-02 
938	 7.90611516983436E-02 
939	 5.82483477688162E-02 
940	 2.59987819484682E-02 
941	 2.53457696234902E-02 
942	 5.72960676991297E-02 
943	 8.97979111893806E-02 
944	 6.50347913837166E-02 
945	 4.17275271668072E-02 
946	 5.31011944380273E-02 
947	 8.22160851802632E-02 
948	 5.30161871436344E-02 
949	 1.89446288575874E-02 
950	 1.51758542228141E-02 
951	 3.68676887700391E-02 
952	 7.50124327056813E-02 
953	 7.99029412798394E-02 
954	 5.40486682358175E-02 
955	 3.35979962628001E-02 
956	 3.62880410584227E-02 
957	 2.73389936936289E-02 
958	 1.67757464501717E-02 
959	 3.58728997793532E-02 
960	 5.96463440659327E-02 
961	 5.36140189546903E-02 
962	 3.87711044984631E-02 
963	 5.35074192172405E-02 
964	 4.07984636403704E-02 
965	 2.39985725806262E-02 
966	 0.025069539519624 
967	 0.049333419952159 
968	 4.49757966035422E-02 
969	 4.25703872075571E-02 
970	 0.045687442367021 
971	 3.50312110177877E-02 
972	 3.21810086776961E-02 
973	 3.77623452617329E-02 
974	 4.46505473899816E-02 
975	 4.28246261938705E-02 
976	 3.93296637209382E-02 
977	 4.21204981729504E-02 
978	 4.35793068267314E-02 
979	 3.01657882789261E-02 
980	 2.95018409858859E-02 
981	 3.10711140884599E-02 
982	 3.35696559525981E-02 
983	 4.29248206705118E-02 
984	 4.96951639230597E-02 
985	 4.36944049192251E-02 
986	 3.39431894491506E-02 
987	 3.90093645402644E-02 
988	 4.42217165287928E-02 
989	 3.90065605026034E-02 
990	 3.11195992794044E-02 
991	 3.71775517661924E-02 
992	 4.04253337796653E-02 
993	 3.68849380464139E-02 
994	 3.48000097488078E-02 
995	 4.42125206807871E-02 
996	 4.00725130646576E-02 
997	 3.56182449172125E-02 
998	 3.84589385277925E-02 
999	 4.61955089582479E-02 
1000	 3.70271643320695E-02 
1001	 4.01115118477061E-02 
1002	 3.91154650619575E-02 
1003	 3.80559357790916E-02 
1004	 3.47691543091333E-02 
1005	 0.03440266341936 
1006	 3.62293393513819E-02 
1007	 3.57480043987256E-02 
1008	 3.97422818150171E-02 
1009	 4.46118705646351E-02 
1010	 4.41244923776922E-02 
1011	 4.61274875890784E-02 
1012	 4.53995054088598E-02 
1013	 4.32683931289523E-02 
1014	 4.14923787190453E-02 
1015	 3.95707696558549E-02 
1016	 3.75035462531147E-02 
1017	 3.34368674350775E-02 
1018	 3.26257044720814E-02 
1019	 3.39443393869649E-02 
1020	 3.54043409347378E-02 
1021	 3.87481377097824E-02 
1022	 4.18644960633562E-02 
1023	 4.28893556373361E-02 
1024	 4.31299433764321E-02 
1025	 0.043478418015425 
1026	 4.31212249094454E-02 
1027	 4.33292767382906E-02 
1028	 4.42655462607389E-02 
1029	 4.44932024394345E-02 
1030	 4.42993025685746E-02 
1031	 4.38992804441911E-02 
1032	 4.34157748617505E-02 
1033	 4.28576721095485E-02 
1034	 4.07354636500509E-02 
1035	 4.12175339527766E-02 
1036	 4.40744237063454E-02 
1037	 0.044735675151956 
1038	 4.67534743396546E-02 
1039	 4.72331740197327E-02 
1040	 4.24864242902848E-02 
1041	 3.94504671696804E-02 
1042	 3.76926618480239E-02 
1043	 3.56003214428862E-02 
1044	 3.49267728766765E-02 
1045	 3.59665559144179E-02 
1046	 3.68846543031269E-02 
1047	 3.81977955009755E-02 
1048	 3.94580198988539E-02 
1049	 4.22029769619323E-02 
1050	 4.38112482590404E-02 
1051	 4.49152807608223E-02 
1052	 4.54587890785821E-02 
1053	 4.54898633730567E-02 
1054	 4.52240603422908E-02 
1055	 4.31632878640937E-02 
1056	 4.28158528407975E-02 
1057	 4.31068166379685E-02 
1058	 0.044299499037222 
1059	 4.42709080326061E-02 
1060	 4.56832953505604E-02 
1061	 4.42896584343183E-02 
1062	 3.93194075781357E-02 
1063	 3.80209905759793E-02 
1064	 3.66452900773057E-02 
1065	 3.67637254782963E-02 
1066	 4.08729711598857E-02 
1067	 4.18799515151805E-02 
1068	 4.15168614639467E-02 
1069	 4.16210619226244E-02 
1070	 3.98439285033598E-02 
1071	 3.97477857476629E-02 
1072	 4.06025265049353E-02 
1073	 4.30997538265986E-02 
1074	 4.30302072216092E-02 
1075	 0.042125887172491 
1076	 4.24275473226902E-02 
1077	 4.14856033803502E-02 
1078	 4.19512641621323E-02 
1079	 4.57062972220055E-02 
1080	 4.57983616365061E-02 
1081	 4.35463372923551E-02 
1082	 0.042548334901502 
1083	 4.00624053397869E-02 
1084	 3.87508163208713E-02 
1085	 3.86277570396838E-02 
1086	 3.83938696560075E-02 
1087	 3.82371727198462E-02 
1088	 3.82549133245655E-02 
1089	 0.038787593539735 
1090	 3.97725489644243E-02 
1091	 3.95723482972499E-02 
1092	 3.88776181431291E-02 
1093	 3.86894742572875E-02 
1094	 3.66915465732255E-02 
1095	 3.71128892660073E-02 
1096	 4.02240646388024E-02 
1097	 0.04197717239247 
1098	 4.65471257364181E-02 
1099	 4.68147072442869E-02 
1100	 4.01558797708423E-02 
1101	 3.89115265628753E-02 
1102	 3.86717621900675E-02 
1103	 3.84543255331147E-02 
1104	 4.22950653562498E-02 
1105	 4.91173013673472E-02 
1106	 4.76008375373671E-02 
1107	 0.039907353781423 
1108	 4.53470402373119E-02 
1109	 5.09615631960864E-02 
1110	 5.14626255091088E-02 
1111	 5.30983868293692E-02 
1112	 6.07705170472571E-02 
1113	 6.13352434798483E-02 
1114	 6.53794515564846E-02 
1115	 0.104958545335657 
1116	 0.113832480272861 
1117	 4.17171074189022E-02 
1118	 4.81602917270215E-02 
1119	 0.149136708036371 
1120	 0.195580176024165 
1121	 0.329642962353148 
1122	 0.49087764909078 
1123	 0.448229998641625 
1124	 0.219521044247393 
1125	 0.128971663269693 
1126	 0.387323625554509 
1127	 0.551960888802205 
1128	 0.406595389750316 
1129	 0.346526499199552 
1130	 0.230003062684828 
1131	 0.196518459359241 
1132	 0.192645340031022 
1133	 0.16625570045413 
1134	 0.127918292824864 
1135	 0.135944927144878 
1136	 0.158746741610067 
1137	 0.180709147781054 
1138	 0.227464110051857 
1139	 0.279390109779503 
1140	 0.300248176468511 
1141	 0.266186435032493 
1142	 0.202702782833155 
1143	 0.116706431691751 
1144	 9.34101050039657E-02 
1145	 0.163165831119874 
1146	 0.254667618480916 
1147	 0.25309804416906 
1148	 0.169790454480901 
1149	 0.138926915391384 
1150	 0.105955117005401 
1151	 6.34423624036851E-02 
1152	 5.87390198131307E-02 
1153	 8.54160343226201E-02 
1154	 7.01713798052495E-02 
1155	 3.96104231625623E-02 
1156	 4.92174446479813E-02 
1157	 5.80503044015849E-02 
1158	 5.23662214289132E-02 
1159	 5.00415368530466E-02 
1160	 5.81277183798932E-02 
1161	 5.17473767644911E-02 
1162	 4.58162338193974E-02 
1163	 5.39597830098266E-02 
1164	 4.98731793753797E-02 
1165	 0.042564934345753 
1166	 4.20565269191197E-02 
1167	 3.52425348104735E-02 
1168	 3.07247156729014E-02 
1169	 4.04329827667321E-02 
1170	 4.57178344258662E-02 
1171	 4.51519089866563E-02 
1172	 4.20263524337064E-02 
1173	 4.34324213660613E-02 
1174	 4.30575383727616E-02 
1175	 3.85463418151572E-02 
1176	 4.10696119393658E-02 
1177	 4.59632694511879E-02 
1178	 4.20868501006887E-02 
1179	 3.81785599526574E-02 
1180	 4.22562899927296E-02 
1181	 4.53554601902982E-02 
1182	 4.30052110531092E-02 
1183	 4.18677759805939E-02 
1184	 4.12608665420429E-02 
1185	 3.58942459595474E-02 
1186	 3.49789296236424E-02 
1187	 4.16952165792321E-02 
1188	 4.30850101269155E-02 
1189	 4.14328752118294E-02 
1190	 4.23472269239268E-02 
1191	 3.66910294821658E-02 
1192	 3.47900375469911E-02 
1193	 3.25446414951366E-02 
1194	 3.87476203724291E-02 
1195	 4.00113638356223E-02 
1196	 0.041046632002353 
1197	 4.71821689096693E-02 
1198	 4.62705892700059E-02 
1199	 4.24727334997798E-02 
1200	 4.44238663564016E-02 
1201	 4.52669364483612E-02 
1202	 4.23130780811561E-02 
1203	 0.042178261690166 
1204	 4.32673180801611E-02 
1205	 0.041195864183493 
1206	 3.85871228759854E-02 
1207	 3.63783724974973E-02 
1208	 3.62174030028447E-02 
1209	 3.97220645399368E-02 
1210	 4.12333504348545E-02 
1211	 4.01766208805387E-02 
1212	 4.19324079368891E-02 
1213	 0.044144223806506 
1214	 4.43533904328077E-02 
1215	 4.43428456488107E-02 
1216	 4.58085300685721E-02 
1217	 4.31769957582477E-02 
1218	 3.79025505763726E-02 
1219	 3.70696821249117E-02 
1220	 3.70533402503551E-02 
1221	 3.76282327195084E-02 
1222	 3.95839169730691E-02 
1223	 3.75902813543501E-02 
1224	 3.67540629623615E-02 
1225	 3.92843328267882E-02 
1226	 3.93349881253157E-02 
1227	 4.01725914256573E-02 
1228	 4.12159978984737E-02 
1229	 4.01740410923482E-02 
1230	 4.07284364915124E-02 
1231	 3.93984237094046E-02 
1232	 0.036708702801016 
1233	 3.76001706864797E-02 
1234	 3.94843802413187E-02 
1235	 3.85999485331668E-02 
1236	 3.66865858078438E-02 
1237	 3.68525330660981E-02 
1238	 3.62630775845703E-02 
1239	 3.49972035791034E-02 
1240	 3.60497292088223E-02 
1241	 3.80721538414994E-02 
1242	 3.71036280318239E-02 
1243	 3.55630571728189E-02 
1244	 3.60900827763167E-02 
1245	 3.57329367107825E-02 
1246	 3.44668012857249E-02 
1247	 3.38742222423731E-02 
1248	 3.31184705135164E-02 
1249	 3.35289343325003E-02 
1250	 3.51027495016555E-02 
1251	 3.53566689262092E-02 
1252	 3.49571681579675E-02 
1253	 3.52571045999628E-02 
1254	 3.65428233853569E-02 
1255	 3.89466366522788E-02 
1256	 4.02598753312788E-02 
1257	 4.14248209765523E-02 
1258	 0.041489955418039 
1259	 3.98737223334018E-02 
1260	 3.91695548891327E-02 
1261	 3.83493132780173E-02 
1262	 3.77018585307386E-02 
1263	 3.77319763102286E-02 
1264	 3.74862205000354E-02 
1265	 3.55716215525184E-02 
1266	 3.52665154463369E-02 
1267	 3.91163310592994E-02 
1268	 4.05681876608993E-02 
1269	 4.12510595063173E-02 
1270	 4.16653433850642E-02 
1271	 4.09164294473273E-02 
1272	 4.36372978550092E-02 
1273	 4.41365112397893E-02 
1274	 4.00803988504066E-02 
1275	 3.52309960681432E-02 
1276	 3.36713029109548E-02 
1277	 3.63386424130559E-02 
1278	 3.78703250832514E-02 
1279	 3.86108387225167E-02 
1280	 3.93063854152625E-02 
1281	 0.039021612923758 
1282	 3.59797214888815E-02 
1283	 3.72295073456406E-02 
1284	 4.11221521157638E-02 
1285	 4.19994536426437E-02 
1286	 4.36277277799372E-02 
1287	 4.33225098251304E-02 
1288	 3.94928584823567E-02 
1289	 3.95850508659303E-02 
1290	 4.09105126242766E-02 
1291	 4.27149388561752E-02 
1292	 4.27686103892296E-02 
1293	 4.02994203581193E-02 
1294	 3.87128437943201E-02 
1295	 3.97868636370317E-02 
1296	 4.01401460151092E-02 
1297	 0.039524931904146 
1298	 3.74730581244324E-02 
1299	 3.34508275800587E-02 
1300	 3.56342427923341E-02 
1301	 0.040222481769999 
1302	 4.13954862264117E-02 
1303	 4.13045215163738E-02 
1304	 0.041606255420896 
1305	 4.34749254684789E-02 
1306	 4.29938370973583E-02 
1307	 3.76465716308934E-02 
1308	 4.00231452982963E-02 
1309	 4.81575453839436E-02 
1310	 5.07647580439075E-02 
1311	 5.67582381856782E-02 
1312	 0.058880889849558 
1313	 5.39377161675089E-02 
1314	 5.08004957534636E-02 
1315	 4.66490650032068E-02 
1316	 4.44487351549051E-02 
1317	 4.06755061415791E-02 
1318	 3.65956378371756E-02 
1319	 3.45964519514892E-02 
1320	 3.77503307550746E-02 
1321	 4.40210753389037E-02 
1322	 4.88983748933247E-02 
1323	 6.10041070323093E-02 
1324	 5.85867234625907E-02 
1325	 6.36661719336688E-02 
1326	 6.70801010216493E-02 
1327	 5.78562212059988E-02 
1328	 5.75894201948743E-02 
1329	 5.41573822620207E-02 
1330	 5.50111833703276E-02 
1331	 7.89447587763768E-02 
1332	 0.108127027100754 
1333	 9.61991970368328E-02 
1334	 6.55245873082421E-02 
1335	 6.36486991047215E-02 
1336	 6.83439000823949E-02 
1337	 4.80220551708767E-02 
1338	 3.02036534701046E-02 
1339	 4.13816099861478E-02 
1340	 4.39315848057183E-02 
1341	 2.85503767963856E-02 
1342	 3.46965014182656E-02 
1343	 0.068356091719712 
1344	 9.72073007358958E-02 
1345	 0.109945320973169 
1346	 0.188285033407138 
1347	 0.300205670827513 
1348	 0.398082810294062 
1349	 0.413157559858089 
1350	 0.413799779628662 
1351	 0.608646567836058 
1352	 0.7347990072961 
1353	 0.74636962944087 
1354	 0.798151126429855 
1355	 3.0103997823549 
1356	 18.7930597090751 
1357	 2.43108366127946 
1358	 7.02747820403754 
1359	-4.57945953494482 
1360	 2.93086200324632 
1361	 1.59407784663362 
1362	 1.23753044237201 
1363	 3.44694191516004 
1364	 3.8148688506608 
1365	 1.16491350655324 
1366	 3.4173161393941 
1367	 49.3130212051552 
1368	-26.3449112705127 
1369	-1.57397285364811 
1370	-1.10780206514916 
1371	-1.8387000984716 
1372	-3.5097063195138 
1373	 2.29435040604825 
1374	 13.9505592312463 
1375	-1.05169820481712 
1376	-2.89245952198919 
1377	-0.304811245054535 
1378	 0.134981381944721 
1379	 0.230095095140658 
1380	 0.230724695262241 
1381	 3.06174438676519 
1382	 5.443431590671 
1383	 1.35904819551902 
1384	 0.938555177208606 
1385	 0.130059298569021 
1386	 0.158751294664771 
1387	 1.71658238388329 
1388	 2.15131740860001 
1389	 0.838357188865847 
1390	 2.09253280042141 
1391	 12.9574093839967 
1392	 6.18163854948195 
1393	 2.14604052576782 
1394	-5.66650133294269 
1395	-0.866680095048016 
1396	-0.141102048738194 
1397	-0.992997305517657 
1398	-1.78415275452484 
1399	-10.8810191011429 
1400	 1.44874361524464 
1401	 1.84169232780438 
1402	 1.41581990828112 
1403	 0.568187800117105 
1404	 1.05302060563246 
1405	 2.34672618956021 
1406	-7.18277347993639 
1407	-7.74338428193839 
1408	 5.17101216065004 
1409	 4.5672743128618 
1410	 4.92364836398975 
1411	 3.49712190287253 
1412	 2.11123716267316 
1413	 4.52292076217144 
1414	-1.45476991569913 
1415	-2.06300145630598 
1416	 2.20234912398944 
1417	 1.39038391624029 
1418	 0.265479105154822 
1419	 0.222314603715342 
1420	 0.461522017065787 
1421	 0.945578262313218 
1422	 3.55805246431913 
1423	 7.30079738601273 
1424	-6.05133368668553 
1425	-4.13544221872534 
1426	 11.8493447376547 
1427	 2.2387552199017 
1428	 2.06791455622374 
1429	 1.68822920656826 
1430	 1.66657314974037 
1431	 1.91175240270877 
1432	 2.82086724297267 
1433	 2.11025967124576 
1434	 1.02007345120945 
1435	 1.24460536301323 
1436	 5.00557253437592 
1437	 4.42251588090845 
1438	 1.63308089908852 
1439	 2.85657114101588 
1440	 46.1146011081013 
1441	-97.3323766166414 
1442	 2.04697155518619 
1443	 0.475278771847907 
1444	 1.42149465152116 
1445	 0.817727290266122 
1446	 0.469244052914316 
1447	 2.8602663004535 
1448	 1.42658786598857 
1449	 0.620761436316517 
1450	-4.74990051058698 
1451	-3.6900786557141 
1452	 30.2734392149809 
1453	 3.39196070254854 
1454	 2.97882594220278 
1455	 318.993069438221 
1456	 3.85451685495313 
1457	 0.918136146944717 
1458	 0.907654242799252 
1459	 1.69174544748867 
1460	 1.14156706542791 
1461	 0.423653601728191 
1462	 0.434608255041742 
1463	 0.767184086058205 
1464	 0.408941282296853 
1465	 1.46159100132652 
1466	 3.63617823879054 
1467	 0.176455852542848 
1468	 0.359682534268987 
1469	-3.74778103191727 
1470	-2.15021772862695 
1471	 24.195744674145 
1472	 7.90663060131754 
1473	-106.612640767092 
1474	 2.16437185435103 
1475	 0.629768383404282 
1476	 0.611998385739242 
1477	 0.682158460652031 
1478	 0.741875388508336 
1479	 2.42075392363902 
1480	-168.472568097277 
1481	 215.609108530466 
1482	-34.0099584623765 
1483	-18.6875893017662 
1484	 29.0281730387401 
1485	-1.60708961816219 
1486	-1.51112940963798 
1487	-0.678049623506879 
1488	-0.495538491120481 
1489	 1.20231571821514 
1490	 1.55128494217129 
1491	 0.919885626524508 
1492	 0.928928652129517 
1493	 0.565253107458788 
1494	 0.412999768843008 
1495	 0.442131908845853 
1496	 0.399028161746473 
1497	 0.242405079402259 
1498	 0.209841493262323 
1499	 0.274643734021514 
1500	 0.252409196049011 
1501	 0.174766007429676 
1502	 0.155496743156428 
1503	 0.176596659293548 
1504	 0.129813075720772 
1505	 7.57139359491057E-03 
1506	 1.78551688507747E-03 
1507	 0.102611011379789 
1508	 0.18331140452196 
1509	 0.268721207098999 
1510	 0.29454048099506 
1511	 0.245492674059788 
1512	 0.168053395935176 
1513	 9.08336188324232E-02 
1514	 0.100579905388067 
1515	 0.149403390079029 
1516	 0.156374315761052 
1517	 0.149656700246183 
1518	 0.148248966014926 
1519	 0.110604081408242 
1520	 0.084131132342859 
1521	 8.82310100490448E-02 
1522	 7.29332429753325E-02 
1523	 8.26591978061495E-02 
1524	 5.70155099188541E-02 
1525	-7.16797137881474E-04 
1526	 1.07538288499765E-02 
1527	 2.12271583776042E-02 
1528	 9.40788055222933E-05 
1529	 3.40427205160714E-02 
1530	 5.78399269880918E-02 
1531	 6.88664970284469E-02 
1532	 9.30763118543272E-02 
1533	 8.61221204580935E-02 
1534	 0.112240538412875 
1535	 0.119378725495645 
1536	 7.51875730342619E-02 
1537	 7.20384620367318E-02 
1538	 8.64547876308538E-02 
1539	 8.13946942675849E-02 
1540	 6.64111633036849E-02 
1541	 3.92397560647551E-02 
1542	 3.54198726340901E-02 
1543	 6.66490930940299E-02 
1544	 0.088621999892661 
1545	 7.30519056634399E-02 
1546	 4.86722612315174E-02 
1547	 8.2533336742959E-03 
1548	-3.42990199746156E-02 
1549	-4.12278623223152E-03 
1550	 4.30365419885209E-02 
1551	 5.84592512399929E-02 
1552	 8.35428846167151E-02 
1553	 7.55425586868518E-02 
1554	 4.78693051385984E-02 
1555	 4.42941497899995E-02 
1556	 4.16937363235682E-02 
1557	 5.05090107798388E-02 
1558	 6.05650436678823E-02 
1559	 0.052592796956271 
1560	 3.69524074784773E-02 
1561	 3.00058769457916E-02 
1562	 0.031204510602752 
1563	 3.63232179163036E-02 
1564	 5.73578975031618E-02 
1565	 6.90644437810641E-02 
1566	 4.64766232628347E-02 
1567	 6.49164988104147E-03 
1568	-5.88707126482174E-03 
1569	 1.22528860006132E-02 
1570	 2.93452950179035E-02 
1571	 0.05009298619532 
1572	 6.05683701284081E-02 
1573	 5.20183797571841E-02 
1574	 2.68216606649589E-02 
1575	 1.90479109129377E-02 
1576	 3.93439545864567E-02 
1577	 6.08007818327022E-02 
1578	 7.04811295084213E-02 
1579	 6.99242117534374E-02 
1580	 6.54120802388964E-02 
1581	 4.17008543352005E-02 
1582	 4.58679737475474E-02 
1583	 7.71386792224597E-02 
1584	 7.47192284535098E-02 
1585	 0.069119731419889 
1586	 6.59712093452716E-02 
1587	 5.16326564525065E-02 
1588	 0.061437148698254 
1589	 7.79373817193815E-02 
1590	 7.56879632625638E-02 
1591	 7.72624773781448E-02 
1592	 7.51219042758988E-02 
1593	 5.90539387641387E-02 
1594	 6.40924798283969E-02 
1595	 7.30587709834589E-02 
1596	 6.65034318992948E-02 
1597	 6.86607333277638E-02 
1598	 0.056660063244447 
1599	 3.61387931469248E-02 
1600	 3.76489126204906E-02 
1601	 4.69195830202105E-02 
1602	 4.75868602911896E-02 
1603	 5.39216888921193E-02 
1604	 5.99375422004869E-02 
1605	 0.053928675149542 
1606	 6.77129573423081E-02 
1607	 7.85351368452871E-02 
1608	 6.37259786042787E-02 
1609	 4.77091109419365E-02 
1610	 3.83783022947339E-02 
1611	 0.053832415735548 
1612	 6.80694460364332E-02 
1613	 7.11342544580196E-02 
1614	 7.95536136812778E-02 
1615	 7.28644402378848E-02 
1616	 6.65800194720173E-02 
1617	 6.38375950671002E-02 
1618	 0.059803880998326 
1619	 6.75925187443295E-02 
1620	 6.11511521516141E-02 
1621	 4.33738382279227E-02 
1622	 4.59480505296173E-02 
1623	 0.045376349390684 
1624	 2.76258043438155E-02 
1625	 3.55363225050332E-02 
1626	 5.37820033629681E-02 
1627	 5.57884554559365E-02 
1628	 6.10796934576599E-02 
1629	 6.41730472974421E-02 
1630	 0.058546274997625 
1631	 0.044405040266959 
1632	 3.51907739100821E-02 
1633	 4.24921683606711E-02 
1634	 4.83483309856337E-02 
1635	 4.95080176841132E-02 
1636	 5.36680089576485E-02 
1637	 6.46901534291563E-02 
1638	 6.28411117360674E-02 
1639	 5.03305232212548E-02 
1640	 5.18666293321661E-02 
1641	 4.13298825917854E-02 
1642	 2.54964589603311E-02 
1643	 2.73257402817397E-02 
1644	 3.71838706962019E-02 
1645	 4.39638707912705E-02 
1646	 5.39232755895999E-02 
1647	 7.49315635294676E-02 
1648	 8.33093659670371E-02 
1649	 7.84294395453636E-02 
1650	 7.70835330199677E-02 
1651	 6.73360361936061E-02 
1652	 5.18314486763947E-02 
1653	 5.48233071797208E-02 
1654	 0.051187597320526 
1655	 0.03623559790236 
1656	 3.47949779619405E-02 
1657	 0.042178455002587 
1658	 4.35453298556249E-02 
1659	 4.41512173303734E-02 
1660	 4.80920017231622E-02 
1661	 6.25086824407667E-02 
1662	 6.37255046335284E-02 
1663	 4.90252144561361E-02 
1664	 5.29593348603319E-02 
1665	 6.43414919334552E-02 
1666	 0.061054164293665 
1667	 0.059761999557282 
1668	 6.07033227459238E-02 
1669	 5.79916399274673E-02 
1670	 3.55756859382697E-02 
1671	 0.043987396788789 
1672	 6.10506847137695E-02 
1673	 4.58751141288074E-02 
1674	 4.99288560274384E-02 
1675	 5.52236770329406E-02 
1676	 4.59673157434851E-02 
1677	 5.36248824442273E-02 
1678	 6.67477134709518E-02 
1679	 6.81877156587774E-02 
1680	 5.55374435390819E-02 
1681	 3.66034152757686E-02 
1682	 3.12641877323233E-02 
1683	 5.02466036670441E-02 
1684	 5.78134277167314E-02 
1685	 4.33606231345406E-02 
1686	 3.34888599190243E-02 
1687	 3.58110513331101E-02 
1688	 4.45676867338606E-02 
1689	 5.22261589349582E-02 
1690	 6.99340739515344E-02 
1691	 6.14880527766467E-02 
1692	 3.06984302617752E-02 
1693	 0.05291992116404 
1694	 0.077626712247023 
1695	 4.86467796908721E-02 
1696	 0.038728815394073 
1697	 4.07451129138128E-02 
1698	 1.53661109842678E-02 
1699	 3.02049397743043E-02 
1700	 7.50249836648307E-02 
1701	 7.26140058853508E-02 
1702	 5.38175083506002E-02 
1703	 4.88699047841933E-02 
1704	 2.71577190890286E-02 
1705	 2.64346821645438E-02 
1706	 5.80147723843725E-02 
1707	 6.57655066212575E-02 
1708	 5.28485385348478E-02 
1709	 4.30908943786223E-02 
1710	 2.10110689012738E-02 
1711	-3.13260395741929E-04 
1712	 2.25673596457116E-02 
1713	 5.43260446409512E-02 
1714	 6.10349037396447E-02 
1715	 6.20316747113448E-02 
1716	 7.45973530745704E-02 
1717	 8.56844833798837E-02 
1718	 6.50415194303814E-02 
1719	 5.70342532839424E-02 
1720	 7.50958786047229E-02 
1721	 6.31398692793494E-02 
1722	 5.38405576342167E-02 
1723	 7.04351835432396E-02 
1724	 6.42516122626567E-02 
1725	 3.18544432581644E-02 
1726	 1.95366111653812E-02 
1727	 2.99087170301433E-02 
1728	 4.40401161947415E-02 
1729	 6.16284235040418E-02 
1730	 6.64215527871454E-02 
1731	 5.04099894163709E-02 
1732	 3.42479468495636E-02 
1733	 2.27859114990129E-02 
1734	 3.00378673152602E-02 
1735	 5.39914632920059E-02 
1736	 3.05268086512617E-02 
1737	-3.62745356625827E-04 
1738	 2.81569524698405E-02 
1739	 4.67891145215531E-02 
1740	 5.41005974281978E-02 
1741	 8.95398841659907E-02 
1742	 9.86670136575124E-02 
1743	 6.59482480112744E-02 
1744	 4.84168375451771E-02 
1745	 3.85740512938892E-02 
1746	 1.74748085450526E-02 
1747	 2.66675978555731E-02 
1748	 6.52903309146604E-02 
1749	 6.75175301412746E-02 
1750	 6.32696571756448E-02 
1751	 7.00754970294982E-02 
1752	 7.39972940005861E-02 
1753	 7.62541485197778E-02 
1754	 8.23204786385718E-02 
1755	 8.53860115420432E-02 
1756	 6.65779861844678E-02 
1757	 8.35118805057788E-02 
1758	 0.104297634383691 
1759	 0.098416615568025 
1760	 0.1222423089673 
1761	 0.120854705971066 
1762	 9.02119054788062E-02 
1763	 9.85428273945246E-02 
1764	 2.89806045963412E-02 
1765	-2.93560122957034E-02 
1766	 0.036906620083853 
1767	 0.117774969249724 
1768	 0.175222947951292 
1769	 0.180423173491928 
1770	 0.157094420175701 
1771	 0.160610102398329 
1772	 0.142570478059225 
1773	 0.171647700692961 
1774	 0.15955371360619 
1775	 0.219921457456351 
1776	 0.224562630294749 
1777	 0.284737721476102 
1778	 0.305786718498213 
1779	 0.148261682616127 
1780	 7.41559842753829E-02 
1781	 0.104020334251695 
1782	 9.77052864631005E-02 
1783	 0.105268081763473 
1784	 0.117805030710972 
1785	 0.184153303165039 
1786	 0.16212147289609 
1787	 6.82485500628466E-02 
1788	-0.047892165839995 
1789	-0.18518929863933 
1790	-0.310901051010645 
1791	-0.246877586333863 
1792	-0.135527572276571 
1793	-3.46456708140404E-03 
1794	-1.06754323047879E-02 
1795	-0.658517574304773 
1796	-2.01642706078391 
1797	-2.12618612568102 
1798	-1.78446850458641 
1799	-7.40411305421603 
1800	-0.528612283867813 
1801	-5.95526809844779E-02 
1802	-0.066513416790397 
1803	 8.13655199981125E-02 
1804	 1.4057287498282 
1805	 2.89582526253033 
1806	 5.24425246707033 
1807	 42.5153704742543 
1808	-0.342565765295854 
1809	-0.273422087112655 
1810	-1.16457519545044 
1811	-1.04691271930845 
1812	-0.789063064956438 
1813	-1.03555888848663 
1814	 0.397141210570541 
1815	 1.65989143516252E-02 
1816	-9.23442454821749E-02 
1817	-0.205041161687725 
1818	-3.67098982385144E-02 
1819	-0.943526470690031 
1820	 6.69827032739068 
1821	 0.32652337801933 
1822	 0.144237819969913 
1823	 0.392982495341535 
1824	 0.49682510061092 
1825	 0.979800187888762 
1826	 0.953377545773334 
1827	 0.665787548211977 
1828	 0.586545569222113 
1829	 0.375141073104892 
1830	 0.496164036518117 
1831	 1.33238719815191 
1832	-0.392322384297343 
1833	 3.12760296957083 
1834	 2.91644185846488 
1835	-1.74329517341795 
1836	-43.5508767658731 
1837	 1.87064526782417 
1838	 2.00487930467944 
1839	 2.46695083894702 
1840	-48.5262651927083 
1841	-3.08316603146519 
1842	-1.33276275145625 
1843	-1.32618000979983 
1844	-6.59161534351211 
1845	-10.1330977014327 
1846	-3.4796120608531 
1847	-3.86025867026747 
1848	-9.60906437904161 
1849	-24.5942419649641 
1850	-3.4264543224937 
1851	 14.8152924474329 
1852	-2.55829045129366 
1853	 5.14822540933139E-02 
1854	 0.131695319445559 
1855	-0.183547357250877 
1856	-0.332066575701261 
1857	-0.653907567330303 
1858	-0.74866584770793 
1859	-0.844646545715828 
1860	-0.753789601190793 
1861	-0.884879794640837 
1862	-0.914273148390124 
1863	-0.237865608362723 
1864	 4.73634036080438E-02 
1865	 0.296055729413327 
1866	 0.81480488872352 
1867	 1.13119160392476 
1868	 3.5570082515644 
1869	-4.53496642618305 
1870	-0.70116198698935 
1871	-9.49159488399013E-03 
1872	-0.22019225393306 
1873	-0.324608024528028 
1874	 0.311539818526473 
1875	 0.6440553912494 
1876	 0.427053830619848 
1877	-0.284624588667828 
1878	-0.358817617053285 
1879	-0.13470248510178 
1880	-0.222357297910137 
1881	-8.58983686297764E-03 
1882	-0.958846840000594 
1883	-3.90846522229883 
1884	 1.72619796199539 
1885	 1.55105892658261 
1886	 3.43288750314078 
1887	-2.93209671083768 
1888	-1.06086459395445 
1889	-0.794855810863014 
1890	-0.383305629168751 
1891	-0.22316083422989 
1892	-0.048886944605313 
1893	 6.03054955769056E-02 
1894	 1.09370452089934 
1895	-1.67591748578059 
1896	-0.195008991614659 
1897	 0.270897930479253 
1898	 0.477252344808959 
1899	 0.541134125072006 
1900	 0.64769169904719 
1901	 0.670249511726446 
1902	 0.592908081161233 
1903	 0.381327206561219 
1904	 0.456879457624157 
1905	 0.103423740828872 
1906	 1.27142112242797 
1907	-0.184406666889792 
1908	-0.777779206253014 
1909	-0.900313680126462 
1910	-1.87620886684701 
1911	-4.5203995492595 
1912	 3.64329298675547 
1913	 1.09040177713776 
1914	 0.784952004051912 
1915	 0.412011794768784 
1916	-0.491335264684354 
1917	-0.82769370460183 
1918	-2.86691440160603 
1919	-4.07476338758268 
1920	 1.93574494979609 
1921	-4.63405372751819 
1922	-0.892329838387441 
1923	-0.753149848724655 
1924	-0.370269383356023 
1925	 0.293953013469542 
1926	 0.669408527082821 
1927	 0.819179383067945 
1928	 1.26394728631684 
1929	 4.45492258764565 
1930	 22.605651299406 
1931	 5.71131851457833 
1932	 3.75844187768858 
1933	 2.18357886509698 
1934	 1.48505924387583 
1935	-6.08103370464187 
1936	-1.4825722640316 
1937	-1.33395182678806 
1938	-1.62587029185687 
1939	-1.76321737616813 
1940	-2.42815457172046 
1941	-1.74774857795831 
1942	-1.30844716101619 
1943	-0.745497368880122 
1944	-0.597639063033658 
1945	-0.728153295201585 
1946	-1.25269066861475 
1947	-1.39910796671317 
1948	-0.814622615592646 
1949	-0.491972476093421 
1950	-1.22226946307515 
1951	 1.8705679391423 
1952	 0.726928004085993 
1953	 0.724694244710024 
1954	 0.494281526582276 
1955	-0.063111702244483 
1956	-0.44638339033713 
1957	 0.116058202842325 
1958	 1.08142229841333 
1959	-4.87602967374899 
1960	-2.31096368522795 
1961	-1.11981393067491 
1962	-0.109495957888213 
1963	 0.236781262873163 
1964	 1.16998739026594 
1965	 1.64119036410914 
1966	 2.14980422275706 
1967	 3.10702020507469 
1968	-1.58455764647935 
1969	-1.27309056487676 
1970	-3.06210476981539 
1971	 8.10438283829982 
1972	 2.08696467236148 
1973	-0.168061516753631 
1974	-1.2427616424146 
1975	-10.7432858970019 
1976	-4.19989105286586 
1977	-5.52612749355223 
1978	-2.25221182285792 
1979	-1.62463738619727 
1980	-1.42077616757867 
1981	-14.9815581710493 
1982	-3.62502112825985 
1983	-2.00878023617967 
1984	-1.67158992724222 
1985	-0.358353870940808 
1986	 0.379954680129045 
1987	 0.287120754526184 
1988	 0.121151195715953 
1989	 6.20958519680358E-02 
1990	-1.70201218584647E-02 
1991	-2.36270844243254E-02 
1992	-9.61883131090406E-02 
1993	-0.11162586192883 
1994	-7.49749292283888E-02 
1995	 0.140889055513021 
1996	 0.114054825812976 
1997	 3.45456261233911 
1998	 0.425592449994535 
1999	 1.44745928881068 
2000	 1.5540345478622 
2001	 0.541143204453826 
2002	 0.597529558612073 
2003	 0.325262099199031 
2004	 0.399559642675918 
2005	 13.9679919070213 
2006	-40.6148309313044 
2007	-4.62098833742472 
2008	-60.4294165529079 
2009	 25.3816097704918 
2010	 4.21871707341694 
2011	 4.47941176343686 
2012	 2.85627667126164 
2013	-2.49888789610499 
2014	-0.698623819345686 
2015	-0.425861589892925 
2016	-8.17766998897164E-02 
2017	-6.63510941788964E-02 
2018	-0.588697027125445 
2019	-1.99148928806593 
2020	-10.7346512133978 
2021	 8.69317706225731 
2022	-17.164447652863 
2023	-2.06667813125509 
2024	-1.44976017000442 
2025	-1.19958097672207 
2026	-1.1611959828786 
2027	-1.94745312490657 
2028	 0.186682980390419 
2029	 0.125146421645929 
2030	 0.427078555224996 
2031	 98.6172399366718 
2032	-1.89138906281591 
2033	-0.905084493066431 
2034	-0.964319254675056 
2035	-2.48884206978395 
2036	-7.47718455991343 
2037	-4.1153908835516 
2038	-2.26035772428581 
2039	-1.3227639874875 
2040	 0.630031145424183 
2041	 0.77322312459168 
2042	 0.177743092107429 
2043	-6.69551629491255E-02 
2044	-0.109767049514278 
2045	-0.543658514216513 
2046	-1.08471192193229 
2047	-1.44498255852536 
2048	-3.382771750813 
2049	 4.11222068156717 
2050	 2.32078807180288 
2051	-11.9295559963176 
2052	-3.16065213207693 
2053	-0.89600470983551 
2054	-0.799742491417963 
2055	-0.378925459352477 
2056	-0.215756645899555 
2057	 0.498965187865891 
2058	 0.835903032882431 
2059	-0.182443895053927 
2060	-0.398268673141232 
2061	-0.178619147981715 
2062	 2.55390609609007E-03 
2063	-1.305307691197 
2064	-0.399273173701187 
2065	-0.690606162210592 
2066	-0.783966966295721 
2067	-0.499625739528044 
2068	-0.819231916006154 
2069	-0.524670878598863 
2070	-0.35677631582141 
2071	-0.608408735666793 
2072	-0.591643419638419 
2073	-0.746469781232853 
2074	-2.90111979978822 
2075	-3.43449701902516 
2076	-1.91774364071202 
2077	-1.43160580110443 
2078	-0.595692730333382 
2079	-0.507608165083919 
2080	-0.570825802648089 
2081	-0.76076827145237 
2082	-2.04998228097914 
2083	-18.6447383774652 
2084	-0.526874272577757 
2085	-9.40433764345617E-02 
2086	-1.07378952626066E-02 
2087	 8.05610522659034E-02 
2088	 0.642747935678381 
2089	-2.61110344410907 
2090	 0.646239110238769 
2091	 1.96640434266953 
2092	 3.31935404805318 
2093	-12.2027454753914 
2094	-3.53229424437212 
2095	-0.833854240160997 
2096	-0.562284253538449 
2097	-0.564586617645201 
2098	-0.716502442346177 
2099	-1.59965573702367 
2100	-5.96740560997526 
2101	-3.14553196653327 
2102	-1.74923964961569 
2103	-0.575148075027571 
2104	-0.298105843825662 
2105	-0.296490239606182 
2106	-0.470819411630899 
2107	-0.272415219185343 
2108	 1.44759130302131E-02 
2109	 0.239925058270843 
2110	 0.46935947716975 
2111	-5.86105601206678E-02 
2112	-1.11777438481486 
2113	-1.1950031176014 
2114	-0.613784865598555 
2115	-0.477431998262303 
2116	-2.71078397610146E-03 
2117	 5.72641123669936E-02 
2118	-0.157774726574723 
2119	-8.99460990594941E-02 
2120	 0.168205250696259 
2121	 0.120612108485634 
2122	 5.79366330532972E-02 
2123	 5.22051284505465E-02 
2124	-0.143500068648571 
2125	-0.220425339888784 
2126	-0.12901726758119 
2127	-7.15529715291344E-03 
2128	-0.183200055581107 
2129	-0.401904770741251 
2130	-0.369756224566164 
2131	-0.363074244878948 
2132	-0.481184596342312 
2133	-0.545808239686372 
2134	-0.502853349436728 
2135	-0.474373398587501 
2136	-0.343725001729786 
2137	 0.102120466969009 
2138	 0.236698279551616 
2139	 0.19486827332676 
2140	 0.240066505884234 
2141	 0.200563039215743 
2142	 0.11779326098005 
2143	 2.96995911284192E-02 
2144	-4.57380959656621E-02 
2145	-0.106637145970838 
2146	-0.140848893879002 
2147	-4.21655295715179E-02 
2148	 0.122917360561963 
2149	-8.81416613328743E-02 
2150	-0.215530247423628 
2151	-0.235972404476608 
2152	-0.314780173593889 
2153	-0.197670035771053 
2154	-6.68328025916411E-02 
2155	-0.02797074979651 
2156	-2.11792468822096E-02 
2157	-0.12745333051525 
2158	-0.471239419228775 
2159	-0.500475354269254 
2160	-0.363384568429117 
2161	-0.372849946053281 
2162	-0.396775026670706 
2163	-0.376855648166354 
2164	-0.386071724282299 
2165	-0.393263592647521 
2166	-0.338980567080311 
2167	-0.309666516160646 
2168	-0.327807566734545 
2169	-0.342735165130778 
2170	-0.370708455089686 
2171	-0.298189184122149 
2172	-0.264085923295419 
2173	-0.237773678621903 
2174	-0.10913061226006 
2175	-0.041592517257938 
2176	-8.23226461934068E-02 
2177	-0.124415989770589 
2178	-0.205406650079868 
2179	-0.297137905203501 
2180	-0.287936621223809 
2181	-0.219880643322744 
2182	-0.137628744957742 
2183	-4.53482333980758E-02 
2184	-5.67693398362991E-02 
2185	-9.42317374857895E-02 
2186	-0.123129529063146 
2187	-0.217873274931918 
2188	-0.226483028633072 
2189	-0.16088454642556 
2190	-0.14368352391703 
2191	-0.134106853234738 
2192	-0.102972508364857 
2193	-8.44508466756588E-02 
2194	-8.25137775618215E-02 
2195	-4.06551308130855E-02 
2196	-0.052909082587505 
2197	-0.11141070442048 
2198	-0.159018834519624 
2199	-0.252925876387763 
2200	-0.371193813125467 
2201	-0.356718592494461 
2202	-0.429615800921569 
2203	-0.779884046917636 
2204	-0.845552937561847 
2205	-0.629838076116833 
2206	-0.5976741106125 
2207	-0.299802082389242 
2208	-0.133049700143207 
2209	-0.178234231241717 
2210	-0.133283762285134 
2211	-0.115982409222685 
2212	-0.159405571482193 
2213	-6.96147750806777E-02 
2214	-0.118042182786686 
2215	-0.183622630554035 
2216	-0.149393716162964 
2217	-0.150513042815744 
2218	-0.181270375689934 
2219	-0.107858754462119 
2220	 2.62423759815857E-02 
2221	 5.44280135240935E-02 
2222	 8.97005840486317E-02 
2223	 0.1005194594969 
2224	 2.53141166961424E-02 
2225	 2.08996740814688E-05 
2226	 6.57237760352641E-02 
2227	 6.37511585945754E-02 
2228	 6.60137621442569E-03 
2229	-8.22897266571057E-02 
2230	-0.267841212744323 
2231	-0.395979669866377 
2232	-0.590477664114077 
2233	-0.594269315576016 
2234	-0.423073387818864 
2235	-0.278197027313938 
2236	-0.14213213508325 
2237	-3.55087629452781E-02 
2238	-0.12754689450301 
2239	-0.178359484396648 
2240	-7.59995306656761E-02 
2241	-0.058968617614885 
2242	-8.82394898239312E-02 
2243	-9.54647644457092E-02 
2244	-0.043014835707583 
2245	-5.96880761132297E-02 
2246	-0.28216585130076 
2247	-0.377634884612361 
2248	-0.454399217620058 
2249	-0.620938140105935 
2250	-0.482841592670803 
2251	-0.305246220003718 
2252	-0.362688232412655 
2253	-0.410337538535741 
2254	-0.315603183528437 
2255	-0.100996620628085 
2256	 7.20843628183159E-02 
2257	 0.319825411593541 
2258	 0.452373538384981 
2259	 0.328615776205495 
2260	 0.247811007329648 
2261	 0.138884063603683 
2262	 0.153561453372428 
2263	 0.122249671092315 
2264	 0.237822236196803 
2265	 0.746979846399768 
2266	 1.11134199210888 
2267	 1.8808126274377 
2268	 1.88620358700029 
2269	 0.846301483371801 
2270	 0.509298976774755 
2271	 0.242945226801413 
2272	 0.100274340034271 
2273	 0.026041022566243 
2274	 3.00341243607391E-02 
2275	 0.135891271696857 
2276	 5.65275437520969E-02 
2277	-0.113791720648946 
2278	-0.136515150294159 
2279	-0.306516909777267 
2280	-0.314785092274049 
2281	-9.21768635234482E-02 
2282	 3.10208612223288E-02 
2283	 7.97819816289011E-02 
2284	-3.66130638184906E-02 
2285	-0.743179856237775 
2286	-1.76144884112111 
2287	 4.03062063761068 
2288	-970.251716172104 
2289	-2.41462400575625 
2290	-2.91880996265519 
2291	-2.0970409961773 
2292	-2.12904913852155 
2293	-5.4746923374359 
2294	 1.15495017111844 
2295	 5.59784050331159 
2296	 1.10014204398389 
2297	 1.12450025411793 
2298	 0.360220744467757 
2299	 0.148750279587542 
2300	 4.48091144097718E-02 
2301	-0.478002890869887 
2302	-0.700950266096254 
2303	-1.25767811250656 
2304	-1.47555426796716 
2305	-0.588908567604349 
2306	-0.377535164628536 
2307	-0.192315326610495 
2308	-0.096240382538874 
2309	-0.035932438774475 
2310	 0.378909703030645 
2311	 0.403609380946767 
2312	 0.103382201376752 
2313	 1.61498097631258E-02 
2314	-9.82349039087727E-03 
2315	-0.268901776691293 
2316	-0.512286200460976 
2317	-0.906563514542495 
2318	-1.59104667084167 
2319	-1.87315261123499 
2320	-1.6204153656127 
2321	-0.702719440030975 
2322	-0.762040470018354 
2323	-0.553344717170389 
2324	 0.207289185747894 
2325	 0.216423728191203 
2326	 0.307273843046475 
2327	 5.46036569803199E-02 
2328	-0.559682206489266 
2329	-0.596597710203212 
2330	-0.458250326853192 
2331	-0.496795933973826 
2332	-0.489186627675186 
2333	-0.750317242042164 
2334	-2.72335382298933 
2335	-2.19944047660927 
2336	-2.35260604327656 
2337	-3.03477145496288 
2338	-2.14359059710262 
2339	-1.42722127724459 
2340	-0.337073624726406 
2341	 0.137134881194557 
2342	 0.160960700665043 
2343	 1.01501571663128 
2344	 4.56985703112707 
2345	 25.1014548959779 
2346	-2.44248444406719 
2347	-0.262542436959007 
2348	 1.51390857710328 
2349	 4.09264542889018 
2350	-4.65688231085808 
2351	-1.1566950437228 
2352	 1.70409425327227 
2353	 0.879028245354952 
2354	 0.399473970167709 
2355	 0.848404303325633 
2356	-0.216499030200865 
2357	 24.7749159007724 
2358	 1.82344442963198 
2359	 2.51728188370974 
2360	 0.993613056231759 
2361	-0.730174479603453 
2362	 0.352570170996057 
2363	 0.551328363381159 
2364	 0.369749530236556 
2365	 1.0331523958702 
2366	 1.95155108915875 
2367	-124.824244900898 
2368	-4.41320020977115 
2369	-2.30716273340161 
2370	-1.01348849952779 
2371	-1.02878731361582 
2372	-1.24922893381255 
2373	-2.18942129993378 
2374	-2.43046233762972 
2375	-2.59838909021056 
2376	-6.51237888957129 
2377	-6.4681789431588 
2378	 1.48401399771922 
2379	 0.760284741957258 
2380	 0.651780182719654 
2381	 0.143730083077502 
2382	 1.16864358170588 
2383	-3.5708893557017 
2384	-0.259557249588022 
2385	 0.114573994152926 
2386	 9.76300921906852E-02 
2387	 0.12455744682901 
2388	 7.14850727329854E-02 
2389	-1.09537760525184 
2390	-1.17725192146526 
2391	-0.535302281178246 
2392	-1.55302489902497 
2393	 4.35993287513146 
2394	 2.366023527789 
2395	 6.47509047789083 
2396	-3.68404950121871 
2397	-1.21208260130646 
2398	-2.10666484785935 
2399	-4.47148487884775 
2400	-4.64130186478065 
2401	 0.096369083897485 
2402	-1.02211705863794 
2403	 4.96419403325082 
2404	 8.07429175475316 
2405	 8.66516065482467 
2406	 4.10345584029381 
2407	 6.8580985436709 
2408	-6.12006326141634 
2409	 0.692365532975989 
2410	 0.200368938063684 
2411	 0.843047488743344 
2412	 1.06379103960137 
2413	 0.838191777061237 
2414	 1.09638242929678 
2415	 1.18908367948541 
2416	 0.891616666193037 
2417	 0.508014021159785 
2418	-6.94419085050161E-02 
2419	-0.321245916416754 
2420	 6.01481836017551 
2421	-4.59991111446274 
2422	-2.04299616256932 
2423	-2.16464595479106 
2424	-1.80257011873927 
2425	-1.64865296248965 
2426	-2.71313270157898 
2427	 4.28621157687063 
2428	 1.71456124749562 
2429	 0.70931393266737 
2430	 0.38749919676129 
2431	 0.054109417995538 
2432	-0.123157872042024 
2433	-0.319988794434002 
2434	-0.522891660900272 
2435	-0.27293580919161 
2436	 34.93970607104 
2437	-1.08359257202102 
2438	-1.73372425942092 
2439	-2.12221573945216 
2440	-3.02002863208485 
2441	-2.84392262664436 
2442	 4.16671958802886 
2443	-0.362285932727522 
2444	-2.19698739934244 
2445	-2.36311616040799 
2446	-1.68524098673865 
2447	-0.279306044497926 
2448	-0.216479632781297 
2449	-0.852680970500634 
2450	-2.85489278345813 
2451	 3.5975154460238 
2452	-11.1205901720105 
2453	-2.9623715265238 
2454	-3.86502247305773 
2455	-3.37944999930596 
2456	-17.773760511976 
2457	 1.68329928160479 
2458	 1.20343994975583 
2459	 1.64432500211553 
2460	 3.55820028320602 
2461	 9.77050891788707 
2462	 77.819507653108 
2463	 13.8921371687115 
2464	 3.51818329002804 
2465	-64.1732817304225 
2466	-12.4149189994141 
2467	-16.8511621914601 
2468	-5.23964601678035 
2469	-2.84400418462721 
2470	-2.9389256393377 
2471	-3.36442500519032 
2472	-6.64571273537076 
2473	 4.52772625100509 
2474	 2.51510383527881 
2475	 1.83630748308854 
2476	 1.63644673817169 
2477	 1.29011875272287 
2478	 0.905759534942473 
2479	 1.97751358823786 
2480	 4.52186805570253 
2481	 7.22972334449746 
2482	 2.37443691767176 
2483	 0.527638227858345 
2484	-6.69074173366784E-02 
2485	 1.69279565419003E-02 
2486	 4.28466700358086E-02 
2487	 0.391045678701928 
2488	 0.777856703841297 
2489	-4.511760721972 
2490	-0.802675553865837 
2491	-0.690308908274883 
2492	-0.886631307641217 
2493	-1.0264977731822 
2494	-1.60533355232532 
2495	-28.9349702457658 
2496	-3.40687275352265 
2497	-3.21517684491821 
2498	-2.60492634988968 
2499	-1.82234884907837 
2500	-4.6176376079076 
