Wavelength	rt0712west_far200006.asd
350	 7.23284691487971E-02 
351	 7.33189633313545E-02 
352	 7.27880742659815E-02 
353	 7.19178242984513E-02 
354	 7.18215005455976E-02 
355	 7.24263035136277E-02 
356	 7.34974957129519E-02 
357	 7.39559784660795E-02 
358	 7.31055473490726E-02 
359	 0.072776790321937 
360	 7.23395892972195E-02 
361	 0.072499394663752 
362	 7.44114796754931E-02 
363	 7.37037968581919E-02 
364	 7.32489805496881E-02 
365	 7.41878394511501E-02 
366	 0.073660766679269 
367	 7.38224225751092E-02 
368	 0.074039192015104 
369	 7.35682301086012E-02 
370	 7.40121148165742E-02 
371	 7.34353616436682E-02 
372	 0.072673306307254 
373	 7.38185759384189E-02 
374	 7.44084948495074E-02 
375	 7.43665450553444E-02 
376	 7.40981676863137E-02 
377	 0.074277783035048 
378	 7.48974574899061E-02 
379	 7.51142193734799E-02 
380	 7.46369009138345E-02 
381	 7.55221334909524E-02 
382	 7.61278876141594E-02 
383	 7.60222459969041E-02 
384	 7.56204656975442E-02 
385	 7.65556177821427E-02 
386	 7.67451722872387E-02 
387	 7.60668788496573E-02 
388	 7.67941435702766E-02 
389	 7.66142920487307E-02 
390	 7.70643132690276E-02 
391	 7.86579308905326E-02 
392	 7.75739062165069E-02 
393	 7.72419256390995E-02 
394	 7.76243687255167E-02 
395	 7.75959847181663E-02 
396	 7.79575950613172E-02 
397	 0.078258698337581 
398	 7.85837779368134E-02 
399	 7.94331928512477E-02 
400	 7.86588884497292E-02 
401	 7.83668122997449E-02 
402	 7.95726482966996E-02 
403	 7.94936337451874E-02 
404	 7.91880175765286E-02 
405	 7.92309590971822E-02 
406	 0.079811590717613 
407	 7.98548854717294E-02 
408	 7.95945785539949E-02 
409	 7.95409202473415E-02 
410	 8.02970218369836E-02 
411	 8.05839760587461E-02 
412	 8.04952907998317E-02 
413	 8.04965371425137E-02 
414	 8.14075208116187E-02 
415	 8.14163028732599E-02 
416	 8.11455728360097E-02 
417	 8.18596264969137E-02 
418	 8.19775062588357E-02 
419	 8.22107467560298E-02 
420	 8.27882157851818E-02 
421	 0.083249741864593 
422	 8.32497609693116E-02 
423	 0.083402478025952 
424	 8.40192045595739E-02 
425	 8.39327417766332E-02 
426	 8.42485943777134E-02 
427	 8.48941482066777E-02 
428	 8.52747902214946E-02 
429	 8.55595328867629E-02 
430	 8.60022347348928E-02 
431	 8.65381973935594E-02 
432	 8.67328389211249E-02 
433	 8.69212142649181E-02 
434	 8.74024257375107E-02 
435	 8.81306963784233E-02 
436	 8.80501089654542E-02 
437	 8.82413706254464E-02 
438	 8.87712778399801E-02 
439	 8.91505529707543E-02 
440	 8.94152471719719E-02 
441	 8.99437702394851E-02 
442	 0.090745128161872 
443	 0.091253620367133 
444	 9.12699912888761E-02 
445	 9.13392308643444E-02 
446	 9.19118222469473E-02 
447	 9.22284541863606E-02 
448	 0.092272805342742 
449	 0.092404968329199 
450	 9.31416653611811E-02 
451	 9.34108132773483E-02 
452	 9.35329628921419E-02 
453	 9.38163988708207E-02 
454	 9.41029522165396E-02 
455	 9.45170733276506E-02 
456	 0.094864904739709 
457	 9.49442747928893E-02 
458	 9.51548861930329E-02 
459	 9.52112892011639E-02 
460	 9.52470626071736E-02 
461	 9.57982888430465E-02 
462	 9.59217087928301E-02 
463	 9.59192547703178E-02 
464	 9.61494492522746E-02 
465	 9.64063520908469E-02 
466	 9.66452243540509E-02 
467	 9.68547234962082E-02 
468	 9.70475400530414E-02 
469	 9.71986244096465E-02 
470	 9.73829600259659E-02 
471	 9.76032778166442E-02 
472	 0.09775552817229 
473	 9.76166415905231E-02 
474	 9.79156211227148E-02 
475	 0.098987509226622 
476	 9.88748433677146E-02 
477	 9.89052918033012E-02 
478	 9.93512253644462E-02 
479	 9.97253653683113E-02 
480	 9.99653237525536E-02 
481	 0.100110501584776 
482	 0.10026167129922 
483	 0.100589358353547 
484	 0.101123495029247 
485	 0.101468801316085 
486	 0.101380490253653 
487	 0.102311454770063 
488	 0.102944336201566 
489	 0.10293089786808 
490	 0.102998187360696 
491	 0.103290523638775 
492	 0.10379150404518 
493	 0.104400134825933 
494	 0.104947146197719 
495	 0.105552387367146 
496	 0.106053213037956 
497	 0.106233372446599 
498	 0.106694353253967 
499	 0.107073714666213 
500	 0.107254260747984 
501	 0.107656636059823 
502	 0.108268522820013 
503	 0.108824531248945 
504	 0.109129546962296 
505	 0.109580110771232 
506	 0.110337571240506 
507	 0.111036024360576 
508	 0.111023076130412 
509	 0.111566212055688 
510	 0.112418240730935 
511	 0.113119197101861 
512	 0.113209694872727 
513	 0.114039220045189 
514	 0.115039817671715 
515	 0.115086594231761 
516	 0.115731581229015 
517	 0.116572070680564 
518	 0.117267915491055 
519	 0.117785847665413 
520	 0.118403232529078 
521	 0.1190193102516 
522	 0.119588469807117 
523	 0.120618382291696 
524	 0.121455043866788 
525	 0.12194731084998 
526	 0.12236763170429 
527	 0.123248105919541 
528	 0.124104872982314 
529	 0.124679055711902 
530	 0.125454599072023 
531	 0.12621810225752 
532	 0.126983584683991 
533	 0.127803741408574 
534	 0.128518101998834 
535	 0.129240228570966 
536	 0.130022002500298 
537	 0.130820389273023 
538	 0.131505618160724 
539	 0.132180210207221 
540	 0.132953762013262 
541	 0.133771154543592 
542	 0.134411520742885 
543	 0.135094507793189 
544	 0.136218077356147 
545	 0.136855413546319 
546	 0.137678038999512 
547	 0.138929764331797 
548	 0.139662718599896 
549	 0.14034640172945 
550	 0.14109340351488 
551	 0.14192571069861 
552	 0.143024968181744 
553	 0.143906479865591 
554	 0.14447213992047 
555	 0.145092419496208 
556	 0.145893956906631 
557	 0.146808346668614 
558	 0.14765077101429 
559	 0.148089107353134 
560	 0.148630526772168 
561	 0.149359992144105 
562	 0.150067068980106 
563	 0.150463420777904 
564	 0.150989775487106 
565	 0.151765738952212 
566	 0.152064666151181 
567	 0.152491268375502 
568	 0.152940336396073 
569	 0.15315164354377 
570	 0.153613448712683 
571	 0.154069380383095 
572	 0.154380054995481 
573	 0.154583490669171 
574	 0.154948720383347 
575	 0.155373331140068 
576	 0.15573222488648 
577	 0.156169475740506 
578	 0.156439844317099 
579	 0.156601209656102 
580	 0.156854910636643 
581	 0.156839959962088 
582	 0.156805470022742 
583	 0.156826171921592 
584	 0.156524748882428 
585	 0.156068588072297 
586	 0.155410999555565 
587	 0.154439547305456 
588	 0.153183702314144 
589	 0.152398709584294 
590	 0.152282452555601 
591	 0.152211866667778 
592	 0.152054839609626 
593	 0.151706397682964 
594	 0.151186276247443 
595	 0.150768859426501 
596	 0.150375418134008 
597	 0.149869595015118 
598	 0.14914397314589 
599	 0.148593435993274 
600	 0.14809523310318 
601	 0.147609916103495 
602	 0.1473430397371 
603	 0.147074378258485 
604	 0.146824507111162 
605	 0.146684447785143 
606	 0.146699365410373 
607	 0.146655449495452 
608	 0.146501537462921 
609	 0.146378213920541 
610	 0.14663124277926 
611	 0.146857235285759 
612	 0.146736940483726 
613	 0.146666002722719 
614	 0.146757071399545 
615	 0.146708026579501 
616	 0.146134077617027 
617	 0.146228398930403 
618	 0.14635899233586 
619	 0.146238842407321 
620	 0.146496118497844 
621	 0.146229583073227 
622	 0.14571916828138 
623	 0.145530772621343 
624	 0.145542867720566 
625	 0.145412784596853 
626	 0.145092021735573 
627	 0.144845726051009 
628	 0.144573194796412 
629	 0.144462960717666 
630	 0.144592039382377 
631	 0.144689315614284 
632	 0.144730006425118 
633	 0.1447505888123 
634	 0.144809004846778 
635	 0.144798687496531 
636	 0.144805761755491 
637	 0.144840753961125 
638	 0.144788248202549 
639	 0.144506715851872 
640	 0.14434931688754 
641	 0.144531874504568 
642	 0.144083310893524 
643	 0.143806081901423 
644	 0.143610290715387 
645	 0.142647514688909 
646	 0.141679276520522 
647	 0.141274816688217 
648	 0.14153478283743 
649	 0.141617776699319 
650	 0.141740040397659 
651	 0.141764710814747 
652	 0.141480400099027 
653	 0.140973132309953 
654	 0.139997065605595 
655	 0.138938539200186 
656	 0.139134653330892 
657	 0.139041817158306 
658	 0.138667125320286 
659	 0.138261767358365 
660	 0.137768082463494 
661	 0.137434337150539 
662	 0.137242248276961 
663	 0.137037461051779 
664	 0.137037722309735 
665	 0.13693436317792 
666	 0.136594249958288 
667	 0.136286471094884 
668	 0.136159357524899 
669	 0.136233500271684 
670	 0.136380009781275 
671	 0.136045940816155 
672	 0.135903363750084 
673	 0.136023354163431 
674	 0.135891660320984 
675	 0.135951635581774 
676	 0.136013835377369 
677	 0.135971303229921 
678	 0.136286059143709 
679	 0.136131205222538 
680	 0.135710797314418 
681	 0.135640262071308 
682	 0.135689665990423 
683	 0.135663342416248 
684	 0.13543684843334 
685	 0.134921629786625 
686	 0.134382055949163 
687	 0.134021176219317 
688	 0.133866444984071 
689	 0.133522273015477 
690	 0.133012545905339 
691	 0.132192336438375 
692	 0.130891814631962 
693	 0.130225249228469 
694	 0.130240503570769 
695	 0.130346055321877 
696	 0.129615396074929 
697	 0.128625508790405 
698	 0.127369512735252 
699	 0.126012340048711 
700	 0.125277136011947 
701	 0.124835200962366 
702	 0.12425750930761 
703	 0.12315479357688 
704	 0.121854187662534 
705	 0.120487809538951 
706	 0.119178821040718 
707	 0.117836793394807 
708	 0.116697489503443 
709	 0.115532814965447 
710	 0.114048594873865 
711	 0.112296876591899 
712	 0.110497160304801 
713	 0.108615838857459 
714	 0.106277852838908 
715	 0.103150001568514 
716	 9.92197626776102E-02 
717	 9.56202734453033E-02 
718	 9.30991456823763E-02 
719	 9.12190530676946E-02 
720	 9.00413580254837E-02 
721	 8.91397267478402E-02 
722	 8.72519665201142E-02 
723	 8.42463347292173E-02 
724	 8.12338706563437E-02 
725	 7.96815243363344E-02 
726	 7.77124235679141E-02 
727	 7.54328650890549E-02 
728	 7.32380182183781E-02 
729	 7.11205019628778E-02 
730	 0.068639626594821 
731	 6.66139234647779E-02 
732	 6.55027379185689E-02 
733	 6.44552078214787E-02 
734	 6.33042203306337E-02 
735	 6.20115694085209E-02 
736	 6.07020941305801E-02 
737	 6.01180029968431E-02 
738	 5.98869619195336E-02 
739	 5.96257530850657E-02 
740	 5.96628232738491E-02 
741	 5.93414959339064E-02 
742	 5.91170121447452E-02 
743	 5.97264850885458E-02 
744	 5.97826884821441E-02 
745	 5.93732034672258E-02 
746	 5.89538904409883E-02 
747	 5.92509300327016E-02 
748	 5.94684120132138E-02 
749	 0.059297132840551 
750	 5.88500976287872E-02 
751	 5.91969194940583E-02 
752	 5.91005876034864E-02 
753	 5.86611064630864E-02 
754	 0.05866057924769 
755	 5.88247666766791E-02 
756	 5.87609179389144E-02 
757	 5.84423757284047E-02 
758	 5.83997749516235E-02 
759	 5.76788056036314E-02 
760	 5.62961544013734E-02 
761	 5.63914839146585E-02 
762	 5.68798627876512E-02 
763	 5.63725956106464E-02 
764	 5.63800242304523E-02 
765	 5.78647441569185E-02 
766	 5.88015472203675E-02 
767	 5.88697320703562E-02 
768	 5.86402368781704E-02 
769	 5.93355688502548E-02 
770	 5.95383806685338E-02 
771	 0.059395453022276 
772	 0.059294740253633 
773	 5.93881443170298E-02 
774	 5.99604998929321E-02 
775	 0.06038694383444 
776	 5.99962652688351E-02 
777	 6.03788803173776E-02 
778	 0.060876867425163 
779	 6.11931326720852E-02 
780	 6.15373948166866E-02 
781	 0.061403466526987 
782	 6.12299077185547E-02 
783	 6.14284552645498E-02 
784	 0.061977144646548 
785	 6.24293326078887E-02 
786	 6.26197141701545E-02 
787	 6.25953941232372E-02 
788	 6.28086694838578E-02 
789	 6.30380375164352E-02 
790	 6.33847488933852E-02 
791	 0.06416128673161 
792	 6.48021043457559E-02 
793	 6.52488058325787E-02 
794	 6.54040466157221E-02 
795	 6.48751050919914E-02 
796	 6.52544172378778E-02 
797	 6.61362533386145E-02 
798	 6.66470766185206E-02 
799	 0.066470853451922 
800	 6.67212290074304E-02 
801	 6.72135690660845E-02 
802	 6.71607879715121E-02 
803	 6.78024837486087E-02 
804	 6.82843677976096E-02 
805	 6.83247287791301E-02 
806	 6.83611633711965E-02 
807	 6.83391921127224E-02 
808	 6.79176183152173E-02 
809	 0.06700803086775 
810	 0.066443900621885 
811	 6.64753094474392E-02 
812	 6.63090958001159E-02 
813	 6.48277310689959E-02 
814	 6.41270175899833E-02 
815	 6.30635629505933E-02 
816	 6.23111430642356E-02 
817	 6.35196131039597E-02 
818	 6.26479170002778E-02 
819	 6.21429005723365E-02 
820	 6.25635291842102E-02 
821	 6.20141351092318E-02 
822	 6.09769700083042E-02 
823	 5.90169772214697E-02 
824	 5.67563204805274E-02 
825	 5.68115377650632E-02 
826	 5.53111337105664E-02 
827	 5.36288194316693E-02 
828	 5.42488878938196E-02 
829	 5.17653112765895E-02 
830	 0.050415878778637 
831	 5.04999419175265E-02 
832	 0.049573595410404 
833	 4.89602698543536E-02 
834	 4.90389609949335E-02 
835	 4.93299088649285E-02 
836	 4.85788375611133E-02 
837	 4.84606659579811E-02 
838	 4.83519712996485E-02 
839	 4.78310644409223E-02 
840	 4.82010963370959E-02 
841	 4.79138617536194E-02 
842	 4.73752737753903E-02 
843	 0.047312561264622 
844	 0.046454735069293 
845	 4.66774766194431E-02 
846	 4.76241574726529E-02 
847	 4.75227120193963E-02 
848	 4.65831588008127E-02 
849	 4.63665722869066E-02 
850	 4.70735435532228E-02 
851	 4.69682306666627E-02 
852	 4.57435010862736E-02 
853	 4.54847208906078E-02 
854	 4.66457681123765E-02 
855	 4.52854454968652E-02 
856	 4.52744072912105E-02 
857	 4.57170946949143E-02 
858	 4.52786035412627E-02 
859	 4.59188592005743E-02 
860	 4.58227360859218E-02 
861	 4.52404509445862E-02 
862	 4.52303360078279E-02 
863	 4.46567290031792E-02 
864	 4.50198945692275E-02 
865	 0.045861123519477 
866	 4.51284096375719E-02 
867	 4.52323661502196E-02 
868	 4.49330603247263E-02 
869	 4.40488398056635E-02 
870	 4.43100058988387E-02 
871	 4.44323852927781E-02 
872	 4.41351340176574E-02 
873	 4.36601613845236E-02 
874	 0.043942646819475 
875	 4.35679441562537E-02 
876	 4.33548781636019E-02 
877	 4.39643887996491E-02 
878	 4.27161007346792E-02 
879	 4.26268376314068E-02 
880	 4.29417868973587E-02 
881	 4.17690941698616E-02 
882	 4.22076297681135E-02 
883	 4.29093008718815E-02 
884	 4.32401887098407E-02 
885	 4.33064913636683E-02 
886	 4.29093590278268E-02 
887	 4.29182123077726E-02 
888	 4.31562678247368E-02 
889	 4.22273604126272E-02 
890	 4.15727152944649E-02 
891	 4.06952473773125E-02 
892	 0.039709041290818 
893	 4.08865788445446E-02 
894	 4.11946520367354E-02 
895	 4.01612514105864E-02 
896	 3.86152670009956E-02 
897	 3.81431116037506E-02 
898	 3.92883191219705E-02 
899	 4.22905707336025E-02 
900	 4.48215985965617E-02 
901	 3.76348645516614E-02 
902	 0.036484084223522 
903	 3.85418016842573E-02 
904	 3.69555520176472E-02 
905	 4.04150407866988E-02 
906	 4.02769538597258E-02 
907	 3.64216587642784E-02 
908	 3.60508731216109E-02 
909	 3.72624180924227E-02 
910	 3.69867993163274E-02 
911	 3.52850483067367E-02 
912	 3.53369657084378E-02 
913	 3.83888373797369E-02 
914	 4.04317697407654E-02 
915	 3.98118594365737E-02 
916	 3.88520577890168E-02 
917	 3.98172535027493E-02 
918	 4.01365964825929E-02 
919	 3.90014522234335E-02 
920	 3.83094762538832E-02 
921	 3.96880792623967E-02 
922	 3.96614494754465E-02 
923	 3.65941932052326E-02 
924	 0.035285903929615 
925	 0.035273378928738 
926	 3.83664053071966E-02 
927	 4.29884080696267E-02 
928	 2.88749995552072E-02 
929	 4.15638601360289E-02 
930	 6.84114372466884E-02 
931	 4.67321758848832E-02 
932	 2.38352412538714E-02 
933	 3.54178681412242E-02 
934	 6.57417810204449E-02 
935	 6.22755642219691E-02 
936	 4.74899709577196E-02 
937	 5.94308737094316E-02 
938	 6.05137392297473E-02 
939	 0.021661039105949 
940	 3.78611438008936E-02 
941	 0.048797679699094 
942	 5.39882906260692E-02 
943	 0.072023396593821 
944	 4.22594981117907E-02 
945	 2.45000275837595E-02 
946	 3.54025593197538E-02 
947	 4.96490709637892E-02 
948	 6.78609397856696E-02 
949	 3.62215661814863E-02 
950	-1.4036743124601E-04 
951	 2.73715446332742E-02 
952	 0.044586615756954 
953	 6.21476040030032E-02 
954	 5.54001935914316E-02 
955	 2.48995035297614E-03 
956	 3.61248525604949E-02 
957	 4.24696387874067E-02 
958	 2.75074995802221E-02 
959	 6.07740101696076E-02 
960	 4.88279986472903E-02 
961	 3.63286024662987E-02 
962	 3.76782515889137E-02 
963	 3.95645431823187E-02 
964	 2.14791274623434E-02 
965	 2.12540335656894E-02 
966	 3.95079737884594E-02 
967	 5.09340863624151E-02 
968	 3.42677779293912E-02 
969	 2.70958291877189E-02 
970	 3.72246543262656E-02 
971	 4.42281189360316E-02 
972	 3.12531175354686E-02 
973	 2.71680434755501E-02 
974	 3.73833609809068E-02 
975	 3.94011874980845E-02 
976	 0.039791110113546 
977	 0.035604048408532 
978	 3.39487221872079E-02 
979	 4.41272918423366E-02 
980	 3.39276003267404E-02 
981	 3.03493089421834E-02 
982	 3.63526987010671E-02 
983	 3.67454057477502E-02 
984	 4.47851143873383E-02 
985	 4.54728272308573E-02 
986	 3.81879473477947E-02 
987	 3.47345026653614E-02 
988	 4.41136638899845E-02 
989	 4.24378678780386E-02 
990	 0.032504296886922 
991	 3.53361041103641E-02 
992	 0.041103064840667 
993	 3.88943101469015E-02 
994	 3.38955870233108E-02 
995	 3.88006173527262E-02 
996	 4.19738147427454E-02 
997	 4.12031434509853E-02 
998	 3.96479128815566E-02 
999	 4.13759374994511E-02 
1000	 3.73038551895075E-02 
1001	 4.50073430206895E-02 
1002	 4.85937908491335E-02 
1003	 4.92815034626014E-02 
1004	 4.71636103317535E-02 
1005	 4.55193775059386E-02 
1006	 4.28429842481939E-02 
1007	 4.12443982603247E-02 
1008	 3.87008505912926E-02 
1009	 3.89452871313779E-02 
1010	 3.97443615824701E-02 
1011	 4.03006732535822E-02 
1012	 4.02529471959889E-02 
1013	 4.06424850745013E-02 
1014	 4.14614488133124E-02 
1015	 4.25832396643022E-02 
1016	 4.29804375905056E-02 
1017	 0.044160313681811 
1018	 4.41810519001511E-02 
1019	 4.37400589733084E-02 
1020	 4.19357961630173E-02 
1021	 3.85546466109905E-02 
1022	 0.035482428241413 
1023	 3.39171212230448E-02 
1024	 3.22038920927006E-02 
1025	 3.27924838697188E-02 
1026	 3.60195631043643E-02 
1027	 3.76285524590001E-02 
1028	 3.92194393038229E-02 
1029	 4.03485727438353E-02 
1030	 4.12507868156418E-02 
1031	 4.21204049808149E-02 
1032	 4.37381319762524E-02 
1033	 4.32309477893975E-02 
1034	 4.11108032815724E-02 
1035	 3.99612470659141E-02 
1036	 3.66885758144131E-02 
1037	 3.57380098149325E-02 
1038	 3.73007765236911E-02 
1039	 3.75569893217451E-02 
1040	 4.03378738289759E-02 
1041	 4.11602524682041E-02 
1042	 4.09827937268362E-02 
1043	 3.98734387703267E-02 
1044	 3.99341468953362E-02 
1045	 3.82776089204883E-02 
1046	 3.89843765470305E-02 
1047	 4.35113194973655E-02 
1048	 4.32823463947411E-02 
1049	 4.00629816432303E-02 
1050	 3.95952166171833E-02 
1051	 3.77873817480607E-02 
1052	 3.72752574637606E-02 
1053	 4.14328024828141E-02 
1054	 4.18410523354203E-02 
1055	 3.79809015996549E-02 
1056	 3.69884530974395E-02 
1057	 3.65267078885223E-02 
1058	 3.55711575768887E-02 
1059	 3.55167654033517E-02 
1060	 3.81317420011816E-02 
1061	 3.82303527686415E-02 
1062	 3.68033445633608E-02 
1063	 3.60986525601089E-02 
1064	 3.41649485040778E-02 
1065	 3.45444929552376E-02 
1066	 3.68515465670066E-02 
1067	 0.037699384421883 
1068	 0.039503586228069 
1069	 4.05461329498405E-02 
1070	 4.01025714208433E-02 
1071	 3.99571614941849E-02 
1072	 3.90774517482098E-02 
1073	 4.09760596329438E-02 
1074	 3.93971717525857E-02 
1075	 3.48613168257767E-02 
1076	 3.49503381922055E-02 
1077	 3.52987334977095E-02 
1078	 3.67813622846947E-02 
1079	 4.43217038022774E-02 
1080	 4.48815881546297E-02 
1081	 4.05684155235368E-02 
1082	 3.95263973235728E-02 
1083	 3.58690639061338E-02 
1084	 3.50481469992201E-02 
1085	 3.90158040497453E-02 
1086	 4.02163344070617E-02 
1087	 4.07664312659054E-02 
1088	 4.09714429618119E-02 
1089	 4.10779869526032E-02 
1090	 3.88253250727503E-02 
1091	 3.71251638738566E-02 
1092	 0.034168827764287 
1093	 3.33069495402545E-02 
1094	 3.20560764793658E-02 
1095	 3.33003835959831E-02 
1096	 3.97998451785828E-02 
1097	 4.12216966155299E-02 
1098	 4.07288030752615E-02 
1099	 4.09114532733473E-02 
1100	 3.72898474761293E-02 
1101	 3.70556103447363E-02 
1102	 4.05414221129205E-02 
1103	 4.26347981541769E-02 
1104	 4.89540991415883E-02 
1105	 4.73207651147916E-02 
1106	 3.83352146376541E-02 
1107	 3.80930657552763E-02 
1108	 4.74002473546444E-02 
1109	 5.03565847760546E-02 
1110	 4.91299388001524E-02 
1111	 5.24367462435848E-02 
1112	 5.02824253071927E-02 
1113	 2.09470674513038E-02 
1114	 1.69628198612175E-02 
1115	 5.28922882980166E-02 
1116	 6.09044709215924E-02 
1117	 5.07104330966469E-02 
1118	 5.44008077664631E-02 
1119	 3.20653305931363E-02 
1120	 7.61121084077997E-03 
1121	-3.31059549138547E-02 
1122	 5.07392706804316E-02 
1123	 0.106005854317543 
1124	 3.15999071405726E-02 
1125	 0.065533855100988 
1126	 0.228894459727084 
1127	 0.136015990419479 
1128	 0.111932966829611 
1129	 0.175246709521237 
1130	 0.238844896633044 
1131	 0.173204384379533 
1132	 0.145485216870627 
1133	 0.131049202670805 
1134	 1.11080078448938E-02 
1135	 1.72027741331037E-02 
1136	 0.150752827318895 
1137	 0.1503201110532 
1138	 0.11013827246993 
1139	 9.66404631429664E-02 
1140	 5.16746551228898E-02 
1141	 3.12069163718312E-02 
1142	 9.81862662338034E-03 
1143	 6.56926766871315E-03 
1144	 3.99219274023651E-02 
1145	 2.47138414747025E-03 
1146	-0.041011941509277 
1147	-5.50107109388404E-02 
1148	-0.118668286535602 
1149	-0.129195321768698 
1150	-9.24504436658571E-02 
1151	 2.58074889181791E-03 
1152	 2.95210609487711E-02 
1153	 5.80083942339999E-02 
1154	 5.74880770194865E-02 
1155	 4.47544295460973E-02 
1156	 1.90804380545356E-02 
1157	 6.35629184790274E-03 
1158	 1.53573217957499E-02 
1159	 1.77264781885526E-02 
1160	 1.96136811447904E-02 
1161	 2.77508874561722E-02 
1162	 3.37666006358103E-02 
1163	 3.49218183784437E-02 
1164	 3.42134039479932E-02 
1165	 3.59472798113938E-02 
1166	 3.81541016742903E-02 
1167	 3.58113013389192E-02 
1168	 0.035702864837094 
1169	 4.06805867183453E-02 
1170	 3.96818267332239E-02 
1171	 3.78929919261117E-02 
1172	 3.78824532796117E-02 
1173	 3.89499117118922E-02 
1174	 3.86352442568584E-02 
1175	 3.48992079387144E-02 
1176	 3.49912229164476E-02 
1177	 3.54953776977512E-02 
1178	 3.32228891903255E-02 
1179	 3.28217819188943E-02 
1180	 3.35902020977543E-02 
1181	 3.45157363557926E-02 
1182	 3.44503375725919E-02 
1183	 3.32622555400844E-02 
1184	 3.69106516964558E-02 
1185	 0.037640529538786 
1186	 3.56482535839983E-02 
1187	 3.72824880728255E-02 
1188	 3.22240536765813E-02 
1189	 2.82465933231728E-02 
1190	 3.38820197322165E-02 
1191	 3.70532958746823E-02 
1192	 3.63900369384721E-02 
1193	 3.57989775337913E-02 
1194	 3.44633534609585E-02 
1195	 3.10024766862938E-02 
1196	 3.25006908864712E-02 
1197	 3.55930743352987E-02 
1198	 3.68367873117978E-02 
1199	 4.00750258858237E-02 
1200	 3.93998359111822E-02 
1201	 3.48938620147238E-02 
1202	 3.50378601674681E-02 
1203	 3.54663634811938E-02 
1204	 3.39947408968338E-02 
1205	 3.43094901941972E-02 
1206	 3.74363523464225E-02 
1207	 3.94716106721704E-02 
1208	 3.43959886524262E-02 
1209	 3.16396202716978E-02 
1210	 3.52433023705844E-02 
1211	 3.63811032017109E-02 
1212	 3.77570989931409E-02 
1213	 4.17843542620992E-02 
1214	 4.30779600467764E-02 
1215	 0.04144250810398 
1216	 3.95401815512881E-02 
1217	 3.89577420859044E-02 
1218	 3.56319756046865E-02 
1219	 3.42326364872858E-02 
1220	 0.034861445493364 
1221	 3.60188783247133E-02 
1222	 3.85711851558231E-02 
1223	 3.90238305696825E-02 
1224	 3.62710273195842E-02 
1225	 3.28528479770303E-02 
1226	 3.15330433137146E-02 
1227	 3.37707276564675E-02 
1228	 3.74678938311075E-02 
1229	 0.038865495833998 
1230	 3.88919679914224E-02 
1231	 3.93837749104996E-02 
1232	 3.98339956672659E-02 
1233	 3.89449352834344E-02 
1234	 3.68548208976354E-02 
1235	 3.67370242803789E-02 
1236	 3.60177952012934E-02 
1237	 3.60285299236294E-02 
1238	 3.81680676767855E-02 
1239	 0.039325430764168 
1240	 3.77919949136301E-02 
1241	 3.56080723553917E-02 
1242	 3.65373527894067E-02 
1243	 4.03490238039706E-02 
1244	 4.24829541186562E-02 
1245	 4.29787497860258E-02 
1246	 4.09895083811245E-02 
1247	 0.03683436936903 
1248	 3.71919797138344E-02 
1249	 3.94480101006637E-02 
1250	 3.85502301607177E-02 
1251	 3.91712319012927E-02 
1252	 4.09706048052875E-02 
1253	 3.90007473093046E-02 
1254	 0.037574968323038 
1255	 4.02064343450667E-02 
1256	 4.04844601307644E-02 
1257	 3.81925219437153E-02 
1258	 3.84072871013198E-02 
1259	 4.03560950211378E-02 
1260	 3.96601747224188E-02 
1261	 3.87744770326181E-02 
1262	 3.81907306759865E-02 
1263	 3.57529391061009E-02 
1264	 3.45105026558945E-02 
1265	 3.71585957138665E-02 
1266	 3.96603854878052E-02 
1267	 0.040059410914687 
1268	 0.037366515777192 
1269	 3.51001262294761E-02 
1270	 3.44839858201277E-02 
1271	 3.39812348452955E-02 
1272	 3.55198040559318E-02 
1273	 3.58599404216053E-02 
1274	 0.035320887250829 
1275	 3.67892884118756E-02 
1276	 3.80753295295762E-02 
1277	 3.78757371918855E-02 
1278	 3.55284681862334E-02 
1279	 3.21505655181681E-02 
1280	 3.26880364658914E-02 
1281	 3.33504372408811E-02 
1282	 3.51713360121131E-02 
1283	 3.55834390375069E-02 
1284	 3.75878732973123E-02 
1285	 3.80225640357564E-02 
1286	 3.56721488866642E-02 
1287	 3.58087661954871E-02 
1288	 3.84472222263609E-02 
1289	 3.77934170968422E-02 
1290	 0.034056422430779 
1291	 3.52227048733392E-02 
1292	 0.038641331594885 
1293	 3.53143350071509E-02 
1294	 3.22288342695229E-02 
1295	 3.49343217428782E-02 
1296	 3.71377864919447E-02 
1297	 3.87052974839375E-02 
1298	 3.79861601643576E-02 
1299	 3.33786295929529E-02 
1300	 2.82370369060454E-02 
1301	 2.61576037970404E-02 
1302	 3.13525215360642E-02 
1303	 3.44674992092831E-02 
1304	 3.59716351670587E-02 
1305	 3.89059164782525E-02 
1306	 3.81164935021278E-02 
1307	 3.49028164041124E-02 
1308	 3.68778382321849E-02 
1309	 3.76369391181905E-02 
1310	 3.59770115505444E-02 
1311	 3.87959839708802E-02 
1312	 4.09120730697892E-02 
1313	 3.82971558569808E-02 
1314	 3.70205576314318E-02 
1315	 3.77893356120454E-02 
1316	 3.84472966869867E-02 
1317	 3.83054868129104E-02 
1318	 3.72768455510984E-02 
1319	 3.42470909009322E-02 
1320	 3.75008686725565E-02 
1321	 4.68057401261519E-02 
1322	 5.04850362642919E-02 
1323	 4.04632238811181E-02 
1324	 0.044150726213718 
1325	 4.90663240644175E-02 
1326	 4.41505058435954E-02 
1327	 5.61416826533117E-02 
1328	 6.65256711239738E-02 
1329	 4.34608317723696E-02 
1330	 1.64724587014803E-02 
1331	 0.029462974416727 
1332	 3.42985255372713E-02 
1333	 1.26711109781746E-02 
1334	 1.04896667586763E-02 
1335	 1.82994864940076E-02 
1336	 1.86966130463747E-02 
1337	 2.00135059047187E-02 
1338	 5.44590991472825E-02 
1339	 7.92799837783694E-02 
1340	 7.12337358366579E-02 
1341	 7.66683473106335E-02 
1342	 0.134880789027649 
1343	 0.140387469002658 
1344	 5.00666488823022E-02 
1345	 5.34738397872847E-02 
1346	 0.164231909404664 
1347	 0.144411935994104 
1348	-0.040678006351531 
1349	-2.55474194073612E-02 
1350	 5.47069340650204E-02 
1351	 3.59397902923556E-02 
1352	 0.39471149122892 
1353	 0.605602189116517 
1354	 0.433436804832663 
1355	 0.194193083399512 
1356	 2.41049330467459 
1357	 0.536029671370895 
1358	-0.707365391627455 
1359	 9.95130502045309E-02 
1360	-0.151804246161493 
1361	-2.15419407798588E-02 
1362	-4.27784029906655E-02 
1363	-1.00517662715338 
1364	-0.455262902344886 
1365	 0.935554388471029 
1366	 2.79684495855872 
1367	 22.281145065948 
1368	-10.1576573671269 
1369	 1.26585164826811E-02 
1370	 0.118618924166614 
1371	-0.18132680502462 
1372	-0.720511244211837 
1373	 2.09221102409938 
1374	 21.6171691103591 
1375	-1.7655662935551 
1376	-7.73589158871545 
1377	-0.17971374493152 
1378	-0.406710834726369 
1379	-0.130325441528409 
1380	-0.1369429558307 
1381	 0.948189071070604 
1382	 2.91066207898842 
1383	 0.633061753695603 
1384	 0.390639097273316 
1385	 0.195583245397246 
1386	 0.33469040999728 
1387	 3.01540022850447 
1388	 4.27439043267112 
1389	 0.81491644331252 
1390	 0.985924983460985 
1391	-1.65631918789016 
1392	-5.59874119434139 
1393	-2.2554860465806 
1394	 2.33571641520436 
1395	-5.01075621787157E-03 
1396	-0.92432094368081 
1397	-2.25677321176138 
1398	-0.461647581949834 
1399	 3.4628556239118 
1400	-0.162660020446197 
1401	 1.3828181930542 
1402	 1.10979291975987 
1403	 0.431064040920666 
1404	 1.1177630185319 
1405	 1.19252864822298 
1406	 1.07219552185 
1407	 2.38131521165881 
1408	-1.4431027574879 
1409	-1.30937777125008 
1410	-1.55214445372063 
1411	-1.23156647455039 
1412	-0.604492635465926 
1413	 0.27163700338793 
1414	-1.30611806381646 
1415	-1.82605791783933 
1416	-0.865380837624243 
1417	-0.44330394181822 
1418	-0.143077928201332 
1419	-0.281469507231201 
1420	-0.401760287843996 
1421	-0.332385632220358 
1422	-1.23953087955219 
1423	-2.32350195228883 
1424	-1.68257415784333 
1425	-1.5376720589323 
1426	-5.60699396418868 
1427	-1.73148231022539 
1428	-8.47845286460437E-03 
1429	-0.142604167168911 
1430	-0.942700410499862 
1431	-0.602583141665724 
1432	 0.150976923967583 
1433	-0.513203001940915 
1434	-0.77236821006263 
1435	-0.609799062910102 
1436	-0.534768207839611 
1437	-3.13217376041644 
1438	-1.02160005922354 
1439	 0.258955690597492 
1440	 16.6414273718222 
1441	-9.12567170608913 
1442	 0.610012000180418 
1443	 0.697616467397401 
1444	-0.551077216618535 
1445	-0.785377433945667 
1446	-1.11851412360789 
1447	-4.10069127124545 
1448	-3.98851538659914 
1449	-5.16572574698514 
1450	 4.42370275829916 
1451	 0.869139055833671 
1452	-11.0673177533484 
1453	-0.506040472981518 
1454	-0.22785160238678 
1455	-115.050423142932 
1456	-2.45665559709676 
1457	-0.780764361303201 
1458	-0.428189841300634 
1459	-8.35894407510561E-02 
1460	-0.194432991587942 
1461	-0.160096556721617 
1462	-1.95138373138986E-02 
1463	-0.646504227988853 
1464	-0.480424738081243 
1465	 0.961058028629583 
1466	 3.3341500375393 
1467	 0.219188884256119 
1468	 0.100836225365601 
1469	-0.83083439382008 
1470	-0.475748364409608 
1471	 2.95853821637609 
1472	-0.581631046849243 
1473	 75.8815016298103 
1474	-2.27055501299345 
1475	-0.673478318284652 
1476	-0.660059080791007 
1477	-0.300518410617765 
1478	-7.73182575747615E-02 
1479	 0.411910943633413 
1480	 1.20886058516375 
1481	-97.6335472095219 
1482	 11.8725799626382 
1483	 0.707718437038924 
1484	-2.45644231384013 
1485	 1.12204373815746 
1486	 1.08728394082299 
1487	 0.232391985746297 
1488	 7.81780674647795E-02 
1489	 0.312684776317894 
1490	 0.384303857880839 
1491	 0.236808380861983 
1492	 2.06599343652808E-02 
1493	-9.32831549448483E-02 
1494	-3.36071189535901E-02 
1495	-0.1146398938092 
1496	-0.149522686180902 
1497	 3.59198701589624E-02 
1498	 4.04133394133624E-02 
1499	-0.104121354334354 
1500	-0.120321194218946 
1501	-9.63227179566756E-02 
1502	-6.66475546275866E-02 
1503	 5.14272579257764E-02 
1504	 9.68003081971916E-02 
1505	 0.128854204713856 
1506	 0.146301764854819 
1507	 7.11376100068648E-03 
1508	-2.37224498414631E-02 
1509	-1.70418982785234E-02 
1510	-0.056520047815453 
1511	 1.26378922211593E-03 
1512	 3.57453260626562E-02 
1513	 5.35756311109689E-02 
1514	 7.71560744554798E-02 
1515	 0.038123391626238 
1516	 1.43902068851333E-02 
1517	 4.36340793276638E-02 
1518	 2.47703879245271E-02 
1519	-1.37712644792803E-03 
1520	 3.42013662626133E-02 
1521	-8.92795780271826E-03 
1522	-6.64449811703319E-02 
1523	-2.7888601511494E-03 
1524	 9.1794899531077E-03 
1525	-5.00931411784813E-02 
1526	-4.64288705420982E-02 
1527	-2.06761755832851E-02 
1528	-0.027854624415493 
1529	-2.95641424083899E-02 
1530	-2.11461797785474E-03 
1531	 2.16393502240831E-02 
1532	 1.11049064110182E-02 
1533	-4.31551645825897E-03 
1534	 0.012079644291836 
1535	 1.33114291145442E-02 
1536	-1.73013230134485E-02 
1537	-4.68961524687684E-03 
1538	 3.09973031616677E-02 
1539	 2.64014154603803E-02 
1540	 0.016921547896135 
1541	 3.31461348357032E-02 
1542	 3.53775863524005E-02 
1543	 0.031693745395097 
1544	 4.00402939357336E-02 
1545	 2.37702405071376E-02 
1546	 1.70213545806518E-02 
1547	 3.24813748242244E-02 
1548	 2.78457497826346E-02 
1549	 2.88438598204322E-02 
1550	 5.54922908132095E-02 
1551	 7.01992181852918E-02 
1552	 6.13395283089281E-02 
1553	 5.30811066290981E-02 
1554	 4.92746127167495E-02 
1555	 0.035883038263694 
1556	 0.016180643918114 
1557	 2.88047522854125E-02 
1558	 3.77261225414474E-02 
1559	 7.64490722829677E-03 
1560	 1.91524685599487E-02 
1561	 3.89257639411059E-02 
1562	 1.60308263576287E-02 
1563	 6.3064124322443E-03 
1564	 1.06863819271483E-02 
1565	 1.78402815557663E-02 
1566	 2.29360434185492E-02 
1567	 2.36496408332703E-02 
1568	 0.03674010974712 
1569	 3.79905833020901E-02 
1570	 2.55326979021945E-02 
1571	 3.20081721477562E-02 
1572	 3.42149735628321E-02 
1573	 3.63408515498907E-02 
1574	 5.47836327769244E-02 
1575	 5.16781768247715E-02 
1576	 4.24453577296755E-02 
1577	 4.74012154553366E-02 
1578	 0.027277652425654 
1579	 1.56009968692499E-02 
1580	 3.70594644645113E-02 
1581	 0.042334371150257 
1582	 3.69120859530143E-02 
1583	 2.47902017688561E-02 
1584	 1.23438227368814E-02 
1585	 1.13117747441296E-02 
1586	 1.67583664185129E-02 
1587	 3.74437168958875E-02 
1588	 3.88554617625407E-02 
1589	 2.96027078038209E-02 
1590	 0.047732107068985 
1591	 5.63603311927325E-02 
1592	 4.50351747706503E-02 
1593	 4.82915552505032E-02 
1594	 4.84897091164249E-02 
1595	 3.25395360317337E-02 
1596	 3.39236823598876E-02 
1597	 5.02270467789811E-02 
1598	 3.78491629044748E-02 
1599	 1.25620063612174E-02 
1600	 2.52836630931645E-02 
1601	 4.30760606376908E-02 
1602	 2.75018336778788E-02 
1603	 2.71022812851157E-02 
1604	 3.68930795104186E-02 
1605	 1.44885681080589E-02 
1606	-1.00816509200298E-03 
1607	 1.76201573192891E-03 
1608	-3.79907482316923E-04 
1609	 6.97852902710598E-03 
1610	 1.18429415484434E-02 
1611	 2.28886170512216E-03 
1612	 9.22209680542943E-03 
1613	 1.64361157766761E-02 
1614	 0.017787855774811 
1615	 3.35584968051622E-02 
1616	 3.93147020392989E-02 
1617	 2.67784173919431E-02 
1618	 1.88711731521411E-02 
1619	 2.94856544265154E-02 
1620	 3.69218421641384E-02 
1621	 0.041507626016648 
1622	 4.79110587480471E-02 
1623	 3.19236199336533E-02 
1624	 6.93753705858777E-03 
1625	 0.006828849651076 
1626	 1.83006017148939E-02 
1627	 1.85175710269056E-02 
1628	 3.10013492432063E-02 
1629	 4.10174185997896E-02 
1630	 3.73283631991835E-02 
1631	 4.10326253837234E-02 
1632	 2.53323130742314E-02 
1633	 7.57339849508715E-03 
1634	 3.11304046181236E-03 
1635	-4.13877948361598E-03 
1636	 1.17278994805057E-02 
1637	 2.77092362075896E-02 
1638	 1.03034932457211E-02 
1639	 2.84793068857244E-03 
1640	 1.39086427009077E-02 
1641	 6.14344547710115E-03 
1642	 6.79453921488514E-03 
1643	 2.60024637153073E-02 
1644	 2.75422511998496E-02 
1645	 2.53048100760594E-02 
1646	 3.20848024315595E-02 
1647	 3.04607408814373E-02 
1648	 2.18120536489752E-02 
1649	 2.17462068090228E-02 
1650	 3.27904127545914E-02 
1651	 3.29335871281019E-02 
1652	 2.60495480296916E-02 
1653	 2.88489052356193E-02 
1654	 2.99717926162794E-02 
1655	 3.30827772266421E-02 
1656	 3.29618276570464E-02 
1657	 2.92838215744212E-02 
1658	 2.81748391490435E-02 
1659	 2.65260409878263E-02 
1660	 0.031333819786351 
1661	 0.047290113519363 
1662	 4.28144325227785E-02 
1663	 1.90104669647005E-02 
1664	 2.44317897043164E-02 
1665	 4.22320942365859E-02 
1666	 3.72982642470231E-02 
1667	 3.77085202793181E-02 
1668	 0.014381376802662 
1669	 1.01354085473559E-02 
1670	 2.35994870393875E-02 
1671	 2.38905949924285E-02 
1672	 3.71091050132397E-02 
1673	 3.58406266216152E-02 
1674	 6.62125210811378E-03 
1675	 0.010367935740465 
1676	 3.31135335565441E-02 
1677	 1.85627500001824E-02 
1678	-1.25408359539568E-03 
1679	 1.18250410140418E-02 
1680	 2.15180714135192E-02 
1681	 1.76088617143158E-02 
1682	 3.47906144049967E-02 
1683	 3.57190457039566E-02 
1684	 8.52766589890273E-03 
1685	 2.09900583844574E-02 
1686	 4.18357065926267E-02 
1687	 0.037190705842022 
1688	 4.05477528126798E-02 
1689	 3.55408510132795E-02 
1690	 2.53432031401155E-02 
1691	 3.52162875230152E-02 
1692	 4.25334514742824E-02 
1693	 3.29606652406456E-02 
1694	 0.036487907322757 
1695	 5.43415279023859E-02 
1696	 4.16087747497876E-02 
1697	 1.15036457233091E-02 
1698	 6.72217975523469E-03 
1699	 1.35294778721889E-02 
1700	 2.19685685414935E-02 
1701	 4.36187306907961E-02 
1702	 5.37249638212082E-02 
1703	 4.14100840808149E-02 
1704	 3.71439217056322E-02 
1705	 3.72120659854622E-02 
1706	 2.05446472494682E-02 
1707	 1.81390496942997E-02 
1708	 2.05314167238728E-02 
1709	 1.50552140350232E-02 
1710	 3.40122344192778E-02 
1711	 1.48933190036111E-02 
1712	-2.49482541417576E-02 
1713	-8.39568864560525E-03 
1714	-3.80300095339438E-03 
1715	 0.020108514409303 
1716	 2.47543702410964E-02 
1717	 7.18029758840605E-03 
1718	 1.03728560535122E-02 
1719	 1.63111796452799E-02 
1720	-7.0547921842075E-03 
1721	 8.17920191530754E-03 
1722	 3.86650302340919E-02 
1723	 1.62819910937589E-02 
1724	 7.49423088756764E-03 
1725	 1.17124130850139E-02 
1726	-6.64611424014117E-03 
1727	 2.35970854161863E-03 
1728	 3.30929188462433E-02 
1729	 3.78302554384621E-02 
1730	 2.25644540256063E-02 
1731	 1.42718358992658E-02 
1732	 3.55958856029325E-02 
1733	 0.055836971649721 
1734	 4.71717299804309E-02 
1735	 5.71739497636745E-02 
1736	 4.02689907645592E-02 
1737	-6.90989594830819E-03 
1738	 9.09015067230832E-04 
1739	 3.54250932389729E-03 
1740	 2.14576122423638E-03 
1741	 0.041345302435899 
1742	 4.60663748518842E-02 
1743	 2.21364645237527E-02 
1744	 1.97941185082123E-02 
1745	 4.28814609708382E-03 
1746	 1.72750970828596E-02 
1747	 0.022114086528784 
1748	-6.12134195227102E-03 
1749	-3.49024911253232E-03 
1750	 3.74171155201516E-02 
1751	 0.039465233771614 
1752	 4.16111630141078E-02 
1753	 2.39000983609562E-02 
1754	-5.74178291037419E-02 
1755	-6.92209333389268E-02 
1756	-3.48214485509144E-02 
1757	-5.00356268211859E-02 
1758	-1.93747044479792E-02 
1759	-3.33085903343486E-02 
1760	-0.095159301224909 
1761	-6.02932938245144E-02 
1762	-4.15232776493435E-02 
1763	-3.97995720923764E-02 
1764	 1.79712659569694E-02 
1765	 1.62857893876388E-02 
1766	 5.99907269545345E-03 
1767	 3.09149369522488E-02 
1768	 0.032104285734734 
1769	 6.40691315311017E-02 
1770	 6.69654297332261E-02 
1771	-2.12518374504571E-04 
1772	-3.41300795491039E-02 
1773	-0.055766655550329 
1774	-0.01118486346269 
1775	 8.17792951622005E-02 
1776	 0.100674491171833 
1777	 4.90621876202428E-02 
1778	 2.18502039809486E-02 
1779	-1.43551679086203E-03 
1780	-3.39139548481236E-02 
1781	-0.059085748416278 
1782	-7.86538152657123E-02 
1783	-0.13423082061619 
1784	-0.153238105431793 
1785	-0.171673375455724 
1786	-0.12575827275432 
1787	 0.155561461869235 
1788	 8.04325477753729E-02 
1789	-0.174365481310993 
1790	-0.173449679360453 
1791	-0.301721037112474 
1792	-0.348817813935311 
1793	-0.143236007842284 
1794	 6.13247861252192E-02 
1795	 0.139528569778691 
1796	-0.234866704547599 
1797	-1.1060886032493 
1798	-3.35961778944376 
1799	-38.4140905890742 
1800	-2.96730708459165 
1801	-1.21688532135118 
1802	 0.189378495583836 
1803	 0.486759878638931 
1804	 0.73341254371731 
1805	 0.358048223135275 
1806	-11.9893286534623 
1807	-209.206625936147 
1808	-2.01494981727358 
1809	-2.95570162640068 
1810	 1.35591236192823 
1811	 0.935027095986849 
1812	 0.989667317638279 
1813	 0.887057921572433 
1814	 0.101426311569485 
1815	 0.270196733808875 
1816	 0.636907209191606 
1817	-6.57287504540899E-02 
1818	-0.926527301899837 
1819	-0.758130271416149 
1820	 4.13152546576031 
1821	 1.49693944651411 
1822	 1.60573082578127 
1823	-0.841644978779167 
1824	-1.25003191124695 
1825	-0.584197108353503 
1826	-0.553100855510613 
1827	-1.13028259680235 
1828	-1.21811316200998 
1829	-1.67944128205008 
1830	-1.32597213077757 
1831	 5.608757953987 
1832	 10.2767784759474 
1833	-2.24319120158631 
1834	-1.14235485644793 
1835	 1.22227294157965 
1836	 18.9540330514277 
1837	-0.098184795595651 
1838	 0.116352792279949 
1839	 1.04634542649659 
1840	-17.1918476000281 
1841	-0.940848856722888 
1842	-0.970647073761269 
1843	-1.07792942524632 
1844	-4.78275441770705 
1845	-7.42195969334444 
1846	-2.22843899380215 
1847	-2.16719197178484 
1848	-3.36058783741432 
1849	-7.00089290944603 
1850	-1.14642987527257 
1851	 11.13889701716 
1852	-5.24963005727718 
1853	-1.32148807747356 
1854	-1.16751846947219 
1855	-1.08819631064438 
1856	-0.878380980459889 
1857	-0.894825232441892 
1858	-0.91886198235663 
1859	-0.890743775973086 
1860	-0.720875155373466 
1861	-0.929124115229252 
1862	-0.470548939445753 
1863	-4.99151564699776E-02 
1864	-0.284067523577523 
1865	-0.366048758279071 
1866	-0.734712606671372 
1867	-0.925343226431664 
1868	-2.18356507695598 
1869	 2.03823238447065 
1870	-0.267811375455933 
1871	-0.154396824165386 
1872	 8.08017104747697E-02 
1873	 0.794130073935839 
1874	-2.35754678343098 
1875	-1.40693722115158 
1876	-0.994680582267223 
1877	-8.57591336592982E-02 
1878	-0.516430815459143 
1879	-2.1626596863682 
1880	-2.81226935052082 
1881	-4.59048404054836 
1882	-6.2386875873786 
1883	-8.98761537391021 
1884	 3.71095972236329 
1885	 0.864242937895606 
1886	 1.39143158557163 
1887	-1.6955946012184 
1888	-0.121648720439637 
1889	-1.03890879383152E-02 
1890	-0.140409613194559 
1891	-0.183330376664489 
1892	-0.189457768445526 
1893	-0.909538982648298 
1894	-2.49233459886946 
1895	 2.37014584344385 
1896	 0.675456201806399 
1897	 0.388807001171319 
1898	 0.440393673466464 
1899	 0.343338241418655 
1900	 0.320400141858131 
1901	 0.603155840967461 
1902	 0.818529662131368 
1903	 0.754484613030969 
1904	 0.931627211421392 
1905	 1.70389056313422 
1906	-2.72246525347288 
1907	-0.627829399577372 
1908	-0.711328999966195 
1909	-0.40803010774424 
1910	-1.03371822462766 
1911	-2.48561030660166 
1912	 0.354383218411704 
1913	 0.167231594715826 
1914	 0.832747698162374 
1915	 1.10151267446902 
1916	 1.46409912315622 
1917	 2.16995151707543 
1918	 10.7290342067425 
1919	 36.81081849439 
1920	-7.34586035069241 
1921	 6.14364308790699 
1922	 1.51331937246315 
1923	 0.819478023824641 
1924	 0.215680275466341 
1925	 0.120714892581605 
1926	 4.47064064370511E-02 
1927	-0.183094887238045 
1928	 9.25854845619666E-02 
1929	 1.35656534255994 
1930	 4.93810197764786 
1931	 1.27812036939406 
1932	 0.881805394146731 
1933	 1.46043383460923 
1934	 2.56833707384558 
1935	-16.948249601884 
1936	-4.77585683750753 
1937	-2.2692010293157 
1938	-1.19568757649675 
1939	-0.785429071410734 
1940	-0.274645471542287 
1941	 0.121501082134288 
1942	-0.642140708933691 
1943	-1.49228262763751 
1944	-2.0885714541244 
1945	-2.25409558065023 
1946	-2.46898376528829 
1947	-1.03806983764047 
1948	-9.43861891225418E-02 
1949	 5.35892774831452E-02 
1950	-0.316365225053414 
1951	 0.855071315702451 
1952	 0.227799665992008 
1953	-0.167236285910371 
1954	-0.492173800785331 
1955	-0.857122058911863 
1956	-0.894389878176917 
1957	-1.51767994612085E-02 
1958	 0.397326047083795 
1959	-2.00243146003896 
1960	-1.15157033017927 
1961	-0.699379840130019 
1962	-0.84054411163636 
1963	-1.67757038644621 
1964	-2.32178647040564 
1965	 0.281024314448082 
1966	 1.34140800678759 
1967	 12.8564601348604 
1968	-1.16253167545564 
1969	 0.914100311265953 
1970	 5.55030344549488 
1971	-6.07679076554962 
1972	-1.6736535946141 
1973	-0.330016513642233 
1974	-0.683163530360745 
1975	-5.36784684798042 
1976	-3.19207903797298 
1977	-8.92725421485701 
1978	-4.21758372076193 
1979	-3.15837217632837 
1980	-2.55048148751056 
1981	-19.4783899919485 
1982	-2.53269032167098 
1983	-1.28528415233947 
1984	-1.54768859172852 
1985	-1.09404259107908 
1986	-0.880542800271759 
1987	-1.13831184853076 
1988	-1.25023095625669 
1989	-0.76845767048523 
1990	-0.659749646099297 
1991	-0.984176530297055 
1992	-0.849796541051915 
1993	-0.580419041295642 
1994	-0.563977512445805 
1995	-0.865558646841157 
1996	-0.144334644108525 
1997	-62.378939363598 
1998	-1.57569222314119 
1999	-1.45162260001583 
2000	-1.55530908420425 
2001	-1.44919172882094 
2002	-1.79009644150724 
2003	-1.71034406468488 
2004	-2.69690636369769 
2005	-36.6348689021114 
2006	 63.1100373137268 
2007	 5.41543681887137 
2008	 71.5874148399578 
2009	-27.6158273287728 
2010	-3.10204467056806 
2011	-2.17310999469885 
2012	-0.405682914278843 
2013	-1.18083427610719 
2014	-0.625174689324347 
2015	-0.493358742766896 
2016	-0.211165682274089 
2017	-0.184084035469739 
2018	-0.149577694080051 
2019	-0.918833703731254 
2020	-4.62928721242959 
2021	 3.57269759007925 
2022	-9.07374402402574 
2023	-0.444249340666187 
2024	-0.183835930092199 
2025	-0.418765701137633 
2026	-0.436200994644546 
2027	-0.222393813713719 
2028	 0.361043412274711 
2029	 0.320224483221342 
2030	 2.96056056192709E-02 
2031	 3.26040513113805 
2032	-0.315869818200109 
2033	-0.374591252472796 
2034	-1.04816794806778 
2035	-2.06333325132451 
2036	-5.66888806707191 
2037	-4.85317906214503 
2038	-2.20190411670499 
2039	-1.46051059681526 
2040	-1.4681247089009 
2041	-1.22765054675305 
2042	-0.884399271236605 
2043	-0.723683239557853 
2044	-0.643105664031486 
2045	-0.841717067427589 
2046	-0.912636811642858 
2047	-0.738038781712207 
2048	-0.636631714735599 
2049	-1.7898148328857 
2050	-2.50620141762257 
2051	 14.0138575998584 
2052	 3.44858766216021 
2053	 0.452803108650711 
2054	 0.225219852271733 
2055	 0.173531780997112 
2056	-5.60741166695101E-04 
2057	-0.346487866374578 
2058	-0.867648983771133 
2059	-0.778019843575363 
2060	-1.06702771542872 
2061	-1.16649296044871 
2062	-1.88417921329432 
2063	-3.37086726900655 
2064	-1.6358892548127 
2065	-0.742654271252709 
2066	 2.42891720860061E-02 
2067	 0.207173913439061 
2068	-0.523074163782631 
2069	-0.485131295664047 
2070	-0.213619248435265 
2071	-0.204121918596382 
2072	 0.316972434598323 
2073	 0.689923967853871 
2074	 2.64712056631357 
2075	 3.06233991551852 
2076	 2.19248655720624 
2077	 1.54664211952015 
2078	 0.246003494848513 
2079	 0.085477255012951 
2080	 5.45867526774351E-02 
2081	 5.57904578911494E-02 
2082	-1.66433523458391 
2083	-46.1801927419477 
2084	-1.41914981452257 
2085	-0.721529174412313 
2086	-0.427244660201219 
2087	 0.145450716382367 
2088	 0.558356858859472 
2089	-5.85289966958704 
2090	 4.99264490672934E-02 
2091	 2.04688084481547 
2092	 3.09692358600931 
2093	-3.43010284227378 
2094	-1.03528582340468 
2095	-0.278087867278219 
2096	-0.230412821518128 
2097	-0.635260397786843 
2098	-0.944327403092793 
2099	-2.12552537762023 
2100	-5.91427734611313 
2101	-2.73068322474343 
2102	-2.17657841813016 
2103	-1.38083909199887 
2104	-0.799736398391726 
2105	-0.797568896749341 
2106	-0.858889279472617 
2107	-0.663024076188247 
2108	-0.810489994215624 
2109	-1.20065830504047 
2110	-1.03700107562384 
2111	-1.38268311525432 
2112	-2.27222861256861 
2113	-1.61884549757761 
2114	-0.55363441079002 
2115	-0.310501893191186 
2116	 0.121196973455776 
2117	 0.190738240868056 
2118	 0.048032933784757 
2119	 2.24449748704114E-02 
2120	-3.98566211121555E-02 
2121	-0.143677887501715 
2122	-0.102868442778853 
2123	-0.122735068331472 
2124	-0.230856026534599 
2125	-0.29293519340922 
2126	-0.545659492229004 
2127	-0.749288969863741 
2128	-0.618771324299029 
2129	-0.443324077359797 
2130	-0.421313083903022 
2131	-0.413368830112886 
2132	-0.390227278501671 
2133	-0.612069556362074 
2134	-0.612271696852489 
2135	-0.376686099190794 
2136	-0.28403904775213 
2137	-0.167569400195738 
2138	-0.089435163040136 
2139	-3.89047254694238E-02 
2140	-9.07910066886657E-02 
2141	-0.318956676814171 
2142	-0.342674559125519 
2143	-0.303807831158524 
2144	-0.33096633636598 
2145	-0.239340323476979 
2146	-0.213960286755189 
2147	-0.10475614751763 
2148	-9.71915837999679E-02 
2149	-0.124371197206381 
2150	 0.101007285416625 
2151	 7.85580247196492E-02 
2152	 0.138448423304744 
2153	 0.289418279827368 
2154	 0.250039577945737 
2155	 0.157787486947898 
2156	-0.214571352162535 
2157	-0.372463665738962 
2158	-0.446948316847564 
2159	-0.47729974665196 
2160	-0.329684582289881 
2161	-0.260088953282737 
2162	-0.234604041909882 
2163	-0.196557831417489 
2164	-9.49232173664771E-02 
2165	-3.27279417366471E-02 
2166	-3.68717986402286E-02 
2167	-2.95102883213513E-02 
2168	 3.63215537643119E-03 
2169	 1.37498610936559E-02 
2170	-1.39873685329559E-02 
2171	-2.34163189152089E-02 
2172	 0.127360473578997 
2173	 0.252731449949401 
2174	 0.194927641916633 
2175	 0.223524396298973 
2176	 0.182824891486281 
2177	-2.59798213349486E-02 
2178	-5.32273757321407E-02 
2179	 9.27726278129481E-03 
2180	 1.10369327951714E-02 
2181	 7.65613866434187E-02 
2182	 0.146469989122319 
2183	 0.114916133693077 
2184	-7.90687780608946E-02 
2185	-0.197345343040243 
2186	-0.246133386384014 
2187	-0.298030407860227 
2188	-0.29391106936503 
2189	-0.171536981964988 
2190	-0.131084535069466 
2191	-0.150751780016553 
2192	-7.45107136898604E-02 
2193	 0.108750178815488 
2194	 0.104845459936059 
2195	 3.96871596708485E-02 
2196	 1.68814343437206E-03 
2197	-0.208178047817267 
2198	-0.330041346299088 
2199	-0.404206965321445 
2200	-0.405122420847613 
2201	-0.286520508754217 
2202	-0.289206612200563 
2203	-0.186392445546539 
2204	-0.250526413365653 
2205	-0.526431302148238 
2206	-0.562776224876725 
2207	-0.498040964422099 
2208	-0.45365799790603 
2209	-0.401088130964067 
2210	-0.267264555632469 
2211	-0.10817451388752 
2212	 3.68081231180261E-02 
2213	-2.45715383805915E-02 
2214	-0.172561255230571 
2215	-0.30280323296071 
2216	-0.36662030246672 
2217	-0.325524645653295 
2218	-0.112316916793111 
2219	-4.47671911970067E-02 
2220	 6.44081239706636E-03 
2221	 3.68532701810138E-02 
2222	 3.88435962157405E-03 
2223	 1.64343303201787E-02 
2224	 7.37510840700244E-02 
2225	 8.16520719362046E-02 
2226	 5.08341855391274E-02 
2227	 6.49006455712018E-02 
2228	 9.11718860482833E-02 
2229	 0.134115285418097 
2230	 0.250145919727681 
2231	 0.309569969221517 
2232	 0.309643924840972 
2233	 0.304253565458262 
2234	 0.32582202684884 
2235	 0.1966430251349 
2236	 0.13684923859723 
2237	 0.118962919415394 
2238	 7.61618851850646E-02 
2239	 0.201200428892023 
2240	 0.222429329711972 
2241	 0.110173225541437 
2242	-5.88066282507443E-03 
2243	-7.90349648804672E-02 
2244	-6.69736120752196E-02 
2245	-2.67364271110627E-02 
2246	-4.11851437841658E-02 
2247	-0.119775687388266 
2248	-0.206363191727277 
2249	-0.322548653154556 
2250	-0.332774982550028 
2251	-0.183410785642918 
2252	-0.175062693758719 
2253	-2.38040732998655E-02 
2254	 0.21322199674883 
2255	-1.30649536597648E-02 
2256	-0.117750469631222 
2257	 5.73876134450997E-04 
2258	 4.19205843805654E-02 
2259	 6.54484774594577E-02 
2260	 3.93842068210953E-02 
2261	-3.96013708412356E-02 
2262	-3.65092421729687E-02 
2263	-4.08091747284225E-02 
2264	-4.08041217368244E-02 
2265	 0.113914893337256 
2266	 0.158125173562559 
2267	-0.11679952076067 
2268	-0.12617615789612 
2269	-1.22579129278222E-02 
2270	-2.28991267072586E-02 
2271	 0.010446787825497 
2272	 8.01047924519064E-02 
2273	 0.258009294121853 
2274	 0.201191543430168 
2275	 9.39446092680983E-02 
2276	-6.00958193465625E-02 
2277	-0.476962287104196 
2278	-0.580891947523476 
2279	-0.574195240514074 
2280	-0.482846473378982 
2281	-0.194107141532202 
2282	-0.239984036810598 
2283	-0.216220589727832 
2284	-0.334718142115404 
2285	-1.00201071740165 
2286	-1.90435884622896 
2287	 2.47463257318115 
2288	-374.086649176307 
2289	-0.699297694748641 
2290	-0.744505709291665 
2291	-1.2920721443843 
2292	-2.07226351450372 
2293	-6.93814946834605 
2294	-18.4812275713938 
2295	-4.62429869705451 
2296	 0.880932440451212 
2297	 0.737815145286581 
2298	 0.403339689204138 
2299	 0.317492826018285 
2300	 0.420309539822745 
2301	 0.5228470358391 
2302	 0.390508920503438 
2303	-0.120572178794947 
2304	-0.826996408803825 
2305	-0.873009135565781 
2306	-0.486802964533377 
2307	-0.132361905380539 
2308	-0.011661862288306 
2309	 4.90771777304512E-02 
2310	-0.191683892761959 
2311	-0.197438698532683 
2312	-0.149958563568672 
2313	-0.172512978383602 
2314	 4.55258868039655E-02 
2315	-8.98969402884019E-02 
2316	-0.487076433038393 
2317	-1.30887714762034 
2318	-1.94588228487287 
2319	-2.34720874159103 
2320	-2.43954318074397 
2321	-1.03498966286043 
2322	-0.67859382611224 
2323	-0.995477290745481 
2324	-0.766727896286199 
2325	-1.06638626641481 
2326	-1.26463769850621 
2327	-0.652213063775071 
2328	-0.499542719134529 
2329	-0.368054759294427 
2330	-0.330000516877855 
2331	-0.420787241900875 
2332	-0.573171577624512 
2333	-0.91966908975252 
2334	-0.517921511432568 
2335	-0.180733740557877 
2336	-0.479400484830695 
2337	-1.17851497020613 
2338	-1.33374597832799 
2339	-2.11204704520527 
2340	-1.55081011454386 
2341	 0.29360408634865 
2342	 0.134028825973179 
2343	-0.217666072114482 
2344	-0.590199097926528 
2345	-14.9021453280531 
2346	 1.84208659504407 
2347	-0.215476107316449 
2348	-2.23302926186721 
2349	-4.50609481386751 
2350	 3.8179248484201 
2351	 0.60463236232091 
2352	-0.152082387327218 
2353	-0.139841710539071 
2354	-0.158041841071795 
2355	-1.82532722414511E-02 
2356	 0.541166383008769 
2357	-14.6698474661371 
2358	-0.524284708122674 
2359	 0.120190392421756 
2360	 0.159973002228435 
2361	 3.45085551412234 
2362	 0.888104381391265 
2363	 0.371132692828857 
2364	 0.672893056942777 
2365	 1.11794100437957 
2366	 1.44683592522486 
2367	-167.033174682961 
2368	-5.96567549020822 
2369	-2.26805060686909 
2370	-0.559339425775952 
2371	-0.416965900531841 
2372	-0.421405979342716 
2373	-1.24515067866444 
2374	-2.12108032936831 
2375	-3.9172824941281 
2376	-7.50502884233345 
2377	-4.84639304194859 
2378	 2.15056741786388 
2379	 0.938824173052519 
2380	 0.456444633977559 
2381	 0.563050009303863 
2382	 2.20698684951236 
2383	-0.787244026632983 
2384	-0.294403095552326 
2385	-0.637363687412025 
2386	 0.154397622184115 
2387	-1.30995513685793 
2388	-8.19944854905274 
2389	 6.83991321334904 
2390	 6.5801706586875 
2391	 2.54727826343419 
2392	 2.28271544057038 
2393	-3.6116159563762 
2394	-0.211455470990451 
2395	-3.00358910524606 
2396	 3.10100966048225 
2397	 1.16954209543852 
2398	 1.76540819408038 
2399	 1.56781787656112 
2400	-0.261507517964222 
2401	 0.353469564788307 
2402	 0.269142818551197 
2403	 6.65203463125397E-02 
2404	 1.15666462973524 
2405	 0.225504356205515 
2406	-8.80088502151928E-02 
2407	 1.66334313587292 
2408	-1.82627886151362 
2409	 1.10314969176396 
2410	 0.338046742518113 
2411	-4.39673192651132E-02 
2412	 0.452921153077434 
2413	 0.105170775934738 
2414	 0.40289801828166 
2415	 0.937715334270226 
2416	 0.901643170870855 
2417	 1.9928706816635 
2418	 4.02307862832578 
2419	 0.328879006433976 
2420	-0.323016527221213 
2421	-2.21847214216124 
2422	-1.0916800241464 
2423	-1.93726535510729 
2424	-2.9440934390237 
2425	-1.95311294011803 
2426	-3.37586458535944 
2427	 6.0685779602374 
2428	 1.94068868728741 
2429	 0.589848515373105 
2430	 4.26927849006465E-02 
2431	-6.38035054561801E-02 
2432	-8.26798341830992E-02 
2433	 0.454484074839339 
2434	 1.01411556097176 
2435	 0.908019990787286 
2436	-202.468207302529 
2437	-3.34278163782881 
2438	-1.36638170217403 
2439	-0.895371114038 
2440	-0.713023616268722 
2441	-1.03256530952055 
2442	 7.94913778570328 
2443	 1.90400540419851 
2444	-8.90301746330075 
2445	-3.70721723846644 
2446	-1.93245334523601 
2447	-1.31834521396136 
2448	-1.38457544404651 
2449	-0.71813747140487 
2450	 0.448070641224456 
2451	 0.562251311696806 
2452	 0.140102175635049 
2453	 0.324845691951626 
2454	-2.34736265304773E-03 
2455	-0.525023423629957 
2456	-0.181065265335665 
2457	 0.338714620022106 
2458	 0.563646079694284 
2459	 0.119941563525803 
2460	 0.372037717457176 
2461	 5.03927127855576 
2462	 57.3525460348536 
2463	 17.5349833434752 
2464	 14.355786764519 
2465	-275.782577758576 
2466	-19.4451667364358 
2467	-17.0620153758043 
2468	-3.99829883109589 
2469	-1.11736894434314 
2470	-0.820717605770886 
2471	-1.45777828745665 
2472	-4.22580574071916 
2473	 3.54583955082732 
2474	 2.49901374588031 
2475	 2.12126822045419 
2476	 1.28895914635469 
2477	 0.713258265178171 
2478	 0.175469873333125 
2479	 0.166981811452442 
2480	 0.671812239745533 
2481	 1.69083305440347 
2482	 1.44152327940713 
2483	 1.38840688224886 
2484	 1.38230148535705 
2485	 0.937748701458633 
2486	 0.949882378270494 
2487	 1.31980912070669 
2488	 1.50913101428099 
2489	-6.22911029667474 
2490	-1.55259387963423 
2491	-0.806941209622136 
2492	-0.738074759433758 
2493	-0.676241247125991 
2494	 0.505045859572395 
2495	 5.65545401990029 
2496	 0.344892448169346 
2497	 0.637162467183673 
2498	-0.962852120824977 
2499	-0.730824540750759 
2500	 2.61397446986082 
