Wavelength	rt0712EAST_CLOSE200009.asd
350	 4.88105067287159E-02 
351	 0.049791001969584 
352	 4.96153471520603E-02 
353	 4.97544776066903E-02 
354	 5.08564790300393E-02 
355	 5.06612360989918E-02 
356	 5.02094184310414E-02 
357	 5.01285025410993E-02 
358	 5.05868235106764E-02 
359	 5.03228166692086E-02 
360	 5.04198912139033E-02 
361	 5.07787108817022E-02 
362	 5.05521601388177E-02 
363	 5.05270867996955E-02 
364	 5.08503090515082E-02 
365	 5.11786177804664E-02 
366	 5.05569753117192E-02 
367	 5.04248249562874E-02 
368	 5.08007301916762E-02 
369	 5.12548365316038E-02 
370	 5.13010773653276E-02 
371	 5.13327262929615E-02 
372	 5.13141019666441E-02 
373	 5.10633408191269E-02 
374	 5.15054402099534E-02 
375	 5.17556191905445E-02 
376	 5.15675060119681E-02 
377	 5.18161016420171E-02 
378	 5.21396915587864E-02 
379	 0.052150531438066 
380	 5.18378637094387E-02 
381	 5.23274453753378E-02 
382	 5.31976227633587E-02 
383	 5.38217283167942E-02 
384	 5.35470203180953E-02 
385	 0.052088954202837 
386	 5.21354782981843E-02 
387	 5.37514550702699E-02 
388	 5.39603047915824E-02 
389	 5.48243900431239E-02 
390	 5.51620962055783E-02 
391	 5.42815849555223E-02 
392	 5.39756949153835E-02 
393	 5.45819636405973E-02 
394	 5.52342967773585E-02 
395	 5.49578084411724E-02 
396	 5.48309637157235E-02 
397	 5.50555782396669E-02 
398	 5.54360153413187E-02 
399	 5.55208426299092E-02 
400	 5.53622493870718E-02 
401	 5.54065144327758E-02 
402	 5.57191586842314E-02 
403	 5.53357841838816E-02 
404	 5.54862887800915E-02 
405	 5.58656385276619E-02 
406	 5.57696127360106E-02 
407	 5.57899188242253E-02 
408	 5.59274106234638E-02 
409	 5.62204176076857E-02 
410	 5.67513330672093E-02 
411	 5.69006147803308E-02 
412	 5.68341757620654E-02 
413	 5.67750433341779E-02 
414	 5.66629244976087E-02 
415	 5.67759398328093E-02 
416	 5.70892910347556E-02 
417	 5.74220715443728E-02 
418	 5.75997273308847E-02 
419	 5.74319290380776E-02 
420	 5.72391356068373E-02 
421	 5.78274625195535E-02 
422	 5.78953415998014E-02 
423	 0.058013933964095 
424	 5.85604211726738E-02 
425	 5.81812742275902E-02 
426	 5.81891926064873E-02 
427	 5.85914428895698E-02 
428	 5.88056457855205E-02 
429	 5.91205105964557E-02 
430	 5.92121274115848E-02 
431	 5.92042935450224E-02 
432	 5.97811232582189E-02 
433	 5.99972412781698E-02 
434	 6.01421346064178E-02 
435	 6.05414937766723E-02 
436	 6.07883089708526E-02 
437	 6.08775512587808E-02 
438	 0.06102731445836 
439	 6.14958266345312E-02 
440	 0.061705543599608 
441	 6.19781541199139E-02 
442	 6.23804977841571E-02 
443	 6.24491484979955E-02 
444	 6.27924111580799E-02 
445	 6.32022023417717E-02 
446	 6.33970003876455E-02 
447	 6.37342879308392E-02 
448	 0.064120524985588 
449	 6.44327665075454E-02 
450	 6.45586230213358E-02 
451	 6.47093780080931E-02 
452	 6.49618651156234E-02 
453	 0.065206445971321 
454	 6.49479439994847E-02 
455	 6.51837785619837E-02 
456	 6.56510566426652E-02 
457	 6.57598333593264E-02 
458	 6.59160717516315E-02 
459	 6.61344610021244E-02 
460	 6.62358832594025E-02 
461	 6.59152864693822E-02 
462	 0.066272452750999 
463	 6.67545998243425E-02 
464	 0.066824095003024 
465	 6.69335153957951E-02 
466	 6.71427826313245E-02 
467	 6.74341865197585E-02 
468	 6.77171791246229E-02 
469	 6.78262489044686E-02 
470	 6.79689883526961E-02 
471	 6.82130138472603E-02 
472	 6.83913110996473E-02 
473	 6.84636023898293E-02 
474	 6.87442193495971E-02 
475	 6.93673912669409E-02 
476	 6.94906455816714E-02 
477	 6.96943114604916E-02 
478	 7.00758017712694E-02 
479	 7.04032827770199E-02 
480	 7.08343689887425E-02 
481	 7.12357557368459E-02 
482	 7.15160613336517E-02 
483	 7.17269863314929E-02 
484	 7.19601648485796E-02 
485	 7.23845223972711E-02 
486	 7.30352858475215E-02 
487	 7.31633634568962E-02 
488	 7.34405608457622E-02 
489	 7.39690813016982E-02 
490	 7.42519270669821E-02 
491	 7.46760423986233E-02 
492	 7.52083915815504E-02 
493	 0.075739215315272 
494	 7.61632659908823E-02 
495	 7.67688874581325E-02 
496	 7.74126729866815E-02 
497	 7.77848689672724E-02 
498	 7.82277038600024E-02 
499	 0.07864424771752 
500	 7.90593542815248E-02 
501	 0.079762214813822 
502	 0.080249473610349 
503	 8.07735859587894E-02 
504	 8.16017628210188E-02 
505	 8.20968445091016E-02 
506	 8.26842153833381E-02 
507	 8.33643394320197E-02 
508	 0.083824155664788 
509	 8.46178347977117E-02 
510	 8.53800658343979E-02 
511	 8.58669963595337E-02 
512	 8.64412368152268E-02 
513	 8.71409693861053E-02 
514	 8.78316076413486E-02 
515	 8.83545168523105E-02 
516	 8.91056249246214E-02 
517	 0.089974630180669 
518	 9.07714245204915E-02 
519	 9.12881810703342E-02 
520	 9.19307628321898E-02 
521	 9.26798158688772E-02 
522	 9.34383339252297E-02 
523	 9.41989607030371E-02 
524	 9.50425625263986E-02 
525	 9.59103717193867E-02 
526	 9.66680249148358E-02 
527	 9.75059914658694E-02 
528	 9.83532416720107E-02 
529	 9.91510245718159E-02 
530	 9.99379230698822E-02 
531	 0.100787160481051 
532	 0.10162454673599 
533	 0.102388505596024 
534	 0.103472363790976 
535	 0.104573179798728 
536	 0.105514235051738 
537	 0.106310410921754 
538	 0.10716516830729 
539	 0.108165745089769 
540	 0.109283590828501 
541	 0.110263144121371 
542	 0.111158303636468 
543	 0.112081344973838 
544	 0.113160067879053 
545	 0.114240710001436 
546	 0.115210130828667 
547	 0.116104472201042 
548	 0.117245464525003 
549	 0.118223830472681 
550	 0.119156624598792 
551	 0.12026870063284 
552	 0.121260869428472 
553	 0.122196351612866 
554	 0.123167202222066 
555	 0.124261072451572 
556	 0.125151528412388 
557	 0.126030741627801 
558	 0.127058592504923 
559	 0.127879346010469 
560	 0.128733018235703 
561	 0.129567598116965 
562	 0.130190952861777 
563	 0.130929064612364 
564	 0.131670327484089 
565	 0.132263236140283 
566	 0.132557081908607 
567	 0.133130178066591 
568	 0.133765802848767 
569	 0.134072833654609 
570	 0.134636123474884 
571	 0.135156267165102 
572	 0.135467512725627 
573	 0.135609381681931 
574	 0.136015000186171 
575	 0.136354920630228 
576	 0.136388563880145 
577	 0.136778480908769 
578	 0.137119231128451 
579	 0.137278114130518 
580	 0.137316315961318 
581	 0.137421140103038 
582	 0.137457919506465 
583	 0.137345996188427 
584	 0.137183722985748 
585	 0.136805202094798 
586	 0.136315229647082 
587	 0.135869736865954 
588	 0.135217371513509 
589	 0.134771614449233 
590	 0.134659989990874 
591	 0.134576410746744 
592	 0.134320648664934 
593	 0.133845286939922 
594	 0.133231803816306 
595	 0.132785408360107 
596	 0.132240939716018 
597	 0.131581445624687 
598	 0.130925452963363 
599	 0.130226995341108 
600	 0.129567915849524 
601	 0.129065643107722 
602	 0.128901974429104 
603	 0.128538886816143 
604	 0.128186686734856 
605	 0.128188350691873 
606	 0.128213758540547 
607	 0.128232746980969 
608	 0.128239174304365 
609	 0.128235102375879 
610	 0.128059796115295 
611	 0.127839856278517 
612	 0.127701876365019 
613	 0.127578923203857 
614	 0.12750770295464 
615	 0.127453326755227 
616	 0.127358232222113 
617	 0.127367077419922 
618	 0.127198469891255 
619	 0.126893017004061 
620	 0.12710881344431 
621	 0.126858009752218 
622	 0.126499309862156 
623	 0.126625994272165 
624	 0.12667320388768 
625	 0.126588889468515 
626	 0.126317150058132 
627	 0.125820471720563 
628	 0.125722960677352 
629	 0.125794094372197 
630	 0.125752550687245 
631	 0.125672522523634 
632	 0.125634553842702 
633	 0.125741122817142 
634	 0.126015565628096 
635	 0.125885528856052 
636	 0.125617721938785 
637	 0.125550958523327 
638	 0.126026628776577 
639	 0.125748133829818 
640	 0.125354846644559 
641	 0.125657220450477 
642	 0.125640928218654 
643	 0.125556413537256 
644	 0.125399136798168 
645	 0.124948619814196 
646	 0.12444791645661 
647	 0.124315276401847 
648	 0.124596813593841 
649	 0.124477908233514 
650	 0.124028466005253 
651	 0.123575087708408 
652	 0.123435264021994 
653	 0.122837969616793 
654	 0.122053697477511 
655	 0.121194617005967 
656	 0.120188652257142 
657	 0.119384207686947 
658	 0.118616159561883 
659	 0.117671660816356 
660	 0.116548035138223 
661	 0.115542602763276 
662	 0.114686467433653 
663	 0.113863545144886 
664	 0.113076096130862 
665	 0.112261465870772 
666	 0.111437852762718 
667	 0.110779477529007 
668	 0.110504663495445 
669	 0.110349988781394 
670	 0.110015470312877 
671	 0.109917916481442 
672	 0.109857418777851 
673	 0.10990421653579 
674	 0.110370570332987 
675	 0.110696534978741 
676	 0.111175041598292 
677	 0.111947413736547 
678	 0.112316125424935 
679	 0.112937699309828 
680	 0.113665953331171 
681	 0.114134176873897 
682	 0.115197148116631 
683	 0.116316816562833 
684	 0.117164637415589 
685	 0.117927049634765 
686	 0.118935333257973 
687	 0.1198477655991 
688	 0.120307135411492 
689	 0.12098118075669 
690	 0.121273618444091 
691	 0.121301213133069 
692	 0.121562453812622 
693	 0.121481355442877 
694	 0.121387872852366 
695	 0.121343837691071 
696	 0.120776523009762 
697	 0.120011909109052 
698	 0.119188566628317 
699	 0.118481808139228 
700	 0.117811670711049 
701	 0.117064992835905 
702	 0.116211598239559 
703	 0.115236170675171 
704	 0.114234277239168 
705	 0.112990203720261 
706	 0.111532891056461 
707	 0.110402933295745 
708	 0.108701553342483 
709	 0.106857946828622 
710	 0.10554832430531 
711	 0.103742973744623 
712	 0.101819172439787 
713	 9.98986989219675E-02 
714	 9.77109447883285E-02 
715	 9.57835365419896E-02 
716	 0.093668045058286 
717	 9.10810821844156E-02 
718	 8.87160219932601E-02 
719	 8.61766273791749E-02 
720	 8.40500494940108E-02 
721	 8.22495643455683E-02 
722	 8.03330352012971E-02 
723	 7.84533321249847E-02 
724	 7.66461593602037E-02 
725	 7.36542574941982E-02 
726	 7.13134956157057E-02 
727	 6.92360001748259E-02 
728	 6.67821962150194E-02 
729	 6.39882998500758E-02 
730	 6.17014061736736E-02 
731	 5.97258104791068E-02 
732	 5.73976989728424E-02 
733	 5.57497613022317E-02 
734	 5.44155037354505E-02 
735	 5.32243342200372E-02 
736	 5.22621665596278E-02 
737	 5.15088717440225E-02 
738	 5.08396439127219E-02 
739	 5.02436221410837E-02 
740	 5.00327778563197E-02 
741	 5.01096970358075E-02 
742	 5.01652545990227E-02 
743	 4.98857843113112E-02 
744	 4.97578692034103E-02 
745	 4.96981065165313E-02 
746	 0.049623581131827 
747	 4.95258389702852E-02 
748	 4.95396142061403E-02 
749	 4.94749365741696E-02 
750	 4.92317885177911E-02 
751	 0.049284552648111 
752	 4.92441417520237E-02 
753	 4.91434803238772E-02 
754	 4.92170468623207E-02 
755	 0.049322952682477 
756	 0.049073863117002 
757	 4.85579950880738E-02 
758	 4.86481038094295E-02 
759	 4.85151792350537E-02 
760	 4.84078240101527E-02 
761	 4.90046007914337E-02 
762	 4.90564397639331E-02 
763	 4.91366915718091E-02 
764	 4.90528781981264E-02 
765	 0.048719467821523 
766	 4.92386227763775E-02 
767	 0.049581312210127 
768	 4.96138114235468E-02 
769	 4.99071158575064E-02 
770	 5.00834779003215E-02 
771	 5.00751577788285E-02 
772	 5.00115235202259E-02 
773	 5.04005605250095E-02 
774	 5.07114570037178E-02 
775	 5.08245199460723E-02 
776	 5.08757741377494E-02 
777	 5.13050881529793E-02 
778	 5.16525913868878E-02 
779	 5.17838252957763E-02 
780	 5.19671011313906E-02 
781	 5.23176806082202E-02 
782	 5.26824951473448E-02 
783	 5.29666514189735E-02 
784	 5.33478517321266E-02 
785	 5.36005451619938E-02 
786	 5.38249868855284E-02 
787	 0.054170860928291 
788	 5.42836820025515E-02 
789	 0.054771350946114 
790	 5.54799027247446E-02 
791	 5.57074847348414E-02 
792	 5.62184531637185E-02 
793	 5.66544486683214E-02 
794	 5.68529755944491E-02 
795	 5.71524625602762E-02 
796	 5.77696740432313E-02 
797	 5.83086948091274E-02 
798	 0.058436996429857 
799	 5.84856216344762E-02 
800	 5.88954805440442E-02 
801	 5.95603007954254E-02 
802	 5.99967963497749E-02 
803	 5.97780780990512E-02 
804	 6.00366918923747E-02 
805	 0.060634402060686 
806	 6.00965605675573E-02 
807	 6.01386128223724E-02 
808	 6.02472061985897E-02 
809	 5.99800915558795E-02 
810	 6.05034924197196E-02 
811	 5.98079943734654E-02 
812	 5.87314063704299E-02 
813	 5.91376935482993E-02 
814	 0.058660371534693 
815	 5.79413560297157E-02 
816	 5.75125288458405E-02 
817	 5.73645496587181E-02 
818	 5.62469923850971E-02 
819	 5.56291987880579E-02 
820	 5.55495353967443E-02 
821	 5.42939405538524E-02 
822	 5.31920831097273E-02 
823	 5.22009298304911E-02 
824	 0.051046398933525 
825	 4.96189805534554E-02 
826	 4.84418895825822E-02 
827	 4.72555042895254E-02 
828	 4.57554108879748E-02 
829	 4.47504919349935E-02 
830	 4.33677894230981E-02 
831	 4.17414743323548E-02 
832	 4.08246028520838E-02 
833	 0.041109187242046 
834	 4.09183275403373E-02 
835	 3.98806847918536E-02 
836	 0.039426387757284 
837	 3.92819586073779E-02 
838	 3.92588286553454E-02 
839	 3.91965510130235E-02 
840	 3.90549355463721E-02 
841	 3.85329021196783E-02 
842	 3.80029827574937E-02 
843	 3.80142837943011E-02 
844	 3.88147502283806E-02 
845	 3.85716723368049E-02 
846	 3.74688291943156E-02 
847	 3.70696067185028E-02 
848	 3.77586191304043E-02 
849	 3.79001572172516E-02 
850	 3.70216287208774E-02 
851	 3.64673298238695E-02 
852	 3.68937652073207E-02 
853	 3.71619630518285E-02 
854	 0.036706916893775 
855	 3.70537071646002E-02 
856	 3.66982943577665E-02 
857	 3.60624927527017E-02 
858	 3.59027083289961E-02 
859	 3.62829760205254E-02 
860	 3.60721004527585E-02 
861	 3.55978089341982E-02 
862	 3.58008231943288E-02 
863	 3.63817516615287E-02 
864	 3.61493044216543E-02 
865	 3.53392412079132E-02 
866	 3.54071756819456E-02 
867	 3.54295024655752E-02 
868	 3.50868842717902E-02 
869	 3.45911727084045E-02 
870	 3.46801249776826E-02 
871	 3.43293452151999E-02 
872	 3.39127472834831E-02 
873	 3.38270177454975E-02 
874	 3.38148780203631E-02 
875	 3.39580925451699E-02 
876	 3.40593047482497E-02 
877	 0.03397108538955 
878	 3.41121923641098E-02 
879	 3.32990489022726E-02 
880	 0.032484847697051 
881	 3.31567068435615E-02 
882	 3.36166870161365E-02 
883	 0.033070221740069 
884	 3.22277924287965E-02 
885	 3.25867036524639E-02 
886	 3.21397801767208E-02 
887	 3.22198103991894E-02 
888	 3.28758461551427E-02 
889	 3.24207319407924E-02 
890	 3.24251180302349E-02 
891	 3.27341977995543E-02 
892	 3.28516410962252E-02 
893	 3.22174145514878E-02 
894	 3.12195152976714E-02 
895	 0.030918960603149 
896	 3.17300275608882E-02 
897	 3.08471797771636E-02 
898	 0.030016169839613 
899	 3.10580556890141E-02 
900	 3.36634294208149E-02 
901	 0.031864148053284 
902	 0.03109961027468 
903	 3.12525493401806E-02 
904	 3.06150847899815E-02 
905	 3.07481010716189E-02 
906	 3.04309997344259E-02 
907	 2.98254289551303E-02 
908	 0.030196341295583 
909	 3.12793387043649E-02 
910	 3.17801350488037E-02 
911	 3.08052969855773E-02 
912	 2.85689675878228E-02 
913	 3.03159370068254E-02 
914	 0.030995586114631 
915	 2.88320375894894E-02 
916	 2.76353279353425E-02 
917	 0.029765354197407 
918	 0.030353536893477 
919	 2.91822005664829E-02 
920	 3.22286099135791E-02 
921	 3.07436734864596E-02 
922	 2.83659005728906E-02 
923	 2.83053826042835E-02 
924	 0.027717599068374 
925	 2.91379513778082E-02 
926	 3.06362133162416E-02 
927	 2.92567216822631E-02 
928	 2.50601955099526E-02 
929	 2.40823105395239E-02 
930	 2.18009109041918E-02 
931	 8.84401703163661E-03 
932	 0.016400394049267 
933	 3.06438457177865E-02 
934	 2.88984708611247E-02 
935	 9.3247149786231E-03 
936	 3.09829670364257E-02 
937	 3.99460100296152E-02 
938	 3.33195638908647E-02 
939	 2.66083330936838E-02 
940	 4.35815490600719E-02 
941	 4.67857849774207E-02 
942	 3.25655900043603E-02 
943	 1.72511039072463E-02 
944	 3.30072420601284E-02 
945	 2.13636685355543E-02 
946	-4.95038133428202E-04 
947	 0.01953016712638 
948	 2.99517313765689E-02 
949	 0.022879449564394 
950	 1.65187082358588E-02 
951	 3.29055690913495E-02 
952	 0.037250673356026 
953	 2.02469107642929E-02 
954	 6.65223038137702E-03 
955	 2.85893540715053E-02 
956	 3.05469932720598E-02 
957	 2.74694037892014E-02 
958	 2.83977206356959E-02 
959	 3.26901618606235E-02 
960	 2.88115790818016E-02 
961	 2.52878558261272E-02 
962	 2.62496701826751E-02 
963	 3.06480621610476E-02 
964	 3.37995895760602E-02 
965	 3.04549666923824E-02 
966	 0.025628755408904 
967	 2.77981782945774E-02 
968	 2.53129471462645E-02 
969	 2.65659160073276E-02 
970	 3.05208247529812E-02 
971	 0.028776243017576 
972	 2.88968392059449E-02 
973	 2.76951124414761E-02 
974	 2.66496710675523E-02 
975	 3.03795779832499E-02 
976	 2.27337430685414E-02 
977	 2.02240510887976E-02 
978	 2.54889277129248E-02 
979	 2.70589570797677E-02 
980	 2.76102874620381E-02 
981	 2.62792570519492E-02 
982	 2.57670706687404E-02 
983	 2.99932898708876E-02 
984	 3.33151043634684E-02 
985	 2.94913160736551E-02 
986	 2.39436827637728E-02 
987	 2.76077641435253E-02 
988	 2.82524178521376E-02 
989	 2.46000911786308E-02 
990	 2.22596567866294E-02 
991	 2.81944622086035E-02 
992	 2.96902316522346E-02 
993	 3.00657475401486E-02 
994	 2.87291053885827E-02 
995	 2.37924429241748E-02 
996	 2.64105581401405E-02 
997	 2.73510916786647E-02 
998	 2.57047109078209E-02 
999	 2.59444637020249E-02 
1000	 2.62302502943577E-02 
1001	 2.83534906554263E-02 
1002	 2.93269998827207E-02 
1003	 2.93750978842514E-02 
1004	 2.93204420787568E-02 
1005	 2.96041540664013E-02 
1006	 3.02082762747586E-02 
1007	 2.95190193313253E-02 
1008	 2.94937645800877E-02 
1009	 2.99454585035068E-02 
1010	 2.98706562937297E-02 
1011	 0.030820594173797 
1012	 3.08997428132689E-02 
1013	 3.08902226459059E-02 
1014	 3.06990157523497E-02 
1015	 2.93828524793096E-02 
1016	 2.89920874670325E-02 
1017	 2.93664475529717E-02 
1018	 2.89625142534613E-02 
1019	 2.76108494381061E-02 
1020	 2.77786387985024E-02 
1021	 2.83821854687258E-02 
1022	 2.97219324711041E-02 
1023	 0.030328506533306 
1024	 3.08138077037007E-02 
1025	 3.03020508175199E-02 
1026	 2.83429799777162E-02 
1027	 2.74774441622049E-02 
1028	 0.026878155256953 
1029	 2.66915052395807E-02 
1030	 2.67534302836765E-02 
1031	 2.67985647266879E-02 
1032	 2.75253529370917E-02 
1033	 0.027810742025878 
1034	 2.74952989634901E-02 
1035	 2.77221359127048E-02 
1036	 2.87366884227424E-02 
1037	 2.86854563667667E-02 
1038	 2.76578418651653E-02 
1039	 0.027648642839288 
1040	 0.027375088174755 
1041	 2.77131737864583E-02 
1042	 2.84975142688248E-02 
1043	 0.030913468050595 
1044	 0.03135742144536 
1045	 3.12665750728354E-02 
1046	 3.09158928355048E-02 
1047	 2.96281008943561E-02 
1048	 2.87735567906302E-02 
1049	 2.73349271957302E-02 
1050	 2.69759994854451E-02 
1051	 2.69803512912952E-02 
1052	 2.72759472390051E-02 
1053	 0.029076777764042 
1054	 2.97306234611229E-02 
1055	 2.96487133039645E-02 
1056	 2.99419512374764E-02 
1057	 3.01687964771506E-02 
1058	 3.01894994819836E-02 
1059	 2.98547493924805E-02 
1060	 2.94179691344143E-02 
1061	 2.92544894079697E-02 
1062	 2.84002790619997E-02 
1063	 2.84170889317381E-02 
1064	 2.95263707584102E-02 
1065	 2.99089559324021E-02 
1066	 3.03064050261332E-02 
1067	 3.04014765868986E-02 
1068	 3.01530647044458E-02 
1069	 2.99560301273994E-02 
1070	 2.91518288505363E-02 
1071	 2.90326262949028E-02 
1072	 2.91573986566709E-02 
1073	 2.97100551305898E-02 
1074	 2.99966434313687E-02 
1075	 3.07732869097356E-02 
1076	 3.08737140721862E-02 
1077	 3.04547057437644E-02 
1078	 0.030219531651155 
1079	 3.01132643951348E-02 
1080	 2.96869455234251E-02 
1081	 2.85245166212589E-02 
1082	 2.82836213344351E-02 
1083	 2.82355254562995E-02 
1084	 2.82177734406533E-02 
1085	 2.95790845419106E-02 
1086	 0.029841044577405 
1087	 2.86350188172883E-02 
1088	 2.84300795625457E-02 
1089	 2.88898601980744E-02 
1090	 2.85701911258087E-02 
1091	 2.77880676580483E-02 
1092	 2.71812343839466E-02 
1093	 2.68243357404362E-02 
1094	 0.024770857456151 
1095	 2.50945132077473E-02 
1096	 2.80855860227482E-02 
1097	 2.92291486501724E-02 
1098	 3.08937199715627E-02 
1099	 3.14560937021557E-02 
1100	 3.03940274025987E-02 
1101	 3.02072319441489E-02 
1102	 3.04923807993451E-02 
1103	 2.95683360211364E-02 
1104	 2.74922055238867E-02 
1105	 2.52563653055214E-02 
1106	 2.65939797848568E-02 
1107	 2.63706519086579E-02 
1108	 2.78431667337723E-02 
1109	 3.06693581428605E-02 
1110	 2.97308046011992E-02 
1111	 2.18613624566899E-02 
1112	 2.02593998926704E-02 
1113	 2.01006145917491E-02 
1114	 2.05674930601211E-02 
1115	 0.027327916949751 
1116	 2.91628086689809E-02 
1117	 2.77891476657013E-02 
1118	 2.75870208383214E-02 
1119	 2.68080195801686E-02 
1120	 2.48851443945007E-02 
1121	 2.16990212457711E-02 
1122	 4.50338385198064E-03 
1123	 2.45871851827439E-02 
1124	 2.95234606894057E-02 
1125	 1.14859881499977E-02 
1126	 3.78899873090696E-02 
1127	-1.04699991510765E-02 
1128	-7.48477838985432E-02 
1129	-6.49916854071557E-02 
1130	-3.09992007126423E-03 
1131	-9.33902698609938E-03 
1132	-1.40144099758031E-02 
1133	 1.25808270424058E-03 
1134	-5.77717761038225E-03 
1135	 7.41891340945622E-04 
1136	 4.42929650567523E-02 
1137	 4.80169014052351E-02 
1138	 2.59693571734569E-02 
1139	 1.83280020582083E-02 
1140	 6.38633279751895E-04 
1141	-1.00575939118325E-02 
1142	 9.40506907432931E-04 
1143	 0.021155327361369 
1144	 0.021702484320092 
1145	 1.27875865441478E-02 
1146	 2.99128590555488E-02 
1147	 3.55105555283299E-02 
1148	 0.029757162541372 
1149	 4.72883789724251E-02 
1150	 5.18270910837382E-02 
1151	 3.42117203814771E-02 
1152	 2.55381035246663E-02 
1153	 2.86505964471613E-02 
1154	 0.030678789380103 
1155	 2.87088006089639E-02 
1156	 2.57174238532523E-02 
1157	 3.51258869556265E-02 
1158	 3.59135065784588E-02 
1159	 2.97423084998437E-02 
1160	 2.96832169246564E-02 
1161	 2.76566246351769E-02 
1162	 2.52332473273386E-02 
1163	 2.80858860512838E-02 
1164	 3.02101971402352E-02 
1165	 2.96161354695102E-02 
1166	 2.71608879984404E-02 
1167	 2.57273809070264E-02 
1168	 2.70356504379776E-02 
1169	 2.71924997853374E-02 
1170	 2.84401626211861E-02 
1171	 2.99003707273222E-02 
1172	 3.08466310366075E-02 
1173	 3.05751281777738E-02 
1174	 3.08360820378645E-02 
1175	 3.05473722316521E-02 
1176	 2.85802222740242E-02 
1177	 2.84668874831366E-02 
1178	 2.93411320636683E-02 
1179	 2.97433480893154E-02 
1180	 3.13996627310949E-02 
1181	 3.14544809071546E-02 
1182	 2.86073017212234E-02 
1183	 2.80333253564688E-02 
1184	 2.87064093475743E-02 
1185	 2.73843838365904E-02 
1186	 2.69047590591135E-02 
1187	 0.027617548531724 
1188	 2.68140715724646E-02 
1189	 2.58560889941616E-02 
1190	 2.73784766212487E-02 
1191	 2.86956353713347E-02 
1192	 0.029300909866994 
1193	 2.93295697707464E-02 
1194	 3.05891543440169E-02 
1195	 3.04889766323119E-02 
1196	 3.02105862274729E-02 
1197	 0.03143675197389 
1198	 3.14566255804931E-02 
1199	 2.98786564973228E-02 
1200	 2.86035970716466E-02 
1201	 2.91131328125061E-02 
1202	 3.01420340304815E-02 
1203	 0.030581569805385 
1204	 3.09969642959068E-02 
1205	 3.11809643302927E-02 
1206	 2.98492761693722E-02 
1207	 2.90621569605465E-02 
1208	 2.95132346713087E-02 
1209	 2.80415446313393E-02 
1210	 2.75584928945296E-02 
1211	 2.86668649995944E-02 
1212	 2.83424396209713E-02 
1213	 2.85132458742396E-02 
1214	 0.028600628303831 
1215	 2.80761645240509E-02 
1216	 2.65156420318715E-02 
1217	 2.71743024249747E-02 
1218	 0.02849784541286 
1219	 0.028011109417016 
1220	 2.75031477567333E-02 
1221	 2.78562752555972E-02 
1222	 2.82175311159092E-02 
1223	 2.89375983383475E-02 
1224	 3.02811423140434E-02 
1225	 3.04639496378232E-02 
1226	 2.91620258257207E-02 
1227	 2.90370338179623E-02 
1228	 3.00999175045675E-02 
1229	 3.03830400887239E-02 
1230	 0.0299539899731 
1231	 2.93835082666585E-02 
1232	 2.84894124624975E-02 
1233	 2.80550436265566E-02 
1234	 2.88760558281956E-02 
1235	 2.87209351985275E-02 
1236	 2.72533210338308E-02 
1237	 2.70409414601946E-02 
1238	 2.72242890273748E-02 
1239	 2.74022965864327E-02 
1240	 2.73452395264953E-02 
1241	 2.84286391276461E-02 
1242	 2.82591741867396E-02 
1243	 2.68974998406712E-02 
1244	 2.69651726832439E-02 
1245	 2.73929882992782E-02 
1246	 2.79502359371973E-02 
1247	 2.89154548240274E-02 
1248	 2.95131387071164E-02 
1249	 2.95162287820369E-02 
1250	 2.92492359882133E-02 
1251	 2.93901683972431E-02 
1252	 2.89723762678893E-02 
1253	 2.78259586673362E-02 
1254	 2.75242385729889E-02 
1255	 2.82233053628958E-02 
1256	 2.83698270710431E-02 
1257	 2.92029606246582E-02 
1258	 2.93214451854984E-02 
1259	 2.82751614085737E-02 
1260	 2.80113213430817E-02 
1261	 2.84516122080851E-02 
1262	 0.028543654940058 
1263	 2.87612302554593E-02 
1264	 2.86417291321011E-02 
1265	 0.028959576751875 
1266	 2.94358576621087E-02 
1267	 2.97810019004668E-02 
1268	 3.00574322399651E-02 
1269	 2.98766411093575E-02 
1270	 2.94289208417125E-02 
1271	 2.93939307925362E-02 
1272	 0.029152646862156 
1273	 2.78464541612209E-02 
1274	 2.74327909747123E-02 
1275	 2.85434202454058E-02 
1276	 2.83318310455654E-02 
1277	 2.72629634709843E-02 
1278	 2.68860757289303E-02 
1279	 2.71953904598087E-02 
1280	 2.78549120402356E-02 
1281	 2.78755124349887E-02 
1282	 2.86964156293728E-02 
1283	 2.92322981244769E-02 
1284	 2.86480120147372E-02 
1285	 0.028316064833019 
1286	 2.89194423778652E-02 
1287	 0.028985822033686 
1288	 2.79520171171352E-02 
1289	 2.75971315654943E-02 
1290	 2.76903314967369E-02 
1291	 2.80196906350598E-02 
1292	 2.89032335651539E-02 
1293	 2.90225826611386E-02 
1294	 2.85282713137587E-02 
1295	 2.83394394570346E-02 
1296	 2.86140199029395E-02 
1297	 2.90192633173379E-02 
1298	 2.93751887739288E-02 
1299	 3.01162678229766E-02 
1300	 3.04772508378712E-02 
1301	 0.029636496334557 
1302	 2.98059330899177E-02 
1303	 3.11775014636887E-02 
1304	 3.07448957227069E-02 
1305	 3.03719527865985E-02 
1306	 3.04895188307568E-02 
1307	 3.16441155125663E-02 
1308	 3.11257212370058E-02 
1309	 2.87422891193864E-02 
1310	 2.88635512622216E-02 
1311	 3.05300891902977E-02 
1312	 0.029938855636517 
1313	 3.00124578957566E-02 
1314	 3.04402605445368E-02 
1315	 2.77623247356014E-02 
1316	 2.65385768894249E-02 
1317	 2.76836119120237E-02 
1318	 2.85670542115336E-02 
1319	 3.13058592434424E-02 
1320	 3.08733321610823E-02 
1321	 0.027892841328371 
1322	 2.61441733257774E-02 
1323	 3.04159781590452E-02 
1324	 3.11561601537248E-02 
1325	 3.03551800587759E-02 
1326	 0.033739230241437 
1327	 3.54742209530381E-02 
1328	 2.97618381808466E-02 
1329	 2.79452410668494E-02 
1330	 3.54033914664193E-02 
1331	 0.036339577584498 
1332	 0.030654372640841 
1333	 0.032998664777214 
1334	 3.65802961713951E-02 
1335	 3.86911087718275E-02 
1336	 3.52238579766752E-02 
1337	 3.83544158111399E-02 
1338	 4.84940407345328E-02 
1339	 5.00388897207799E-02 
1340	 0.046191096425692 
1341	 0.046308532331908 
1342	 4.62266538708515E-02 
1343	 4.24726423289811E-02 
1344	 3.56360164432894E-02 
1345	 3.67904177967763E-02 
1346	 3.86791098608495E-02 
1347	 3.64481916250213E-02 
1348	 5.06950068815113E-02 
1349	 5.87664591780183E-02 
1350	 2.14187804447142E-02 
1351	 1.60203049148398E-02 
1352	 6.91059274483478E-02 
1353	 0.122569617391822 
1354	 0.141516424068425 
1355	 0.451037099567483 
1356	 0.620782660276251 
1357	 0.562377535323028 
1358	 0.617552938115508 
1359	 0.435744523393657 
1360	 0.560334364044762 
1361	 0.807508807891675 
1362	 0.680818252784971 
1363	 0.874818348449759 
1364	 0.681540812052967 
1365	 0.312613284253896 
1366	 0.32667104082484 
1367	 0.596420717002914 
1368	 0.666614831660281 
1369	 0.447772314510813 
1370	 0.594350088503323 
1371	 2.99576011994323 
1372	 3.81791484996889 
1373	 4.2614709963085 
1374	-13.7571742633477 
1375	-5.32995212210076E-02 
1376	-0.262798358104637 
1377	-0.2802711992141 
1378	-8.90885058840765E-03 
1379	 1.89189854647426 
1380	 1.9616190703422 
1381	 3.33307282217534 
1382	 3.31623256272006 
1383	 1.11237496030817 
1384	 0.547664646053076 
1385	-0.129369938764107 
1386	-0.191399752771987 
1387	 1.17627889247881 
1388	 0.883824857113992 
1389	-0.401655640434877 
1390	-0.249722072711727 
1391	 0.374295792528778 
1392	-0.1143361197103 
1393	-0.437716986602891 
1394	-0.475284797343458 
1395	-4.98519760030152E-02 
1396	-0.377687512776048 
1397	-0.417400771233618 
1398	-108.306117566417 
1399	 1.71754110779869 
1400	 0.903554722728065 
1401	 0.352200000449487 
1402	-1.17183958409109 
1403	 2.55130806220244 
1404	 15.3757203193345 
1405	 177.507259324498 
1406	 1.01046770510074 
1407	 1.29676658564256 
1408	 1.84398179767616 
1409	 10.1740797557332 
1410	-2.18961084709098 
1411	-4.47645016468014 
1412	 0.999339446060536 
1413	 0.800187428618843 
1414	-0.456052550304057 
1415	 1.39992583860677E-02 
1416	 2.71258204421719 
1417	 11.866785065575 
1418	 10.4102463930706 
1419	 3.94455417108687 
1420	 3.76987676500497 
1421	 2.13281216392242 
1422	 0.239550599945137 
1423	 0.149311728414031 
1424	 0.766270415270044 
1425	-0.222837223620713 
1426	-2.11826283152212 
1427	-1.57924826568045 
1428	-0.543227723989624 
1429	-0.459780632922019 
1430	-7.04893368471919E-02 
1431	 9.89613062674245E-02 
1432	-0.120261479997098 
1433	-0.118262501684436 
1434	 0.25906664895892 
1435	 0.644916320141461 
1436	 1.01965084935014 
1437	 0.828446924921994 
1438	 0.701060685891018 
1439	 0.494895746099309 
1440	 0.577403834088622 
1441	 0.335095456061123 
1442	-0.364292709909384 
1443	-0.27745861508867 
1444	-0.228399725549228 
1445	-0.469449666069058 
1446	-0.392272739902009 
1447	-0.199622344009494 
1448	-0.19406497614714 
1449	-0.096275836243418 
1450	-4.23407016468396E-02 
1451	-2.36978914935219E-02 
1452	 0.014730782052922 
1453	 6.17971050730123E-02 
1454	 4.64709695060814E-02 
1455	 2.27619212317125E-02 
1456	 2.19317830849955E-02 
1457	-1.31433625663723E-02 
1458	-1.14647881044359E-02 
1459	 4.17950758649365E-02 
1460	 7.28658192346647E-02 
1461	 8.95334861626478E-02 
1462	 0.09435135498649 
1463	 0.11293085968738 
1464	 9.90171288854158E-02 
1465	 3.28040734310299E-02 
1466	 1.65081152348118E-02 
1467	 0.01240849305712 
1468	 5.79893267460533E-03 
1469	 9.91033752831311E-03 
1470	 4.42348353876472E-02 
1471	 0.100771735814078 
1472	 0.115829622592183 
1473	 0.14748934706252 
1474	 0.141990015624538 
1475	 8.37475574775288E-02 
1476	 6.79594120890846E-02 
1477	 7.51015420138938E-02 
1478	 0.062856975102799 
1479	 3.43216483812816E-02 
1480	 3.15911029600739E-02 
1481	 0.026096477263912 
1482	 3.32099997979072E-02 
1483	 8.13483348926209E-02 
1484	 7.57028073624061E-02 
1485	 4.61800694464902E-02 
1486	 4.23353431068687E-02 
1487	 2.93655894769957E-02 
1488	 1.97973291159213E-02 
1489	 1.59858508696844E-02 
1490	 2.46885167748241E-02 
1491	 4.27781313340072E-02 
1492	 4.10297210070603E-02 
1493	 3.68682605269642E-02 
1494	 3.74261950103331E-02 
1495	 3.04677342458836E-02 
1496	 2.44085067864753E-02 
1497	 2.09282773124828E-02 
1498	 2.41290255201247E-02 
1499	 2.92121464483596E-02 
1500	 2.94452842239482E-02 
1501	 3.52375459257788E-02 
1502	 3.63977439054537E-02 
1503	 2.50559379023361E-02 
1504	 2.30642558312479E-02 
1505	 2.69911989991795E-02 
1506	 3.27480845679544E-02 
1507	 2.82409509173869E-02 
1508	 2.49524474002977E-02 
1509	 0.025454806873071 
1510	 2.51014955672893E-02 
1511	 2.66483008003924E-02 
1512	 2.92076109601588E-02 
1513	 3.02252376943825E-02 
1514	 2.70998791298137E-02 
1515	 2.63190239822763E-02 
1516	 3.14363949672611E-02 
1517	 3.18848501743243E-02 
1518	 3.02256815353108E-02 
1519	 3.01215482641115E-02 
1520	 2.79497611545002E-02 
1521	 2.58948390586825E-02 
1522	 2.33590924768488E-02 
1523	 2.24215080377347E-02 
1524	 2.41486295459039E-02 
1525	 2.45614496482815E-02 
1526	 0.0241297578712 
1527	 2.23278339980106E-02 
1528	 2.07449969141588E-02 
1529	 2.08674259369938E-02 
1530	 2.15444667594787E-02 
1531	 2.46524608508431E-02 
1532	 2.51001029245539E-02 
1533	 2.18476615507703E-02 
1534	 0.021946669609433 
1535	 2.26208067941854E-02 
1536	 2.17137999380533E-02 
1537	 2.13377293835335E-02 
1538	 2.13698808903493E-02 
1539	 2.18542536908395E-02 
1540	 2.13679786601745E-02 
1541	 2.14456223142063E-02 
1542	 2.17678721577331E-02 
1543	 2.12416766043635E-02 
1544	 2.23840096649196E-02 
1545	 2.34803838068004E-02 
1546	 2.22187822088162E-02 
1547	 2.04686462045361E-02 
1548	 2.09233271914539E-02 
1549	 2.28948049788122E-02 
1550	 0.024784189444754 
1551	 2.55453919292502E-02 
1552	 2.47606531010472E-02 
1553	 2.20245728297591E-02 
1554	 2.00397699543751E-02 
1555	 0.020602780248393 
1556	 1.95731187361567E-02 
1557	 2.09794479803312E-02 
1558	 2.54808802757572E-02 
1559	 2.53941179455765E-02 
1560	 2.39970530767625E-02 
1561	 2.41693037902443E-02 
1562	 2.23162066325404E-02 
1563	 2.03011177116039E-02 
1564	 2.10476789092064E-02 
1565	 2.10758327337894E-02 
1566	 2.08294364519421E-02 
1567	 2.37205196501321E-02 
1568	 2.51402219160712E-02 
1569	 2.42615263815496E-02 
1570	 2.38882350331977E-02 
1571	 2.45004288370803E-02 
1572	 2.46469702282705E-02 
1573	 2.27676091672184E-02 
1574	 2.28877749350891E-02 
1575	 2.32381724913053E-02 
1576	 2.29832159780488E-02 
1577	 2.48935255920418E-02 
1578	 2.49412478451349E-02 
1579	 2.25344384458314E-02 
1580	 2.06250212914012E-02 
1581	 0.020602982454893 
1582	 2.12456426489614E-02 
1583	 2.10815586569408E-02 
1584	 2.05113331233457E-02 
1585	 2.03805508624242E-02 
1586	 2.01775160972785E-02 
1587	 2.10844354510423E-02 
1588	 2.35787854609967E-02 
1589	 2.44546720872592E-02 
1590	 2.45460831665123E-02 
1591	 2.23403352950198E-02 
1592	 1.94153390376745E-02 
1593	 0.020392018583908 
1594	 0.021824724304428 
1595	 2.25442321625908E-02 
1596	 2.35669276269493E-02 
1597	 2.40529262548757E-02 
1598	 2.44237772416987E-02 
1599	 2.60420192575436E-02 
1600	 2.78413408144042E-02 
1601	 2.86996887807828E-02 
1602	 2.78892567367489E-02 
1603	 0.025404806895235 
1604	 2.45221377328608E-02 
1605	 2.44159776052607E-02 
1606	 2.37458365923679E-02 
1607	 2.43473411404702E-02 
1608	 2.58183341305413E-02 
1609	 2.66082605419908E-02 
1610	 0.025847099653401 
1611	 2.33980262366156E-02 
1612	 2.22120366458819E-02 
1613	 2.29707051571652E-02 
1614	 2.30066980558854E-02 
1615	 2.36705189302266E-02 
1616	 2.56965025442435E-02 
1617	 2.73234157355509E-02 
1618	 2.67487939217146E-02 
1619	 2.57660177364568E-02 
1620	 2.49524381652533E-02 
1621	 2.23317244661338E-02 
1622	 2.21477676459329E-02 
1623	 0.024367609709326 
1624	 2.54219962297839E-02 
1625	 2.48331326471628E-02 
1626	 2.31701210337238E-02 
1627	 2.33183975728981E-02 
1628	 2.31861266521504E-02 
1629	 2.27631338850835E-02 
1630	 2.43433160913291E-02 
1631	 2.44950895853627E-02 
1632	 2.47971440121932E-02 
1633	 2.64759169418364E-02 
1634	 2.68583660214958E-02 
1635	 0.025528080896479 
1636	 2.49440397396157E-02 
1637	 2.61578728329063E-02 
1638	 2.44602919709882E-02 
1639	 2.29370201901072E-02 
1640	 2.44746306975701E-02 
1641	 2.48437704474441E-02 
1642	 2.58321071969062E-02 
1643	 2.71195804397295E-02 
1644	 2.58401175502318E-02 
1645	 2.46780870369886E-02 
1646	 2.47110196392652E-02 
1647	 2.33214785023346E-02 
1648	 2.20404413291505E-02 
1649	 2.10977045469688E-02 
1650	 1.93936660296481E-02 
1651	 2.07911480045565E-02 
1652	 2.30355698914546E-02 
1653	 2.27940070493291E-02 
1654	 2.33782600051185E-02 
1655	 2.30379353090363E-02 
1656	 2.36945796653171E-02 
1657	 2.66149095169244E-02 
1658	 2.68302372213988E-02 
1659	 2.63435404826658E-02 
1660	 2.51087501978961E-02 
1661	 2.07707217804854E-02 
1662	 1.95409820701558E-02 
1663	 1.90622410376532E-02 
1664	 1.95482205016252E-02 
1665	 2.27335596834209E-02 
1666	 2.39230996552302E-02 
1667	 2.52559153289744E-02 
1668	 2.64806579623618E-02 
1669	 2.46412083053868E-02 
1670	 2.26818994281691E-02 
1671	 2.31152822612572E-02 
1672	 0.023901754166929 
1673	 2.35163289848219E-02 
1674	 2.53835648163908E-02 
1675	 2.64994945075074E-02 
1676	 2.27328684184924E-02 
1677	 2.23585517981996E-02 
1678	 2.38002825672264E-02 
1679	 2.17253601085389E-02 
1680	 2.44437140732479E-02 
1681	 2.79478794714944E-02 
1682	 2.54996759948908E-02 
1683	 0.024405232265642 
1684	 2.53529038984364E-02 
1685	 2.47077134722454E-02 
1686	 0.02682711130985 
1687	 2.97626180955119E-02 
1688	 2.71584835134128E-02 
1689	 2.51084321549913E-02 
1690	 2.58348918799263E-02 
1691	 2.50893842311543E-02 
1692	 2.49824450553183E-02 
1693	 2.56974371808149E-02 
1694	 2.46009282639177E-02 
1695	 2.18579951276823E-02 
1696	 2.25237144970431E-02 
1697	 2.61215644156965E-02 
1698	 2.62363850568183E-02 
1699	 2.49851840121509E-02 
1700	 2.70041984550566E-02 
1701	 2.77064404997386E-02 
1702	 2.49045583610168E-02 
1703	 2.57884543311676E-02 
1704	 2.72124142997659E-02 
1705	 2.52449310714344E-02 
1706	 0.024635263970999 
1707	 2.53840360848837E-02 
1708	 0.025018308377024 
1709	 2.09425766102903E-02 
1710	 2.07651379845257E-02 
1711	 2.55571800310964E-02 
1712	 0.023147279916567 
1713	 2.56858076523459E-02 
1714	 2.76367132662992E-02 
1715	 2.78213189689465E-02 
1716	 2.80652423876712E-02 
1717	 2.28927615219512E-02 
1718	 2.23852698869202E-02 
1719	 2.67746449986245E-02 
1720	 2.74565987526356E-02 
1721	 2.94770566483944E-02 
1722	 2.86822123874877E-02 
1723	 2.25748603081601E-02 
1724	 2.42614575663571E-02 
1725	 2.90144921597308E-02 
1726	 2.82983239786654E-02 
1727	 2.83445149292854E-02 
1728	 2.71046640211941E-02 
1729	 2.23124604702627E-02 
1730	 2.13177604230915E-02 
1731	 2.25580877159367E-02 
1732	 1.96482031850292E-02 
1733	 1.92901295587367E-02 
1734	 2.15463453176132E-02 
1735	 0.01940030648475 
1736	 1.90249891130037E-02 
1737	 2.11580070627563E-02 
1738	 0.02114887272811 
1739	 2.18144328737812E-02 
1740	 2.59501991249109E-02 
1741	 3.17643262483802E-02 
1742	 2.98969841580008E-02 
1743	 2.45775963632553E-02 
1744	 2.57893870673228E-02 
1745	 2.59991522651809E-02 
1746	 2.89126938275043E-02 
1747	 2.99174198855386E-02 
1748	 2.22648709321856E-02 
1749	 1.94926419211976E-02 
1750	 2.18539940628724E-02 
1751	 2.30345949883111E-02 
1752	 2.94305064655141E-02 
1753	 2.89305700886365E-02 
1754	 1.89959782720758E-02 
1755	 1.88849464455675E-02 
1756	 2.04235857850131E-02 
1757	 2.04485837281275E-02 
1758	 2.74091746473327E-02 
1759	 2.22891715391028E-02 
1760	 1.65543061934476E-02 
1761	 2.31115365646881E-02 
1762	 0.025307691013375 
1763	 2.48441858201111E-02 
1764	 2.67453373078507E-02 
1765	 2.05545019539997E-02 
1766	 1.31977610425777E-02 
1767	 1.63117184538138E-02 
1768	 1.55078140523276E-02 
1769	 1.62097707777326E-02 
1770	 2.45444000282363E-02 
1771	 2.65865978341525E-02 
1772	 0.029035876039851 
1773	 0.029448909583928 
1774	 2.72827003549215E-02 
1775	 2.43195384788528E-02 
1776	 2.25455028613761E-02 
1777	 2.51508201815127E-02 
1778	 2.80259921090694E-02 
1779	 3.81789219792383E-02 
1780	 3.53582903163534E-02 
1781	 1.41542271645689E-02 
1782	 8.25573718032585E-03 
1783	-5.3594277982818E-04 
1784	 1.86294224415031E-03 
1785	 4.07831085340182E-02 
1786	 4.35568890639567E-02 
1787	 7.94725541220414E-03 
1788	 7.51159207274704E-03 
1789	 1.93455403549933E-02 
1790	-1.95380228773583E-02 
1791	 8.40419527210609E-03 
1792	 3.33880864405698E-02 
1793	 1.02447411087465E-02 
1794	 8.04601714867729E-02 
1795	 0.16068916750872 
1796	 0.111770643279577 
1797	 4.39949338184962E-02 
1798	-1.54489585535528E-02 
1799	-0.156394973394469 
1800	 0.010552652075708 
1801	 0.044464642631656 
1802	-2.42681171184162E-02 
1803	 3.11968093352355E-05 
1804	 7.61699012628487E-03 
1805	 2.16163535035257E-02 
1806	 0.191839327999016 
1807	 0.357564127918449 
1808	 0.326813053393822 
1809	 0.367577424403165 
1810	 0.947688069883067 
1811	 1.26881494409272 
1812	 0.623896457334867 
1813	 0.64859241737716 
1814	 0.859180717675932 
1815	 0.552115776111137 
1816	 0.27724686143043 
1817	 8.08327406979826E-02 
1818	-0.281872287070368 
1819	 0.109819208865221 
1820	-7.23064652498536E-02 
1821	 0.824867705822492 
1822	 1.439826604781 
1823	 0.182453492619509 
1824	 0.108225103204163 
1825	-0.930709025727838 
1826	-0.702019164904586 
1827	 1.19312945646125 
1828	 1.93857763606762 
1829	 1.82218567271861 
1830	 2.12919969136961 
1831	-1.5694017577846 
1832	-3.38212202141244 
1833	-2.85391881299626 
1834	-5.18035369964752 
1835	 18.6338401468957 
1836	 8.2594259309288 
1837	 0.620197642420559 
1838	 0.334446498115208 
1839	 1.813389203845 
1840	 24.8168377861639 
1841	-1.23560191180757 
1842	-0.617472322777292 
1843	-0.54366832876784 
1844	 0.371893775502405 
1845	 0.543178320403023 
1846	 1.76655703827239 
1847	 2.34959800643262 
1848	-6.78300691938097 
1849	-3.5994503164926 
1850	-4.42473535589572 
1851	-3.14079899117183 
1852	 0.861840836075492 
1853	 0.771577976840609 
1854	 0.671488062949283 
1855	 0.283749949746761 
1856	 0.21568075187438 
1857	 6.21676715376358E-02 
1858	 8.85896604961511E-02 
1859	 0.192630613127668 
1860	 0.394362115925017 
1861	 0.871747210257631 
1862	 1.55928279810936 
1863	 2.49233877366867 
1864	 3.54886763170755 
1865	 5.9255271420953 
1866	-3.21334792670538 
1867	 3.46604314593001 
1868	 11.477788065913 
1869	 43.9185822382137 
1870	-36.2708660590022 
1871	-2.42627244545388 
1872	-0.772567758519851 
1873	-0.228498779392087 
1874	-0.119941930254517 
1875	 0.254642351119595 
1876	 0.4140296996939 
1877	 1.30322788273028 
1878	 1.04963698083779 
1879	-8.87197587675843E-02 
1880	-0.679949243569623 
1881	-1.14921850058324 
1882	-1.15740765347266 
1883	-1.74036775200447 
1884	-3.47137118775668 
1885	-4.63431970649825 
1886	-14.8371427396508 
1887	-0.914564573852329 
1888	 9.05349013116359 
1889	 3.69823291784318 
1890	 1.11069073466803 
1891	 0.824944765345988 
1892	 0.362846229541493 
1893	-1.03506680846344 
1894	-5.41346217781582 
1895	-7.69264283275287 
1896	-3.53005870969433 
1897	-0.56056586544551 
1898	-0.34459732164115 
1899	 0.454702160265861 
1900	 0.894502187885342 
1901	 2.01534013630778 
1902	 2.90314370740539 
1903	 4.51663554660075 
1904	 11.9898942391093 
1905	-5.52051144084782 
1906	-2.49585670718112 
1907	-1.55167585641623 
1908	-1.41525227629013 
1909	-1.19246586323401 
1910	-1.6474348960648 
1911	 3.45006397477717 
1912	-2.69484349454447 
1913	-5.49856104380561 
1914	-0.609796090272022 
1915	-0.887048785307702 
1916	-1.25792008874881 
1917	-2.77391100010277 
1918	-2.512369165418 
1919	 0.337856502141349 
1920	 0.643870491779336 
1921	 0.432399210275233 
1922	-3.91791925885485E-02 
1923	 0.237461645598585 
1924	-0.123122808612311 
1925	 4.41531669434591E-02 
1926	 0.202760459405616 
1927	 0.691234000002686 
1928	 1.42141045918587 
1929	 10.8842005537776 
1930	-0.181254350304156 
1931	 0.882404011199852 
1932	 1.07073657343634 
1933	 1.38971940397466 
1934	 1.2182650531729 
1935	 0.476429636328635 
1936	 1.13490746395969 
1937	 0.887883992083282 
1938	 0.13132409634898 
1939	 1.08037762723718E-03 
1940	-7.32898005777197E-02 
1941	-6.03515721603582E-02 
1942	-0.309551284750176 
1943	-0.465877458148709 
1944	-0.481430080760312 
1945	-1.09128905824427 
1946	-2.51306908529365 
1947	 55.9922999334947 
1948	 0.356146538659426 
1949	 1.02902953186854 
1950	 1.6587356487765 
1951	 1.05002486197396 
1952	 1.05000449673751 
1953	 0.96549892467493 
1954	 1.55876921502624 
1955	 2.45888534663887 
1956	 1.19650374196729 
1957	 1.12903477780307 
1958	 0.80111222442685 
1959	-4.71649797579124E-02 
1960	-0.149296738736184 
1961	-0.253993055914659 
1962	-0.19706112522488 
1963	-0.394505715650563 
1964	-0.87491285832014 
1965	-0.743517320463767 
1966	-0.761279984560154 
1967	-0.597510753838803 
1968	 0.356961810291202 
1969	 0.306181136429557 
1970	 0.354617224648533 
1971	 0.420390061255621 
1972	 0.626895766083253 
1973	 0.693696323901604 
1974	 0.607896854206103 
1975	 0.583726339015574 
1976	 0.421013511454923 
1977	 0.28627076538989 
1978	 8.66646435414311E-02 
1979	 3.31548337312285E-02 
1980	 3.76304989451883E-02 
1981	-7.37991235916105E-05 
1982	-2.61382863901019E-02 
1983	 0.187703995209613 
1984	 0.238725639777035 
1985	 0.15586929024709 
1986	 0.197255222499356 
1987	 0.240265609535558 
1988	 0.154229393248029 
1989	 0.246620754255327 
1990	 0.314937593076334 
1991	 0.164061186258398 
1992	 9.87348027654153E-02 
1993	 6.67812023487869E-02 
1994	-1.01462989784481E-02 
1995	-0.181361372943617 
1996	-0.231647527350352 
1997	-0.218092782419911 
1998	-0.253504202417842 
1999	-0.181674208364215 
2000	-5.23603248524562E-02 
2001	 9.27296374682718E-02 
2002	 0.122387415201772 
2003	 0.171988264789068 
2004	 0.113134864663589 
2005	 4.34060197098069E-02 
2006	-1.48018673627718E-02 
2007	-2.81488536129606E-02 
2008	 0.235661654822156 
2009	 0.451059340755044 
2010	 1.21716544681571 
2011	 1.49840365053582 
2012	 1.85030725303958 
2013	 0.629118438324369 
2014	 0.540517328721402 
2015	 0.535146445538121 
2016	 0.43548738546781 
2017	 0.477057464655367 
2018	 0.475293603389792 
2019	 0.341694947357553 
2020	 0.258807346693274 
2021	 0.227508204240247 
2022	 0.160165082574317 
2023	 0.139715886058042 
2024	 9.36188989303239E-02 
2025	 4.35707385160623E-02 
2026	 2.59708566304744E-02 
2027	 2.13603805222128E-02 
2028	-6.66497901510732E-03 
2029	-9.98182648514903E-03 
2030	 5.80597934210209E-03 
2031	 7.92998856610092E-03 
2032	 1.06048243747138E-02 
2033	 2.22380588923793E-02 
2034	 1.05937392315881E-02 
2035	-8.09920330676689E-03 
2036	-5.18386969121221E-03 
2037	 2.74771712177851E-03 
2038	 2.24703163154776E-02 
2039	 3.49052727747274E-02 
2040	 4.82979308287623E-02 
2041	 5.47824051610211E-02 
2042	 0.053809151170818 
2043	 5.87717502147191E-02 
2044	 7.16774618179796E-02 
2045	 0.069118704942039 
2046	 5.25245823364517E-02 
2047	 7.24264405236255E-02 
2048	 6.92387150132702E-02 
2049	 2.83051503780555E-02 
2050	 3.45386076072074E-02 
2051	 5.69204028566833E-03 
2052	 4.54228767190075E-03 
2053	 5.90289964863676E-02 
2054	 0.051541895078832 
2055	 5.48628965701955E-02 
2056	 4.48242026944858E-02 
2057	-2.14215606016382E-02 
2058	-4.11694062647922E-02 
2059	-3.06977000731255E-02 
2060	-3.10903753220962E-02 
2061	-1.95527701041972E-02 
2062	-1.79733767604877E-02 
2063	-3.50920954915921E-02 
2064	-3.92596416467091E-02 
2065	-7.15469607933709E-02 
2066	-6.93459726488213E-02 
2067	-0.020298937940031 
2068	-2.25081638015734E-03 
2069	 6.2580393065756E-03 
2070	 1.90856688705993E-02 
2071	 3.84182089236461E-02 
2072	 8.10412286673288E-02 
2073	 9.40475901116317E-02 
2074	 0.114343347888412 
2075	 0.118396255072391 
2076	 0.089905796914787 
2077	 6.69836069872542E-02 
2078	 4.37740629417026E-02 
2079	 3.31193159907534E-02 
2080	 1.94941555761313E-02 
2081	 1.36745749982103E-02 
2082	 2.70821968312835E-02 
2083	 3.33798695333724E-02 
2084	 2.77052107323175E-02 
2085	 4.73737363074292E-02 
2086	 5.58596021344734E-02 
2087	 5.06413731482878E-02 
2088	 5.67437607034861E-02 
2089	 5.25528621194974E-02 
2090	 3.74411033134291E-02 
2091	 3.77347084570426E-02 
2092	 4.17872780960113E-02 
2093	 0.057002743228493 
2094	 4.63764541511197E-02 
2095	 2.18064131402133E-02 
2096	 1.93495482989294E-02 
2097	 1.09015115903988E-03 
2098	 5.23033631273478E-03 
2099	 3.89905560451403E-02 
2100	 7.01555894962534E-02 
2101	 8.24247151787786E-02 
2102	 8.35719011604839E-02 
2103	 6.82276892123949E-02 
2104	 4.70487531457526E-02 
2105	 3.35414648987729E-02 
2106	 1.97691210233707E-02 
2107	 5.09154223690251E-03 
2108	-1.5981818692574E-03 
2109	-5.68874973878531E-03 
2110	-1.96577531941441E-02 
2111	-1.69052195985995E-02 
2112	 1.75177070117831E-02 
2113	 3.50972437058591E-02 
2114	 5.22806953117366E-02 
2115	 6.55328545325877E-02 
2116	 7.86447776855106E-02 
2117	 7.93166548743617E-02 
2118	 6.75936814198268E-02 
2119	 6.46665374104375E-02 
2120	 6.12394074351339E-02 
2121	 5.16092910176299E-02 
2122	 5.26657083318703E-02 
2123	 6.95156375716134E-02 
2124	 8.21598305782275E-02 
2125	 8.62639443128887E-02 
2126	 7.46608790030534E-02 
2127	 6.20122756243172E-02 
2128	 4.61915202988964E-02 
2129	 3.19160509688523E-02 
2130	 2.65995356351925E-02 
2131	 2.01995393003105E-02 
2132	 1.58007576790866E-02 
2133	 8.44766719717299E-03 
2134	 3.32335511668231E-03 
2135	-3.04907373784634E-03 
2136	-3.23880421543761E-03 
2137	 1.42506548986066E-03 
2138	 3.89645745303801E-03 
2139	 7.39053419223199E-03 
2140	 1.12736145832948E-02 
2141	 1.75210882019123E-02 
2142	 2.04019823060917E-02 
2143	 2.01480733540951E-02 
2144	 2.71626680916052E-02 
2145	 3.34640381928947E-02 
2146	 3.25429947148758E-02 
2147	 2.47320672906794E-02 
2148	 0.014637731615024 
2149	 1.46915644659725E-02 
2150	 1.13785897051223E-02 
2151	 6.28512752271916E-03 
2152	 1.91769781005312E-02 
2153	 1.98684535650745E-02 
2154	 7.01351983145934E-04 
2155	-1.46981262389485E-03 
2156	-7.26271620786012E-03 
2157	-1.16829477934571E-02 
2158	-1.58558392946593E-02 
2159	-1.54731357763428E-02 
2160	-1.21124548641166E-02 
2161	-6.89990783371623E-03 
2162	-2.02923005404135E-03 
2163	 5.37375790996746E-03 
2164	 2.73160930858525E-02 
2165	 2.51593610825126E-02 
2166	 4.64116523940138E-03 
2167	 1.33723419357983E-03 
2168	-1.71292083640727E-02 
2169	-1.66631327691375E-02 
2170	 5.4061609468205E-03 
2171	 3.14017236881424E-02 
2172	 3.74589851277337E-02 
2173	 4.63146924717099E-02 
2174	 5.39415887588039E-02 
2175	 5.34558341077054E-02 
2176	 7.15932910173694E-02 
2177	 8.33145054949058E-02 
2178	 7.05952654660264E-02 
2179	 6.35144076840008E-02 
2180	 0.043113121369982 
2181	 1.59853340441584E-02 
2182	 1.10772386305795E-02 
2183	 1.11727501641715E-02 
2184	 2.65692895171501E-02 
2185	 5.00750489350593E-02 
2186	 5.45680609739041E-02 
2187	 5.37134419781546E-02 
2188	 4.92230753067006E-02 
2189	 0.016113924226514 
2190	 6.66169915285983E-03 
2191	 9.45140519955193E-03 
2192	 1.46631231216916E-02 
2193	 3.95763772257562E-02 
2194	 4.77727527562948E-02 
2195	 4.61319931506901E-02 
2196	 4.60787975097247E-02 
2197	 4.69309333738665E-02 
2198	 4.30325170950812E-02 
2199	 3.24103312916036E-02 
2200	 0.026980713558149 
2201	 4.08414753533488E-02 
2202	 3.51641988542702E-02 
2203	 4.75862806206538E-02 
2204	 5.90186936439541E-02 
2205	 5.75413641379951E-02 
2206	 4.80335085951949E-02 
2207	 0.023642163808491 
2208	 3.47299039725105E-02 
2209	 3.67213757402348E-02 
2210	 1.44133894901418E-02 
2211	 3.46183785385043E-02 
2212	 5.11752411155678E-02 
2213	 6.09287278825976E-02 
2214	 9.80895241471146E-02 
2215	 9.90042587673704E-02 
2216	 8.02961169771387E-02 
2217	 7.86213289023382E-02 
2218	 7.94925071014395E-02 
2219	 6.70845011547258E-02 
2220	 5.44828873087825E-02 
2221	 4.75022351567902E-02 
2222	 3.33381917090079E-02 
2223	 2.02494489620809E-02 
2224	 1.66485577202999E-02 
2225	 1.15385841315681E-02 
2226	-7.47088037756818E-03 
2227	-1.42485721100062E-02 
2228	-1.03143984684041E-02 
2229	-4.91046574522121E-03 
2230	 3.56254648086802E-04 
2231	 0.015206072609289 
2232	 6.18265687496668E-02 
2233	 7.37277223275491E-02 
2234	 7.30761337668343E-02 
2235	 6.29016883046778E-02 
2236	 3.39252671794084E-02 
2237	-2.19243325992494E-02 
2238	-6.00729538527913E-02 
2239	-6.51649092848086E-02 
2240	-5.11847095945367E-02 
2241	-3.97885358285756E-02 
2242	-2.31768761596521E-02 
2243	 1.51540897614993E-02 
2244	 3.31633405058716E-02 
2245	 4.91944578554061E-02 
2246	 6.11909536776745E-02 
2247	 2.88716800422789E-02 
2248	-3.4585096148668E-03 
2249	-8.47549055311618E-03 
2250	-5.48043006824345E-03 
2251	 8.53521960398352E-03 
2252	 0.02959512141559 
2253	 0.016328648355328 
2254	 7.96027227113845E-03 
2255	 1.84458956992363E-02 
2256	 6.02045595443614E-03 
2257	 5.83633451968994E-03 
2258	 1.68861651592477E-02 
2259	 2.19593557353831E-02 
2260	 1.23126625912258E-02 
2261	-6.26105373937632E-03 
2262	-1.46857231754787E-02 
2263	-0.051397701364888 
2264	-4.43030813290225E-02 
2265	 9.1882934779237E-03 
2266	 2.95572363657701E-02 
2267	 6.62788284538056E-02 
2268	 6.42699727602752E-02 
2269	 7.03202594982268E-03 
2270	-1.68064510775402E-03 
2271	 6.68786916108643E-03 
2272	 6.14893728171646E-03 
2273	 3.42963394076717E-02 
2274	 4.51655059678258E-02 
2275	 1.50693526719957E-02 
2276	 1.13071562840619E-02 
2277	 4.12398531627886E-02 
2278	 3.60604404352926E-02 
2279	 9.38378165830545E-03 
2280	-7.67266783582326E-04 
2281	-1.73966107777846E-02 
2282	-3.17968259090574E-02 
2283	-5.59098557742186E-02 
2284	-4.49885911255932E-02 
2285	-4.53998422318658E-02 
2286	-6.14988428002084E-02 
2287	-4.07603698149349E-02 
2288	-3.70376709392273E-02 
2289	-2.93903299328095E-02 
2290	-3.90824205949367E-02 
2291	-4.97320644670683E-02 
2292	-3.52060287457437E-02 
2293	-1.55402136358396E-02 
2294	-3.0579333531872E-03 
2295	-1.08580405929758E-02 
2296	-3.05260234222812E-03 
2297	 9.10676448122735E-03 
2298	 2.36861267998745E-02 
2299	 4.21658830784573E-02 
2300	 4.33603797985263E-02 
2301	-1.19065365701703E-03 
2302	-7.87584777102109E-02 
2303	-9.08620075599339E-02 
2304	-9.76611700689002E-02 
2305	-0.105081129448941 
2306	-6.90492029574654E-02 
2307	-4.67457618325377E-02 
2308	-1.11336393034903E-02 
2309	 5.01116677705659E-02 
2310	 0.101484887332066 
2311	 0.117969034381387 
2312	 0.11182291275474 
2313	 7.86892923316731E-02 
2314	 5.58937658047693E-02 
2315	 7.08814166804308E-02 
2316	 9.41074287424143E-02 
2317	 0.1095911209181 
2318	 9.67397438002345E-02 
2319	 2.85978182886326E-02 
2320	-4.42784279287588E-02 
2321	-7.83904448892428E-02 
2322	-0.170757715688597 
2323	-0.332551969760843 
2324	-0.403754284332491 
2325	-0.503847075180759 
2326	-0.640187349712606 
2327	-0.505890468090557 
2328	-0.405074328651172 
2329	-0.42047321431541 
2330	-0.255750513821993 
2331	-0.122718888770953 
2332	-6.31737763288783E-02 
2333	-6.04649272069885E-02 
2334	-9.1438754848069E-03 
2335	 2.85244711149138E-02 
2336	-1.05394135936831E-02 
2337	 5.15200033326153E-02 
2338	-7.16873270142269E-02 
2339	-0.128062905903238 
2340	-6.61308599962605E-02 
2341	-0.14134407278327 
2342	-0.125146158337389 
2343	-0.204586333700905 
2344	-0.275461159443293 
2345	-6.65972433575239E-02 
2346	-5.24375962611137E-02 
2347	-0.121108734736602 
2348	-3.85080214670087E-03 
2349	-7.03348861174323E-02 
2350	-0.183493939769284 
2351	-0.140379885157326 
2352	-0.173151031500306 
2353	-0.2462704339766 
2354	-8.56208055919812E-02 
2355	 0.038733405710905 
2356	 3.28555541192813E-02 
2357	 0.108491981525245 
2358	 0.179405099355862 
2359	 0.210837166519636 
2360	 0.2683040503841 
2361	 0.314488125807568 
2362	 0.125446717645648 
2363	-7.05270756023476E-03 
2364	-0.143342157337259 
2365	-0.424085894939395 
2366	-0.556050476677525 
2367	-0.543840713266835 
2368	-0.399474391001546 
2369	-0.231448779550576 
2370	 0.166151889835562 
2371	 0.344565562100488 
2372	 0.272978051330285 
2373	 0.531718141398851 
2374	 0.338449716780682 
2375	-0.273326607057731 
2376	-0.223043029986644 
2377	-0.172428080710119 
2378	-0.19176941397213 
2379	-4.11405717431331E-02 
2380	 0.247269449725731 
2381	 0.343518323222153 
2382	 0.647322427307381 
2383	 1.24056148430009 
2384	 0.374620845111636 
2385	-0.705034771228816 
2386	 1.0125762413824 
2387	 0.973423648034635 
2388	 1.27342130023682 
2389	 0.970467331329767 
2390	 0.726543427603273 
2391	 0.674060425009808 
2392	 1.43793101034546 
2393	-126.280802904518 
2394	 2.84646703363438 
2395	 252.302766617723 
2396	-0.930485334971883 
2397	 0.373849075525591 
2398	 3.91487619787859 
2399	 2.28845619066798 
2400	 3.86992195281809 
2401	-2.15790396295865 
2402	-0.783261535528607 
2403	-2.49122851379291 
2404	-3.07066671705504 
2405	-5.81356136279778E-02 
2406	 1.74272923889724 
2407	-2.48767900352082 
2408	-5.67895450590867 
2409	-0.619362513280857 
2410	 0.659438028163067 
2411	 1.96704100412319 
2412	 2.67422972204061 
2413	 3.64458130704823 
2414	 1.28471432915158 
2415	 5.12851248407892E-02 
2416	-6.79867304282024E-02 
2417	-1.67592971767454 
2418	-0.385461307744942 
2419	-1.01419150410937 
2420	-1.59595488136538 
2421	-0.703246753744369 
2422	-1.18607353986732 
2423	-3.11400784981048 
2424	-0.737254175078877 
2425	-0.371459508277115 
2426	-0.704532550193806 
2427	-0.740748257984583 
2428	-1.4935009333752 
2429	-1.28510194575698 
2430	 2.73183042332241 
2431	-2.15060556569255 
2432	-1.23402760935842 
2433	-1.16395067186109 
2434	-8.99245261796397E-02 
2435	 0.215637622416746 
2436	 0.599849928117889 
2437	 0.681861060539094 
2438	 1.52663939548787 
2439	 0.14100695218437 
2440	 0.269881329678585 
2441	-0.046371076568587 
2442	-1.86350023745351 
2443	 0.793748387036169 
2444	 0.237670952330062 
2445	 2.51134052182881E-02 
2446	 0.850015201370357 
2447	 0.720330873776411 
2448	-1.36631243118067 
2449	-1.40166635628527 
2450	-1.28909236220401 
2451	-0.868586938758794 
2452	-2.32338671743414 
2453	 0.382452337387911 
2454	 0.33843918746514 
2455	 7.92739155574658E-02 
2456	 6.66448189163049E-02 
2457	 5.47478313162837E-03 
2458	-0.141777177259212 
2459	-0.122728810682288 
2460	-8.68479677397488E-02 
2461	-0.209330550330177 
2462	-0.191016374493545 
2463	 0.42289429456052 
2464	 0.521236781189627 
2465	 0.33121630077521 
2466	 1.00601190487305 
2467	 0.726737594423861 
2468	 1.02100290255772 
2469	-13.2788732723133 
2470	-0.166281730982988 
2471	-2.36320445723256E-02 
2472	 0.121720062919672 
2473	 6.95104270300454E-02 
2474	-0.453317443501055 
2475	-3.1777903651513 
2476	-2.78362477107656 
2477	-2.48995678556824 
2478	-1.01056381436537 
2479	-0.805638801773511 
2480	-1.20860433832368 
2481	-1.17571532803807 
2482	-2.04210764538626 
2483	-1.00890740602058 
2484	-0.830908401418844 
2485	-11.7453007252546 
2486	 5.36819499681308 
2487	 25.4558953785732 
2488	 4.7627124564734 
2489	 5.88560753873184 
2490	-0.756899809182876 
2491	-2.58700211351817 
2492	 0.700687071569105 
2493	 0.766588057231655 
2494	-0.327723584859795 
2495	 0.767254823371997 
2496	 8.27448883180473E-02 
2497	 0.471560730488583 
2498	 9.40831261427774E-02 
2499	-0.231186479633914 
2500	 0.389662480558951 
