Wavelength	rt0624far00006.asd
350	 1.21717855759015E-02 
351	 1.22139510603083E-02 
352	 1.26981016308159E-02 
353	 1.27215918185811E-02 
354	 1.20685938766762E-02 
355	 1.21919375795218E-02 
356	 1.29287414101186E-02 
357	 1.32543337248094E-02 
358	 1.26080115952806E-02 
359	 1.35902539248685E-02 
360	 1.40050593793529E-02 
361	 1.35892985469981E-02 
362	 1.34820514107702E-02 
363	 0.013799376066042 
364	 1.40501716144885E-02 
365	 1.41021497853426E-02 
366	 1.44868955606111E-02 
367	 1.47682377634653E-02 
368	 1.47629477104202E-02 
369	 1.45391725848582E-02 
370	 1.47319575595194E-02 
371	 1.51591234897113E-02 
372	 1.55152460783629E-02 
373	 1.55319552551256E-02 
374	 1.59014647614974E-02 
375	 1.61349775030966E-02 
376	 1.60407017089004E-02 
377	 1.59958554305942E-02 
378	 1.61783975435531E-02 
379	 1.64065742905813E-02 
380	 1.65620645985264E-02 
381	 1.70476684753824E-02 
382	 1.74677016550757E-02 
383	 1.76853070429972E-02 
384	 1.77633860571953E-02 
385	 1.80798495562886E-02 
386	 1.84838505567771E-02 
387	 1.87683305661814E-02 
388	 1.87480929781345E-02 
389	 1.89481599693451E-02 
390	 1.92940497091235E-02 
391	 1.96047209797517E-02 
392	 1.97464075236552E-02 
393	 1.99659960632584E-02 
394	 2.02826676980089E-02 
395	 2.06172309780978E-02 
396	 0.020894889238877 
397	 2.11937200143975E-02 
398	 2.15253959118324E-02 
399	 2.18341645929081E-02 
400	 2.19590882662934E-02 
401	 2.20869352686434E-02 
402	 0.022329579114264 
403	 2.25233823955168E-02 
404	 2.26927731454712E-02 
405	 2.29102104314545E-02 
406	 2.32037093339682E-02 
407	 2.32054527042243E-02 
408	 2.34273726556672E-02 
409	 2.38220616905389E-02 
410	 2.37985591649746E-02 
411	 2.41386612111292E-02 
412	 2.45336339959299E-02 
413	 2.47023865440197E-02 
414	 2.48936220959863E-02 
415	 2.51529311397128E-02 
416	 2.53366814399756E-02 
417	 2.53373249242327E-02 
418	 2.57853020026996E-02 
419	 2.62153203329005E-02 
420	 2.64723011407211E-02 
421	 2.68091340625415E-02 
422	 0.026965695937202 
423	 2.71733715191273E-02 
424	 2.75763660786854E-02 
425	 2.77714399165678E-02 
426	 2.82766585557456E-02 
427	 2.88229339292771E-02 
428	 0.028908169482642 
429	 2.93133405615194E-02 
430	 2.97658816307034E-02 
431	 3.01141199143986E-02 
432	 3.04673986697167E-02 
433	 0.03073119747997 
434	 3.10818295918743E-02 
435	 3.16179144267899E-02 
436	 3.20731592818922E-02 
437	 3.23597024816908E-02 
438	 3.26668871169837E-02 
439	 3.32662389805793E-02 
440	 3.37309268273915E-02 
441	 3.40388719821379E-02 
442	 3.43142144533366E-02 
443	 3.48244561216452E-02 
444	 3.52693368291132E-02 
445	 0.03560549185624 
446	 0.035887764268328 
447	 3.62472658395896E-02 
448	 0.036611885640262 
449	 3.69903824977056E-02 
450	 3.74315128305483E-02 
451	 3.76456108270534E-02 
452	 3.78682769858532E-02 
453	 3.82311711523107E-02 
454	 3.85029617847103E-02 
455	 3.86848007994536E-02 
456	 3.89093376294294E-02 
457	 3.92746020809841E-02 
458	 3.93927278674773E-02 
459	 3.95691467449728E-02 
460	 3.98302739291234E-02 
461	 0.039903140964107 
462	 4.00526315821432E-02 
463	 4.02884478754293E-02 
464	 4.05460179618769E-02 
465	 4.07039419707098E-02 
466	 4.08644318681344E-02 
467	 4.10321745689054E-02 
468	 4.11888527529914E-02 
469	 4.15100477974242E-02 
470	 0.041809084657648 
471	 4.19945247021023E-02 
472	 4.21437649973722E-02 
473	 4.23449890051909E-02 
474	 4.25859109160425E-02 
475	 4.28436163093263E-02 
476	 4.31858380793162E-02 
477	 4.34638042887974E-02 
478	 4.36838577437692E-02 
479	 4.39571013317529E-02 
480	 4.42457487374633E-02 
481	 4.45674658141893E-02 
482	 4.49114103794052E-02 
483	 4.51899236515563E-02 
484	 4.55145391708833E-02 
485	 4.58893583902098E-02 
486	 4.62872116534385E-02 
487	 4.67608950944803E-02 
488	 4.71586079274724E-02 
489	 4.74644873217345E-02 
490	 4.78049230249109E-02 
491	 4.82650722600064E-02 
492	 4.88022675725507E-02 
493	 4.93447489745135E-02 
494	 4.98355192685272E-02 
495	 5.02970347283463E-02 
496	 5.07977475892639E-02 
497	 5.14016675724429E-02 
498	 0.05191509804219 
499	 5.23914956803717E-02 
500	 5.29113028697416E-02 
501	 5.35538910975866E-02 
502	 5.41923276982617E-02 
503	 5.48114761954373E-02 
504	 5.54299387653738E-02 
505	 5.60477462916211E-02 
506	 5.66557093347534E-02 
507	 5.72979512303933E-02 
508	 5.80389438617625E-02 
509	 5.85836602063759E-02 
510	 5.91317096768171E-02 
511	 5.98161245227807E-02 
512	 6.04241307137134E-02 
513	 6.10752176257735E-02 
514	 6.17982118739917E-02 
515	 6.25585613473769E-02 
516	 6.31918118936791E-02 
517	 6.39101222545775E-02 
518	 6.47338669524364E-02 
519	 6.54146908917121E-02 
520	 6.61551865056295E-02 
521	 6.68782651986349E-02 
522	 6.75225824710387E-02 
523	 6.82762688377935E-02 
524	 6.90980972690103E-02 
525	 0.069926339176805 
526	 7.06964381754952E-02 
527	 7.14569205045238E-02 
528	 7.21215514129448E-02 
529	 7.27086206914835E-02 
530	 7.34762090696117E-02 
531	 7.42982514921188E-02 
532	 7.51008815083312E-02 
533	 7.58467639878077E-02 
534	 7.66566664448126E-02 
535	 7.74321327501485E-02 
536	 7.81704197393329E-02 
537	 7.89849950388001E-02 
538	 7.98852045213885E-02 
539	 8.07334990133612E-02 
540	 8.14539139251782E-02 
541	 8.22824763683166E-02 
542	 8.31465853654798E-02 
543	 8.39746151203341E-02 
544	 8.47185436360033E-02 
545	 8.55226013711545E-02 
546	 8.63751026975587E-02 
547	 8.72227651429027E-02 
548	 8.79780405014559E-02 
549	 8.86817946432921E-02 
550	 0.089428435271321 
551	 9.02880438538514E-02 
552	 9.10582030887105E-02 
553	 9.18693967334535E-02 
554	 9.27111375072843E-02 
555	 9.33954468835372E-02 
556	 9.42185690608623E-02 
557	 9.51029670202332E-02 
558	 0.095912796540856 
559	 9.66806215219914E-02 
560	 9.73618284355243E-02 
561	 0.097971687178816 
562	 9.85766986280261E-02 
563	 9.93076601619405E-02 
564	 9.99720138099843E-02 
565	 0.100486958944623 
566	 0.101066015522511 
567	 0.101603775891587 
568	 0.102089596942191 
569	 0.102554187257737 
570	 0.103085388629434 
571	 0.103560796790135 
572	 0.103937090634319 
573	 0.104272626247606 
574	 0.104704053113415 
575	 0.105109596454343 
576	 0.105366038530882 
577	 0.105556188116888 
578	 0.105772080461703 
579	 0.10600673496332 
580	 0.106188227983281 
581	 0.106311168283226 
582	 0.106377189682408 
583	 0.106397826752887 
584	 0.106393183808999 
585	 0.106430747535695 
586	 0.106437799543336 
587	 0.106318258212918 
588	 0.106166116451406 
589	 0.106026910118898 
590	 0.105884820799086 
591	 0.105659512456202 
592	 0.1054347826209 
593	 0.105140527319221 
594	 0.104701404380527 
595	 0.104094674721789 
596	 0.103486817082308 
597	 0.102863978398245 
598	 0.102126738670533 
599	 0.101443005210077 
600	 0.100850464189645 
601	 0.100352640810441 
602	 9.99152024941991E-02 
603	 9.96785241546986E-02 
604	 9.95558599082271E-02 
605	 9.94299821423722E-02 
606	 9.94357979339585E-02 
607	 9.95258409925487E-02 
608	 9.96226256882254E-02 
609	 9.96315534735996E-02 
610	 9.96226505533595E-02 
611	 9.96019021416349E-02 
612	 9.95688285964262E-02 
613	 9.95322788455668E-02 
614	 9.95781649856816E-02 
615	 9.96353089298456E-02 
616	 9.95727519152197E-02 
617	 9.96163407144081E-02 
618	 9.96244820750277E-02 
619	 9.95344433528619E-02 
620	 9.94655030666848E-02 
621	 9.95030186409699E-02 
622	 9.95651532318506E-02 
623	 9.95355789060162E-02 
624	 9.94479319399351E-02 
625	 9.94063344056832E-02 
626	 9.93975049431971E-02 
627	 9.93044536312015E-02 
628	 9.92947108307022E-02 
629	 9.92609671688016E-02 
630	 9.91512262291888E-02 
631	 9.92034719262081E-02 
632	 9.92556391788473E-02 
633	 9.92135039779504E-02 
634	 9.90434841893623E-02 
635	 9.89106706772838E-02 
636	 9.87977181378373E-02 
637	 9.86740049432921E-02 
638	 0.098517081126522 
639	 9.83365806670563E-02 
640	 9.81515198787495E-02 
641	 9.79808326521384E-02 
642	 9.78322811910147E-02 
643	 9.76050724936481E-02 
644	 9.73192277518438E-02 
645	 9.70899302629816E-02 
646	 9.68495248526292E-02 
647	 9.65486933441385E-02 
648	 9.62162080595537E-02 
649	 9.60755678217672E-02 
650	 9.58391069541532E-02 
651	 0.095462239671944 
652	 9.50242033240519E-02 
653	 9.46818303014099E-02 
654	 0.09427064893072 
655	 9.37512781831406E-02 
656	 9.33510686994356E-02 
657	 9.28805385731475E-02 
658	 9.24545641389696E-02 
659	 9.21392022008351E-02 
660	 9.16967427187465E-02 
661	 9.13076605028594E-02 
662	 9.09542721625339E-02 
663	 9.05354011484857E-02 
664	 9.04073044021342E-02 
665	 9.02412424934985E-02 
666	 8.98913098145336E-02 
667	 8.96943444668533E-02 
668	 8.95480958769509E-02 
669	 8.93900460948351E-02 
670	 8.91886990051215E-02 
671	 8.90239257901439E-02 
672	 8.89495169767675E-02 
673	 8.88990443927296E-02 
674	 8.87145889295847E-02 
675	 8.86567058361018E-02 
676	 8.86883362805306E-02 
677	 0.088746477388384 
678	 8.88506512186325E-02 
679	 0.089057439527971 
680	 8.93139820090182E-02 
681	 8.95576744454197E-02 
682	 9.00424551817249E-02 
683	 9.06073398311786E-02 
684	 9.10775023152947E-02 
685	 9.13328924261914E-02 
686	 9.18617825863323E-02 
687	 9.25051733367905E-02 
688	 9.29031714676332E-02 
689	 9.29930652738078E-02 
690	 9.30990728043417E-02 
691	 9.31993641125996E-02 
692	 9.30933124645995E-02 
693	 9.30036843068764E-02 
694	 9.28002569313134E-02 
695	 9.24044674015655E-02 
696	 9.18558191964075E-02 
697	 0.091417949317607 
698	 9.08952335738104E-02 
699	 9.00818011088181E-02 
700	 8.94144200992338E-02 
701	 8.86113149849484E-02 
702	 8.77029419414955E-02 
703	 8.69440371205681E-02 
704	 8.59113723809181E-02 
705	 8.47935418863942E-02 
706	 8.37247959560801E-02 
707	 8.24723279633376E-02 
708	 8.10518006923379E-02 
709	 7.95906208377666E-02 
710	 7.81908626726605E-02 
711	 7.65924314161196E-02 
712	 7.47992627056711E-02 
713	 7.29047250314582E-02 
714	 7.10284342789563E-02 
715	 6.90090416527621E-02 
716	 6.69376903342016E-02 
717	 6.49276410628738E-02 
718	 6.26226921120732E-02 
719	 6.04606037173847E-02 
720	 0.058548434837119 
721	 5.65772889312836E-02 
722	 5.46705113146244E-02 
723	 0.052545508878257 
724	 5.02917533882276E-02 
725	 4.81118960138769E-02 
726	 0.045908520135977 
727	 4.35124635243394E-02 
728	 4.08841284195675E-02 
729	 3.82502618844262E-02 
730	 3.56401138763069E-02 
731	 0.033201408143875 
732	 3.10577120467967E-02 
733	 2.91906706808327E-02 
734	 2.76221925771459E-02 
735	 2.63573853571584E-02 
736	 2.53508246467739E-02 
737	 2.46655737087688E-02 
738	 2.40979222288592E-02 
739	 2.35133296276037E-02 
740	 2.31582618811545E-02 
741	 2.29540615078663E-02 
742	 2.28152608895585E-02 
743	 2.26733964919257E-02 
744	 2.26839398572215E-02 
745	 2.26027234902964E-02 
746	 2.23870733775773E-02 
747	 2.23129220821021E-02 
748	 2.22980373820624E-02 
749	 0.022269771820817 
750	 2.21934169922157E-02 
751	 2.21607760905687E-02 
752	 2.21650595828665E-02 
753	 2.21415005512738E-02 
754	 0.022034435917714 
755	 2.21423990323818E-02 
756	 2.21844717402387E-02 
757	 2.20538107075176E-02 
758	 2.19403297528673E-02 
759	 2.16514356662259E-02 
760	 2.14156054715802E-02 
761	 2.16530509410743E-02 
762	 2.19469696834171E-02 
763	 0.0219961904159 
764	 2.19883770721603E-02 
765	 2.21852051650116E-02 
766	 2.24410385525112E-02 
767	 2.25492673208486E-02 
768	 0.022575524174457 
769	 2.28215693900175E-02 
770	 2.29882542742331E-02 
771	 2.31682564505873E-02 
772	 2.34301905713011E-02 
773	 0.023555359293789 
774	 2.37302488280814E-02 
775	 2.39341892331122E-02 
776	 2.40892966135276E-02 
777	 2.43354149058782E-02 
778	 2.46491431776721E-02 
779	 2.49744687357536E-02 
780	 2.52461609542869E-02 
781	 2.55809285757153E-02 
782	 2.59473186267678E-02 
783	 2.63077169300784E-02 
784	 2.66871454177634E-02 
785	 2.69344749161792E-02 
786	 2.72224654235604E-02 
787	 2.77452145068097E-02 
788	 2.81774894213687E-02 
789	 2.87029096223753E-02 
790	 0.029261807749755 
791	 2.96095450949036E-02 
792	 2.98383384040084E-02 
793	 3.01955051709955E-02 
794	 0.030761637806973 
795	 3.13226839493979E-02 
796	 3.16373016776307E-02 
797	 3.19987147214746E-02 
798	 3.26272858629645E-02 
799	 3.29140004704842E-02 
800	 3.32558919422937E-02 
801	 3.36583216082407E-02 
802	 3.39246934766831E-02 
803	 3.41181021428859E-02 
804	 3.42889626846555E-02 
805	 3.44793635265103E-02 
806	 3.47116853441262E-02 
807	 3.47645356771242E-02 
808	 3.46706936197843E-02 
809	 3.45216002246446E-02 
810	 3.44047125749614E-02 
811	 3.42930934159545E-02 
812	 3.41420807729181E-02 
813	 3.38895301591554E-02 
814	 3.34590397008666E-02 
815	 3.30160542332197E-02 
816	 3.26244779477724E-02 
817	 3.22125531610975E-02 
818	 3.15346555389014E-02 
819	 3.07007221134623E-02 
820	 2.98247498963874E-02 
821	 2.90027415491816E-02 
822	 2.78872860348393E-02 
823	 2.65375565955108E-02 
824	 2.51784407822439E-02 
825	 2.40813183483757E-02 
826	 2.26609855678145E-02 
827	 2.09423365878055E-02 
828	 0.01929128764238 
829	 0.017951616870705 
830	 1.67487873920783E-02 
831	 1.56085319982345E-02 
832	 1.45973125284708E-02 
833	 1.39094739267212E-02 
834	 1.33477164066171E-02 
835	 1.28745776563323E-02 
836	 1.27299830284744E-02 
837	 1.22202782492502E-02 
838	 1.17963128252511E-02 
839	 1.17575795017913E-02 
840	 0.011293894730209 
841	 1.10081958978269E-02 
842	 1.09006417754489E-02 
843	 1.07418926592125E-02 
844	 1.03569049950653E-02 
845	 1.01349370508339E-02 
846	 1.00497877172965E-02 
847	 9.79062352848574E-03 
848	 9.4407514115879E-03 
849	 9.24427596139606E-03 
850	 9.21986118903742E-03 
851	 9.0905073279114E-03 
852	 9.15761235012224E-03 
853	 9.03628578054822E-03 
854	 8.59044818767038E-03 
855	 8.48806303006708E-03 
856	 8.35531761410171E-03 
857	 8.11623875323323E-03 
858	 7.82952108872843E-03 
859	 7.71027148190524E-03 
860	 7.74418180537796E-03 
861	 7.82611732020945E-03 
862	 7.78478684229786E-03 
863	 7.3643583744504E-03 
864	 7.10823716880443E-03 
865	 7.03302679457763E-03 
866	 6.68645151076812E-03 
867	 6.64340610468368E-03 
868	 6.52954178609659E-03 
869	 6.21162512318976E-03 
870	 6.03041701070765E-03 
871	 6.24714106627098E-03 
872	 6.1480634138594E-03 
873	 5.48511232207627E-03 
874	 5.52126249695394E-03 
875	 5.3756494531865E-03 
876	 5.09737414749019E-03 
877	 4.97539731524467E-03 
878	 5.10080496868898E-03 
879	 5.06080118813003E-03 
880	 4.79198375717651E-03 
881	 4.47165127439456E-03 
882	 4.44977707753509E-03 
883	 4.3439652548511E-03 
884	 4.14484732250094E-03 
885	 4.10369781874473E-03 
886	 3.88777167354643E-03 
887	 3.63869979979302E-03 
888	 3.51358557789491E-03 
889	 3.59181177302285E-03 
890	 3.50060186449044E-03 
891	 3.38434474479218E-03 
892	 3.33603915129285E-03 
893	 3.18985359700247E-03 
894	 3.09393568759918E-03 
895	 2.9994737385367E-03 
896	 2.87818179379622E-03 
897	 2.93629896884058E-03 
898	 2.65525510241248E-03 
899	 2.31702071078951E-03 
900	 2.30397281369314E-03 
901	 2.31683053682619E-03 
902	 2.15415032733813E-03 
903	 2.02016344193687E-03 
904	 2.13924459148287E-03 
905	 1.95389367147341E-03 
906	 1.96991027891369E-03 
907	 1.88507806004713E-03 
908	 1.09454552081601E-03 
909	 1.14398392475274E-03 
910	 1.1818027702403E-03 
911	 9.25968019431368E-04 
912	 8.07160512586756E-04 
913	 1.09428023418735E-03 
914	 1.17011601206032E-03 
915	 5.99523738248985E-04 
916	-5.15816057423558E-04 
917	 7.22171497161375E-05 
918	 2.41703175906425E-04 
919	-4.14321436027701E-04 
920	 8.35853304328837E-04 
921	 9.34112972399542E-04 
922	 8.54880640458811E-04 
923	 1.17881275328709E-03 
924	 5.36260843061171E-05 
925	-3.23728358853096E-04 
926	-3.9553235553549E-04 
927	-1.00055447065051E-03 
928	-1.61979656762341E-03 
929	-2.40021838116713E-03 
930	-3.11004017429541E-03 
931	-3.29047660045952E-03 
932	-2.43656679935969E-03 
933	-3.21090108960726E-03 
934	-4.76121299360106E-03 
935	-4.85585694299803E-03 
936	-4.03477327197048E-03 
937	-4.28624259673785E-03 
938	-4.68363465895771E-03 
939	-3.79981244319843E-03 
940	-2.38428835537696E-03 
941	-1.86635253069238E-03 
942	-2.68664188354292E-03 
943	-4.34653910149128E-03 
944	-4.72789794326854E-03 
945	-4.92282608665468E-03 
946	-5.30095032809293E-03 
947	-5.46902414337934E-03 
948	-4.20607147950939E-03 
949	-3.97433710959146E-03 
950	-4.60145049124866E-03 
951	-4.43787797829565E-03 
952	-5.15738683191035E-03 
953	-5.4476700821982E-03 
954	-5.66891110505497E-03 
955	-6.8177095053732E-03 
956	-4.43463085440199E-03 
957	-4.39016643274513E-03 
958	-5.65823946094853E-03 
959	-2.82385619265438E-03 
960	-2.56906347423163E-03 
961	-2.37334082922831E-03 
962	-2.2801733717644E-03 
963	-4.19024490627473E-03 
964	-3.8509018813845E-03 
965	-3.2539436036715E-03 
966	-2.57052247552767E-03 
967	-5.44812403184747E-04 
968	-4.93072059147569E-04 
969	-2.45776529790375E-04 
970	-2.87974119782835E-05 
971	-2.09716457722378E-03 
972	-2.9977930567247E-03 
973	-3.02932090737842E-03 
974	-2.37093801785125E-03 
975	-1.08969786009124E-03 
976	-2.7186554606535E-03 
977	-4.19856936849138E-03 
978	-3.88546897209488E-03 
979	-2.69980318000772E-03 
980	-4.01939350785869E-03 
981	-4.25828231114783E-03 
982	-3.37057904692046E-03 
983	-4.25429088428429E-03 
984	-3.02134127492092E-03 
985	-2.9553664314456E-03 
986	-3.48698916173716E-03 
987	-1.45163749325223E-03 
988	-3.08893435269611E-03 
989	-4.07234954787093E-03 
990	-3.2846899229739E-03 
991	-2.82285673567845E-03 
992	-2.60093312017591E-03 
993	-1.67982203866001E-03 
994	-1.27977715995985E-03 
995	-3.16970513464416E-03 
996	-2.84489277813634E-03 
997	-3.10050800271714E-03 
998	-4.17445126742844E-03 
999	-4.43790933055051E-03 
1000	-3.69384894508028E-03 
1001	 1.9605129579305E-03 
1002	 1.86439297789096E-03 
1003	 1.80601480846518E-03 
1004	 1.52414680635059E-03 
1005	 1.45614799051309E-03 
1006	 1.61124386788841E-03 
1007	 1.6673947515814E-03 
1008	 1.23183375924151E-03 
1009	 1.55564738194447E-03 
1010	 0.001851427397767 
1011	 1.82142658001203E-03 
1012	 2.54649990737574E-03 
1013	 2.79360992278793E-03 
1014	 2.82548162014833E-03 
1015	 2.46514173817241E-03 
1016	 2.43330008123764E-03 
1017	 2.3694515447755E-03 
1018	 2.2728821242386E-03 
1019	 2.26217273478508E-03 
1020	 2.25667907220349E-03 
1021	 2.35999353363049E-03 
1022	 1.93693081232563E-03 
1023	 1.92609670485923E-03 
1024	 1.90481771555539E-03 
1025	 1.48983220352494E-03 
1026	 1.5135213475046E-03 
1027	 1.63487248947771E-03 
1028	 1.92532496942123E-03 
1029	 2.08040164905587E-03 
1030	 2.44085637289246E-03 
1031	 2.58066682391937E-03 
1032	 2.61418177124962E-03 
1033	 2.52090228637901E-03 
1034	 2.3500592673154E-03 
1035	 2.14004526133132E-03 
1036	 1.38724334927738E-03 
1037	 1.21883578792196E-03 
1038	 1.43302050493354E-03 
1039	 1.68749509057732E-03 
1040	 1.53075893050392E-03 
1041	 1.93863282324771E-03 
1042	 1.90688604076826E-03 
1043	 1.32091000845638E-03 
1044	 1.35073957469045E-03 
1045	 1.70259441693552E-03 
1046	 1.8911400935825E-03 
1047	 2.41034377247769E-03 
1048	 2.43098584375247E-03 
1049	 1.96626337033914E-03 
1050	 1.93476983686309E-03 
1051	 1.8404476355529E-03 
1052	 1.83851111371552E-03 
1053	 2.44324325973893E-03 
1054	 2.50769574026948E-03 
1055	 2.05797564158065E-03 
1056	 1.84657231858173E-03 
1057	 1.62107338348085E-03 
1058	 1.08766613141823E-03 
1059	 1.13623833654659E-03 
1060	 1.70127437046964E-03 
1061	 1.77117433520263E-03 
1062	 1.87503588814156E-03 
1063	 1.91503599694591E-03 
1064	 1.49074860175986E-03 
1065	 1.58619557635122E-03 
1066	 2.2612573613959E-03 
1067	 2.39238389536383E-03 
1068	 2.56759547343057E-03 
1069	 2.48897705799859E-03 
1070	 1.53478988212381E-03 
1071	 1.32462064769211E-03 
1072	 1.57604398954474E-03 
1073	 1.65646304115244E-03 
1074	 1.80739423031366E-03 
1075	 2.44004088927632E-03 
1076	 2.49350848100576E-03 
1077	 2.15541126814368E-03 
1078	 1.98465656905573E-03 
1079	 1.57806130699668E-03 
1080	 1.54883620148328E-03 
1081	 1.77197086062165E-03 
1082	 1.81870369743671E-03 
1083	 2.09332633635325E-03 
1084	 2.12464197234533E-03 
1085	 1.7209951642435E-03 
1086	 1.65472346660335E-03 
1087	 1.80112222689147E-03 
1088	 1.83908447802759E-03 
1089	 2.10550689716637E-03 
1090	 2.15949855641464E-03 
1091	 1.99928772293769E-03 
1092	 1.40640678110799E-03 
1093	 1.3294523898887E-03 
1094	 1.39726329259369E-03 
1095	 1.38560775651284E-03 
1096	 1.61894634060094E-03 
1097	 1.6942128499635E-03 
1098	 1.42025771687338E-03 
1099	 1.43319490610424E-03 
1100	 1.87824196605553E-03 
1101	 1.94527551143519E-03 
1102	 1.74266275538312E-03 
1103	 1.76153774536037E-03 
1104	 1.75671176680042E-03 
1105	 1.68505337193912E-03 
1106	 0.001549840257153 
1107	 1.84238196255795E-03 
1108	 1.5600606899118E-03 
1109	 6.64692688104517E-04 
1110	 6.18125695107433E-04 
1111	 9.46629419389604E-04 
1112	 1.18236442669759E-03 
1113	 2.3079835626088E-03 
1114	 2.47143460873029E-03 
1115	 1.78564016179831E-03 
1116	 1.5484187533884E-03 
1117	 6.02753811473515E-04 
1118	 5.2710617062951E-04 
1119	 2.0850425847124E-03 
1120	 2.28281393022413E-03 
1121	 1.99684622966111E-03 
1122	 1.4946104695811E-03 
1123	 8.78391064621483E-04 
1124	 3.70728126481244E-04 
1125	 7.80576432415064E-04 
1126	 1.85208552754002E-03 
1127	 2.08516017232023E-03 
1128	 1.32495234165331E-03 
1129	 1.60533871465474E-03 
1130	 2.44778696623273E-03 
1131	 2.51124663542342E-03 
1132	 2.9776318349643E-03 
1133	 2.53549412190817E-03 
1134	 4.69758852253635E-04 
1135	 2.6549870859642E-04 
1136	 1.24040672868014E-03 
1137	 1.13421164116306E-03 
1138	 1.26528784081209E-03 
1139	 8.94993622876794E-04 
1140	 3.26895221464255E-04 
1141	 1.40874661488419E-04 
1142	 9.04733595360792E-04 
1143	 1.97035225403956E-03 
1144	 2.20229225558133E-03 
1145	 1.34296171810681E-03 
1146	 3.17797943793895E-04 
1147	 6.07661453044969E-04 
1148	 6.01184785963207E-04 
1149	 7.49667265494778E-05 
1150	 3.53193797955513E-04 
1151	 1.06111862496276E-03 
1152	 9.89080985317022E-04 
1153	 1.27171807539812E-03 
1154	 1.41138855966764E-03 
1155	 1.10470358893924E-03 
1156	 6.55650244777796E-04 
1157	 1.20862263303078E-03 
1158	 1.27833028637503E-03 
1159	 1.19800385552682E-03 
1160	 1.31005367418253E-03 
1161	 1.14483692434769E-03 
1162	 1.26942520315951E-03 
1163	 0.001540863205711 
1164	 1.6421548201436E-03 
1165	 1.62270114791256E-03 
1166	 1.34740996124916E-03 
1167	 1.2865145778989E-03 
1168	 1.36954307233062E-03 
1169	 1.15190372596567E-03 
1170	 1.23136169837135E-03 
1171	 1.26876173201733E-03 
1172	 1.06747277292792E-03 
1173	 1.01447427664741E-03 
1174	 1.11913711622784E-03 
1175	 1.37717707143245E-03 
1176	 1.38641998593148E-03 
1177	 1.37515713170883E-03 
1178	 1.4067495945606E-03 
1179	 1.21114991779703E-03 
1180	 9.15076271636053E-04 
1181	 9.57844027619791E-04 
1182	 1.26482237505295E-03 
1183	 1.38180264408981E-03 
1184	 1.36137337916134E-03 
1185	 1.42073698645195E-03 
1186	 1.35725027049789E-03 
1187	 1.27562163791831E-03 
1188	 0.001337535553273 
1189	 1.29044523121513E-03 
1190	 1.16851445309093E-03 
1191	 1.25306152467131E-03 
1192	 1.27258635475014E-03 
1193	 1.29573019764329E-03 
1194	 1.30795367847962E-03 
1195	 1.38587666880822E-03 
1196	 1.21530064615212E-03 
1197	 1.13181817796343E-03 
1198	 1.28033713870216E-03 
1199	 1.17350981420593E-03 
1200	 1.17346857897661E-03 
1201	 1.35947184734927E-03 
1202	 1.29222570899297E-03 
1203	 1.4015870144162E-03 
1204	 1.55303106055998E-03 
1205	 1.26356608953471E-03 
1206	 1.19464238484545E-03 
1207	 1.57237485713165E-03 
1208	 1.45448088405013E-03 
1209	 1.16287586835026E-03 
1210	 1.51341038771813E-03 
1211	 1.54342938983937E-03 
1212	 1.18338503150974E-03 
1213	 1.38368101821326E-03 
1214	 1.5814535958971E-03 
1215	 1.68355653747731E-03 
1216	 1.39799521603825E-03 
1217	 1.33067109180265E-03 
1218	 1.4328442988064E-03 
1219	 1.40887884621363E-03 
1220	 1.32035241199123E-03 
1221	 1.46283253534266E-03 
1222	 1.71721347460516E-03 
1223	 1.61002302169015E-03 
1224	 1.30363263122361E-03 
1225	 1.26586413507246E-03 
1226	 1.3653704846854E-03 
1227	 1.34977757627516E-03 
1228	 1.39292369375287E-03 
1229	 1.65547202982138E-03 
1230	 1.6747167612766E-03 
1231	 1.33053621314308E-03 
1232	 1.37921562661392E-03 
1233	 1.61195091739668E-03 
1234	 1.51622183809616E-03 
1235	 1.53627274529599E-03 
1236	 1.78389958585477E-03 
1237	 1.76113129827429E-03 
1238	 1.52112840817452E-03 
1239	 1.42128706793671E-03 
1240	 1.28008958506719E-03 
1241	 1.05665115924272E-03 
1242	 1.06250566182019E-03 
1243	 1.1412411190355E-03 
1244	 1.21760826812154E-03 
1245	 1.36226097787575E-03 
1246	 1.34226224508423E-03 
1247	 1.3418708446566E-03 
1248	 1.56625324988477E-03 
1249	 1.55676072726802E-03 
1250	 1.32587082806559E-03 
1251	 1.27986635392039E-03 
1252	 1.2974828572234E-03 
1253	 1.2408959012329E-03 
1254	 1.40089146517179E-03 
1255	 1.87765602848156E-03 
1256	 1.91591328538542E-03 
1257	 1.46599462489852E-03 
1258	 1.41366354342027E-03 
1259	 1.4411678602507E-03 
1260	 1.34769200307319E-03 
1261	 1.49794347148411E-03 
1262	 1.58753176834703E-03 
1263	 1.61525625133227E-03 
1264	 1.2240472252592E-03 
1265	 1.28151184317479E-03 
1266	 1.51243052052985E-03 
1267	 1.56036983017597E-03 
1268	 1.56125386597743E-03 
1269	 1.33026788514599E-03 
1270	 1.23795521791256E-03 
1271	 1.59327894477717E-03 
1272	 1.60572635921256E-03 
1273	 1.40641698682676E-03 
1274	 1.45645372061018E-03 
1275	 1.37262550233222E-03 
1276	 1.32520005858222E-03 
1277	 1.63693870246553E-03 
1278	 1.7284926186539E-03 
1279	 1.2925268529909E-03 
1280	 1.16148863602652E-03 
1281	 1.18288128898003E-03 
1282	 1.31955905571901E-03 
1283	 1.32342581646357E-03 
1284	 1.51313367685794E-03 
1285	 1.55314263821341E-03 
1286	 0.001328233747247 
1287	 1.30104234251306E-03 
1288	 1.48443771740513E-03 
1289	 1.59296134888012E-03 
1290	 1.77423124486755E-03 
1291	 1.62350554935794E-03 
1292	 1.62400706807293E-03 
1293	 1.66369753429539E-03 
1294	 1.18083619688998E-03 
1295	 1.00093620032613E-03 
1296	 1.38539087495333E-03 
1297	 1.39669411745507E-03 
1298	 1.34137250517283E-03 
1299	 1.75228851136892E-03 
1300	 1.77239915522331E-03 
1301	 1.21261848379058E-03 
1302	 1.26281153023925E-03 
1303	 1.69669098830102E-03 
1304	 1.66002191521341E-03 
1305	 1.69540808070381E-03 
1306	 1.78536575355787E-03 
1307	 1.72599905021187E-03 
1308	 1.65975566282504E-03 
1309	 1.8263477908664E-03 
1310	 1.80843070339363E-03 
1311	 1.38733105656918E-03 
1312	 1.25283130189029E-03 
1313	 0.001371696650951 
1314	 1.37883974989752E-03 
1315	 1.40016151086893E-03 
1316	 1.47587029788946E-03 
1317	 1.64503798599501E-03 
1318	 1.51225718522261E-03 
1319	 1.09559075870441E-03 
1320	 1.06951365263329E-03 
1321	 1.27575463743514E-03 
1322	 9.9350109226281E-04 
1323	 7.44093427395859E-04 
1324	 8.49763487991057E-04 
1325	 8.91905717949302E-04 
1326	 8.33004410092735E-04 
1327	 8.91291790634657E-04 
1328	 6.48911197868258E-04 
1329	 3.5539459588537E-04 
1330	 7.14732775032582E-04 
1331	 1.12548528043566E-03 
1332	 1.04096568130181E-03 
1333	 8.54275093587668E-04 
1334	 9.6022413398824E-04 
1335	 6.46843903148859E-04 
1336	 5.90933372869757E-05 
1337	 1.22165127008453E-04 
1338	 2.22105291930077E-04 
1339	 1.9522891680142E-04 
1340	 9.08617650320945E-04 
1341	 1.14657068515158E-03 
1342	 7.80457544517881E-04 
1343	 4.55250984890564E-04 
1344	-1.08523998901817E-04 
1345	-1.21012543110441E-04 
1346	-2.74909611633039E-05 
1347	-4.09940687063193E-05 
1348	 1.13881974280781E-03 
1349	 1.39435111452277E-03 
1350	 7.26557346285654E-04 
1351	-5.07111006690397E-04 
1352	-6.62604172924113E-03 
1353	-9.98201268179801E-03 
1354	-1.02168838083643E-02 
1355	-8.94632834313514E-03 
1356	-8.53643116133032E-03 
1357	-1.01441796131941E-02 
1358	-1.73240117739483E-02 
1359	-3.47333778761044E-02 
1360	-5.19665901919944E-02 
1361	-6.15503368420041E-02 
1362	-0.034226987613175 
1363	-1.19044826395809E-02 
1364	-4.63906828650784E-02 
1365	-2.55599883179083E-02 
1366	-6.32242645165742E-02 
1367	-0.193392615894653 
1368	-0.215723920493737 
1369	-0.100802202119214 
1370	-7.60286940819898E-02 
1371	-5.77615759157049E-02 
1372	-6.97735592459398E-02 
1373	-0.142785727051943 
1374	-0.140326396060361 
1375	-0.1222006892346 
1376	-0.12776982889345 
1377	-9.43045012313045E-02 
1378	-8.76406769741354E-02 
1379	-0.158358143459915 
1380	-0.149249660774117 
1381	-1.92022758476986E-02 
1382	-2.25371584601672E-02 
1383	-5.38339319107251E-02 
1384	-9.11865728775796E-02 
1385	-0.262604761502168 
1386	-0.308132665566207 
1387	-0.236061009067284 
1388	-0.237164838971026 
1389	-0.28899840279797 
1390	-0.25438417484145 
1391	-0.199679221224876 
1392	-0.170247809871446 
1393	-0.166579213515094 
1394	-0.139151362103599 
1395	-9.14704741053495E-02 
1396	-8.95443526472358E-02 
1397	-9.32274210214801E-02 
1398	-8.43532007955948E-02 
1399	-0.109276477107465 
1400	-0.120021256713034 
1401	-6.86307732147097E-02 
1402	-2.68974420610154E-02 
1403	-0.030496098243628 
1404	-3.72561482557795E-02 
1405	-3.78639308249775E-02 
1406	-4.59896592330714E-02 
1407	-4.19033129910507E-02 
1408	-3.23171967290993E-02 
1409	-2.90444089666428E-02 
1410	-2.41189076566152E-02 
1411	-2.34839996895233E-02 
1412	-0.027791135580697 
1413	-2.59948609308683E-02 
1414	-2.62871550053442E-02 
1415	-2.04500553203502E-02 
1416	-5.56337773943345E-03 
1417	-2.14387276107321E-03 
1418	-3.96565382782141E-03 
1419	-2.33639268467285E-03 
1420	-1.47249964455878E-03 
1421	-2.41400306780473E-03 
1422	-1.48803980113687E-03 
1423	-1.51992434718885E-03 
1424	-0.006121616900955 
1425	-6.11884891657589E-03 
1426	-1.85505146265531E-03 
1427	-1.53656328640833E-03 
1428	-2.62149548244051E-03 
1429	-1.80464519843191E-03 
1430	-8.84892856037512E-04 
1431	-1.24284372735393E-03 
1432	-1.09240887464488E-03 
1433	-1.02896902743022E-03 
1434	-3.45202833059319E-03 
1435	-3.63754880338031E-03 
1436	-1.07301945050277E-03 
1437	-8.07728161110161E-05 
1438	 1.54690077936843E-03 
1439	 2.78793665815137E-03 
1440	 3.93243909638822E-04 
1441	-6.00690135806348E-04 
1442	 6.4220616815381E-04 
1443	 3.92550905833318E-04 
1444	-1.17226748862784E-04 
1445	 5.14607081151068E-04 
1446	 5.48170260885605E-04 
1447	-5.8152295139942E-04 
1448	-1.57520596550483E-03 
1449	-9.91600179137247E-04 
1450	 4.56928659201094E-04 
1451	 8.17937101994705E-05 
1452	-5.20747486245538E-04 
1453	 4.23505668462949E-04 
1454	 4.03839961371067E-04 
1455	-9.67063872567921E-04 
1456	-9.67008344543691E-04 
1457	-6.68489599234069E-05 
1458	 4.75902795190479E-05 
1459	 1.68238517737849E-05 
1460	 2.16153320905831E-04 
1461	 5.35600157453266E-04 
1462	 4.09901195859476E-04 
1463	 1.11113020922241E-04 
1464	 1.06628313395686E-04 
1465	-2.9467045433754E-04 
1466	-5.17810149851999E-04 
1467	-1.52832932098842E-04 
1468	-1.26841754914479E-04 
1469	-6.24423738368733E-04 
1470	-4.00579782360065E-04 
1471	 5.26371506088405E-04 
1472	 6.30773934328817E-04 
1473	 4.25249899514275E-04 
1474	 5.75830084050772E-04 
1475	 6.10906756221612E-04 
1476	 4.4710709773357E-04 
1477	 4.68618267341449E-04 
1478	 4.52067782310037E-04 
1479	-2.07085029549196E-04 
1480	-9.80011274136296E-05 
1481	 9.8156567413042E-04 
1482	 1.08271803240877E-03 
1483	 7.83047550488091E-04 
1484	 7.94689256267577E-04 
1485	 4.23180831832181E-04 
1486	 3.05914942771355E-04 
1487	 7.53334208474936E-04 
1488	 7.73887526860136E-04 
1489	 4.06211224420521E-04 
1490	 4.15780608456012E-04 
1491	 5.93189332194028E-04 
1492	 5.1056901074505E-04 
1493	 4.35455596531875E-04 
1494	 4.5053072236242E-04 
1495	 2.01065495524384E-04 
1496	 2.17249854034559E-04 
1497	 7.377334615445E-04 
1498	 8.24753596862217E-04 
1499	 4.81435713312616E-04 
1500	 5.49802409023071E-04 
1501	 8.2103256025735E-04 
1502	 8.35779219631668E-04 
1503	 9.18370955674022E-04 
1504	 1.07501411597861E-03 
1505	 1.29312821611119E-03 
1506	 1.02629033555324E-03 
1507	 9.59339643796496E-04 
1508	 1.20304731378333E-03 
1509	 1.17626822772529E-03 
1510	 1.00265368032211E-03 
1511	 1.09444455458871E-03 
1512	 1.24201857696321E-03 
1513	 1.12624614287091E-03 
1514	 9.83487669243776E-04 
1515	 1.07805638300048E-03 
1516	 1.10647248209037E-03 
1517	 9.30706400266017E-04 
1518	 1.01035766625968E-03 
1519	 1.20329430776261E-03 
1520	 9.04198938544391E-04 
1521	 6.10538951028366E-04 
1522	 8.10586123414694E-04 
1523	 1.0539313178312E-03 
1524	 9.88392327329528E-04 
1525	 8.13788380706643E-04 
1526	 8.31797456610946E-04 
1527	 7.63657606617322E-04 
1528	 6.19801114057962E-04 
1529	 7.61476234806339E-04 
1530	 9.72511477259201E-04 
1531	 1.03838376206028E-03 
1532	 1.06086675614826E-03 
1533	 1.03974853579412E-03 
1534	 9.97649127081039E-04 
1535	 1.00938646379628E-03 
1536	 9.82666819820445E-04 
1537	 1.02331248889472E-03 
1538	 1.11549950261186E-03 
1539	 9.21340332695968E-04 
1540	 6.96236735877914E-04 
1541	 8.00662344937572E-04 
1542	 1.0449606932162E-03 
1543	 1.2883607138122E-03 
1544	 1.32883682322291E-03 
1545	 1.21124800737442E-03 
1546	 1.17221632030099E-03 
1547	 1.17892858765852E-03 
1548	 1.16476522679958E-03 
1549	 1.0788390560118E-03 
1550	 8.98611551607789E-04 
1551	 5.65434638141311E-04 
1552	 5.5390017445301E-04 
1553	 8.53418173279965E-04 
1554	 8.36377051450511E-04 
1555	 7.05409812682544E-04 
1556	 8.58250485073518E-04 
1557	 1.08574604843443E-03 
1558	 1.13570845229307E-03 
1559	 1.21937590344645E-03 
1560	 1.11252674098746E-03 
1561	 8.77941401905658E-04 
1562	 9.46037143395507E-04 
1563	 1.07273844033096E-03 
1564	 1.14293737477617E-03 
1565	 1.10792316649025E-03 
1566	 8.99889467369734E-04 
1567	 7.34962677709411E-04 
1568	 6.723128101534E-04 
1569	 6.35554691323375E-04 
1570	 7.18204095732287E-04 
1571	 8.83762662586729E-04 
1572	 8.20417923108575E-04 
1573	 6.02955768421073E-04 
1574	 6.19870650614851E-04 
1575	 7.24043143647886E-04 
1576	 8.75720874984779E-04 
1577	 1.21333977119597E-03 
1578	 1.09564838392304E-03 
1579	 6.96454900629142E-04 
1580	 8.87870457715629E-04 
1581	 1.17167726527521E-03 
1582	 1.13751172711766E-03 
1583	 1.09332338312203E-03 
1584	 0.001094492190117 
1585	 1.05635430393327E-03 
1586	 8.8207973889224E-04 
1587	 8.68540615922369E-04 
1588	 9.50672973882129E-04 
1589	 8.85029636451799E-04 
1590	 1.07667372483552E-03 
1591	 1.09389441855089E-03 
1592	 7.26340947340478E-04 
1593	 6.15360869851103E-04 
1594	 6.24629661474688E-04 
1595	 7.75689787146379E-04 
1596	 7.77907868803125E-04 
1597	 4.62505229822286E-04 
1598	 6.55316157930965E-04 
1599	 9.24468899787473E-04 
1600	 8.10481686631665E-04 
1601	 9.08107364377378E-04 
1602	 8.46500593942073E-04 
1603	 4.74030051698564E-04 
1604	 5.95694694541708E-04 
1605	 9.9191308763403E-04 
1606	 9.43745586664089E-04 
1607	 5.73461931597902E-04 
1608	 5.09308968517108E-04 
1609	 7.4827924535182E-04 
1610	 7.91785888434176E-04 
1611	 7.52094398093843E-04 
1612	 7.59468398984774E-04 
1613	 8.92285773556847E-04 
1614	 9.70927767496085E-04 
1615	 9.01182683544383E-04 
1616	 1.06921919147093E-03 
1617	 1.03323122820253E-03 
1618	 6.36159528539749E-04 
1619	 4.9979263140009E-04 
1620	 8.40350902600507E-04 
1621	 1.1894819873719E-03 
1622	 9.78135864030985E-04 
1623	 7.89711630931178E-04 
1624	 9.02435158804167E-04 
1625	 7.74356084450182E-04 
1626	 7.3308052832017E-04 
1627	 1.09848409289608E-03 
1628	 1.11064510388076E-03 
1629	 5.29533304259144E-04 
1630	 4.38523936190134E-04 
1631	 6.86261837920493E-04 
1632	 5.81170468192515E-04 
1633	 7.23413429214331E-04 
1634	 9.55464510944604E-04 
1635	 8.68099048186096E-04 
1636	 1.04057040497257E-03 
1637	 1.34411918988984E-03 
1638	 1.11796891194125E-03 
1639	 7.0636173299521E-04 
1640	 6.43750088955272E-04 
1641	 7.10383263253281E-04 
1642	 7.68676898027597E-04 
1643	 9.29001131214145E-04 
1644	 8.68969717875976E-04 
1645	 5.8348744923392E-04 
1646	 6.82332805353786E-04 
1647	 1.10041823448556E-03 
1648	 1.07320449274148E-03 
1649	 6.64204246491837E-04 
1650	 5.57687062856581E-04 
1651	 5.3124529265356E-04 
1652	 3.95553592481492E-04 
1653	 8.33240966894451E-04 
1654	 8.59746576509407E-04 
1655	 2.25953335561154E-04 
1656	 2.23772590824332E-04 
1657	 6.63951173469123E-04 
1658	 6.39708699825468E-04 
1659	 5.34288471532359E-04 
1660	 6.02480236197592E-04 
1661	 5.34240523519718E-04 
1662	 4.99000550940623E-04 
1663	 7.78662282948099E-04 
1664	 9.59718877130211E-04 
1665	 7.48346397620368E-04 
1666	 8.59691386429794E-04 
1667	 1.38692390299151E-03 
1668	 8.89661543695344E-04 
1669	 1.07930750710907E-03 
1670	 1.41277752137183E-03 
1671	 1.01586059418752E-03 
1672	 9.62500416245139E-04 
1673	 1.09631075594451E-03 
1674	 4.52083327619727E-04 
1675	 2.04876180360752E-04 
1676	 7.73004784395584E-04 
1677	 7.52184542336484E-04 
1678	 6.20126746419032E-04 
1679	 8.41381318749233E-04 
1680	 7.04246690144848E-04 
1681	 6.20981626373276E-04 
1682	 8.59398396812581E-04 
1683	 8.96568537542391E-04 
1684	 7.61130305549407E-04 
1685	 8.69519837230036E-04 
1686	 9.63635841162829E-04 
1687	 8.07015773556486E-04 
1688	 7.09305581053032E-04 
1689	 6.5152154209067E-04 
1690	 7.23695553089287E-04 
1691	 1.06760464803948E-03 
1692	 1.06478396864991E-03 
1693	 6.05591433863211E-04 
1694	 4.15543890264741E-04 
1695	 5.21950802357879E-04 
1696	 6.55389507372476E-04 
1697	 9.12194653486777E-04 
1698	 1.07255964528701E-03 
1699	 9.89929249767193E-04 
1700	 8.8405049361143E-04 
1701	 8.08221606879073E-04 
1702	 6.70994338987827E-04 
1703	 4.58254540693294E-04 
1704	 4.61575972240355E-04 
1705	 5.91834751243341E-04 
1706	 6.33572713412004E-04 
1707	 5.24820823495026E-04 
1708	 2.62160821828296E-04 
1709	 3.58184644711732E-04 
1710	 4.14706989965199E-04 
1711	 3.42373111966359E-04 
1712	 7.64823417283826E-04 
1713	 7.90502464693224E-04 
1714	 7.99593255360249E-04 
1715	 8.01626246112759E-04 
1716	 7.69862863033451E-04 
1717	 1.09677726004594E-03 
1718	 1.21834625628812E-03 
1719	 4.97915774593196E-04 
1720	 7.63513139561529E-05 
1721	 2.72713808282746E-04 
1722	 5.42118298251431E-04 
1723	 7.67486826007007E-04 
1724	 7.70878481653242E-04 
1725	 6.43148856750842E-04 
1726	 7.16420140866419E-04 
1727	 1.12559286480339E-03 
1728	 1.28445716492734E-03 
1729	 1.1159532876461E-03 
1730	 7.10212207297024E-04 
1731	 1.41080786940921E-04 
1732	-1.10765581109304E-05 
1733	-8.66895477472753E-05 
1734	 1.22559326838615E-04 
1735	 6.669033460875E-04 
1736	 7.74860343067684E-04 
1737	 5.19287975431272E-04 
1738	 1.17290450548965E-04 
1739	 1.62529537960754E-05 
1740	 1.44995463835416E-04 
1741	 1.72995203915084E-04 
1742	 4.18331859671026E-04 
1743	 3.19385685999364E-04 
1744	-4.49994068818382E-05 
1745	 3.01125498194928E-04 
1746	-2.94057367184968E-04 
1747	-3.98596706811757E-04 
1748	 9.29231286437776E-07 
1749	 1.65549621290183E-04 
1750	 8.54377346109105E-04 
1751	 1.02554507989784E-03 
1752	 4.65322316924002E-04 
1753	 4.83918250303437E-04 
1754	 5.26379391783361E-04 
1755	 3.21742770980502E-04 
1756	 2.87316476663992E-04 
1757	 4.32375273204345E-04 
1758	 5.64406578417803E-04 
1759	 9.05839382417931E-04 
1760	 1.18779783621118E-03 
1761	 9.5821941017644E-04 
1762	 1.02987115339974E-03 
1763	 1.32223125465687E-03 
1764	 1.2154808054041E-03 
1765	 1.31516397587622E-03 
1766	 1.28180945833076E-03 
1767	 1.01875487565728E-03 
1768	 1.35729778331565E-03 
1769	 1.29268080219421E-03 
1770	 9.14257422596681E-04 
1771	 9.58057098203828E-04 
1772	 7.80538215201413E-04 
1773	 9.9230631436453E-04 
1774	 1.16268092004301E-03 
1775	 1.03690057592814E-03 
1776	 1.15336234315742E-03 
1777	 1.06229658495274E-03 
1778	 9.78272284316848E-04 
1779	 1.2289130095716E-03 
1780	 1.27104446360174E-03 
1781	 1.21292075666297E-03 
1782	 9.4529321084766E-04 
1783	 1.98014271755844E-04 
1784	 1.75748405095899E-04 
1785	 3.33132788285986E-04 
1786	 5.84007143220739E-04 
1787	 1.81059186220963E-03 
1788	 2.02402326650092E-03 
1789	 1.51662826380696E-03 
1790	 8.64214737582689E-04 
1791	 2.01006922003261E-04 
1792	-8.45543481772873E-04 
1793	-2.21904308116143E-03 
1794	-1.35963736639423E-03 
1795	-4.87166736976527E-06 
1796	 6.84495167214491E-04 
1797	 2.42767169385399E-03 
1798	 2.22962822288934E-03 
1799	 6.29189444903506E-04 
1800	 5.20300426219045E-04 
1801	 4.86044577765565E-04 
1802	 1.69701774869668E-04 
1803	 3.08943471528747E-04 
1804	 4.20060426544139E-03 
1805	 2.89681209643516E-03 
1806	-4.51781478256027E-03 
1807	-8.15525447327587E-03 
1808	-2.01832948637509E-02 
1809	-2.13345093184734E-02 
1810	-3.32436354819067E-03 
1811	 2.92159614634766E-03 
1812	 1.45779114122566E-02 
1813	 1.70118326507572E-02 
1814	 1.6234446635653E-03 
1815	-8.11355898587267E-03 
1816	-0.026163987431852 
1817	-3.36953917438765E-02 
1818	-5.96364696024414E-02 
1819	-6.23005976069075E-02 
1820	-3.93465452818523E-02 
1821	-1.12151275167992E-02 
1822	 3.80106601543129E-03 
1823	-4.98450098366904E-03 
1824	-0.026753416651861 
1825	-0.114569586892621 
1826	-0.151820943685417 
1827	-0.18517170056088 
1828	-0.196418618505106 
1829	-6.24267905141688E-03 
1830	-4.59186637121555E-03 
1831	 8.03550025707737E-02 
1832	 0.157951474584979 
1833	 0.150570180776672 
1834	 0.260661739201449 
1835	 0.839951331771719 
1836	 1.34368468876804 
1837	 0.997661459089486 
1838	 1.25679172295827 
1839	 0.956484808420658 
1840	 0.617617487229586 
1841	 1.8186796085586 
1842	 2.8364634286908 
1843	 3.29334398663749 
1844	 0.97957859853585 
1845	 0.188092775067136 
1846	-5.72115130884798 
1847	-69.6186967780822 
1848	 5.15545580072383 
1849	 3.49581274434757 
1850	 1.11891834285168 
1851	 1.70236075430741 
1852	 1.59649648289901 
1853	 0.872765727547161 
1854	 0.645256558420246 
1855	-0.959923139529193 
1856	-3.17981248918975 
1857	-1.56863595539255 
1858	-1.59104451797361 
1859	-0.970220215689334 
1860	 4.03382427987674 
1861	 2.11859921951612 
1862	 9.86799308429388E-02 
1863	 0.439582818659955 
1864	 0.634674097219489 
1865	 0.423592586222251 
1866	-16.2597548138902 
1867	 2.58392509545478 
1868	 0.689603248714934 
1869	 0.581798901470032 
1870	 2.95375834659746E-02 
1871	-1.4040463453928 
1872	-9.00311922181099E-04 
1873	-0.154918185970931 
1874	-0.296123720216616 
1875	-1.92867149856223 
1876	 3.37711942328991 
1877	 2.14397178726606E-02 
1878	-3.20629980269109E-02 
1879	 0.398667884252465 
1880	 0.306336315712303 
1881	-0.178689494684881 
1882	-0.313074179982182 
1883	-8.92768147147571E-02 
1884	-9.74701534750348E-02 
1885	 0.173985288767697 
1886	 0.812410897705647 
1887	 0.850219825295708 
1888	 0.270466289525965 
1889	 0.173815991689283 
1890	 0.118486655334577 
1891	 0.151731419909368 
1892	 0.271800488094647 
1893	 0.29390908665201 
1894	 0.363704474168027 
1895	 0.312224427968882 
1896	 4.52633187473125E-02 
1897	-0.258606220036832 
1898	-0.269081604558466 
1899	 0.493607255262425 
1900	 5.28940127675452 
1901	 1.01874973438332 
1902	 1.49715184626134 
1903	 2.50634242435313 
1904	 1.70837378740394 
1905	 1.28493227901229 
1906	 1.5986995553956 
1907	 2.24533639460418 
1908	 0.970183760431475 
1909	 0.640028304521918 
1910	 0.80926385613353 
1911	 1.55610303273718 
1912	 7.0836268603361 
1913	 7.01055400983235 
1914	 3.35800542913682 
1915	 1.88269326264859 
1916	 0.779626198007216 
1917	 0.335340562289368 
1918	 0.156063255620012 
1919	 9.03920836158715E-03 
1920	-0.105760548804868 
1921	-0.133398498939162 
1922	-0.122502069577348 
1923	-6.60530345479491E-02 
1924	-5.85193348742445E-02 
1925	-8.57335815388563E-02 
1926	-5.65036168173179E-02 
1927	-1.71793045378181E-02 
1928	-7.98763637007224E-02 
1929	-7.88458440425535E-02 
1930	 1.82992220294193E-02 
1931	 2.95292632079733E-02 
1932	 8.43943474237471E-03 
1933	 2.27732005276725E-02 
1934	 2.75290497543499E-02 
1935	 2.72879545705196E-02 
1936	 4.42927611938457E-02 
1937	 5.19326142736792E-02 
1938	 3.64674689491368E-02 
1939	 3.34527207931969E-02 
1940	 2.94725699440126E-02 
1941	 3.21326460225343E-02 
1942	 0.029418568011045 
1943	 3.15459088362814E-02 
1944	 2.45045958122676E-02 
1945	 3.72100003762477E-03 
1946	-3.79073739267698E-03 
1947	-5.21212477610141E-04 
1948	 3.41250389870544E-03 
1949	 9.82244055303084E-03 
1950	 1.26258669685523E-02 
1951	 1.13302320556479E-02 
1952	 1.04280378420817E-02 
1953	 8.78347049977547E-03 
1954	 7.30284996034342E-03 
1955	 7.04096586278982E-03 
1956	 7.82126521365442E-03 
1957	 3.20853267725994E-03 
1958	 5.33869661228678E-04 
1959	 1.90536926189579E-03 
1960	 4.09463023480516E-06 
1961	 9.24218267522831E-05 
1962	 1.8371097967201E-03 
1963	 8.8953523944493E-04 
1964	 2.72669098859698E-04 
1965	 1.44104459363485E-03 
1966	 1.89935488180669E-03 
1967	 2.87501178168793E-03 
1968	 2.56945471549298E-03 
1969	 1.88281731419679E-03 
1970	 1.49843950364676E-03 
1971	 7.50656531145343E-04 
1972	 7.24445034825837E-04 
1973	 1.20914971350644E-03 
1974	 1.11369137062097E-03 
1975	 8.88155275587848E-04 
1976	 9.41531177289214E-04 
1977	 1.21590275404859E-03 
1978	 1.60064947885544E-03 
1979	 1.47374254618605E-03 
1980	 1.10522137952864E-03 
1981	 8.38678497166659E-04 
1982	 8.79262524133391E-04 
1983	 2.85618189168344E-04 
1984	-4.13167329278839E-04 
1985	-6.94810671322287E-04 
1986	-3.05279482120773E-04 
1987	 1.88701035381347E-04 
1988	 1.27799335773094E-03 
1989	 2.77211518527651E-03 
1990	 2.41046334293101E-03 
1991	 1.39336824503654E-03 
1992	 5.43667442567908E-04 
1993	-1.19651441483575E-04 
1994	-3.04843586640796E-04 
1995	 1.12605628980593E-04 
1996	 8.84336273262563E-04 
1997	 2.08939614202771E-03 
1998	 2.80023777214175E-03 
1999	 3.42925998135512E-03 
2000	 4.11269440260989E-03 
2001	 3.77357723638749E-03 
2002	 3.4257886608535E-03 
2003	 2.04170036670572E-03 
2004	 2.4400905695639E-04 
2005	-7.1976586375326E-05 
2006	-8.28815355852945E-04 
2007	-2.37366185761417E-03 
2008	-4.2262156013402E-03 
2009	-4.97441206213155E-03 
2010	-6.73982758233999E-03 
2011	-5.6718205744861E-03 
2012	-2.01577091693708E-03 
2013	 4.4805911178122E-04 
2014	 2.16814753835766E-03 
2015	 4.65293974293216E-03 
2016	 4.22596145239638E-03 
2017	 4.82646933173516E-03 
2018	 5.35783290210305E-03 
2019	 3.55343008038139E-03 
2020	 3.18451095594384E-03 
2021	 3.50666087010585E-03 
2022	 3.07882570072068E-03 
2023	 3.13454848313469E-03 
2024	 2.86083039234986E-03 
2025	 1.57814831496008E-03 
2026	 9.62637932566189E-04 
2027	 5.23681018629474E-04 
2028	 7.87556079670891E-04 
2029	 9.26026549609228E-04 
2030	 1.24845447763773E-03 
2031	 1.10030678215639E-03 
2032	 9.71996786828497E-04 
2033	 1.21186200571147E-03 
2034	 1.67411432061834E-03 
2035	 1.73009400795357E-03 
2036	 1.75571243414515E-03 
2037	 2.14009477315835E-03 
2038	 1.91439556877735E-03 
2039	 1.75121552321619E-03 
2040	 2.03834920842937E-03 
2041	 2.00281484471395E-03 
2042	 1.24687873777966E-03 
2043	 1.25454932711329E-03 
2044	 1.83580432496163E-03 
2045	 2.37099937572048E-03 
2046	 2.19868970695837E-03 
2047	 1.82973980442053E-03 
2048	 1.91037290007201E-03 
2049	 2.44633741901845E-03 
2050	 2.95638864246391E-03 
2051	 2.77991150565693E-03 
2052	 1.96470438203444E-03 
2053	 1.58445309125878E-03 
2054	 2.32717866425343E-03 
2055	 2.01928613558831E-03 
2056	 1.82772310776077E-03 
2057	 1.27798282680462E-03 
2058	 1.74733718288082E-03 
2059	 3.33345287829922E-03 
2060	 3.40657809532917E-03 
2061	 3.65597612219733E-03 
2062	 2.78820957627502E-03 
2063	 0.001130272017531 
2064	 8.42225058739531E-05 
2065	 1.16825829311484E-03 
2066	 1.65198296650808E-03 
2067	 1.45834231225082E-03 
2068	 1.84060210261369E-03 
2069	 1.9225593380869E-03 
2070	 1.89663539059329E-03 
2071	 2.21602321943168E-03 
2072	 2.15975775909676E-03 
2073	 2.43133939052916E-03 
2074	 3.35519635776996E-03 
2075	 3.42470135891434E-03 
2076	 2.97539811079201E-03 
2077	 2.79155644170523E-03 
2078	 2.33528926891315E-03 
2079	 2.06326216610691E-03 
2080	 1.88782145715181E-03 
2081	 1.90321583962103E-03 
2082	 2.40356843240898E-03 
2083	 2.18991073184344E-03 
2084	 1.71393308748669E-03 
2085	 1.85236454170057E-03 
2086	 1.87678754049247E-03 
2087	 2.07298182099008E-03 
2088	 1.8537223778895E-03 
2089	 2.12850735705483E-03 
2090	 2.17585661620412E-03 
2091	 9.7518626888698E-04 
2092	 8.96880967182218E-04 
2093	 1.60524791873165E-03 
2094	 1.53508582615603E-03 
2095	 1.84392467416355E-03 
2096	 1.89036037521474E-03 
2097	 1.08911038512978E-03 
2098	 9.38013687660934E-04 
2099	 1.17146816410731E-03 
2100	 1.03657819076238E-03 
2101	 1.4228319651828E-03 
2102	 1.17671900670267E-03 
2103	 7.04870242825049E-04 
2104	 1.00956237620721E-03 
2105	 8.71024435140838E-04 
2106	 9.23497848855011E-04 
2107	 1.74614824604583E-03 
2108	 1.92399807518268E-03 
2109	 1.9506329855237E-03 
2110	 2.73569477198373E-03 
2111	 2.6304706465637E-03 
2112	 1.92115247291939E-03 
2113	 1.73164062836487E-03 
2114	 1.31667746470097E-03 
2115	 1.23572747621968E-03 
2116	 2.02190356678215E-03 
2117	 1.87312958380797E-03 
2118	 8.07065113081652E-04 
2119	 4.74799725422743E-04 
2120	-2.86432444691681E-07 
2121	 1.52252844638573E-04 
2122	 4.68011238111092E-04 
2123	 1.27437524868629E-03 
2124	 2.0050879557341E-03 
2125	 1.62808396918937E-03 
2126	 1.42075435239341E-03 
2127	 1.78094331217181E-03 
2128	 1.96489573299885E-03 
2129	 2.39525433029515E-03 
2130	 2.58612454263758E-03 
2131	 2.23954995833541E-03 
2132	 1.54166460806854E-03 
2133	 1.07878127549249E-03 
2134	 1.16216474873494E-03 
2135	 2.13119881508472E-03 
2136	 2.17959133145808E-03 
2137	 1.8191828291747E-03 
2138	 2.34933530696224E-03 
2139	 3.40965453586354E-03 
2140	 3.59653984591116E-03 
2141	 4.05099536011253E-03 
2142	 3.86178790542316E-03 
2143	 2.58976379372979E-03 
2144	 1.35644421871539E-03 
2145	 6.51352424153418E-04 
2146	 7.04388675365068E-04 
2147	 9.0877505287472E-04 
2148	 1.00454289818442E-03 
2149	 9.64015626034873E-04 
2150	 1.70833081912569E-03 
2151	 2.36822654038309E-03 
2152	 2.19399686701556E-03 
2153	 2.07618047246699E-03 
2154	 1.88846927850389E-03 
2155	 1.23698330847236E-03 
2156	 9.7346785833965E-04 
2157	 8.85905949346339E-04 
2158	 1.28023796167489E-03 
2159	 8.4227189049296E-04 
2160	-4.24470694374415E-04 
2161	-2.01475424822622E-05 
2162	 1.46233775312026E-03 
2163	 1.58226722713577E-03 
2164	 2.14104970856889E-03 
2165	 2.25691301429188E-03 
2166	 5.67313749537352E-04 
2167	 1.23608865647548E-04 
2168	 1.02940423513281E-03 
2169	 1.31011107849352E-03 
2170	 1.32009429529136E-03 
2171	 1.0923406345708E-03 
2172	 1.88325404339346E-03 
2173	 2.09122598552471E-03 
2174	 2.12708735027998E-03 
2175	 2.61730023239793E-03 
2176	 1.88571722881397E-03 
2177	 1.67652367323856E-03 
2178	 1.44364346138608E-03 
2179	-5.50078260829301E-04 
2180	-1.24536825864531E-03 
2181	-5.79243199608476E-04 
2182	-6.61185635760651E-05 
2183	 1.48570635287198E-03 
2184	 3.09897477407945E-03 
2185	 3.14683378512193E-03 
2186	 2.87773998630374E-03 
2187	 1.96421347884087E-03 
2188	 1.55741085946711E-03 
2189	 1.8709755295239E-04 
2190	-3.35238492307687E-04 
2191	-2.95052802975781E-04 
2192	-5.41201017769058E-06 
2193	 1.66763259139173E-03 
2194	 1.58791285141305E-03 
2195	 2.49496117587083E-04 
2196	-2.5716444359057E-04 
2197	-1.57294096702664E-03 
2198	-2.02103418045779E-03 
2199	-1.22764724445257E-03 
2200	-6.25416839045782E-04 
2201	-4.67324074813481E-04 
2202	-1.44134195935604E-03 
2203	-7.78260847586936E-04 
2204	 2.09689841810907E-03 
2205	 2.50647843024193E-03 
2206	 9.71172124489404E-04 
2207	 2.57469441659381E-04 
2208	-5.95248057438425E-04 
2209	 1.07849411539389E-04 
2210	 2.33973902391409E-03 
2211	 2.19015663766683E-03 
2212	 9.23171850113245E-05 
2213	-8.91963390152226E-04 
2214	-7.76089963249572E-04 
2215	 3.67884177743301E-05 
2216	 1.38181880932873E-03 
2217	 1.77345094739045E-03 
2218	 1.92913553571793E-03 
2219	 1.44017303161434E-03 
2220	-2.70062789971845E-04 
2221	-2.00682956844442E-04 
2222	-1.22161654143836E-04 
2223	 1.77117979727613E-04 
2224	 2.12288977269595E-03 
2225	 2.57868676200596E-03 
2226	 2.83628023971291E-03 
2227	 3.66851483260261E-03 
2228	 3.2332040407971E-03 
2229	 3.26995390596852E-03 
2230	 4.93185065269495E-03 
2231	 4.35140987785769E-03 
2232	 1.98649901098581E-03 
2233	 2.0993165989996E-03 
2234	 3.54114512048456E-03 
2235	 1.25133346715436E-03 
2236	 1.1180354676121E-03 
2237	 1.50718334217798E-03 
2238	-3.6988558237417E-04 
2239	-2.92966151111481E-05 
2240	 1.88528149964464E-03 
2241	 3.00654772589427E-03 
2242	 4.81808914407007E-03 
2243	 5.36336824654423E-03 
2244	 3.6530312281256E-03 
2245	 3.1777231545118E-03 
2246	 3.22870093695435E-03 
2247	 3.3341218394233E-03 
2248	 4.42333908921041E-03 
2249	 4.52625035434337E-03 
2250	 4.10289452591542E-03 
2251	 4.13945447923797E-03 
2252	 2.55646397012249E-03 
2253	 2.14160762670788E-03 
2254	 2.4265746185449E-03 
2255	-6.85528237838977E-04 
2256	-3.33115076542909E-03 
2257	-3.88759640882478E-03 
2258	-2.31317913503066E-03 
2259	-4.63871656986735E-04 
2260	-7.29820066715942E-04 
2261	-7.87482781626535E-04 
2262	-3.99345724459886E-04 
2263	-3.06834797620942E-03 
2264	-2.95394886396873E-03 
2265	 9.50458371794092E-04 
2266	 9.11193043173134E-04 
2267	-1.32411717870051E-03 
2268	-9.46690123738209E-04 
2269	 9.7242160633152E-05 
2270	 4.20155496190436E-04 
2271	 1.75970339567539E-03 
2272	 1.70760942461746E-03 
2273	-1.57398243353475E-03 
2274	-2.1358608588106E-03 
2275	-4.29866645077413E-04 
2276	 4.88404954541966E-04 
2277	 2.59646758945886E-03 
2278	 3.10108928790906E-03 
2279	 2.06003192837197E-03 
2280	 1.76986283974561E-03 
2281	 2.68765591306882E-04 
2282	 9.33891345739598E-04 
2283	 2.57161269907272E-03 
2284	 3.4033794087458E-03 
2285	 1.11893248406109E-03 
2286	-1.99892079673374E-04 
2287	 1.52086241689247E-03 
2288	 1.79712978049625E-03 
2289	 2.20455315105585E-03 
2290	 2.98663202022612E-03 
2291	 2.16575546307457E-03 
2292	 8.02389800052331E-04 
2293	 2.01837716995405E-03 
2294	 5.75803952211534E-03 
2295	 5.66272105748974E-03 
2296	 3.38835963300609E-03 
2297	 2.18563380897132E-03 
2298	-9.64982300389789E-04 
2299	-1.04567091927447E-05 
2300	 2.53464238341916E-03 
2301	 1.30437840603624E-03 
2302	 2.43117482314248E-03 
2303	 3.61396835618118E-03 
2304	 4.78567129692231E-03 
2305	 8.55131529271985E-03 
2306	 8.6294263055862E-03 
2307	 5.51609768053688E-03 
2308	 3.8026381459961E-03 
2309	 1.62538433254368E-03 
2310	 2.73947014621317E-03 
2311	 6.15672824283435E-03 
2312	 5.5343125365384E-03 
2313	 5.76147926705327E-03 
2314	 5.94823035715094E-03 
2315	 4.11738448587385E-03 
2316	 5.59574759870598E-03 
2317	 8.40641912072771E-03 
2318	 7.50506970013591E-03 
2319	 4.30594521613442E-03 
2320	 2.85463627720493E-03 
2321	-7.24308355850421E-04 
2322	-3.15177794533183E-03 
2323	 2.7044762388333E-03 
2324	 5.5977912613251E-03 
2325	 1.69058570750744E-03 
2326	-5.33438221978873E-04 
2327	-1.61305285203211E-03 
2328	-4.70612955179916E-03 
2329	-3.83889437550137E-03 
2330	-2.16276678122997E-03 
2331	-7.36669294198979E-03 
2332	-8.75457738325446E-03 
2333	-5.34675642356121E-03 
2334	-3.16494093130568E-03 
2335	 9.28157886350193E-04 
2336	 4.01685863252415E-03 
2337	 6.41642016665421E-03 
2338	 9.49190682153638E-03 
2339	 7.47117634571696E-03 
2340	 2.93289788165578E-03 
2341	 6.92904465101266E-04 
2342	-2.46548015579705E-03 
2343	-3.1053847252028E-03 
2344	 2.14570906870007E-03 
2345	 1.18770289733616E-03 
2346	-3.62313124870847E-03 
2347	 2.10161108240843E-03 
2348	 8.52608687867822E-03 
2349	 1.14015953286911E-02 
2350	 1.82825469881852E-02 
2351	 2.01545387250234E-02 
2352	 1.65197116972187E-02 
2353	 1.14865293166532E-02 
2354	 4.27382633279991E-03 
2355	-5.64866590945409E-03 
2356	-1.18321576358767E-02 
2357	-1.64398072517799E-03 
2358	 7.49473157938003E-03 
2359	 8.58538855936403E-03 
2360	 1.20005521275694E-02 
2361	 1.60452844134764E-02 
2362	 1.21592742563942E-02 
2363	 3.84548086365351E-03 
2364	 6.79152579153697E-03 
2365	-2.41646333750824E-03 
2366	-0.01619894880129 
2367	-7.98770779955048E-03 
2368	-1.17278609436886E-02 
2369	-2.27805188455755E-02 
2370	-1.49247074262654E-02 
2371	-6.70920172504452E-03 
2372	-3.75920362801754E-03 
2373	 7.20960734347479E-03 
2374	 1.64118885644708E-02 
2375	 1.06747784233778E-02 
2376	-1.08605611670065E-03 
2377	-9.54850309865324E-03 
2378	-1.56858556306643E-02 
2379	-1.40968865501449E-02 
2380	-5.22829916673184E-03 
2381	-1.04715167633118E-02 
2382	-2.03908131426951E-02 
2383	-1.72887708468699E-02 
2384	-6.5804585395798E-03 
2385	-1.61589398113592E-03 
2386	-6.99762994525363E-03 
2387	-5.17438726156172E-03 
2388	-1.61918948642763E-02 
2389	-3.59936516317221E-02 
2390	-6.67010964338569E-03 
2391	 8.93001466171868E-03 
2392	-1.62479927682153E-02 
2393	 2.99030966095413E-03 
2394	 8.78212208808733E-03 
2395	-8.90255035808632E-03 
2396	 1.38647350041962E-02 
2397	 2.38189953569374E-02 
2398	 1.60133084496729E-02 
2399	 1.62832302867872E-02 
2400	 0.017890728854524 
2401	 1.86941746888947E-02 
2402	 2.13521625959207E-02 
2403	 1.84027026891501E-02 
2404	 5.2654115332344E-03 
2405	 3.98568622826435E-03 
2406	 8.56404610266182E-03 
2407	 1.74098325345675E-02 
2408	 0.02040508855292 
2409	 2.09980665273528E-02 
2410	 0.047832134423705 
2411	 4.14758758412691E-02 
2412	 1.75598407443115E-02 
2413	 2.49829014523094E-02 
2414	 1.27515356893147E-02 
2415	 7.57499562280131E-03 
2416	 1.55327225795141E-02 
2417	 7.31946736845803E-03 
2418	-3.04087553839711E-02 
2419	-7.57382947524924E-02 
2420	-5.02806973744908E-02 
2421	-4.53309169041789E-02 
2422	-7.19949008638622E-02 
2423	-6.22063038697735E-02 
2424	-2.39540339913466E-02 
2425	 3.61415607625331E-02 
2426	 4.39292240880018E-02 
2427	 2.38514764603284E-02 
2428	-7.28104423204001E-03 
2429	-8.61600218797123E-02 
2430	-8.51264017957557E-02 
2431	-3.73650820191499E-02 
2432	-4.09061286697939E-02 
2433	-4.27122570549934E-02 
2434	-4.81069503397637E-02 
2435	-5.95990776797938E-02 
2436	 0.017823641684865 
2437	 8.73551110358211E-02 
2438	 7.21710764777706E-02 
2439	 7.29404076733524E-02 
2440	 8.74544900304721E-03 
2441	-8.07567541599584E-02 
2442	-2.72593340175334E-02 
2443	 6.24864701308591E-02 
2444	 9.88883242316521E-02 
2445	 0.158942809861063 
2446	 0.168156188352067 
2447	-2.91567607813026E-02 
2448	-5.33082754298694E-02 
2449	 3.78490376770505E-02 
2450	 4.64923866362089E-03 
2451	-5.25860052970021E-03 
2452	-5.17234564523464E-02 
2453	-0.12405727915236 
2454	-0.161345926955291 
2455	-0.111168288324023 
2456	-8.76736522510268E-02 
2457	-9.37255638923523E-02 
2458	 3.97685317731954E-02 
2459	 0.140419428895417 
2460	 9.88262958952609E-02 
2461	 0.118894805823024 
2462	 0.137425266240131 
2463	 6.54900625799364E-02 
2464	 5.98268284687081E-02 
2465	 0.103238830455291 
2466	 1.58024391817312E-02 
2467	-0.236672298906345 
2468	-0.496857322819811 
2469	-0.397112755158695 
2470	-0.37936302838682 
2471	-0.351824060212403 
2472	-0.340237381724809 
2473	-0.558467416996621 
2474	-0.70845408242386 
2475	-0.772094734058482 
2476	-0.823804217663963 
2477	-0.422259616388242 
2478	-0.321432764796849 
2479	-0.266449558816082 
2480	-0.28554269022299 
2481	-0.207538806948889 
2482	 0.652378984042433 
2483	 3.13563667482667 
2484	 12.7573749706161 
2485	 7.87842520348144 
2486	 2.01919064293227 
2487	 2.7074856767015 
2488	 2.89576677852007 
2489	 3.99493581208691 
2490	-6.44484076940936 
2491	-4.38578559803893 
2492	 1.47671512511537 
2493	-1.97876857615084 
2494	-0.177267976051107 
2495	 2.03553031276237 
2496	-38.3971917042351 
2497	-6.02137031699478 
2498	 0.272176349967649 
2499	-0.743753999669431 
2500	-0.843684368025618 
