Wavelength	rt0624far00004.asd
350	 1.12391322470497E-02 
351	 1.18438706288436E-02 
352	 1.26268823740777E-02 
353	 1.27118068301586E-02 
354	 0.012069887342739 
355	 0.012203242309737 
356	 1.29931189854347E-02 
357	 1.30847809043504E-02 
358	 1.18215222560736E-02 
359	 1.31368424722434E-02 
360	 1.37792601674527E-02 
361	 1.33261600511358E-02 
362	 1.33843034972524E-02 
363	 1.38217420312375E-02 
364	 1.38866143994727E-02 
365	 1.35320701595526E-02 
366	 1.38753637737968E-02 
367	 1.40548211229942E-02 
368	 1.42181336761248E-02 
369	 1.45765119582455E-02 
370	 1.46267470051887E-02 
371	 1.47005494805092E-02 
372	 1.48757337460501E-02 
373	 1.50843756731816E-02 
374	 1.54588731111584E-02 
375	 1.56468556790451E-02 
376	 1.55483673823735E-02 
377	 1.54693119070379E-02 
378	 1.58688070655491E-02 
379	 1.62193568754151E-02 
380	 0.01618405738397 
381	 0.016833160490476 
382	 1.70401156403286E-02 
383	 1.69478786394268E-02 
384	 1.72868699623796E-02 
385	 1.81730804542507E-02 
386	 1.86062011200405E-02 
387	 0.018405437590383 
388	 1.83828480652774E-02 
389	 1.87235925688138E-02 
390	 1.89941426438308E-02 
391	 1.89526208102012E-02 
392	 1.91060047753114E-02 
393	 1.94396595203191E-02 
394	 1.97884107368966E-02 
395	 1.99959495894424E-02 
396	 2.02846379750711E-02 
397	 2.05639077813605E-02 
398	 2.09137370531354E-02 
399	 2.15243879136514E-02 
400	 2.13333399455082E-02 
401	 0.021261907038039 
402	 2.18152204843151E-02 
403	 0.021922343207753 
404	 2.21324471692036E-02 
405	 2.23307287887276E-02 
406	 2.22902464598022E-02 
407	 2.25221032212591E-02 
408	 2.29038802638533E-02 
409	 2.32416970242495E-02 
410	 2.33425368094831E-02 
411	 0.023550557150205 
412	 2.38739212142696E-02 
413	 2.42183763815781E-02 
414	 2.44103335386492E-02 
415	 2.45683276201652E-02 
416	 2.47304113879018E-02 
417	 2.49096412419101E-02 
418	 2.51587067033855E-02 
419	 2.54564562793401E-02 
420	 2.57835893990175E-02 
421	 2.61278297783186E-02 
422	 2.63371293040968E-02 
423	 2.65788489772806E-02 
424	 2.69666697445329E-02 
425	 2.72765354592935E-02 
426	 0.027624469688913 
427	 2.79864200242155E-02 
428	 2.82907994335654E-02 
429	 2.86280921121929E-02 
430	 2.90011147547801E-02 
431	 2.94030071762417E-02 
432	 2.98280291479845E-02 
433	 3.00275716627674E-02 
434	 3.02686647508379E-02 
435	 3.07662842230113E-02 
436	 0.031267269814989 
437	 3.16343476697619E-02 
438	 3.19640456368675E-02 
439	 3.24496937028296E-02 
440	 0.032897451917706 
441	 3.32448090017409E-02 
442	 3.35568565271392E-02 
443	 3.40637416406416E-02 
444	 3.44725105343506E-02 
445	 3.48345788115533E-02 
446	 3.52409443503566E-02 
447	 3.55440491033491E-02 
448	 3.58759448242724E-02 
449	 3.62436441661294E-02 
450	 3.65611469380141E-02 
451	 3.68325235640206E-02 
452	 3.71185261966155E-02 
453	 3.74244055268769E-02 
454	 3.76172143083166E-02 
455	 3.78538625453219E-02 
456	 3.81517208395641E-02 
457	 3.84476914631613E-02 
458	 3.85580628017743E-02 
459	 3.86973972695984E-02 
460	 3.89150494764067E-02 
461	 3.90804635722759E-02 
462	 3.93703214510073E-02 
463	 3.96070668380938E-02 
464	 3.96766969334985E-02 
465	 0.039808675213933 
466	 0.040082272071405 
467	 0.040314710511415 
468	 4.02912354348769E-02 
469	 4.06445510013995E-02 
470	 4.09717553040403E-02 
471	 4.11142750631773E-02 
472	 4.13631897411083E-02 
473	 4.15699958032012E-02 
474	 4.17643521561942E-02 
475	 4.20031062084264E-02 
476	 4.22826780372209E-02 
477	 4.25694329556223E-02 
478	 4.28058791762438E-02 
479	 4.29517105358699E-02 
480	 4.33033397105664E-02 
481	 4.37683582017233E-02 
482	 4.41761803647642E-02 
483	 4.42836303841462E-02 
484	 4.45810646226742E-02 
485	 4.50495469390862E-02 
486	 4.54899840341686E-02 
487	 4.59160612694153E-02 
488	 4.62435491513048E-02 
489	 4.65229222384283E-02 
490	 4.69288704758029E-02 
491	 4.74257638815941E-02 
492	 4.79483094870838E-02 
493	 0.048449433545475 
494	 4.89643866499507E-02 
495	 4.94501152030549E-02 
496	 4.99268403533317E-02 
497	 5.04439672429126E-02 
498	 5.09804180004807E-02 
499	 5.15526964503197E-02 
500	 5.21534857076212E-02 
501	 5.27365075882884E-02 
502	 5.32951190875689E-02 
503	 5.38887098440706E-02 
504	 5.45569390633268E-02 
505	 5.51841970519366E-02 
506	 5.57551784446998E-02 
507	 5.63374112672559E-02 
508	 5.70429764835482E-02 
509	 5.76502036318287E-02 
510	 0.058246313216446 
511	 5.88888666784977E-02 
512	 5.94374286641036E-02 
513	 6.00736623180378E-02 
514	 6.07795275260723E-02 
515	 6.14638519388619E-02 
516	 6.22424950086188E-02 
517	 0.063003149148828 
518	 6.37172716133945E-02 
519	 6.44860153576075E-02 
520	 6.51480686817491E-02 
521	 0.065805960000852 
522	 6.65643510509811E-02 
523	 6.73089151331445E-02 
524	 6.80173873666163E-02 
525	 6.87587791345359E-02 
526	 6.96424684818479E-02 
527	 7.04117768774714E-02 
528	 7.10670307559808E-02 
529	 7.16962215165441E-02 
530	 7.24850188021881E-02 
531	 7.32687359910924E-02 
532	 7.40228331696347E-02 
533	 7.47698934349661E-02 
534	 7.55049008819381E-02 
535	 7.62832562458093E-02 
536	 7.70979813024987E-02 
537	 7.78654846541127E-02 
538	 7.86791999243122E-02 
539	 7.95021482653118E-02 
540	 8.02892163770472E-02 
541	 8.10726418853349E-02 
542	 8.18464063765804E-02 
543	 8.26412454953657E-02 
544	 8.34952865442195E-02 
545	 0.08423035818622 
546	 8.49788969936605E-02 
547	 8.58233830972507E-02 
548	 8.66905139343515E-02 
549	 8.74048507892973E-02 
550	 8.80991359921277E-02 
551	 8.89561104113252E-02 
552	 8.97054862573363E-02 
553	 9.04962871287364E-02 
554	 0.091341032178064 
555	 9.20720653615389E-02 
556	 9.28265897819298E-02 
557	 9.36264976790143E-02 
558	 0.094435302745637 
559	 9.51621029502158E-02 
560	 9.57911391446258E-02 
561	 9.63942406000524E-02 
562	 9.70858179950718E-02 
563	 9.77558008284578E-02 
564	 9.83788691659091E-02 
565	 9.89600538808729E-02 
566	 9.95442427459012E-02 
567	 0.100080566265243 
568	 0.100533430168758 
569	 0.100912287045068 
570	 0.101441758065201 
571	 0.10190112797694 
572	 0.102243479601543 
573	 0.102635539870629 
574	 0.103030997529001 
575	 0.103333395745637 
576	 0.103514467030792 
577	 0.10381921800224 
578	 0.104045578427601 
579	 0.104215513762279 
580	 0.104459249539513 
581	 0.104500436448526 
582	 0.10452243002049 
583	 0.104609985281829 
584	 0.10455928364521 
585	 0.104549190975662 
586	 0.104498230546867 
587	 0.104300850698927 
588	 0.104272408880078 
589	 0.104129490037139 
590	 0.103863849525991 
591	 0.103761646977773 
592	 0.103447173009455 
593	 0.103021647995498 
594	 0.102604032798703 
595	 0.102035570200297 
596	 0.101351849081142 
597	 0.100637732904633 
598	 0.099991363224104 
599	 9.92608048983666E-02 
600	 9.86153287805586E-02 
601	 9.81313501826294E-02 
602	 0.09764413041189 
603	 9.73457340845129E-02 
604	 9.72292916680262E-02 
605	 9.72137065278844E-02 
606	 9.72012517253022E-02 
607	 0.097241555886061 
608	 9.72954926819892E-02 
609	 9.72338757011434E-02 
610	 9.72335045500054E-02 
611	 9.72531558596282E-02 
612	 9.72449235927609E-02 
613	 0.097294220477857 
614	 9.72568451094327E-02 
615	 9.71715384817019E-02 
616	 9.71755376470768E-02 
617	 9.72559523033558E-02 
618	 9.72973606710432E-02 
619	 9.72376908813942E-02 
620	 9.71042315099908E-02 
621	 9.71062308852956E-02 
622	 9.71627167519069E-02 
623	 9.71220783291662E-02 
624	 9.70115440707267E-02 
625	 9.70166323177545E-02 
626	 9.70799864724214E-02 
627	 9.69324500179534E-02 
628	 9.69113738825871E-02 
629	 9.69038495876469E-02 
630	 9.68005462430569E-02 
631	 9.67252209414407E-02 
632	 9.67412563517927E-02 
633	 9.67523602123617E-02 
634	 0.096610493691801 
635	 9.64517475793345E-02 
636	 9.63382243296045E-02 
637	 9.62431377843063E-02 
638	 9.60218800889426E-02 
639	 9.58741498440911E-02 
640	 9.57239602700324E-02 
641	 9.54759217942532E-02 
642	 9.52915414585074E-02 
643	 9.51369899723133E-02 
644	 9.48998568615262E-02 
645	 9.44406091393168E-02 
646	 9.41485719308555E-02 
647	 9.39170738144766E-02 
648	 9.36533086704703E-02 
649	 9.35460785749452E-02 
650	 9.31819074647612E-02 
651	 9.27029353320825E-02 
652	 9.24209728772429E-02 
653	 0.092147074338611 
654	 9.17213768065386E-02 
655	 9.11441230951292E-02 
656	 0.090708227933087 
657	 9.02167402417701E-02 
658	 8.97282184269341E-02 
659	 0.089309910620977 
660	 8.89506870110899E-02 
661	 8.86002835090155E-02 
662	 8.82126670259415E-02 
663	 8.77849708892881E-02 
664	 8.76532718274712E-02 
665	 8.74694972236003E-02 
666	 8.70805622477683E-02 
667	 8.68347409680375E-02 
668	 8.67063720904908E-02 
669	 8.65885251697449E-02 
670	 8.63810661116401E-02 
671	 0.086202239830929 
672	 8.61369622389697E-02 
673	 8.61054373708983E-02 
674	 8.58990429086549E-02 
675	 8.58345314704287E-02 
676	 8.58697899332169E-02 
677	 8.59233556901528E-02 
678	 0.085990309353269 
679	 8.61637090728926E-02 
680	 0.086418583937267 
681	 0.086701691122056 
682	 8.71903497579541E-02 
683	 0.087737209784044 
684	 8.82079042792049E-02 
685	 8.85526564969123E-02 
686	 8.90928164041607E-02 
687	 8.96954153761015E-02 
688	 9.00734481221773E-02 
689	 9.01099566709381E-02 
690	 9.02403579787127E-02 
691	 9.03692392561326E-02 
692	 9.01450882580977E-02 
693	 9.00189076871941E-02 
694	 8.98590187098075E-02 
695	 8.95233829423401E-02 
696	 8.89486689927345E-02 
697	 8.84344051305188E-02 
698	 8.78534576870585E-02 
699	 8.70420208397677E-02 
700	 8.62711119881618E-02 
701	 0.085453680366268 
702	 8.46095832758917E-02 
703	 8.38170935672007E-02 
704	 8.27933694696135E-02 
705	 8.17029489989015E-02 
706	 8.06401969151909E-02 
707	 7.93445376156879E-02 
708	 7.79537273406523E-02 
709	 7.65092796579133E-02 
710	 7.50055921037156E-02 
711	 7.34436362737154E-02 
712	 7.16065134243946E-02 
713	 6.95948194597347E-02 
714	 0.06779147367784 
715	 6.58908705252759E-02 
716	 6.38573801683275E-02 
717	 6.17638423875917E-02 
718	 5.95642109303485E-02 
719	 0.0574676019362 
720	 5.55551329217045E-02 
721	 5.35905958116057E-02 
722	 5.17301262816336E-02 
723	 4.96286010687398E-02 
724	 0.047371542916101 
725	 4.52503829351782E-02 
726	 4.31530283060767E-02 
727	 4.08157008294346E-02 
728	 3.81499959108825E-02 
729	 0.035508630392592 
730	 3.30159367592864E-02 
731	 3.07442362482753E-02 
732	 2.86880731058132E-02 
733	 2.69501533366943E-02 
734	 2.55128079193482E-02 
735	 2.43081660086968E-02 
736	 2.31949124034297E-02 
737	 2.24918636931985E-02 
738	 2.20063152752673E-02 
739	 2.15352536522114E-02 
740	 0.021246311207013 
741	 2.09615601413986E-02 
742	 2.07412461204485E-02 
743	 2.07309534910724E-02 
744	 2.06964712570691E-02 
745	 2.05776519535823E-02 
746	 2.03981777071514E-02 
747	 2.02635956959709E-02 
748	 0.020238250559447 
749	 2.02487319131485E-02 
750	 0.020218437819702 
751	 2.01953503082032E-02 
752	 2.02102772464803E-02 
753	 2.02123327347716E-02 
754	 2.01335482647712E-02 
755	 2.01707077164902E-02 
756	 0.020152736904043 
757	 0.020001607678695 
758	 1.97696512795381E-02 
759	 1.96879340625054E-02 
760	 1.97868135687075E-02 
761	 1.98355024589826E-02 
762	 1.99762781447518E-02 
763	 0.019855535890477 
764	 0.019814863018223 
765	 2.01833019080155E-02 
766	 0.020456764720336 
767	 2.04660145918111E-02 
768	 2.04001821198599E-02 
769	 2.07566577870943E-02 
770	 2.09604067720554E-02 
771	 2.10843740014552E-02 
772	 2.12607639613982E-02 
773	 2.14051719311522E-02 
774	 2.15853942875282E-02 
775	 2.17819544689668E-02 
776	 2.19559179895779E-02 
777	 2.21851685156414E-02 
778	 2.24214110134139E-02 
779	 2.26783696464925E-02 
780	 2.30314969008066E-02 
781	 2.33213534035252E-02 
782	 2.36040391585985E-02 
783	 2.39467375910405E-02 
784	 0.024364360844268 
785	 2.46462139096988E-02 
786	 0.024919298667637 
787	 2.53660221826707E-02 
788	 2.57695210732871E-02 
789	 2.62555770547128E-02 
790	 2.67736539963139E-02 
791	 2.71399345907152E-02 
792	 2.74027126600784E-02 
793	 2.77860013550625E-02 
794	 0.028318244835281 
795	 2.86761885592311E-02 
796	 2.90823111733813E-02 
797	 2.95205732212295E-02 
798	 0.029934564914927 
799	 3.03498371740882E-02 
800	 3.05973197197522E-02 
801	 3.08007614690483E-02 
802	 3.11919052631563E-02 
803	 3.14735766011974E-02 
804	 3.16177793914005E-02 
805	 3.17322683848648E-02 
806	 3.20236932722148E-02 
807	 3.20919179597837E-02 
808	 3.19630339674585E-02 
809	 3.17689432569482E-02 
810	 3.16720126419677E-02 
811	 3.14938886591391E-02 
812	 3.13051923144584E-02 
813	 3.11795581590073E-02 
814	 3.06425819223032E-02 
815	 3.02415712453727E-02 
816	 2.99915506891455E-02 
817	 0.029478775638296 
818	 2.90159245181178E-02 
819	 2.83093068204719E-02 
820	 2.73127560016631E-02 
821	 2.63944649150907E-02 
822	 2.53795774226438E-02 
823	 2.42216841649359E-02 
824	 0.022971306042 
825	 2.17587814571654E-02 
826	 2.05107292028345E-02 
827	 1.90595573852854E-02 
828	 1.73976518303324E-02 
829	 0.016196859292262 
830	 1.50866905363341E-02 
831	 1.40152584337039E-02 
832	 1.31989183851953E-02 
833	 1.23243618133847E-02 
834	 1.16642987431313E-02 
835	 1.13368926243299E-02 
836	 1.11679736885352E-02 
837	 1.09666444201844E-02 
838	 1.07098110869401E-02 
839	 1.04197712168544E-02 
840	 1.00856540572163E-02 
841	 9.86566100540886E-03 
842	 9.74538473111457E-03 
843	 9.59868221065733E-03 
844	 9.12709664021845E-03 
845	 8.92042832918707E-03 
846	 8.98473957603365E-03 
847	 8.89910847107802E-03 
848	 8.6149434290097E-03 
849	 8.3703875002903E-03 
850	 8.21469932863307E-03 
851	 7.92267952090767E-03 
852	 7.85554941388393E-03 
853	 7.78619879257285E-03 
854	 7.58814252513648E-03 
855	 7.62350708614277E-03 
856	 7.41491298404826E-03 
857	 7.10001622747265E-03 
858	 6.91713675808185E-03 
859	 6.80111930240219E-03 
860	 6.75563886810046E-03 
861	 6.81790675513416E-03 
862	 6.94834969948255E-03 
863	 6.55539146621534E-03 
864	 6.36384186414124E-03 
865	 6.29434662425775E-03 
866	 5.61463699818826E-03 
867	 5.66821175248219E-03 
868	 5.72526268750769E-03 
869	 5.46336036711301E-03 
870	 5.45142273571693E-03 
871	 5.65976339030748E-03 
872	 5.56018547426457E-03 
873	 4.97901719507149E-03 
874	 4.7604080155506E-03 
875	 4.59018411788216E-03 
876	 4.48150086260924E-03 
877	 4.45193900116507E-03 
878	 4.21226822394649E-03 
879	 4.15841635960098E-03 
880	 4.14743290760944E-03 
881	 3.88194076263172E-03 
882	 3.77840879117313E-03 
883	 3.60965672424347E-03 
884	 3.51398307334134E-03 
885	 3.77570182556748E-03 
886	 3.32307158526013E-03 
887	 0.003055965414851 
888	 3.22108170110313E-03 
889	 3.12079945177769E-03 
890	 3.15465010055223E-03 
891	 3.23360832882048E-03 
892	 3.10016120649295E-03 
893	 2.35756152862547E-03 
894	 2.32633728956086E-03 
895	 2.4858875450304E-03 
896	 2.29146826395007E-03 
897	 0.002751085947845 
898	 2.76585686648466E-03 
899	 2.21838202988752E-03 
900	 1.60956358522675E-03 
901	 2.07475173051977E-03 
902	 2.01941552098658E-03 
903	 1.71295274334809E-03 
904	 1.89220382737264E-03 
905	 1.50647026462007E-03 
906	 1.34457458444605E-03 
907	 1.52262827622897E-03 
908	 1.59826240075741E-03 
909	 1.17003172924416E-03 
910	 9.39451715290493E-04 
911	 8.45906737595463E-04 
912	 2.42108932044659E-04 
913	 3.62721568601354E-04 
914	 8.0914370141804E-04 
915	 8.5928158126332E-04 
916	-7.31553272144099E-05 
917	 2.29680479428943E-04 
918	 4.73048050161818E-04 
919	 1.86255868918118E-04 
920	 7.32511925755654E-04 
921	 5.02398183629101E-04 
922	 1.85765740593976E-04 
923	 2.37306847888985E-04 
924	-3.01650589805627E-04 
925	-4.17725493822576E-04 
926	-6.75047989207382E-04 
927	-1.53896869883376E-03 
928	-1.5936897665955E-03 
929	-1.82205450691072E-03 
930	-2.10977588562657E-03 
931	-2.12530994926589E-03 
932	-3.10893574000853E-03 
933	-3.60521215598762E-03 
934	-3.79307167780567E-03 
935	-4.32955280296694E-03 
936	-4.11896449175995E-03 
937	-4.24769449784523E-03 
938	-3.52632994245519E-03 
939	-1.28124941214988E-03 
940	-1.82634744063878E-03 
941	-2.88343982391419E-03 
942	-3.4648560408534E-03 
943	-3.39170769322922E-03 
944	-2.80417710515146E-03 
945	-3.1946846667468E-03 
946	-4.80982967412805E-03 
947	-6.55252912795326E-03 
948	-5.43140172422393E-03 
949	-5.43920546290503E-03 
950	-6.62847821293964E-03 
951	-6.29427471223501E-03 
952	-3.52309357667053E-03 
953	-3.35235903222223E-03 
954	-5.4277303651809E-03 
955	-5.49101748203353E-03 
956	-3.96436267230821E-03 
957	-3.61906608643811E-03 
958	-3.58444743405746E-03 
959	-1.11749057505763E-03 
960	-1.45675920319211E-03 
961	-2.56576560935387E-03 
962	-2.71468292920502E-03 
963	-1.6093677487142E-03 
964	-2.46083568829428E-03 
965	-3.3498091670443E-03 
966	-3.1007889386676E-03 
967	-1.91125800073412E-03 
968	-2.12986681702406E-03 
969	-1.91017584663228E-03 
970	-1.56358223338571E-03 
971	-3.1051662774824E-03 
972	-2.70166863460365E-03 
973	-2.71343186600363E-03 
974	-3.64468083003572E-03 
975	-3.66758777207144E-03 
976	-3.49970996030132E-03 
977	-3.05450908868372E-03 
978	-2.88951407951043E-03 
979	-3.86214982826219E-03 
980	-4.66818736490234E-03 
981	-3.27944919402638E-03 
982	-1.85135322972407E-03 
983	-4.54234437689625E-03 
984	-3.16598824786624E-03 
985	-2.33539542685019E-03 
986	-2.83126645886986E-03 
987	-1.86607654293657E-03 
988	-3.13761356612424E-03 
989	-3.2922166347825E-03 
990	-2.76444126766675E-03 
991	-4.43220125178868E-03 
992	-3.32715335960906E-03 
993	-3.09198852804473E-03 
994	-3.66078667300414E-03 
995	-2.43778598192759E-03 
996	-1.4094218843976E-03 
997	-2.36129496006875E-03 
998	-4.57826901116057E-03 
999	-5.61169305762851E-03 
1000	-3.44123220833346E-03 
1001	 2.20929736782844E-03 
1002	 1.69355127805082E-03 
1003	 1.52136749798549E-03 
1004	 1.41891701455829E-03 
1005	 1.34858993010001E-03 
1006	 1.48200621933819E-03 
1007	 1.49100908061159E-03 
1008	 1.53480291327295E-03 
1009	 1.48890315167148E-03 
1010	 1.16179382171013E-03 
1011	 1.14111295528836E-03 
1012	 1.29837629772234E-03 
1013	 1.31925973133125E-03 
1014	 1.58413299003876E-03 
1015	 2.35302623032482E-03 
1016	 2.64121941311569E-03 
1017	 2.96693867068994E-03 
1018	 2.97180822403539E-03 
1019	 2.54443131364595E-03 
1020	 2.32501888755487E-03 
1021	 2.01576742276345E-03 
1022	 1.45243040450522E-03 
1023	 1.74722314748288E-03 
1024	 2.02541461255521E-03 
1025	 2.15408905001032E-03 
1026	 2.49748507878698E-03 
1027	 2.4701797910306E-03 
1028	 1.95120468205895E-03 
1029	 1.89759142441979E-03 
1030	 1.92489921946075E-03 
1031	 2.02092855314044E-03 
1032	 2.50512845484992E-03 
1033	 2.50193402220717E-03 
1034	 2.23915491214981E-03 
1035	 2.08299036754811E-03 
1036	 1.57021228870252E-03 
1037	 1.41037440997598E-03 
1038	 1.4954625231209E-03 
1039	 1.61037161634948E-03 
1040	 1.80814397424437E-03 
1041	 2.09030989408062E-03 
1042	 2.14309904085034E-03 
1043	 2.08804158540657E-03 
1044	 2.09619281489066E-03 
1045	 1.94597848735322E-03 
1046	 1.92868074150274E-03 
1047	 2.11467873237553E-03 
1048	 2.10990904718965E-03 
1049	 1.99335559296751E-03 
1050	 1.96414164672128E-03 
1051	 1.74352099980314E-03 
1052	 1.79510123376266E-03 
1053	 2.19593876248586E-03 
1054	 2.34041837234117E-03 
1055	 2.53013025660171E-03 
1056	 2.65533199002188E-03 
1057	 2.68991452202142E-03 
1058	 2.49647441460128E-03 
1059	 2.45698786033988E-03 
1060	 2.44629186413562E-03 
1061	 2.45197077433705E-03 
1062	 2.49912363111856E-03 
1063	 2.45736135531643E-03 
1064	 2.39332792430403E-03 
1065	 2.35091782577926E-03 
1066	 2.39144627276418E-03 
1067	 2.17526035661967E-03 
1068	 1.40183792723809E-03 
1069	 1.42417614114524E-03 
1070	 2.03048532329689E-03 
1071	 2.11704452098445E-03 
1072	 2.50744662208429E-03 
1073	 2.76639037380043E-03 
1074	 2.82208233538198E-03 
1075	 2.13183742744087E-03 
1076	 2.11759685139424E-03 
1077	 2.66188396372848E-03 
1078	 2.63723427559272E-03 
1079	 2.3156749267646E-03 
1080	 2.22365323270327E-03 
1081	 1.87456922068584E-03 
1082	 1.86929950237364E-03 
1083	 2.40903633642834E-03 
1084	 2.54897732171932E-03 
1085	 2.61596073609628E-03 
1086	 2.63946872367905E-03 
1087	 2.20879150064753E-03 
1088	 2.11683623788471E-03 
1089	 2.14461098819564E-03 
1090	 2.56463544616535E-03 
1091	 2.55527159786597E-03 
1092	 2.56920909061575E-03 
1093	 2.56100090513583E-03 
1094	 2.19685372818755E-03 
1095	 2.16556790048424E-03 
1096	 2.51096416420413E-03 
1097	 2.57340131996983E-03 
1098	 0.002457019732229 
1099	 2.51493624144101E-03 
1100	 2.73069360117022E-03 
1101	 2.65686967674941E-03 
1102	 2.39355121021645E-03 
1103	 2.39313668304924E-03 
1104	 2.4657454842132E-03 
1105	 2.12496360435697E-03 
1106	 2.39594871188896E-03 
1107	 3.10018064010283E-03 
1108	 2.93153363771034E-03 
1109	 2.6117445191598E-03 
1110	 2.54838566251892E-03 
1111	 2.17116700698695E-03 
1112	 2.03315784676456E-03 
1113	 2.46279032330423E-03 
1114	 2.6280641187539E-03 
1115	 2.50431811631596E-03 
1116	 2.67075651456103E-03 
1117	 3.37621356862404E-03 
1118	 3.41828765117721E-03 
1119	 2.55108196449993E-03 
1120	 2.49059444688715E-03 
1121	 2.48852335728984E-03 
1122	 2.85222788884259E-03 
1123	 2.73247080190189E-03 
1124	 3.26113564238232E-03 
1125	 3.1415235926799E-03 
1126	 2.00167888288606E-03 
1127	 2.40004224079885E-03 
1128	 3.97883495750913E-03 
1129	 4.01633554883739E-03 
1130	 3.28955543645184E-03 
1131	 2.98164880657779E-03 
1132	 2.15133723541795E-03 
1133	 1.73628290014605E-03 
1134	 1.53710576049346E-03 
1135	 2.02760486370313E-03 
1136	 3.23834277060462E-03 
1137	 3.26960279440009E-03 
1138	 3.46466335804923E-03 
1139	 2.85424183062215E-03 
1140	 1.72220025772917E-03 
1141	 1.70349676794642E-03 
1142	 1.7512485893892E-03 
1143	 1.70097205839654E-03 
1144	 2.00935358538087E-03 
1145	 2.15804766476805E-03 
1146	 1.84215225523851E-03 
1147	 2.04048046215876E-03 
1148	 2.79252939293387E-03 
1149	 2.56417207582144E-03 
1150	 2.36405358044549E-03 
1151	 2.41659393692258E-03 
1152	 2.56414992808315E-03 
1153	 2.24831231885181E-03 
1154	 2.16116215774481E-03 
1155	 2.48237479978827E-03 
1156	 2.57922175354805E-03 
1157	 2.13700842479613E-03 
1158	 1.73915766477483E-03 
1159	 0.001739469087962 
1160	 1.96165099615902E-03 
1161	 2.04267946220052E-03 
1162	 2.14803711974422E-03 
1163	 2.21467049321792E-03 
1164	 2.30408573603266E-03 
1165	 2.26563796260724E-03 
1166	 1.87013890949424E-03 
1167	 1.70206193646823E-03 
1168	 1.64492334822059E-03 
1169	 1.64343483515159E-03 
1170	 2.04326733014464E-03 
1171	 2.09410566762152E-03 
1172	 1.78236904187777E-03 
1173	 1.72422334461147E-03 
1174	 1.59513258498428E-03 
1175	 1.71358067730579E-03 
1176	 1.86518481100277E-03 
1177	 1.9162964191944E-03 
1178	 1.86369368608045E-03 
1179	 1.8410010791911E-03 
1180	 1.83180575163242E-03 
1181	 1.74082972068036E-03 
1182	 1.71140245616765E-03 
1183	 1.68365112897134E-03 
1184	 1.55836045828362E-03 
1185	 1.67684236066965E-03 
1186	 1.87656455136137E-03 
1187	 1.71734232352172E-03 
1188	 1.44306140369742E-03 
1189	 1.5398043134503E-03 
1190	 1.64757075277502E-03 
1191	 1.52157659190163E-03 
1192	 1.50814949778534E-03 
1193	 1.64773102177865E-03 
1194	 1.63397136189172E-03 
1195	 1.62436726853485E-03 
1196	 1.88846380185813E-03 
1197	 1.89566317729631E-03 
1198	 1.83318294401702E-03 
1199	 1.80896072149475E-03 
1200	 1.63270216761302E-03 
1201	 1.73596027746714E-03 
1202	 1.88964371953736E-03 
1203	 1.86904620814804E-03 
1204	 1.75184200846892E-03 
1205	 1.42845115279043E-03 
1206	 1.46272973542161E-03 
1207	 0.001473601958558 
1208	 1.22177170695381E-03 
1209	 1.50341769171231E-03 
1210	 1.57895966984802E-03 
1211	 1.33393737871055E-03 
1212	 1.5665119625568E-03 
1213	 1.89505499526859E-03 
1214	 1.9092926506605E-03 
1215	 1.72435094529557E-03 
1216	 1.61665473798989E-03 
1217	 1.76737508686906E-03 
1218	 1.69175203163598E-03 
1219	 1.53114889546172E-03 
1220	 1.69102064254288E-03 
1221	 1.67394035330536E-03 
1222	 1.43203321695679E-03 
1223	 1.46442070572995E-03 
1224	 1.68851338310308E-03 
1225	 1.73982941216006E-03 
1226	 1.71782611264073E-03 
1227	 1.81401901797221E-03 
1228	 1.89056258373548E-03 
1229	 1.75618729475214E-03 
1230	 1.70001109151824E-03 
1231	 1.81150015287197E-03 
1232	 1.6779357499972E-03 
1233	 1.5573931828508E-03 
1234	 1.70404294297871E-03 
1235	 1.6367706232678E-03 
1236	 1.2035473807644E-03 
1237	 1.18615705262554E-03 
1238	 1.42282290877477E-03 
1239	 1.39502663958637E-03 
1240	 1.44662970164765E-03 
1241	 1.86566451093808E-03 
1242	 1.80089000632429E-03 
1243	 1.61539068964505E-03 
1244	 1.65480038847217E-03 
1245	 1.65833310587866E-03 
1246	 1.7807262919834E-03 
1247	 1.94897601393069E-03 
1248	 1.85183324033138E-03 
1249	 1.68488366358519E-03 
1250	 1.67105457670459E-03 
1251	 1.59612230955124E-03 
1252	 1.73881258744802E-03 
1253	 1.99648137332144E-03 
1254	 1.82527071439852E-03 
1255	 1.59699455359127E-03 
1256	 1.62310095347777E-03 
1257	 1.77581871583485E-03 
1258	 1.72334044203592E-03 
1259	 1.7078574877633E-03 
1260	 1.75665703447209E-03 
1261	 1.64227711453084E-03 
1262	 1.60239763745089E-03 
1263	 1.69364400454212E-03 
1264	 1.96421513273706E-03 
1265	 1.94933532718404E-03 
1266	 1.7343991503461E-03 
1267	 1.84119349639189E-03 
1268	 1.88734756245749E-03 
1269	 1.55379328380929E-03 
1270	 1.37828829534053E-03 
1271	 1.5100996310575E-03 
1272	 1.53082783641086E-03 
1273	 1.55199488098809E-03 
1274	 1.62858629091835E-03 
1275	 1.49688780624711E-03 
1276	 1.33141527303779E-03 
1277	 1.33344194543173E-03 
1278	 1.48663038380604E-03 
1279	 1.51886301152254E-03 
1280	 1.24796150629678E-03 
1281	 1.18239714802344E-03 
1282	 1.34415098858766E-03 
1283	 1.40073377230865E-03 
1284	 1.43043695660063E-03 
1285	 1.44404031107275E-03 
1286	 1.25878677222742E-03 
1287	 1.30819114293431E-03 
1288	 1.79832141041712E-03 
1289	 1.77652572138385E-03 
1290	 1.52110508895463E-03 
1291	 1.45199751274256E-03 
1292	 1.51243760270323E-03 
1293	 1.13328232301889E-03 
1294	 1.1840146352732E-03 
1295	 1.50738972723118E-03 
1296	 1.65321626346103E-03 
1297	 1.69842275085689E-03 
1298	 1.38758718980142E-03 
1299	 1.22902745327737E-03 
1300	 1.10600434170261E-03 
1301	 8.23509063174342E-04 
1302	 1.17965873389794E-03 
1303	 1.64076827700366E-03 
1304	 1.58113165596888E-03 
1305	 1.46331004213177E-03 
1306	 1.3805181102254E-03 
1307	 1.12820570947541E-03 
1308	 1.14600582469127E-03 
1309	 1.32264663656953E-03 
1310	 1.45504651865424E-03 
1311	 1.96477523398039E-03 
1312	 1.91765306353199E-03 
1313	 1.20420764763194E-03 
1314	 1.22246941787934E-03 
1315	 1.61034400250578E-03 
1316	 1.47535058376182E-03 
1317	 1.31133274369301E-03 
1318	 1.47172204524603E-03 
1319	 1.41696125847803E-03 
1320	 1.24739437560273E-03 
1321	 1.40279619320232E-03 
1322	 1.72629445471615E-03 
1323	 1.37422829333507E-03 
1324	 9.4989361702254E-04 
1325	 1.64496239959216E-03 
1326	 2.16009435753681E-03 
1327	 1.75266770189273E-03 
1328	 1.69963931002203E-03 
1329	 1.6829860281911E-03 
1330	 1.64872483753125E-03 
1331	 1.68967090843757E-03 
1332	 1.62808815328946E-03 
1333	 1.65250563716854E-03 
1334	 1.45927197040867E-03 
1335	 1.48336719961039E-03 
1336	 2.39356125349575E-03 
1337	 2.39901355376826E-03 
1338	 1.62037665128466E-03 
1339	 1.38652737168796E-03 
1340	 1.06705509695907E-03 
1341	 9.93931603757804E-04 
1342	 1.43772738463648E-03 
1343	 1.41352613705481E-03 
1344	 8.12972182957381E-04 
1345	 1.00549864899693E-03 
1346	 2.03773434494631E-03 
1347	 2.42395467177276E-03 
1348	 3.38329590191581E-03 
1349	 4.19495182953125E-03 
1350	 3.17386452459595E-03 
1351	 2.2181896124022E-03 
1352	 1.02532991732049E-03 
1353	 1.29405583776991E-03 
1354	 3.54424058040462E-03 
1355	 6.17744954703976E-03 
1356	 1.25132885213692E-02 
1357	 1.27929257309042E-02 
1358	-3.92855695190026E-03 
1359	-4.52358970237224E-03 
1360	 1.13683059086504E-02 
1361	 1.18847648537484E-02 
1362	 3.39230534067359E-02 
1363	 5.49179907368242E-02 
1364	 4.33200009210722E-02 
1365	 7.49453776998583E-02 
1366	 0.137396703349087 
1367	 0.134140254176589 
1368	 0.152359380899303 
1369	 0.17013351960804 
1370	 0.14953537214778 
1371	 0.128459426954652 
1372	 9.51448844576764E-02 
1373	-1.55228588861801E-02 
1374	 1.26900477292557E-02 
1375	 0.13947033549798 
1376	 0.118552979023313 
1377	 8.01046024934579E-02 
1378	 6.76565750637093E-02 
1379	-8.06569260508328E-02 
1380	-9.00545859185996E-02 
1381	 8.65740840305944E-02 
1382	 0.137748867367241 
1383	 0.185745731918408 
1384	 0.203965081481989 
1385	 0.182817276941857 
1386	 0.131110663143936 
1387	-4.42226908099492E-02 
1388	-7.91229796697672E-02 
1389	-7.03626389410937E-02 
1390	-6.54134143758248E-02 
1391	 7.26446234321826E-02 
1392	 8.43376214301298E-02 
1393	-5.33942597548635E-03 
1394	-2.80856746359691E-02 
1395	-0.054967313999061 
1396	-2.28439803203911E-02 
1397	 0.034877250613476 
1398	-3.99494142723655E-03 
1399	 0.019679921904548 
1400	 4.97766736754992E-02 
1401	 2.48477126660916E-02 
1402	 4.33133835110375E-02 
1403	 0.050772361918483 
1404	 4.45652377621725E-02 
1405	 0.038727481037031 
1406	 5.81042066604821E-02 
1407	 4.79019097714785E-02 
1408	 1.83861261219367E-02 
1409	 5.28430101933145E-03 
1410	-1.97029570936373E-03 
1411	-6.48432532644088E-03 
1412	-1.50673516492634E-02 
1413	-1.16471271200156E-02 
1414	-1.50075948995318E-03 
1415	 2.77033005379105E-03 
1416	 1.02426263898851E-02 
1417	 1.08403775280477E-02 
1418	 7.65074479195254E-03 
1419	 5.41130665127005E-03 
1420	 2.47414989753077E-03 
1421	 6.44456266335504E-04 
1422	-2.99570394715333E-03 
1423	-2.38685551362509E-03 
1424	 9.15060498443879E-04 
1425	 1.3964304076297E-03 
1426	 2.37076039430538E-03 
1427	 3.28366843284997E-03 
1428	 3.4305412206149E-03 
1429	 3.01844081730274E-03 
1430	 2.64383348401072E-03 
1431	 2.81801537571195E-03 
1432	 1.96952385900504E-03 
1433	 1.59263246327638E-03 
1434	 2.35755529433004E-03 
1435	 2.84322401268753E-03 
1436	 3.41257413485828E-03 
1437	 3.53623863175048E-03 
1438	 3.00637517568838E-03 
1439	 2.90960875182875E-03 
1440	 2.45189365557189E-03 
1441	 1.28209623290131E-03 
1442	 2.18294177684918E-03 
1443	 3.47353060912425E-03 
1444	 2.6632475296216E-03 
1445	 2.22462590326014E-03 
1446	 2.7170905569846E-03 
1447	 3.06615510132057E-03 
1448	 3.24511367981178E-03 
1449	 2.64914078872334E-03 
1450	 1.64830735936559E-03 
1451	 1.53253180567295E-03 
1452	 1.85432175764509E-03 
1453	 2.02541102696996E-03 
1454	 2.00465952109584E-03 
1455	 1.68542829575927E-03 
1456	 1.75485548880582E-03 
1457	 1.94532540542385E-03 
1458	 1.98799218007802E-03 
1459	 2.22406057596312E-03 
1460	 2.24437673693476E-03 
1461	 2.06691910830705E-03 
1462	 1.83963213664025E-03 
1463	 1.36109093802071E-03 
1464	 1.37764312976911E-03 
1465	 1.44922867344544E-03 
1466	 1.5346744372683E-03 
1467	 2.54123958099439E-03 
1468	 2.48073183204445E-03 
1469	 1.21050152590297E-03 
1470	 1.05965172949499E-03 
1471	 1.18282409434863E-03 
1472	 0.001117372713901 
1473	 1.4565917521359E-03 
1474	 1.66251005389917E-03 
1475	 1.62555016756901E-03 
1476	 1.61539546008689E-03 
1477	 1.77641345968747E-03 
1478	 1.93426318952583E-03 
1479	 2.07812245856981E-03 
1480	 1.95737004922599E-03 
1481	 1.59816166709425E-03 
1482	 1.59888982950488E-03 
1483	 1.67059007258169E-03 
1484	 1.64767742779547E-03 
1485	 1.87292894534832E-03 
1486	 1.88710256443695E-03 
1487	 1.81620045872941E-03 
1488	 1.48850124527261E-03 
1489	 5.04868756969083E-04 
1490	 6.58248097900707E-04 
1491	 1.63630657351066E-03 
1492	 1.60708964804155E-03 
1493	 1.50495447924741E-03 
1494	 1.70105597793309E-03 
1495	 1.42679110036645E-03 
1496	 1.26481823476761E-03 
1497	 1.60211831465968E-03 
1498	 1.77133858671374E-03 
1499	 1.64492155258412E-03 
1500	 1.53356966648171E-03 
1501	 1.52053983722788E-03 
1502	 1.57899245980398E-03 
1503	 1.61116869665947E-03 
1504	 1.4938551365746E-03 
1505	 1.25871958647739E-03 
1506	 1.34940764585543E-03 
1507	 1.39019780315735E-03 
1508	 1.31397229845032E-03 
1509	 1.36243314051236E-03 
1510	 1.46518853260096E-03 
1511	 1.33010481854705E-03 
1512	 1.29536807257798E-03 
1513	 1.44089882704963E-03 
1514	 1.3791833086026E-03 
1515	 1.49544415112768E-03 
1516	 1.54369229560904E-03 
1517	 1.26333613824993E-03 
1518	 1.32555617749126E-03 
1519	 1.53295508190392E-03 
1520	 1.50345028930067E-03 
1521	 1.30770848635825E-03 
1522	 1.23527215704757E-03 
1523	 1.37360619316632E-03 
1524	 1.28520982724943E-03 
1525	 1.26877028009423E-03 
1526	 1.46006568232144E-03 
1527	 1.33040133886341E-03 
1528	 1.07430421574538E-03 
1529	 1.11867506729311E-03 
1530	 1.22191265596799E-03 
1531	 1.02521562703623E-03 
1532	 1.01857616409245E-03 
1533	 1.45835403454404E-03 
1534	 1.65176060755123E-03 
1535	 0.001494948658044 
1536	 1.47889193652529E-03 
1537	 1.45213606451121E-03 
1538	 1.23897370860454E-03 
1539	 1.28152124116938E-03 
1540	 1.40866755820774E-03 
1541	 1.21727419651448E-03 
1542	 1.13288148485287E-03 
1543	 1.18886952355518E-03 
1544	 1.09826016597576E-03 
1545	 1.06105210427038E-03 
1546	 1.03233031642318E-03 
1547	 1.14138566609614E-03 
1548	 0.001318380575117 
1549	 1.2510691590749E-03 
1550	 1.31897765483379E-03 
1551	 1.37140716983221E-03 
1552	 1.33230640442869E-03 
1553	 1.37615612988345E-03 
1554	 1.17784131259104E-03 
1555	 1.07923041511467E-03 
1556	 1.20155427441419E-03 
1557	 1.28255895623048E-03 
1558	 1.48167595230458E-03 
1559	 1.50786322288255E-03 
1560	 1.26207880365404E-03 
1561	 1.14860762115538E-03 
1562	 1.18060861599511E-03 
1563	 1.28746499101494E-03 
1564	 1.33577322137235E-03 
1565	 1.25798657088195E-03 
1566	 1.34101045416539E-03 
1567	 1.46404026527403E-03 
1568	 1.42049245715036E-03 
1569	 1.4440101632496E-03 
1570	 1.45808017335872E-03 
1571	 1.26316321509547E-03 
1572	 1.27851687928139E-03 
1573	 1.69084836154877E-03 
1574	 1.77413903994682E-03 
1575	 1.46034409272453E-03 
1576	 1.41825598572036E-03 
1577	 1.49833018351929E-03 
1578	 1.36497180929707E-03 
1579	 1.37522125950852E-03 
1580	 1.5432894260514E-03 
1581	 1.31647299325814E-03 
1582	 1.0503210452152E-03 
1583	 1.14130559481599E-03 
1584	 1.25582005077493E-03 
1585	 1.29450163098556E-03 
1586	 1.22006583115093E-03 
1587	 1.30403186408179E-03 
1588	 1.45647146694554E-03 
1589	 1.18147021587911E-03 
1590	 1.08001889443972E-03 
1591	 1.29418169089496E-03 
1592	 1.22514053496013E-03 
1593	 1.29730700731661E-03 
1594	 1.46113979005512E-03 
1595	 1.19853639996073E-03 
1596	 0.001095109517831 
1597	 1.28393096665452E-03 
1598	 1.26956713442798E-03 
1599	 1.25825208024449E-03 
1600	 1.23476572102271E-03 
1601	 1.15352633672963E-03 
1602	 1.34546516965808E-03 
1603	 1.48161456031003E-03 
1604	 1.35131809108921E-03 
1605	 1.22128013241206E-03 
1606	 1.20900616867437E-03 
1607	 1.36424060576893E-03 
1608	 1.47452984558749E-03 
1609	 1.48969452139713E-03 
1610	 1.64996915316293E-03 
1611	 1.72307640434511E-03 
1612	 1.70325893606675E-03 
1613	 1.72786700139388E-03 
1614	 1.60435253551909E-03 
1615	 1.69832997603751E-03 
1616	 1.72783642023777E-03 
1617	 1.32380983779091E-03 
1618	 1.12885756741118E-03 
1619	 1.07268736392519E-03 
1620	 1.02899886216368E-03 
1621	 1.27011895478384E-03 
1622	 1.56259606354069E-03 
1623	 1.60839056277055E-03 
1624	 1.42304275627352E-03 
1625	 1.29063815036315E-03 
1626	 1.35416982641279E-03 
1627	 1.24473192974591E-03 
1628	 1.11601131575111E-03 
1629	 1.47073141471354E-03 
1630	 1.6028755772769E-03 
1631	 1.20149428388521E-03 
1632	 1.14383228768963E-03 
1633	 1.41759447878962E-03 
1634	 1.46361021422432E-03 
1635	 1.47615318411173E-03 
1636	 1.51684236194952E-03 
1637	 1.46661514812575E-03 
1638	 1.41903875058674E-03 
1639	 1.22380300755252E-03 
1640	 1.12236322288699E-03 
1641	 1.13404424130573E-03 
1642	 9.53409682280071E-04 
1643	 1.14284372633774E-03 
1644	 1.70187554156955E-03 
1645	 1.85542779113576E-03 
1646	 1.66037021429032E-03 
1647	 1.5140235250137E-03 
1648	 1.45269155563607E-03 
1649	 1.41997437006175E-03 
1650	 1.33067885641569E-03 
1651	 1.29227845763639E-03 
1652	 1.48468258971929E-03 
1653	 1.27632818151779E-03 
1654	 1.1592488304927E-03 
1655	 1.18467271895936E-03 
1656	 1.17418273449759E-03 
1657	 1.0254023983567E-03 
1658	 1.06301226993583E-03 
1659	 1.44181385641236E-03 
1660	 1.54376486921469E-03 
1661	 1.47257981430474E-03 
1662	 1.44622227325179E-03 
1663	 1.28990712705359E-03 
1664	 1.12501349736373E-03 
1665	 9.80456275460555E-04 
1666	 1.16123322956434E-03 
1667	 1.51812439329342E-03 
1668	 1.53756925788416E-03 
1669	 1.4560552612438E-03 
1670	 1.0896082634127E-03 
1671	 1.1213586427574E-03 
1672	 1.64647713169085E-03 
1673	 1.64306505389449E-03 
1674	 1.32154844676628E-03 
1675	 1.20194070666078E-03 
1676	 9.2179323541235E-04 
1677	 8.71081608420982E-04 
1678	 1.25886786157783E-03 
1679	 1.29457562886304E-03 
1680	 9.93086998624625E-04 
1681	 1.02857055798522E-03 
1682	 1.24093090870642E-03 
1683	 1.33959967076821E-03 
1684	 1.52838004606864E-03 
1685	 1.63462272996077E-03 
1686	 1.42363214723462E-03 
1687	 1.36818891397704E-03 
1688	 1.59997213574679E-03 
1689	 1.51754048226887E-03 
1690	 1.41006380217207E-03 
1691	 1.47496604397083E-03 
1692	 1.04630045273856E-03 
1693	 6.39238662647684E-04 
1694	 9.26281646918235E-04 
1695	 1.29479494188493E-03 
1696	 1.19450742394281E-03 
1697	 1.06887147534649E-03 
1698	 1.14333417167282E-03 
1699	 7.84323611698558E-04 
1700	 6.52324800235408E-04 
1701	 1.17029286273423E-03 
1702	 1.08992602298032E-03 
1703	 8.78949790403605E-04 
1704	 1.36169001994374E-03 
1705	 1.61537511192921E-03 
1706	 1.45056748267551E-03 
1707	 1.52145096956023E-03 
1708	 1.33968284321349E-03 
1709	 1.09089658207885E-03 
1710	 1.6031266915005E-03 
1711	 1.91581323861842E-03 
1712	 1.66906702639312E-03 
1713	 1.18698891692531E-03 
1714	 1.10525516012516E-03 
1715	 9.70013698681562E-04 
1716	 1.07842289092861E-03 
1717	 1.5104627237224E-03 
1718	 1.20854421025593E-03 
1719	 1.43284324376753E-03 
1720	 1.75579808524078E-03 
1721	 9.95000176372681E-04 
1722	 9.05920418170096E-04 
1723	 1.14967052240145E-03 
1724	 7.99576966723953E-04 
1725	 1.10475588642532E-03 
1726	 1.27122358809805E-03 
1727	 6.80283235722886E-04 
1728	 8.06679290113577E-04 
1729	 1.31374636635517E-03 
1730	 1.34178999550873E-03 
1731	 1.64904684037473E-03 
1732	 1.8004696825888E-03 
1733	 1.23820713845961E-03 
1734	 1.1703425843177E-03 
1735	 1.51846246648449E-03 
1736	 1.20598921753629E-03 
1737	 1.15403678319617E-03 
1738	 1.37261164552868E-03 
1739	 8.21479241436355E-04 
1740	 1.02031106591221E-03 
1741	 1.79652364283577E-03 
1742	 1.78252326278192E-03 
1743	 1.82649131576263E-03 
1744	 1.69178280524695E-03 
1745	 1.24886959011685E-03 
1746	 1.43312692180161E-03 
1747	 1.43256204481612E-03 
1748	 1.79435654971379E-03 
1749	 1.7975804955114E-03 
1750	 1.04152878833322E-03 
1751	 1.03350243537032E-03 
1752	 1.43123974236071E-03 
1753	 1.35960802775467E-03 
1754	 1.54194717885218E-03 
1755	 1.76091438119812E-03 
1756	 1.72292728116763E-03 
1757	 1.78114880757938E-03 
1758	 1.46643549093225E-03 
1759	 1.37932638470335E-03 
1760	 1.55106491171949E-03 
1761	 1.89838746102511E-03 
1762	 2.20516249473694E-03 
1763	 1.69895164315818E-03 
1764	 9.84973933830422E-04 
1765	 4.81273724546608E-04 
1766	 1.97842319454382E-04 
1767	 8.85015273887258E-04 
1768	 1.4240740595177E-03 
1769	 1.40822910442755E-03 
1770	 1.89003989239255E-03 
1771	 1.99590158097932E-03 
1772	 1.85546689833432E-03 
1773	 2.50188561652562E-03 
1774	 2.64085192105849E-03 
1775	 1.75492940223714E-03 
1776	 1.41443462645395E-03 
1777	 1.72867717416968E-04 
1778	-4.52127418601386E-05 
1779	 1.38466790205388E-03 
1780	 1.25888187395478E-03 
1781	 4.3431136301148E-04 
1782	 0.001012298996694 
1783	 1.76803346501031E-03 
1784	 1.82906697963742E-03 
1785	 2.69775829039522E-03 
1786	 2.75927452605239E-03 
1787	 1.21391835677185E-03 
1788	 1.00766634900297E-03 
1789	 2.09478460159065E-03 
1790	 1.63781221817642E-03 
1791	 2.88774196134686E-04 
1792	 1.10798379576808E-04 
1793	 3.47675952283965E-04 
1794	 5.88955409056207E-04 
1795	 1.0822871103274E-03 
1796	 1.0691191006917E-03 
1797	 1.70126029055724E-03 
1798	 3.26549420768185E-03 
1799	 5.2335606209049E-03 
1800	 5.77020078149343E-03 
1801	 6.24373404752986E-03 
1802	 6.07960279160704E-03 
1803	 5.44543535535667E-03 
1804	 4.03065214403813E-03 
1805	 2.73811811363232E-03 
1806	-2.36916513086278E-03 
1807	 5.55593863546141E-04 
1808	 1.27586708930282E-02 
1809	 1.92293260488539E-02 
1810	 0.037272128635246 
1811	 3.79884670977289E-02 
1812	 0.012715359121244 
1813	 1.21337251463476E-03 
1814	-2.32555501064545E-02 
1815	-0.026511766718686 
1816	-7.02709674158685E-04 
1817	 2.00312020124086E-02 
1818	 3.26509591605568E-02 
1819	-4.86286913580519E-03 
1820	-2.28177049792006E-02 
1821	-1.82731907403834E-02 
1822	-8.03731758636983E-03 
1823	 8.46107357188339E-02 
1824	 0.135975164050347 
1825	 0.15087825795039 
1826	 0.145482789821913 
1827	 5.05303519833094E-02 
1828	-1.20388173026461E-02 
1829	-0.151342139755254 
1830	-0.176857893025695 
1831	 0.173434852808796 
1832	 0.210888238334619 
1833	 0.19884250310254 
1834	 0.206375163732755 
1835	 0.288874489004914 
1836	 0.414511282342039 
1837	 0.121700931736677 
1838	 4.55511446164999E-02 
1839	-0.113802106606564 
1840	 0.568135523976136 
1841	 0.905198807781906 
1842	 1.5299047096824 
1843	 2.11818260416526 
1844	 0.898618192603793 
1845	 0.447081533392473 
1846	-1.5946712037603 
1847	-19.585608998726 
1848	 0.269654491877366 
1849	 0.714732094637859 
1850	-1.42582499995602 
1851	-0.333705538119295 
1852	 8.90784605122861E-02 
1853	 5.58120341414545E-02 
1854	 0.249058664134189 
1855	 2.75257703145618 
1856	 4.42660724832345 
1857	 0.395793384146498 
1858	-0.12847365130938 
1859	-1.25085450944968 
1860	 8.34849393043336 
1861	 5.71630515790694 
1862	 2.86957758854241 
1863	 0.920818731302142 
1864	 2.12702455465959 
1865	 3.84754366543299 
1866	 33.4700157687821 
1867	-4.5265217438851 
1868	-0.749279560653111 
1869	-0.508065254817536 
1870	-0.545802942598782 
1871	-0.714123127435025 
1872	-1.34491438351435 
1873	-1.20621695464322 
1874	-1.04042280919416 
1875	-2.14485844229431 
1876	 3.60373630859038 
1877	 0.438389626220668 
1878	 0.398507659664988 
1879	 0.73116569263442 
1880	 0.654237173915574 
1881	 0.565700330675612 
1882	-7.38014762583237E-02 
1883	-0.380552939266658 
1884	 0.201311006866802 
1885	 0.698522887215668 
1886	 0.696675506055863 
1887	 0.493987664188854 
1888	 0.286163147251352 
1889	 0.169196214005213 
1890	 0.058674230232266 
1891	 4.95776948318019E-02 
1892	 0.154737838063263 
1893	-7.77940522983226E-02 
1894	-0.149386092994047 
1895	-0.133429553904211 
1896	-0.610391758461697 
1897	-1.05377376958938 
1898	-0.965389058688645 
1899	-3.07992343391122 
1900	-16.5197674634477 
1901	-1.69937044426311 
1902	-0.544763043555081 
1903	 0.237207418329323 
1904	-0.249566093673887 
1905	-0.356957064498174 
1906	-0.469733960958806 
1907	-1.61056634465284 
1908	-1.62026127739348 
1909	-1.05786788547915 
1910	-0.646103989567729 
1911	-0.140771541921393 
1912	 0.485677242747378 
1913	 1.96848154643909 
1914	 1.37279980655222 
1915	 0.805674082363245 
1916	 0.221647560052068 
1917	 0.144826210343231 
1918	-1.40397778840639E-02 
1919	-6.13033572999096E-02 
1920	 6.82041905234358E-02 
1921	 3.28448073973584E-03 
1922	-2.59977781166443E-02 
1923	 6.00938195808891E-02 
1924	 2.60657668889296E-03 
1925	 3.48415171717479E-02 
1926	 4.05266907432701E-02 
1927	 0.097996845807721 
1928	 9.13288911950001E-03 
1929	 1.58617966123839E-02 
1930	 2.59632847951512E-02 
1931	-1.09799706949997E-02 
1932	 2.82251354376351E-02 
1933	 3.84357282882532E-02 
1934	-1.18661599835638E-02 
1935	-3.16481215838036E-04 
1936	 3.27627169042799E-02 
1937	 2.62275223243045E-02 
1938	 2.19549646817217E-02 
1939	 2.08770543883636E-02 
1940	 1.88684004181786E-02 
1941	 5.87548611321171E-03 
1942	 1.06805435798267E-02 
1943	 1.64293991582436E-02 
1944	 0.010216754815563 
1945	 8.85759878951296E-03 
1946	 1.50130470679447E-03 
1947	-4.77762930570152E-03 
1948	 2.04780770521342E-03 
1949	 6.24354586307708E-04 
1950	-6.18718753423987E-03 
1951	-6.57581579421348E-03 
1952	-6.99323279901749E-03 
1953	-9.26888206456792E-03 
1954	-8.52579754760591E-03 
1955	-1.04972990472481E-03 
1956	 1.49842983980563E-03 
1957	 2.77338245195586E-03 
1958	 4.76612782596711E-03 
1959	 6.0840292483674E-04 
1960	-1.08486837218816E-03 
1961	 1.11607067591684E-03 
1962	 1.38957219793936E-03 
1963	 2.06966440907303E-03 
1964	 0.003058012330402 
1965	 3.25538633885799E-03 
1966	 3.28535683984038E-03 
1967	 3.23219729158613E-03 
1968	 3.31694679027609E-03 
1969	 2.84141059521983E-03 
1970	 2.1063328356117E-03 
1971	 2.18764907914055E-03 
1972	 2.78105875918664E-03 
1973	 0.003129845852222 
1974	 2.78606730585175E-03 
1975	 1.50891833841354E-03 
1976	 2.77290244669225E-04 
1977	-2.5711196349956E-04 
1978	-8.79264982216703E-04 
1979	-0.001087159379844 
1980	-9.77008995067181E-04 
1981	-3.42659798108035E-04 
1982	-3.02886124406732E-04 
1983	-1.27857083439713E-04 
1984	 1.1452984131136E-04 
1985	-8.38838196827099E-04 
1986	-1.13851812943819E-03 
1987	-4.02926780063962E-04 
1988	-7.99033515886913E-05 
1989	 3.68434518276805E-05 
1990	-1.19126929087108E-05 
1991	-1.92656767558408E-04 
1992	-6.31794853957203E-05 
1993	 6.29456171380186E-04 
1994	 1.03476585456399E-03 
1995	 1.66292672431888E-03 
1996	 2.13106402592996E-03 
1997	 1.87321484747683E-03 
1998	 1.00615658138457E-03 
1999	 1.06362750217656E-03 
2000	-3.23894935875404E-05 
2001	 7.59926337863274E-04 
2002	 2.44226240145526E-03 
2003	 1.06447450112729E-03 
2004	 5.78787771163079E-04 
2005	-6.32541753095166E-04 
2006	-2.70346856210713E-03 
2007	-2.53162090294872E-04 
2008	 4.8177927482264E-03 
2009	 5.97317204345204E-03 
2010	 5.47866183311269E-03 
2011	 4.43262471231229E-03 
2012	 1.19621686351074E-03 
2013	-2.65895454635226E-03 
2014	-2.50520698343562E-03 
2015	-3.10791212145094E-03 
2016	-3.49898564965762E-03 
2017	-3.0950840418566E-03 
2018	-2.71461024759593E-03 
2019	-6.95517136484154E-04 
2020	 9.54267564009089E-04 
2021	 1.43460851122571E-03 
2022	 7.72112603195316E-04 
2023	-4.92311551491564E-04 
2024	-5.95486941043071E-04 
2025	 3.72894498547938E-04 
2026	 6.69266959432806E-04 
2027	 1.31115928745761E-03 
2028	 8.01396497098087E-04 
2029	 5.0770400152659E-04 
2030	 6.69197564768417E-04 
2031	 2.83311136131418E-04 
2032	 7.7838949385997E-04 
2033	 1.29858817530233E-03 
2034	 9.07083921862515E-04 
2035	 7.68843592497016E-04 
2036	 4.15319118168544E-04 
2037	-1.62069614960447E-04 
2038	-5.92983867268759E-04 
2039	-7.39061641373196E-04 
2040	-8.13157025451818E-04 
2041	-5.50507698423653E-04 
2042	 6.75788515513531E-04 
2043	 8.80615522942076E-04 
2044	 5.06823917507458E-04 
2045	 5.31249964786554E-04 
2046	 8.58859783090415E-04 
2047	 1.10262718686996E-03 
2048	 1.63977375509088E-03 
2049	 1.84760146810072E-03 
2050	 1.30720320495882E-03 
2051	 1.08289826737444E-03 
2052	 1.38803170357314E-03 
2053	 2.00882919773243E-03 
2054	 1.97845691987613E-03 
2055	 7.65858804067814E-04 
2056	 6.12674246804968E-04 
2057	 4.00386795508568E-04 
2058	 2.14787313766254E-04 
2059	 1.41214895469596E-03 
2060	 0.001761539969506 
2061	 1.17651312705522E-03 
2062	 7.52222181658258E-04 
2063	 1.69913830438595E-03 
2064	 1.38622969566343E-03 
2065	 4.23337732514585E-04 
2066	 8.08599483788374E-04 
2067	 9.88948192678224E-04 
2068	 3.13727849667877E-04 
2069	 7.56610827468532E-04 
2070	 9.63561340992022E-04 
2071	 1.82834235005988E-04 
2072	-2.33564866681502E-04 
2073	-3.54900362149598E-04 
2074	-4.73634167399872E-04 
2075	-5.12612718061899E-04 
2076	-5.3904650638154E-05 
2077	 2.09384944463051E-04 
2078	 1.4826088328008E-04 
2079	 3.02820187272798E-04 
2080	 8.17499066038047E-04 
2081	 8.12255425597725E-04 
2082	 5.2747703023648E-04 
2083	 1.29794622140802E-03 
2084	 1.65777917104242E-03 
2085	 1.35428038967821E-03 
2086	 1.0737492736817E-03 
2087	 4.83024070207245E-04 
2088	 8.19962548700309E-04 
2089	 1.3988619163054E-03 
2090	 1.26061464111789E-03 
2091	 1.31156286441681E-03 
2092	 1.38575571535368E-03 
2093	 6.1377899833079E-04 
2094	 4.68643678443111E-04 
2095	 1.11838495425209E-03 
2096	 1.45121175425462E-03 
2097	 1.92906413790652E-03 
2098	 1.98294657587905E-03 
2099	 1.8736884779041E-03 
2100	 1.68299507003033E-03 
2101	 1.88851014146357E-03 
2102	 1.17073538177232E-03 
2103	 8.10062830994748E-04 
2104	 2.91876605022067E-04 
2105	-5.08459383450197E-04 
2106	-1.73280555121252E-03 
2107	-2.48076939025532E-03 
2108	-1.11100184177454E-03 
2109	-1.22955690138301E-04 
2110	 1.1425573026403E-04 
2111	 7.65303897110508E-04 
2112	 6.28562967433203E-04 
2113	 5.30517276978326E-04 
2114	-2.70132763573763E-05 
2115	 8.15311460484199E-05 
2116	 3.75460332992818E-04 
2117	 4.76796455894845E-04 
2118	 9.02885488851572E-04 
2119	 1.23156131644622E-03 
2120	 1.59262435255903E-03 
2121	 1.56578420121621E-03 
2122	 1.34955294151822E-03 
2123	 1.11547129506304E-04 
2124	-3.91235019270808E-04 
2125	-1.44199761880381E-04 
2126	 3.03293080483396E-04 
2127	 1.68373817088606E-03 
2128	 2.20752256938522E-03 
2129	 1.53382118063241E-03 
2130	 1.43359936428751E-03 
2131	 1.17038782956343E-03 
2132	 1.00174653091527E-04 
2133	-1.71978792480532E-04 
2134	-1.3569084704775E-04 
2135	 1.63229382975686E-04 
2136	 3.12493741615528E-04 
2137	 8.23575143061399E-04 
2138	 1.03538291128339E-03 
2139	 9.20692248595795E-04 
2140	 9.46612988892916E-04 
2141	 1.33884914256079E-03 
2142	 1.72602245415859E-03 
2143	 2.44498726406972E-03 
2144	 1.90824999809962E-03 
2145	 1.59688252436883E-03 
2146	 1.46298142637564E-03 
2147	 1.48525570907534E-03 
2148	 1.75556519689252E-03 
2149	 1.76338295599881E-03 
2150	 1.90899807661373E-03 
2151	 1.73541295096116E-03 
2152	 1.66156450305842E-03 
2153	 1.81286130690254E-03 
2154	 1.37960732633762E-03 
2155	 7.9769391158033E-04 
2156	 9.58587275100316E-04 
2157	 9.66356008725381E-04 
2158	 1.12513275430841E-03 
2159	 1.42489887086782E-03 
2160	 1.92865498588523E-03 
2161	 1.94177260206791E-03 
2162	 2.12829087645512E-03 
2163	 2.13383507526886E-03 
2164	 1.70643141551305E-03 
2165	 1.24363973857461E-03 
2166	 3.97872975968376E-04 
2167	 2.22154913203781E-04 
2168	 7.29922072374351E-04 
2169	 2.93718496224991E-04 
2170	-3.6266290382875E-04 
2171	-8.99679350862012E-04 
2172	-0.001883335139173 
2173	-2.10816482805051E-03 
2174	-6.96986870897037E-04 
2175	 1.10637798084979E-03 
2176	 2.22440587705204E-03 
2177	 1.97009917391558E-03 
2178	 1.12087171569004E-03 
2179	 4.33181888298499E-04 
2180	-2.62230470161811E-04 
2181	 2.03779468893567E-04 
2182	 1.1323033500998E-03 
2183	 1.25123556871829E-03 
2184	 2.13529859524875E-03 
2185	 2.63806671271941E-03 
2186	 2.3482584652103E-03 
2187	 1.11407281739688E-03 
2188	 7.99027419755876E-04 
2189	-3.16736779223728E-05 
2190	-1.19842399048205E-04 
2191	 1.15222412467921E-03 
2192	 1.45164285933313E-03 
2193	 1.22912823651238E-03 
2194	 9.89569049382311E-04 
2195	 1.89494118722019E-04 
2196	-2.02049085777107E-04 
2197	-8.72184775228343E-05 
2198	 7.47862325297313E-05 
2199	 1.80130460256153E-04 
2200	 6.65338167409455E-04 
2201	 2.26341987558348E-03 
2202	 1.45759948721009E-03 
2203	 8.51035303269919E-05 
2204	 6.12423774718122E-04 
2205	-3.04802551968014E-05 
2206	-3.53120454747083E-04 
2207	 1.98469318042009E-03 
2208	 2.39236085154272E-03 
2209	 2.09537866263023E-03 
2210	 3.1024753371368E-03 
2211	 3.10202429502997E-03 
2212	 2.49786454938072E-03 
2213	 1.56104714684534E-03 
2214	 3.8236547931438E-05 
2215	-2.06922963163163E-03 
2216	-3.57309513165101E-03 
2217	-3.82534974300712E-03 
2218	-2.38038999837035E-03 
2219	-2.3091085399756E-03 
2220	-2.01041506354799E-03 
2221	-2.00071700977196E-03 
2222	-3.14083067056966E-03 
2223	-2.52634882777942E-03 
2224	-5.56978950962988E-04 
2225	 2.24464589991338E-04 
2226	 1.30649137780061E-03 
2227	 1.76325993443561E-03 
2228	 1.31826973047608E-03 
2229	 1.57914241177913E-03 
2230	 2.45986911200718E-03 
2231	 2.29568112006902E-03 
2232	 4.30629374449124E-04 
2233	 1.94865154196972E-04 
2234	 3.39824538531754E-05 
2235	 1.32526781487107E-03 
2236	 4.04878037980403E-03 
2237	 6.12185572035605E-03 
2238	 5.41714018732097E-03 
2239	 4.19340091876094E-03 
2240	 1.87231700474441E-03 
2241	 3.07286444575895E-04 
2242	 7.1819819124117E-04 
2243	 1.26103111392659E-03 
2244	 2.30213488069969E-03 
2245	 3.32123331373033E-03 
2246	 3.40300897255987E-03 
2247	 3.04251639086989E-03 
2248	 2.27298300017059E-03 
2249	 9.91592773272949E-04 
2250	 1.05455823986938E-03 
2251	 2.2033485669621E-03 
2252	 3.39119064483663E-03 
2253	 4.36085567656998E-03 
2254	 4.38997647985327E-03 
2255	 4.03400445111588E-03 
2256	 2.6591207615151E-03 
2257	 1.07826130171495E-03 
2258	 1.65441481331953E-03 
2259	 2.26982443931249E-03 
2260	 2.74620990369332E-03 
2261	 4.11346122238367E-03 
2262	 5.10520624331379E-03 
2263	 5.76689258358003E-03 
2264	 5.58203595720558E-03 
2265	 5.46141016328701E-03 
2266	 4.20055648258536E-03 
2267	 3.67505973004108E-04 
2268	 1.29193648885305E-04 
2269	 1.53149938718643E-03 
2270	 1.65913559241535E-03 
2271	 3.81481432785851E-03 
2272	 4.47006812344618E-03 
2273	 3.20207110695649E-03 
2274	 1.79292144144066E-03 
2275	-3.88563803787046E-05 
2276	-1.49434512241775E-03 
2277	-5.12490618103738E-03 
2278	-4.52245189789578E-03 
2279	 6.13944999006912E-04 
2280	 1.95270422589808E-03 
2281	 4.0721790470167E-03 
2282	 4.23343118396775E-03 
2283	 3.42653539330342E-05 
2284	-2.55464871572077E-03 
2285	-2.0720903218514E-03 
2286	-4.20488237298606E-04 
2287	 1.57826637451295E-03 
2288	 2.85782670545655E-03 
2289	 2.75577548579463E-03 
2290	 2.38087863566339E-03 
2291	 3.99832421856107E-03 
2292	 7.2163858621628E-03 
2293	 9.20694073423668E-03 
2294	 9.56366911173438E-03 
2295	 8.08317809100615E-03 
2296	 3.51373737384747E-03 
2297	 1.65988553961318E-03 
2298	 2.32462539588379E-03 
2299	 1.15965510670316E-03 
2300	 1.21116981638233E-03 
2301	-4.59147792855892E-04 
2302	-5.57858261920987E-04 
2303	 1.85191618862378E-03 
2304	 4.80311342206942E-03 
2305	 8.78901662811007E-03 
2306	 6.19441371852525E-03 
2307	 5.02285502189074E-03 
2308	 7.44945318923515E-03 
2309	 5.19645554092214E-03 
2310	 2.54547279016865E-03 
2311	-1.18556064610484E-03 
2312	-5.16951577462663E-03 
2313	-7.40604822790421E-03 
2314	-6.1409546303698E-03 
2315	 2.30669601214467E-04 
2316	 3.29028805784983E-03 
2317	 3.74311225384961E-03 
2318	 3.63554134254894E-03 
2319	-1.93913634488357E-03 
2320	-9.19587612330279E-03 
2321	-8.83500241227159E-03 
2322	-2.78174796920031E-03 
2323	-6.59456277860034E-05 
2324	 2.25232008028452E-03 
2325	 4.12272866781315E-04 
2326	-6.68243496074745E-03 
2327	-7.94534554447304E-03 
2328	-4.90433745788724E-03 
2329	 1.0024217551569E-04 
2330	 5.11912738596888E-03 
2331	 5.64891775858412E-03 
2332	 2.8623440656278E-03 
2333	-1.30899566323791E-03 
2334	-2.75887084611897E-03 
2335	-9.36318106262699E-04 
2336	-3.46263279157901E-03 
2337	-1.06740267266525E-02 
2338	-1.48599633552903E-02 
2339	-1.89441504700815E-02 
2340	-1.94593362681437E-02 
2341	-8.52854000040543E-03 
2342	-3.79477938848546E-05 
2343	 2.94889658440682E-03 
2344	 3.80359653686434E-03 
2345	-7.39385856063893E-04 
2346	-2.54857883488488E-03 
2347	-5.85563747178406E-03 
2348	-1.35358280303721E-02 
2349	-1.24864320001885E-02 
2350	-1.29903613920474E-02 
2351	-2.25639157834914E-02 
2352	-2.12650517801224E-02 
2353	-1.55771439338101E-02 
2354	-1.50230409521348E-02 
2355	-5.11252261302765E-03 
2356	 8.47041684814139E-03 
2357	 1.52926622776312E-02 
2358	 1.56146093651101E-02 
2359	 9.50078080795198E-03 
2360	 5.78825502672373E-03 
2361	-3.13282950733366E-03 
2362	-9.70976415113529E-03 
2363	 1.8272611317913E-03 
2364	 9.69708559143266E-03 
2365	 1.55099899737755E-02 
2366	 0.021512083949527 
2367	 1.78597104077829E-02 
2368	 1.76953251917923E-02 
2369	 1.98905341940072E-02 
2370	 1.22193580091676E-02 
2371	-3.97585446470863E-04 
2372	-1.13971223618418E-02 
2373	-1.98243772151699E-02 
2374	-2.17491868293897E-02 
2375	-2.12877297807331E-02 
2376	-1.46013428123629E-02 
2377	-1.01179515913359E-02 
2378	-1.79209770812592E-02 
2379	-7.65146107594556E-03 
2380	-2.26813671302789E-03 
2381	-2.25427254692849E-02 
2382	-1.62793868964303E-02 
2383	-1.69637315395068E-03 
2384	 2.93738113837177E-03 
2385	 1.66981101626069E-02 
2386	 6.87210354685562E-03 
2387	-2.13470617513076E-02 
2388	-3.71370144331456E-02 
2389	-2.69579874801678E-02 
2390	-1.76776253646035E-02 
2391	-1.57235562268869E-02 
2392	-5.20173526565918E-03 
2393	-1.21868404489051E-02 
2394	-8.56701685310503E-03 
2395	 4.37640098595506E-03 
2396	-4.93435150879431E-03 
2397	-6.71332359191115E-03 
2398	 1.63740199873207E-03 
2399	 3.80324668600534E-03 
2400	 1.01271383212398E-02 
2401	 2.45225272469663E-02 
2402	 2.90577848505382E-02 
2403	 2.44287828900059E-02 
2404	 3.21705110138087E-02 
2405	 3.53335141591144E-02 
2406	 8.68567675713237E-03 
2407	-6.08043028422566E-03 
2408	 5.61184637690392E-03 
2409	-8.0338278343665E-03 
2410	-2.43740520933311E-02 
2411	-1.62268650125391E-02 
2412	-2.83729112509018E-02 
2413	-2.35671162333093E-02 
2414	-9.5418436137633E-03 
2415	-2.06723772236206E-02 
2416	-8.58119742218783E-03 
2417	-1.13286661703924E-02 
2418	-8.20248945471075E-03 
2419	 9.82043723751713E-03 
2420	-1.07010728279851E-02 
2421	-0.020433626101793 
2422	-3.71168902631192E-02 
2423	-7.35793577751682E-02 
2424	-8.93369277799027E-02 
2425	-7.25022798773009E-02 
2426	-6.39171932786918E-02 
2427	-2.79696393458691E-02 
2428	 2.71025706200197E-02 
2429	 1.31532166346002E-02 
2430	-5.46964966147062E-03 
2431	-2.63593337246784E-03 
2432	-3.25972164810672E-02 
2433	-4.82234337154454E-02 
2434	-3.96275485298267E-02 
2435	-2.24534707223597E-02 
2436	 6.93721031700405E-03 
2437	 3.60761750144604E-02 
2438	 6.30357622951922E-02 
2439	 2.04441142291447E-02 
2440	-3.60169686176664E-02 
2441	-2.18303501620276E-02 
2442	-4.30675399460846E-02 
2443	-2.71231010937862E-02 
2444	 3.11154022917886E-02 
2445	 9.43777722207784E-03 
2446	 4.26852855776967E-04 
2447	-5.09883491247792E-04 
2448	 5.53594287501478E-02 
2449	 0.148467105101295 
2450	 0.132677326363733 
2451	 0.138502912509258 
2452	 1.27280288025292E-02 
2453	-0.146107413871096 
2454	-0.143645980407905 
2455	-0.121176866597524 
2456	-0.118210726048106 
2457	 2.59666412109592E-02 
2458	 0.110865866820534 
2459	 0.10098940974565 
2460	 9.95881115047747E-02 
2461	 2.35027546714685E-02 
2462	-4.38247395692305E-02 
2463	-4.97837034788723E-02 
2464	-5.28211993858439E-02 
2465	-8.62737990791209E-02 
2466	-0.163352252739562 
2467	-0.159257078206652 
2468	-0.158370583924066 
2469	-0.164007619317448 
2470	-0.137802621842277 
2471	-0.200970557466058 
2472	-0.354225085557036 
2473	-0.500318559625236 
2474	-0.470366052424051 
2475	-0.366774457468915 
2476	-0.064861479249438 
2477	 0.720374123171606 
2478	 0.727710774779434 
2479	 0.490142209955111 
2480	 0.349325601706537 
2481	 0.576758194008685 
2482	 0.900664632979932 
2483	 1.81419178792127 
2484	 4.64225499621963 
2485	 0.441198102698768 
2486	 0.167866604946689 
2487	-0.515169748886265 
2488	 0.440274960334467 
2489	 1.84039052839076 
2490	-1.50607552081923 
2491	-26.642153720597 
2492	-1.09360455423884 
2493	-0.141504250735779 
2494	-0.144995245533833 
2495	-0.400793027102278 
2496	-18.9761517758286 
2497	-1.86869274544516 
2498	 1.76195729329008 
2499	 2.33149706777588 
2500	 2.15982629739399 
