Wavelength	rt0624far00007.asd
350	 0.011806889797074 
351	 1.18196333417353E-02 
352	 1.24321650372545E-02 
353	 1.27846966342088E-02 
354	 1.24846175150429E-02 
355	 1.23500155659498E-02 
356	 1.27723329680889E-02 
357	 1.30393301649158E-02 
358	 1.26234147460324E-02 
359	 1.33851006602066E-02 
360	 1.37563221214094E-02 
361	 1.34993374805525E-02 
362	 1.33662387282645E-02 
363	 1.36001028211141E-02 
364	 1.38384247733749E-02 
365	 1.39878306370469E-02 
366	 1.44973080778691E-02 
367	 0.014532622179189 
368	 1.43429014616701E-02 
369	 1.43710422600448E-02 
370	 1.46309723253529E-02 
371	 0.01501382230679 
372	 1.53248319042735E-02 
373	 1.53854914397992E-02 
374	 0.015521979188492 
375	 1.58817720936692E-02 
376	 1.62568515217013E-02 
377	 1.60249374442929E-02 
378	 1.63798591555222E-02 
379	 1.64765206209098E-02 
380	 0.015851866153926 
381	 1.67718821236672E-02 
382	 1.72765714143862E-02 
383	 1.72871660005033E-02 
384	 1.76074651156298E-02 
385	 0.018141872199728 
386	 0.018714024618348 
387	 0.019047043316731 
388	 1.88151903758991E-02 
389	 1.86277051178346E-02 
390	 1.88100404578016E-02 
391	 1.93512171865004E-02 
392	 1.96752539685338E-02 
393	 1.99349488404967E-02 
394	 2.01088388854714E-02 
395	 2.02114130642789E-02 
396	 2.07280737766782E-02 
397	 0.021040304206905 
398	 2.11691186670845E-02 
399	 2.16745082687107E-02 
400	 2.16803860865903E-02 
401	 0.021812488298055 
402	 2.23623585907902E-02 
403	 2.23756706381637E-02 
404	 2.24428231335461E-02 
405	 2.26406228605165E-02 
406	 2.28578288941213E-02 
407	 2.30233363616478E-02 
408	 2.33436811491225E-02 
409	 2.37065993771613E-02 
410	 2.37161383733329E-02 
411	 2.39804788081601E-02 
412	 2.43146810820714E-02 
413	 2.45428181945493E-02 
414	 2.48799512099345E-02 
415	 2.51328005301377E-02 
416	 2.52525843080924E-02 
417	 2.53055624983444E-02 
418	 2.56280145292489E-02 
419	 2.59774539405356E-02 
420	 2.62801386206099E-02 
421	 2.66819091219789E-02 
422	 2.69251206068045E-02 
423	 2.71772070801466E-02 
424	 0.02756936783058 
425	 2.78693111136317E-02 
426	 2.83203425350897E-02 
427	 2.88047349901157E-02 
428	 2.90743448405236E-02 
429	 0.029303940952417 
430	 2.95782226583712E-02 
431	 2.99385178428125E-02 
432	 3.03841190970229E-02 
433	 3.06568728448269E-02 
434	 3.09939585091891E-02 
435	 3.15544945933721E-02 
436	 3.19420207443893E-02 
437	 3.23120946261936E-02 
438	 3.27125376612941E-02 
439	 3.31304154157404E-02 
440	 0.033577969891911 
441	 3.39898147788012E-02 
442	 0.034363941380394 
443	 3.48037055652223E-02 
444	 3.51668082544461E-02 
445	 0.035511733622258 
446	 3.59148005253079E-02 
447	 3.63047520861401E-02 
448	 3.66719991157844E-02 
449	 0.036999128045984 
450	 3.72749881584132E-02 
451	 3.76127815470086E-02 
452	 3.79793032294315E-02 
453	 3.82992488965667E-02 
454	 3.84454955919369E-02 
455	 3.86505700050286E-02 
456	 3.89350117740609E-02 
457	 3.92153761990766E-02 
458	 0.039320024348093 
459	 3.95236547944107E-02 
460	 3.98369094084866E-02 
461	 3.99941341620704E-02 
462	 4.01790352393793E-02 
463	 4.04054472531072E-02 
464	 4.06377391734608E-02 
465	 4.07906001881973E-02 
466	 4.09918764482671E-02 
467	 4.11649351778628E-02 
468	 4.11972468599206E-02 
469	 4.14972637615327E-02 
470	 4.17745201945186E-02 
471	 4.19434174191026E-02 
472	 4.22747574958462E-02 
473	 4.24405864146846E-02 
474	 4.25778846122768E-02 
475	 4.28737944819121E-02 
476	 4.32567476363219E-02 
477	 4.35460544087531E-02 
478	 4.37646254155431E-02 
479	 4.40668983860285E-02 
480	 4.43418030257995E-02 
481	 4.46586536622807E-02 
482	 0.045027081522643 
483	 4.52777114870997E-02 
484	 4.56424380816017E-02 
485	 4.61100393632574E-02 
486	 0.046566712805698 
487	 4.69032346452054E-02 
488	 4.72490811563376E-02 
489	 4.76353340418303E-02 
490	 4.79901833600937E-02 
491	 4.83926156739184E-02 
492	 4.89111778932677E-02 
493	 4.95255016072929E-02 
494	 5.00024829192298E-02 
495	 5.04206325543759E-02 
496	 5.08588712447002E-02 
497	 5.13927096816153E-02 
498	 5.20198222981192E-02 
499	 5.25721426346995E-02 
500	 5.30515583877619E-02 
501	 5.37428287448923E-02 
502	 5.43589469379932E-02 
503	 5.49403975019274E-02 
504	 5.55852226313196E-02 
505	 5.62206517753196E-02 
506	 5.68299893087325E-02 
507	 5.74519353886893E-02 
508	 5.81539128115289E-02 
509	 0.058765871624726 
510	 5.93291068388662E-02 
511	 5.99169425420497E-02 
512	 6.06095154222358E-02 
513	 6.12327531799261E-02 
514	 6.18677109305429E-02 
515	 6.26618596713779E-02 
516	 6.33883006589635E-02 
517	 6.41593961904218E-02 
518	 6.49669449921632E-02 
519	 6.56272586867005E-02 
520	 6.63516698272725E-02 
521	 6.70767913178096E-02 
522	 6.77310642854108E-02 
523	 0.068409129138436 
524	 6.91891710132385E-02 
525	 7.00405672077595E-02 
526	 7.08599704250876E-02 
527	 7.16615638816926E-02 
528	 7.23521809935903E-02 
529	 0.072954743462692 
530	 7.37463863142052E-02 
531	 7.45453505357441E-02 
532	 0.075321188711452 
533	 7.60941201166061E-02 
534	 7.68774916550932E-02 
535	 7.76630809287367E-02 
536	 7.84625357187841E-02 
537	 7.93055091383596E-02 
538	 8.01480059289206E-02 
539	 8.09394533175807E-02 
540	 8.16848389839231E-02 
541	 8.25766979797758E-02 
542	 8.33701318108744E-02 
543	 8.40996309315365E-02 
544	 8.49596133935655E-02 
545	 0.085802956550874 
546	 8.65883334564538E-02 
547	 8.73514597042173E-02 
548	 8.82686484768743E-02 
549	 8.90028334205249E-02 
550	 8.96747673334621E-02 
551	 9.05151200706707E-02 
552	 9.13342259402289E-02 
553	 9.21914758188981E-02 
554	 9.30442605647226E-02 
555	 9.37233417896813E-02 
556	 9.45279130835575E-02 
557	 9.53932997638484E-02 
558	 0.096180339402459 
559	 9.68459600368363E-02 
560	 9.75154081467354E-02 
561	 9.82020724998466E-02 
562	 9.88578037348825E-02 
563	 9.95609256848645E-02 
564	 0.100197315578942 
565	 0.100736692891229 
566	 0.101362052050496 
567	 0.101933033740614 
568	 0.102403270679068 
569	 0.102796034936449 
570	 0.103326070037589 
571	 0.103804677636322 
572	 0.104176411468167 
573	 0.104555904030869 
574	 0.104957177417118 
575	 0.105321947111678 
576	 0.105592672235192 
577	 0.105781739786635 
578	 0.105953678328047 
579	 0.106168382033173 
580	 0.106450202593895 
581	 0.106560232416147 
582	 0.106594488263685 
583	 0.106622816575008 
584	 0.10658034890707 
585	 0.106583620109408 
586	 0.106559251627737 
587	 0.106405158810767 
588	 0.106286978307804 
589	 0.106091951329368 
590	 0.10586082785664 
591	 0.10578061977785 
592	 0.105557411574797 
593	 0.105178230938992 
594	 0.104693620677691 
595	 0.104135465296098 
596	 0.103472518051519 
597	 0.102721383110585 
598	 0.101946928659235 
599	 0.101334399047319 
600	 0.100759033501229 
601	 0.100175636849252 
602	 9.97434757799149E-02 
603	 9.94475880587003E-02 
604	 9.92838295287683E-02 
605	 9.92381869414965E-02 
606	 9.92586368464144E-02 
607	 0.099305850755843 
608	 9.93313221082426E-02 
609	 9.92846071067982E-02 
610	 9.93376233404121E-02 
611	 9.94151079960797E-02 
612	 9.94260268536966E-02 
613	 9.93876066269577E-02 
614	 0.099409454739018 
615	 9.94236875697883E-02 
616	 9.92972572146189E-02 
617	 0.099297377690515 
618	 9.93327377796418E-02 
619	 9.93229867955876E-02 
620	 9.92680735409027E-02 
621	 0.09922250171638 
622	 9.92041107096659E-02 
623	 9.92024944712345E-02 
624	 0.099142952344376 
625	 0.099100531532784 
626	 9.90821840850281E-02 
627	 9.90295202871053E-02 
628	 9.90151502067397E-02 
629	 9.90075477204255E-02 
630	 9.89715565672399E-02 
631	 9.89151455657836E-02 
632	 9.88602941641075E-02 
633	 9.88061750664754E-02 
634	 9.87361739291074E-02 
635	 9.86157431561718E-02 
636	 9.84806595560396E-02 
637	 9.83547529754167E-02 
638	 9.82349360806546E-02 
639	 9.80492862795289E-02 
640	 9.78090676139582E-02 
641	 9.75687370365363E-02 
642	 0.097430283072176 
643	 9.72490247586433E-02 
644	 9.70070353508063E-02 
645	 9.67875352448763E-02 
646	 9.64730062866701E-02 
647	 0.096149206455326 
648	 9.58881592284215E-02 
649	 9.56675891828865E-02 
650	 9.53524507320331E-02 
651	 9.49925320078854E-02 
652	 9.46876719963991E-02 
653	 9.43013799596876E-02 
654	 0.093792429920925 
655	 0.093226595843302 
656	 9.28708634962291E-02 
657	 9.24301083655297E-02 
658	 9.19440777838863E-02 
659	 9.14945466805967E-02 
660	 9.11098126380817E-02 
661	 9.07643444363037E-02 
662	 0.090401438371162 
663	 8.99811933291545E-02 
664	 0.08978661737102 
665	 8.96103096267375E-02 
666	 8.93423862058311E-02 
667	 8.91642929043066E-02 
668	 8.90411740404461E-02 
669	 8.89088141517922E-02 
670	 0.088715903199542 
671	 8.85445951861571E-02 
672	 8.83886788247134E-02 
673	 8.82551645166908E-02 
674	 8.81663482461095E-02 
675	 8.81159586606099E-02 
676	 8.81450495253827E-02 
677	 8.82401351791356E-02 
678	 8.82104583001239E-02 
679	 8.83684920477629E-02 
680	 8.86549980404568E-02 
681	 8.88891407033338E-02 
682	 8.93584975802606E-02 
683	 8.98746762025705E-02 
684	 9.03187831950938E-02 
685	 9.07520339567327E-02 
686	 9.12057967100633E-02 
687	 9.16834434444917E-02 
688	 9.21017778075124E-02 
689	 9.22191840182767E-02 
690	 9.24142610547982E-02 
691	 9.25407991652518E-02 
692	 9.22233807395418E-02 
693	 0.09210856305494 
694	 9.19009814179605E-02 
695	 9.14431561497987E-02 
696	 9.09747177400307E-02 
697	 9.04452103533127E-02 
698	 8.98015185504916E-02 
699	 8.90346902439678E-02 
700	 8.82877513319887E-02 
701	 8.74843330365583E-02 
702	 8.66452034753357E-02 
703	 8.58383251068285E-02 
704	 0.084758755904986 
705	 8.36368872403725E-02 
706	 8.25841587199846E-02 
707	 8.12118496181781E-02 
708	 7.98267425121755E-02 
709	 7.84166344734266E-02 
710	 7.68635220249268E-02 
711	 7.52278502922626E-02 
712	 7.34225278300696E-02 
713	 7.14906000466637E-02 
714	 6.95696295332774E-02 
715	 6.75390650243118E-02 
716	 6.54513183620796E-02 
717	 6.33804550361093E-02 
718	 6.10017693518912E-02 
719	 5.88210945463824E-02 
720	 0.056948572546836 
721	 5.50346237929927E-02 
722	 5.31127402532588E-02 
723	 5.08850941289306E-02 
724	 4.85307299466523E-02 
725	 4.64481117064673E-02 
726	 4.41929347137529E-02 
727	 4.17731841564126E-02 
728	 0.039283802799662 
729	 3.65893615942482E-02 
730	 3.40021340825807E-02 
731	 3.16355729871839E-02 
732	 2.94587039212948E-02 
733	 2.75893556406344E-02 
734	 2.60915150724348E-02 
735	 2.49211908638032E-02 
736	 2.38763984966656E-02 
737	 2.30950865153153E-02 
738	 2.25306786792944E-02 
739	 2.21068759428797E-02 
740	 2.17757101911787E-02 
741	 0.021454862434634 
742	 2.12329699286023E-02 
743	 2.12421292103275E-02 
744	 2.12222976105754E-02 
745	 2.11044066082915E-02 
746	 2.09343576547942E-02 
747	 2.08776334071418E-02 
748	 0.020872631157383 
749	 2.08167280646848E-02 
750	 0.020670164272455 
751	 2.06207378798263E-02 
752	 2.06842359744723E-02 
753	 2.07456712959096E-02 
754	 2.06606617841192E-02 
755	 2.06971281863013E-02 
756	 2.06828668867855E-02 
757	 0.020564170168133 
758	 2.05040878705193E-02 
759	 2.01756487509654E-02 
760	 1.98947363040091E-02 
761	 2.02433227010195E-02 
762	 2.04947801056116E-02 
763	 2.04690880123644E-02 
764	 2.04605828394567E-02 
765	 2.07532038107979E-02 
766	 2.09817201411341E-02 
767	 2.10980697081487E-02 
768	 2.11648442293648E-02 
769	 2.13254215382871E-02 
770	 0.021443130118222 
771	 2.15947687079973E-02 
772	 2.18214205206309E-02 
773	 2.19498637033709E-02 
774	 2.21085172360063E-02 
775	 2.23320371986705E-02 
776	 2.25950210378383E-02 
777	 2.27638687810988E-02 
778	 2.30051388188138E-02 
779	 2.33652001306157E-02 
780	 2.37408228848489E-02 
781	 0.023948320613197 
782	 2.42353782172895E-02 
783	 2.47150209025016E-02 
784	 2.50187001909679E-02 
785	 0.025338814802352 
786	 2.57077973280787E-02 
787	 0.026095089594151 
788	 2.64162738258324E-02 
789	 2.69323345937872E-02 
790	 0.027566732721604 
791	 2.79776684878808E-02 
792	 2.81610861457414E-02 
793	 2.84421124787029E-02 
794	 2.89670755081692E-02 
795	 2.95169894242264E-02 
796	 2.99432718854106E-02 
797	 0.030320400422643 
798	 3.07540290996084E-02 
799	 3.11806244496561E-02 
800	 3.15346312014227E-02 
801	 3.18354118367983E-02 
802	 3.21425530915671E-02 
803	 3.23900547161261E-02 
804	 3.25209274140223E-02 
805	 3.26220702680922E-02 
806	 3.29133800874622E-02 
807	 3.29607236409171E-02 
808	 3.28503469578811E-02 
809	 3.27255013999679E-02 
810	 3.25824394509829E-02 
811	 3.25413736562479E-02 
812	 3.24150987843092E-02 
813	 3.19687349745229E-02 
814	 3.14671601741107E-02 
815	 3.10552104643424E-02 
816	 3.07449508855695E-02 
817	 3.04077168123854E-02 
818	 2.98626553163899E-02 
819	 2.90674981898975E-02 
820	 2.81364937253392E-02 
821	 2.73804588246744E-02 
822	 2.63402485575751E-02 
823	 2.49757434472604E-02 
824	 2.35130829898916E-02 
825	 2.24192740335841E-02 
826	 2.11389727730048E-02 
827	 0.019573277057671 
828	 1.79316665212911E-02 
829	 1.65850706422838E-02 
830	 1.54233353881371E-02 
831	 1.44183191498273E-02 
832	 1.36179129874259E-02 
833	 1.27448619854989E-02 
834	 1.20683631481135E-02 
835	 1.16987707396762E-02 
836	 1.14515204767908E-02 
837	 1.10530012633102E-02 
838	 1.07618901528077E-02 
839	 1.06877151228673E-02 
840	 1.01831889330288E-02 
841	 9.9543689415256E-03 
842	 9.90547174589072E-03 
843	 9.68371173214923E-03 
844	 9.27908049996566E-03 
845	 9.03793564287802E-03 
846	 9.03704979461405E-03 
847	 9.08837037362775E-03 
848	 8.61652500010658E-03 
849	 8.3873080630241E-03 
850	 8.53048442527248E-03 
851	 8.21445135694874E-03 
852	 8.07903060927802E-03 
853	 7.96664132657136E-03 
854	 7.7437666180677E-03 
855	 7.6810147141259E-03 
856	 7.38794111798323E-03 
857	 7.03179431204852E-03 
858	 6.88016228882709E-03 
859	 6.99669337094001E-03 
860	 6.89302252424836E-03 
861	 6.79210544115759E-03 
862	 7.06005908935769E-03 
863	 6.48276154021863E-03 
864	 6.19676825806371E-03 
865	 6.30576810805113E-03 
866	 5.92347136923717E-03 
867	 5.86051317542997E-03 
868	 5.80366445901714E-03 
869	 5.56461184897559E-03 
870	 0.005319062311794 
871	 5.45923250634158E-03 
872	 5.31776638445269E-03 
873	 4.6668201827361E-03 
874	 4.77579280625391E-03 
875	 4.68938609193026E-03 
876	 4.39756950223288E-03 
877	 0.004222597183497 
878	 4.59672871768159E-03 
879	 4.53198589605199E-03 
880	 4.1791563579902E-03 
881	 4.1280860289613E-03 
882	 3.94875343162438E-03 
883	 3.71044924654915E-03 
884	 3.60765368363898E-03 
885	 3.78375894944955E-03 
886	 3.30605066879887E-03 
887	 3.15905744087919E-03 
888	 3.39768773344243E-03 
889	 2.91278063316617E-03 
890	 2.9828658463321E-03 
891	 3.12200946858131E-03 
892	 2.8864882274637E-03 
893	 2.46500015738568E-03 
894	 2.42499790491011E-03 
895	 2.49143300706876E-03 
896	 2.35890085308479E-03 
897	 2.42662291308682E-03 
898	 2.0702202029232E-03 
899	 1.80503728282673E-03 
900	 2.13159612840442E-03 
901	 2.16697996308487E-03 
902	 1.89944159430811E-03 
903	 1.58066212853297E-03 
904	 1.48748971991998E-03 
905	 1.45452395120798E-03 
906	 1.20421755561688E-03 
907	 1.11063912273872E-03 
908	 1.69943638626755E-03 
909	 1.22235632406985E-03 
910	 8.7307839157702E-04 
911	 8.51306385683467E-04 
912	 3.89311072995957E-04 
913	 5.30007250645677E-04 
914	 7.70470231136374E-04 
915	 6.84675196679556E-04 
916	 2.61280505286404E-04 
917	 4.8447070455221E-04 
918	 5.4915973787317E-04 
919	 2.31830713257883E-04 
920	 4.51052537528948E-04 
921	 2.52687986858079E-04 
922	 5.03183686558431E-04 
923	 1.16771519506486E-03 
924	-2.81198144589081E-04 
925	-2.84855686522915E-04 
926	-4.60610901101787E-05 
927	-1.11281597369486E-03 
928	-1.34565314700308E-03 
929	-2.45758644269412E-03 
930	-3.39047071315572E-03 
931	-2.5338481018583E-03 
932	-2.92015909627776E-03 
933	-3.91308898621199E-03 
934	-4.80518898271321E-03 
935	-4.94166663659144E-03 
936	-4.14178151631566E-03 
937	-3.4220643565652E-03 
938	-3.16394479734492E-03 
939	-3.32768236038635E-03 
940	-3.55507214765818E-03 
941	-3.04847043610205E-03 
942	-2.7648075723006E-03 
943	-3.86665527647018E-03 
944	-3.09047479619515E-03 
945	-2.8387422040125E-03 
946	-3.55598209979367E-03 
947	-4.27103677633586E-03 
948	-5.16869563091921E-03 
949	-5.61170831193903E-03 
950	-5.52854501277841E-03 
951	-5.11258124477235E-03 
952	-3.14957287771541E-03 
953	-4.19222938554775E-03 
954	-6.69985014991529E-03 
955	-5.52227943805271E-03 
956	-4.93672558719174E-03 
957	-4.62573220421365E-03 
958	-3.54163360768007E-03 
959	-1.18048279312803E-03 
960	-2.38426909337339E-03 
961	-2.95048445008617E-03 
962	-1.82851526809746E-03 
963	-1.20741102209341E-03 
964	-2.49155614213883E-03 
965	-2.38875945980351E-03 
966	-1.03220781609094E-03 
967	-1.20454899045484E-03 
968	-0.001192220686531 
969	-7.60096580717957E-04 
970	-6.39602995159485E-04 
971	-1.92256336924195E-03 
972	-2.51479528629699E-03 
973	-2.70373597945572E-03 
974	-2.77628202600192E-03 
975	-2.75866349556965E-03 
976	-2.84402368579669E-03 
977	-2.82251362561244E-03 
978	-2.6126051708373E-03 
979	-2.46154329857448E-03 
980	-4.06827580126597E-03 
981	-3.93554312611831E-03 
982	-2.21303609619515E-03 
983	-2.12462055182453E-03 
984	-1.82355911523212E-03 
985	-2.63592493238879E-03 
986	-3.65072002122374E-03 
987	-2.70616179561902E-03 
988	-4.11801923944079E-03 
989	-3.94522444891079E-03 
990	-2.36291686481461E-03 
991	-2.66484177494047E-03 
992	-2.11793898262412E-03 
993	-1.56794812628101E-03 
994	-1.61979943544832E-03 
995	-2.13223735320565E-03 
996	-8.60590746757014E-04 
997	-2.07165612855617E-03 
998	-4.70404682964373E-03 
999	-4.63069764590355E-03 
1000	-2.73434506874437E-03 
1001	 1.37301116076237E-03 
1002	 1.14679739963434E-03 
1003	 9.22393914254982E-04 
1004	 6.51881406237151E-04 
1005	 6.400080292129E-04 
1006	 6.4098333012039E-04 
1007	 9.16838291157252E-04 
1008	 1.37226378707264E-03 
1009	 1.57726576523061E-03 
1010	 1.72029055098756E-03 
1011	 1.80276101382244E-03 
1012	 1.72212771169527E-03 
1013	 1.47247065389163E-03 
1014	 1.36272237121436E-03 
1015	 1.29393464294293E-03 
1016	 1.08420733958434E-03 
1017	 6.97998430928514E-04 
1018	 7.82597535605414E-04 
1019	 1.09517473099834E-03 
1020	 1.17008830899574E-03 
1021	 1.54236305211774E-03 
1022	 1.58649523927088E-03 
1023	 1.49802238895057E-03 
1024	 1.49763585915863E-03 
1025	 1.4319667024793E-03 
1026	 1.22774823182467E-03 
1027	 1.10971354574435E-03 
1028	 7.51323459541221E-04 
1029	 6.53351305570696E-04 
1030	 8.35970797157228E-04 
1031	 9.21856548125583E-04 
1032	 9.11900404483102E-04 
1033	 9.40210996110427E-04 
1034	 1.02274259435475E-03 
1035	 1.15447396102655E-03 
1036	 1.51969851794402E-03 
1037	 1.55940565977543E-03 
1038	 1.50154611455013E-03 
1039	 1.34862928331328E-03 
1040	 8.69238534419411E-04 
1041	 5.38913524037287E-04 
1042	 5.92740546573982E-04 
1043	 1.0079682724226E-03 
1044	 1.17241270443524E-03 
1045	 1.6820357501257E-03 
1046	 1.64339299572457E-03 
1047	 1.13573152183468E-03 
1048	 9.51315532002172E-04 
1049	 4.5707220708492E-04 
1050	 4.59445545189344E-04 
1051	 9.77523606090405E-04 
1052	 1.22479939359417E-03 
1053	 1.76947194335153E-03 
1054	 1.96009736612526E-03 
1055	 1.85373211315702E-03 
1056	 1.73453031651312E-03 
1057	 1.51022551860079E-03 
1058	 1.00322431356504E-03 
1059	 8.58092823579472E-04 
1060	 7.41550301715679E-04 
1061	 7.59607230646599E-04 
1062	 1.06698212019557E-03 
1063	 1.16518679255906E-03 
1064	 1.17468977210354E-03 
1065	 1.30832976606554E-03 
1066	 1.61030607309237E-03 
1067	 1.62673541598723E-03 
1068	 1.48474031716064E-03 
1069	 1.47789228137308E-03 
1070	 1.39164739908824E-03 
1071	 1.25302067287845E-03 
1072	 1.19821017475232E-03 
1073	 1.09329613485196E-03 
1074	 1.14935756200387E-03 
1075	 1.04181973460676E-03 
1076	 1.21288287123313E-03 
1077	 1.95977968939035E-03 
1078	 1.97391471152579E-03 
1079	 1.58423021482015E-03 
1080	 1.49324313896573E-03 
1081	 1.03962561582341E-03 
1082	 9.94211885416766E-04 
1083	 1.54710281432188E-03 
1084	 1.70132658825844E-03 
1085	 1.71008104593521E-03 
1086	 1.77488252469031E-03 
1087	 1.67067145107503E-03 
1088	 1.66501925421575E-03 
1089	 1.86113976791657E-03 
1090	 1.92087831580406E-03 
1091	 1.89442454423153E-03 
1092	 1.81209523929853E-03 
1093	 1.75903622941541E-03 
1094	 1.59819993420472E-03 
1095	 1.52163457341779E-03 
1096	 1.50288170571875E-03 
1097	 1.42705286990977E-03 
1098	 1.26916446512504E-03 
1099	 1.24130274049877E-03 
1100	 1.31600649483457E-03 
1101	 1.38777341987479E-03 
1102	 1.67390989482313E-03 
1103	 1.67222751350569E-03 
1104	 1.61627820041064E-03 
1105	 1.10988830949868E-03 
1106	 1.19516203558728E-03 
1107	 1.40147915129567E-03 
1108	 1.05719327149585E-03 
1109	 1.38465872908323E-03 
1110	 1.41192104414845E-03 
1111	 7.17068515071561E-04 
1112	 5.30239655442068E-04 
1113	 1.07772635971288E-03 
1114	 1.1951596824788E-03 
1115	 9.01132903041162E-04 
1116	 1.01740695523665E-03 
1117	 1.88358219609656E-03 
1118	 1.69613297449312E-03 
1119	 3.47942955628229E-04 
1120	-6.51615547885257E-06 
1121	-2.25274892528004E-04 
1122	-1.09780494000043E-03 
1123	-1.42781544275252E-03 
1124	 1.09343794903915E-04 
1125	 7.89559889347662E-04 
1126	-2.1438817720852E-04 
1127	-3.36860222280505E-04 
1128	-1.90828421675179E-04 
1129	-2.20847003384299E-04 
1130	-2.65583567838769E-04 
1131	-2.08677558200504E-04 
1132	-6.3421406688405E-04 
1133	-3.08726085856925E-04 
1134	 1.01924614131537E-03 
1135	 1.05145705347759E-03 
1136	 4.24145823849598E-04 
1137	 7.53368410214018E-04 
1138	 1.2826886743868E-03 
1139	 7.61713655236141E-04 
1140	 1.07283440215927E-03 
1141	 2.15076877909533E-03 
1142	 1.48107731738826E-03 
1143	 4.29277023704162E-04 
1144	 7.19609295708604E-04 
1145	 1.03770092937599E-03 
1146	 5.96737126914089E-04 
1147	 1.43451218984791E-04 
1148	-2.40277344295761E-04 
1149	-8.25616451207896E-04 
1150	-8.25864070526391E-04 
1151	 5.10807342591189E-04 
1152	 7.1124087644458E-04 
1153	 8.00963658525265E-05 
1154	 2.07042895001971E-04 
1155	 4.96064918163034E-04 
1156	 6.00680695026585E-04 
1157	 6.77043537175324E-04 
1158	 5.66017592412257E-04 
1159	 7.54204194556421E-04 
1160	 1.30610536492594E-03 
1161	 1.21228588023511E-03 
1162	 1.14884534117787E-03 
1163	 9.87047678750766E-04 
1164	 3.56854274153538E-04 
1165	 4.5920201817288E-04 
1166	 1.02072332647476E-03 
1167	 1.2520987151328E-03 
1168	 1.21186354470181E-03 
1169	 9.11103370474574E-04 
1170	 6.65286934989587E-04 
1171	 6.69177996558849E-04 
1172	 8.82504222957929E-04 
1173	 1.02887460320076E-03 
1174	 1.42430246673803E-03 
1175	 1.38025337082371E-03 
1176	 1.32144696597251E-03 
1177	 1.20193041987519E-03 
1178	 8.32452203405395E-04 
1179	 9.37306149860649E-04 
1180	 1.00003839420399E-03 
1181	 7.48234482014041E-04 
1182	 9.96458223248426E-04 
1183	 1.36007625731802E-03 
1184	 1.31848809114877E-03 
1185	 1.03483524209303E-03 
1186	 8.7851464473713E-04 
1187	 1.05739722004973E-03 
1188	 1.03169459543687E-03 
1189	 1.08908557677261E-03 
1190	 1.40974148509799E-03 
1191	 1.01908934088048E-03 
1192	 8.08377825552529E-04 
1193	 6.49787633959053E-04 
1194	 1.03274373876132E-03 
1195	 9.31611007341654E-04 
1196	 8.87527276384941E-04 
1197	 1.09824398874502E-03 
1198	 1.08733152114306E-03 
1199	 1.04678646829963E-03 
1200	 1.12276103808683E-03 
1201	 1.1303579761285E-03 
1202	 1.23974631404849E-03 
1203	 1.28448093346006E-03 
1204	 1.01810690428545E-03 
1205	 1.08618569879041E-03 
1206	 1.24083347616442E-03 
1207	 1.11760771637104E-03 
1208	 1.22795006244924E-03 
1209	 1.20121350622665E-03 
1210	 8.68705610961075E-04 
1211	 7.01061885173749E-04 
1212	 8.43233278358493E-04 
1213	 1.13109963245436E-03 
1214	 1.20668065015657E-03 
1215	 1.26280025472396E-03 
1216	 1.2952072164752E-03 
1217	 1.20692538409762E-03 
1218	 9.8984589596879E-04 
1219	 1.07395458279519E-03 
1220	 1.12212456041635E-03 
1221	 9.86826974889076E-04 
1222	 1.06486705490185E-03 
1223	 1.16398611117937E-03 
1224	 1.09795025958178E-03 
1225	 1.09366119316732E-03 
1226	 1.30239295700862E-03 
1227	 1.39485935498377E-03 
1228	 1.37879987799256E-03 
1229	 1.53609367310361E-03 
1230	 1.37822261732809E-03 
1231	 9.97122183747939E-04 
1232	 1.11013153676556E-03 
1233	 1.31679698778396E-03 
1234	 1.12797544137462E-03 
1235	 1.15068612195627E-03 
1236	 1.42673298198966E-03 
1237	 1.43039522332937E-03 
1238	 1.21954474633432E-03 
1239	 1.32730910637952E-03 
1240	 1.40893497230682E-03 
1241	 1.14176822615028E-03 
1242	 1.18913228434728E-03 
1243	 1.4410933257682E-03 
1244	 1.37147817991102E-03 
1245	 1.30427870473738E-03 
1246	 1.44704003976441E-03 
1247	 1.37596621741478E-03 
1248	 1.22036779441503E-03 
1249	 1.41139682434955E-03 
1250	 1.52486626557361E-03 
1251	 1.45365917335729E-03 
1252	 1.41013199176486E-03 
1253	 1.29765595055705E-03 
1254	 1.37030904673448E-03 
1255	 1.41981618890608E-03 
1256	 1.25611103125607E-03 
1257	 1.07988535618865E-03 
1258	 1.13370182740802E-03 
1259	 9.39030825153039E-04 
1260	 9.22886008635889E-04 
1261	 1.43726117423458E-03 
1262	 1.64321709218258E-03 
1263	 1.60621753372603E-03 
1264	 1.6145334192808E-03 
1265	 1.76142262242417E-03 
1266	 1.68963343701742E-03 
1267	 1.40846292688067E-03 
1268	 1.31324555095697E-03 
1269	 1.41934850597374E-03 
1270	 1.30933322021742E-03 
1271	 1.23587555600782E-03 
1272	 1.2609711181501E-03 
1273	 1.0063439749769E-03 
1274	 1.05886847288061E-03 
1275	 1.36572494162097E-03 
1276	 1.28233309418076E-03 
1277	 1.10579552021555E-03 
1278	 1.05593075887051E-03 
1279	 9.97965810853855E-04 
1280	 1.14530648306583E-03 
1281	 1.2295148332904E-03 
1282	 1.41756342979352E-03 
1283	 1.49878086276965E-03 
1284	 1.59076459031602E-03 
1285	 1.51697936147867E-03 
1286	 1.21696068720408E-03 
1287	 1.22228648051222E-03 
1288	 1.34615150179744E-03 
1289	 1.29342253708471E-03 
1290	 1.22757419949781E-03 
1291	 1.43584874000367E-03 
1292	 1.48932049642134E-03 
1293	 1.29207404459754E-03 
1294	 1.47263268135127E-03 
1295	 1.62688188819307E-03 
1296	 1.38874005564141E-03 
1297	 1.19495814171522E-03 
1298	 1.15430429625367E-03 
1299	 1.15049741153452E-03 
1300	 1.19169491505472E-03 
1301	 1.29901680715478E-03 
1302	 1.31553265449223E-03 
1303	 1.20010900002319E-03 
1304	 1.02017802040225E-03 
1305	 1.1035076152302E-03 
1306	 1.17036554149444E-03 
1307	 1.16390793925099E-03 
1308	 1.15795482449291E-03 
1309	 1.45404479349891E-03 
1310	 1.46689342789116E-03 
1311	 1.1147838702943E-03 
1312	 1.04158654622324E-03 
1313	 1.01013117786861E-03 
1314	 9.77725839124858E-04 
1315	 1.19845558222941E-03 
1316	 1.27323749176924E-03 
1317	 1.22261668613156E-03 
1318	 1.23173501603417E-03 
1319	 1.01582968910716E-03 
1320	 9.15103414577647E-04 
1321	 9.50073276489136E-04 
1322	 1.20139398445918E-03 
1323	 1.03329804925568E-03 
1324	 1.16559394173371E-03 
1325	 1.20025353987752E-03 
1326	 6.95137765078844E-04 
1327	 6.19894230011831E-04 
1328	 1.32838214941352E-03 
1329	 1.51374875133915E-03 
1330	 1.1260605527228E-03 
1331	 1.38158685396887E-03 
1332	 1.27671302833403E-03 
1333	 9.71431706422467E-04 
1334	 1.33943081215363E-03 
1335	 1.38150471276874E-03 
1336	 6.33627426918955E-04 
1337	 5.86343395845199E-04 
1338	 1.33738149997211E-03 
1339	 1.33118286855064E-03 
1340	 8.55596652801709E-04 
1341	 6.01364681651601E-04 
1342	 1.87228177784869E-05 
1343	-3.22910972922406E-05 
1344	 6.56367467508962E-04 
1345	 7.54877690669008E-04 
1346	 7.88532139699982E-04 
1347	 7.34515424773075E-04 
1348	-1.3717875176686E-04 
1349	-8.65440154479741E-04 
1350	-1.1211554052975E-03 
1351	-1.38680451713863E-03 
1352	-2.22712424519433E-03 
1353	-3.89090611354266E-03 
1354	-6.18096758437789E-03 
1355	-1.11515864560693E-02 
1356	-1.53275148674947E-02 
1357	-9.26650457437978E-03 
1358	-1.96573187963881E-03 
1359	 2.46631124096426E-03 
1360	-1.22104499228181E-02 
1361	-2.44020573570489E-02 
1362	-0.032863673261261 
1363	-0.136657210336449 
1364	-0.178272111081473 
1365	-3.77967081405721E-02 
1366	-3.25236855206541E-02 
1367	-7.92066157036961E-02 
1368	-8.56193026490668E-02 
1369	-0.270350789673538 
1370	-0.27953854303488 
1371	-5.75104158802733E-02 
1372	-1.53601560641645E-02 
1373	-6.19886292089907E-02 
1374	-9.97128748559686E-02 
1375	-0.180274721371183 
1376	-0.243879238986964 
1377	-0.3502227582761 
1378	-0.312378612033958 
1379	-0.1436786605429 
1380	-0.16145174482029 
1381	-0.195208385623098 
1382	-0.17143749025176 
1383	-0.350328571934632 
1384	-0.38104042821547 
1385	-0.114176138993159 
1386	-0.094652196381497 
1387	-0.324534622640105 
1388	-0.300693364987682 
1389	-0.129605758495142 
1390	-0.151001052407413 
1391	-0.201958958915924 
1392	-0.169906030701516 
1393	-0.195086945820528 
1394	-0.20615737091721 
1395	-0.115945793001437 
1396	-0.025281978774366 
1397	 8.3386585236848E-03 
1398	-3.18404393666244E-02 
1399	-0.060205075954715 
1400	-3.20786021892302E-02 
1401	-8.98896975008879E-03 
1402	-1.49805473785135E-03 
1403	 9.54843183382436E-03 
1404	 1.58956545181868E-03 
1405	-3.94045055787255E-03 
1406	-2.68360458658149E-02 
1407	-2.13024101296538E-02 
1408	-1.32399906940695E-03 
1409	-5.67904761848094E-03 
1410	-1.65474644011594E-02 
1411	-1.15229903099414E-02 
1412	-5.2592393134454E-03 
1413	-7.36259825597448E-03 
1414	-7.50307455033673E-03 
1415	-4.24161187099366E-03 
1416	-5.06419488272345E-03 
1417	-5.81341109175675E-03 
1418	-1.98981986927316E-03 
1419	 4.11263512962576E-04 
1420	-1.69714463284396E-03 
1421	-1.07377116019371E-03 
1422	 5.26685648286444E-03 
1423	 4.78347903161354E-03 
1424	-9.01936924629511E-04 
1425	-1.91808926655946E-03 
1426	-2.32088108303372E-03 
1427	-2.78075481796482E-03 
1428	-1.31576128302379E-03 
1429	-1.41283204802714E-03 
1430	-3.07320408405227E-03 
1431	-3.83890540371005E-03 
1432	-5.30359858551899E-03 
1433	-4.82182767212061E-03 
1434	-1.93282026314874E-03 
1435	-1.54843115755651E-03 
1436	-2.36069086604408E-03 
1437	-1.08440327900601E-03 
1438	-1.15732031231093E-03 
1439	-2.26959841018507E-03 
1440	-1.96080614220894E-03 
1441	-7.09913208239884E-04 
1442	-1.21332330052736E-03 
1443	-1.91277739481618E-03 
1444	-8.63486219505544E-04 
1445	-9.70955570971287E-05 
1446	-4.7993381708218E-04 
1447	-7.36241643172613E-04 
1448	-7.75943746405621E-04 
1449	-5.30749093302016E-04 
1450	 9.24708074787058E-05 
1451	-8.5879467560897E-05 
1452	-2.3019667851938E-05 
1453	 3.78891692804049E-04 
1454	 4.17432625543713E-04 
1455	 7.05398396491377E-04 
1456	 6.50506261744774E-04 
1457	 2.42622975498415E-04 
1458	 8.74202814603963E-05 
1459	-3.34327413224665E-04 
1460	-7.31345230830765E-05 
1461	 8.5429474048829E-04 
1462	 9.64301199562063E-04 
1463	 1.12600105732687E-03 
1464	 1.25054223164145E-03 
1465	 7.19118801508067E-04 
1466	 5.10713118249831E-04 
1467	 6.74339032789974E-04 
1468	 6.87628297059535E-04 
1469	 4.56956656254007E-04 
1470	 4.34897067306082E-04 
1471	 7.22255367292337E-04 
1472	 7.35808951603081E-04 
1473	 5.94224048653337E-04 
1474	 5.34167996257574E-04 
1475	 2.04781181453761E-04 
1476	 4.53761094337327E-04 
1477	 1.43730326486505E-03 
1478	 1.39551887041592E-03 
1479	 8.29231757106786E-04 
1480	 8.65041770559339E-04 
1481	 6.45666359165592E-04 
1482	 6.43920379438041E-04 
1483	 1.50200813306501E-03 
1484	 1.59848301205832E-03 
1485	 8.82585216295056E-04 
1486	 8.18602841275815E-04 
1487	 1.20706525935139E-03 
1488	 9.67432630273587E-04 
1489	 2.56046491113228E-04 
1490	 3.88224811088027E-04 
1491	 8.62555646035186E-04 
1492	 7.84032806123124E-04 
1493	 8.86970064265446E-04 
1494	 1.0475648300363E-03 
1495	 8.07786445086989E-04 
1496	 6.30145764613924E-04 
1497	 7.7773206299587E-04 
1498	 8.21876912174662E-04 
1499	 5.4411771631538E-04 
1500	 4.30130750147149E-04 
1501	 5.63962191660899E-04 
1502	 5.80897968481706E-04 
1503	 3.99486703624965E-04 
1504	 3.95096270761328E-04 
1505	 5.2658966501169E-04 
1506	 6.47759576254066E-04 
1507	 6.1042590720909E-04 
1508	 6.85437635068967E-04 
1509	 8.77870514570095E-04 
1510	 9.1848927686061E-04 
1511	 9.22912122436499E-04 
1512	 1.09978663053301E-03 
1513	 1.04963312849352E-03 
1514	 8.68093768979785E-04 
1515	 9.30298081308156E-04 
1516	 8.8712705049366E-04 
1517	 7.0507019510055E-04 
1518	 7.19849157194786E-04 
1519	 8.68957637991521E-04 
1520	 9.89550092215589E-04 
1521	 1.17400633303535E-03 
1522	 1.31712863464362E-03 
1523	 9.39943050719268E-04 
1524	 6.72608725342701E-04 
1525	 1.15845621990916E-03 
1526	 1.2166861512955E-03 
1527	 8.78069738691645E-04 
1528	 1.0884537594114E-03 
1529	 1.03213461150684E-03 
1530	 6.2802387015339E-04 
1531	 8.14447741263029E-04 
1532	 1.11618226448719E-03 
1533	 9.19037689034736E-04 
1534	 8.54833550581521E-04 
1535	 1.12782343568243E-03 
1536	 1.15017369278828E-03 
1537	 9.99089110997055E-04 
1538	 1.05573553986213E-03 
1539	 1.14722436250849E-03 
1540	 1.00982351686192E-03 
1541	 8.61647015620468E-04 
1542	 9.46158380001426E-04 
1543	 8.88661620028495E-04 
1544	 7.6748237821926E-04 
1545	 1.03436126364871E-03 
1546	 1.22612061733732E-03 
1547	 1.01832218950367E-03 
1548	 9.17197286774742E-04 
1549	 9.80421103902545E-04 
1550	 8.41613257402174E-04 
1551	 8.7445055628935E-04 
1552	 1.20973667751502E-03 
1553	 1.19871221427861E-03 
1554	 9.84638058304577E-04 
1555	 1.03797286216948E-03 
1556	 1.06186081952381E-03 
1557	 8.9034160000289E-04 
1558	 8.02184373879812E-04 
1559	 9.29092807505523E-04 
1560	 9.70102433647185E-04 
1561	 7.85486725933534E-04 
1562	 8.17551383537815E-04 
1563	 1.10597021412322E-03 
1564	 1.1208345196604E-03 
1565	 9.8818494127394E-04 
1566	 1.1203412183539E-03 
1567	 1.10745639578745E-03 
1568	 8.84578583080285E-04 
1569	 9.65523566982618E-04 
1570	 1.05302792055475E-03 
1571	 8.74701275440505E-04 
1572	 7.88874182595728E-04 
1573	 8.18398050921043E-04 
1574	 8.12355844218158E-04 
1575	 7.79050057796353E-04 
1576	 7.73536348773142E-04 
1577	 7.79221806798184E-04 
1578	 9.05939755634518E-04 
1579	 1.15846933840797E-03 
1580	 1.07940625463429E-03 
1581	 7.72332267940738E-04 
1582	 6.67133609386765E-04 
1583	 8.33187754991022E-04 
1584	 0.001098475104847 
1585	 1.10990882476553E-03 
1586	 1.0053480144524E-03 
1587	 8.58620740686779E-04 
1588	 6.7300437551186E-04 
1589	 7.74096487555782E-04 
1590	 9.86743910030447E-04 
1591	 9.95184969891852E-04 
1592	 8.83948203216828E-04 
1593	 9.90788672480654E-04 
1594	 1.05645710320313E-03 
1595	 8.54320115163799E-04 
1596	 7.0166991805932E-04 
1597	 6.68374539332286E-04 
1598	 8.31510234146421E-04 
1599	 7.77073614807107E-04 
1600	 7.23844289468588E-04 
1601	 9.57310974246961E-04 
1602	 8.00075559623972E-04 
1603	 6.34609963731339E-04 
1604	 8.38821296266871E-04 
1605	 9.92360048228743E-04 
1606	 9.0706617942118E-04 
1607	 8.60470624224219E-04 
1608	 9.05939724154686E-04 
1609	 6.41287766812544E-04 
1610	 5.28414795236085E-04 
1611	 7.80150589432643E-04 
1612	 7.77938601752525E-04 
1613	 8.1166585318902E-04 
1614	 9.85527310477902E-04 
1615	 9.61756052241168E-04 
1616	 1.02610490781143E-03 
1617	 1.06373902844442E-03 
1618	 9.19407797817067E-04 
1619	 9.58010884718127E-04 
1620	 1.15923134022683E-03 
1621	 1.14705095673488E-03 
1622	 9.5743454641787E-04 
1623	 8.60837179467371E-04 
1624	 6.61219450469676E-04 
1625	 7.2378280216133E-04 
1626	 1.11527310520655E-03 
1627	 9.12437715649091E-04 
1628	 6.3353747563051E-04 
1629	 7.12124213159755E-04 
1630	 6.41767275526431E-04 
1631	 6.59298619180681E-04 
1632	 8.93147237009817E-04 
1633	 9.05565134647579E-04 
1634	 6.38724051623752E-04 
1635	 6.45405272514091E-04 
1636	 9.62532506203127E-04 
1637	 1.18747360959185E-03 
1638	 1.12825958926379E-03 
1639	 8.15860196654935E-04 
1640	 6.48334861857797E-04 
1641	 7.10129004060196E-04 
1642	 7.88288237516985E-04 
1643	 9.13415100075684E-04 
1644	 8.55174684246221E-04 
1645	 5.19423425290615E-04 
1646	 5.05244897903232E-04 
1647	 8.87651775592723E-04 
1648	 1.1443509497688E-03 
1649	 1.19963587179632E-03 
1650	 1.00730499780434E-03 
1651	 6.89522493135861E-04 
1652	 6.81110331810027E-04 
1653	 9.19861125411891E-04 
1654	 9.09248177821966E-04 
1655	 6.8698770926702E-04 
1656	 6.98536827302681E-04 
1657	 9.27412000327684E-04 
1658	 8.65982698708844E-04 
1659	 6.29222608085005E-04 
1660	 6.57838309962847E-04 
1661	 7.74280796196213E-04 
1662	 6.19170857463736E-04 
1663	 1.78301017910183E-04 
1664	 2.77038842084717E-04 
1665	 5.95036430023731E-04 
1666	 8.06086591452391E-04 
1667	 1.66663825746748E-03 
1668	 1.6834397065905E-03 
1669	 1.14055654077142E-03 
1670	 8.01944478469953E-04 
1671	 7.38549379270514E-04 
1672	 6.99840390214595E-04 
1673	 6.23196533509313E-04 
1674	 5.60887759832319E-04 
1675	 7.29558395960245E-04 
1676	 8.54045642859965E-04 
1677	 7.61530372442176E-04 
1678	 8.1753400901313E-04 
1679	 7.26224271725728E-04 
1680	 5.40326783848261E-04 
1681	 8.08093964795651E-04 
1682	 1.05363275188369E-03 
1683	 8.66939435527244E-04 
1684	 5.87656991093493E-04 
1685	 5.71856787210338E-04 
1686	 6.38134197829388E-04 
1687	 5.6501853130208E-04 
1688	 8.39634985363849E-04 
1689	 1.01207712969587E-03 
1690	 6.53471688786841E-04 
1691	 4.97099926550891E-04 
1692	 4.74609820890366E-04 
1693	 4.4296348009825E-04 
1694	 7.19589660952302E-04 
1695	 8.28020144946866E-04 
1696	 6.7913638010159E-04 
1697	 7.71757299143493E-04 
1698	 7.72383187461591E-04 
1699	 6.48541414063344E-04 
1700	 7.52451371035424E-04 
1701	 7.51992751999298E-04 
1702	 6.56788975494656E-04 
1703	 1.10683168553511E-03 
1704	 1.48626740181212E-03 
1705	 1.18534193846322E-03 
1706	 1.06298160431103E-03 
1707	 9.07482424492229E-04 
1708	 6.56706236912274E-04 
1709	 8.1678345465449E-04 
1710	 7.00890992417807E-04 
1711	 4.78539363849249E-04 
1712	 4.10190224396449E-04 
1713	 8.15937857527792E-04 
1714	 1.0351353787519E-03 
1715	 8.31312953548819E-04 
1716	 9.82131007660739E-04 
1717	 9.19682135685906E-04 
1718	 6.25905648650694E-04 
1719	 1.03355722470241E-03 
1720	 1.07553117787094E-03 
1721	 9.25234902223175E-04 
1722	 9.70574632339437E-04 
1723	 6.61865335005184E-04 
1724	 7.18117493017077E-04 
1725	 1.08219606442265E-03 
1726	 1.30166505018067E-03 
1727	 1.3017031838402E-03 
1728	 9.22913089150006E-04 
1729	 4.98038780292312E-04 
1730	 5.63980658167745E-04 
1731	 1.19168054484745E-03 
1732	 1.71964868357697E-03 
1733	 1.70352509755884E-03 
1734	 1.02920848366186E-03 
1735	 3.2836056856421E-04 
1736	 3.747394978306E-04 
1737	 6.28193842587615E-04 
1738	 1.16102049841815E-03 
1739	 1.62608208465851E-03 
1740	 1.08405349353239E-03 
1741	 8.2716924727176E-04 
1742	 9.14395903617996E-04 
1743	 4.7158179060069E-04 
1744	 2.19317567533489E-04 
1745	 2.94203127903328E-04 
1746	 4.30559902211328E-04 
1747	 3.42780522097586E-04 
1748	 7.22298326881453E-04 
1749	 9.34692093090678E-04 
1750	 4.4555154467583E-04 
1751	 5.28034096800068E-04 
1752	 1.14182233619201E-03 
1753	 1.28192667824395E-03 
1754	 1.49746487872494E-03 
1755	 1.43208310151631E-03 
1756	 9.41503368586011E-04 
1757	-9.36146242831362E-05 
1758	-4.24358447439752E-04 
1759	 3.87133065331407E-04 
1760	 1.19840514351177E-03 
1761	 1.6529133577343E-03 
1762	 1.82631686715646E-03 
1763	 1.08431910374504E-03 
1764	 3.57198691168458E-04 
1765	 5.2502005156461E-04 
1766	 6.34531777595741E-04 
1767	 2.28173113310595E-04 
1768	 8.39472465882975E-05 
1769	-1.1914279100822E-04 
1770	-2.19697988023029E-04 
1771	 6.05530231645317E-04 
1772	 7.04152049145688E-04 
1773	 3.7846706408993E-05 
1774	 1.01238768866663E-04 
1775	-1.24124203773473E-04 
1776	-4.29704029764145E-04 
1777	-2.4233448423298E-04 
1778	-1.73758715487273E-04 
1779	-7.88425625850481E-04 
1780	-5.46526001662114E-04 
1781	 8.53669240113088E-04 
1782	 9.39524644165228E-04 
1783	 5.30129353557702E-04 
1784	 5.03664923396793E-04 
1785	-5.85191939563352E-05 
1786	-2.29056397892957E-04 
1787	-5.5657795469445E-05 
1788	-1.68090795582948E-04 
1789	-3.87329691333559E-04 
1790	 6.96915961096867E-04 
1791	 9.83905901866682E-04 
1792	 1.01081710332867E-03 
1793	-1.14457945355325E-04 
1794	-6.84554015893425E-04 
1795	 4.33848721375225E-04 
1796	 4.43917008537487E-04 
1797	-3.15190029734209E-04 
1798	-1.83379723183359E-03 
1799	-3.87022253461299E-03 
1800	 7.54309281472573E-04 
1801	 2.14203703650829E-03 
1802	 1.61783555392242E-03 
1803	 1.03211460611153E-03 
1804	-3.63050341185378E-03 
1805	-7.70187582560692E-03 
1806	-1.27507186209756E-02 
1807	-0.013920649680548 
1808	-1.22099006285623E-02 
1809	-1.06358263708889E-02 
1810	 1.61439216608927E-03 
1811	 2.71483486306398E-03 
1812	-9.51326814741288E-03 
1813	-0.010702079157482 
1814	-1.27494728446989E-02 
1815	-2.02360561315563E-02 
1816	-2.10688988018646E-02 
1817	-4.74738074506656E-02 
1818	-0.056509158358371 
1819	-4.62157373770074E-02 
1820	-3.68578173085199E-02 
1821	-3.83077654178544E-02 
1822	-4.09977392566193E-02 
1823	-6.83127797470993E-02 
1824	-8.49644564952647E-02 
1825	-0.101569601758815 
1826	-9.41099027008172E-02 
1827	-3.91268914337793E-02 
1828	 2.34331334667805E-02 
1829	 0.203452308068729 
1830	 0.245470128247282 
1831	-0.494899970145653 
1832	-0.616635938648088 
1833	-0.84110616392223 
1834	-1.06030682862178 
1835	-1.54841854918588 
1836	-2.26630361921628 
1837	-1.51921316680529 
1838	-1.70467375887158 
1839	-2.1952357986647 
1840	-2.57058968987183 
1841	-1.6682010376382 
1842	-3.07375575049139 
1843	-4.13373539809909 
1844	-1.37915401124111 
1845	-1.22362178262964 
1846	-5.52583866185926 
1847	-53.803872243297 
1848	 2.836119514919 
1849	 4.50074831985481 
1850	-2.58180000509024 
1851	-6.24600244110435E-02 
1852	-9.46945062374433E-02 
1853	-0.622652775482626 
1854	-0.769017688057434 
1855	-3.32942533068216 
1856	-6.38796274157851 
1857	-2.31301348624353 
1858	-1.99073894225287 
1859	-2.14070234784759 
1860	 3.84997776331568 
1861	 1.58975082032946 
1862	 0.7093603701593 
1863	-0.217319239868799 
1864	 9.75602394976494E-02 
1865	 0.833458070484072 
1866	 26.1050179809791 
1867	-4.65176871571977 
1868	-1.02351970006395 
1869	-1.08093855295449 
1870	-1.5583194835233 
1871	-4.49449958473826 
1872	 2.08691284339135 
1873	 1.41642675533289 
1874	 1.76103424713571 
1875	 3.78213083463892 
1876	-6.59501670612767 
1877	-1.55883074833725 
1878	-1.43951113307986 
1879	-1.29339406332502 
1880	-0.933462115513908 
1881	-0.681612727863705 
1882	 0.304357346256883 
1883	-0.156665964243225 
1884	-0.758782827034119 
1885	-1.09560878937207 
1886	-1.9545496489489 
1887	-1.73231849340846 
1888	-0.623356857222248 
1889	-0.372452428515154 
1890	-0.283470637266775 
1891	-0.235236924261249 
1892	-0.140405388504617 
1893	-0.180902934642205 
1894	-0.208802938168198 
1895	-0.111412955243363 
1896	 5.23398633450464E-02 
1897	 0.395492034575494 
1898	 0.270857852535874 
1899	-1.71714812704329 
1900	-13.3281879010032 
1901	-3.15878061213273 
1902	-2.18047909787504 
1903	-0.553859113711188 
1904	 3.34617316633546E-02 
1905	-0.108805500036471 
1906	 4.52256306242448E-02 
1907	-0.389810707636905 
1908	-0.195441150402004 
1909	 0.139670845444812 
1910	-0.163092407854472 
1911	-1.37518660406774 
1912	-9.5343062419561 
1913	-7.90429694665091 
1914	-1.38724842297128 
1915	-0.482191152473258 
1916	 0.132635818377399 
1917	 0.314426085574294 
1918	 0.258561249550956 
1919	 0.176243281893492 
1920	-8.74632617611699E-02 
1921	-0.332307135306805 
1922	-0.38119414152849 
1923	-0.348096822890603 
1924	-0.294053674841085 
1925	-0.182527547435198 
1926	-0.104789202583145 
1927	-0.028984989951041 
1928	-4.02467966918168E-02 
1929	-3.22936130074433E-02 
1930	-7.68421501690925E-03 
1931	-4.23920160598033E-02 
1932	-6.13068004331942E-02 
1933	-4.51775421135775E-02 
1934	-0.038939106332384 
1935	-4.74718867069226E-02 
1936	-0.045427111623838 
1937	-2.68227397462532E-02 
1938	-2.72190720440451E-02 
1939	-2.97849369414418E-02 
1940	-3.27751460695215E-02 
1941	-0.027776452599173 
1942	-2.84846238885958E-02 
1943	-2.06072953049949E-02 
1944	-3.65251781209372E-03 
1945	 4.12896598773598E-03 
1946	-1.83404954535986E-03 
1947	-8.15439560290831E-03 
1948	-1.39845258438765E-02 
1949	-1.48474720706986E-02 
1950	-8.11064103683418E-03 
1951	-5.17381624425906E-03 
1952	-3.39522508779021E-03 
1953	-1.87520034087649E-03 
1954	-4.32961982028387E-03 
1955	-1.00717088250912E-02 
1956	-1.35939045028016E-02 
1957	-0.014991687289934 
1958	-1.54059607425516E-02 
1959	-1.60906730472578E-02 
1960	-1.14412280477686E-02 
1961	-6.20002571154009E-03 
1962	-3.65275158947014E-03 
1963	-2.67332625002338E-04 
1964	 4.42735465272484E-04 
1965	-1.0063071770992E-03 
1966	-1.35284376614962E-03 
1967	-0.002265427110753 
1968	-1.49003273401345E-03 
1969	 4.12436820194846E-04 
1970	-3.21100164884821E-04 
1971	-7.4603417247814E-04 
1972	-1.11261549166315E-04 
1973	-1.62323323268752E-03 
1974	-1.75172715675013E-03 
1975	-6.72778818190002E-04 
1976	-4.22602111702163E-04 
1977	 2.82613211298573E-04 
1978	 4.88652892316408E-04 
1979	 4.65580117278756E-04 
1980	 7.72825436696546E-05 
1981	-3.38238708260122E-04 
1982	-6.6767252298623E-04 
1983	-5.0822794654844E-05 
1984	 9.52171734385281E-04 
1985	 1.03721124349274E-03 
1986	 7.35880134608983E-04 
1987	 1.21966544747888E-03 
1988	 1.12687312311764E-03 
1989	 2.44177151109151E-04 
1990	 2.85624807891392E-04 
1991	-4.61718574164628E-04 
1992	-1.81647984205019E-03 
1993	-1.55059628244137E-03 
1994	-1.41609295688979E-03 
1995	-1.16058311237841E-03 
1996	-9.50824722890075E-04 
1997	 4.85885726119724E-04 
1998	 1.32036482086718E-03 
1999	 1.18545364376209E-03 
2000	 2.69677527032873E-04 
2001	-1.76268660262721E-03 
2002	-3.79804722481117E-03 
2003	-5.81043137844015E-03 
2004	-7.64338180504304E-03 
2005	-8.35034939132781E-03 
2006	-7.55518553901294E-03 
2007	-7.15452227082223E-03 
2008	-7.34171539797207E-03 
2009	-5.66428341623011E-03 
2010	-2.3958421262517E-03 
2011	-1.3831669956332E-03 
2012	-5.12129275730569E-04 
2013	 2.05945543965592E-03 
2014	-1.61116024846329E-04 
2015	-4.0109266229048E-03 
2016	-4.00853596118274E-03 
2017	-3.37612967123743E-03 
2018	-3.4010453590629E-03 
2019	-5.55971974064616E-04 
2020	 2.28638118433549E-04 
2021	-2.56449593487642E-03 
2022	-1.99022633158004E-03 
2023	-1.19345834402144E-03 
2024	-1.31845653849485E-03 
2025	-1.2882424004197E-03 
2026	-8.62804580845476E-04 
2027	-7.20688103401036E-04 
2028	-1.20159474940825E-03 
2029	-2.45584251018477E-04 
2030	 1.596647733413E-04 
2031	 1.71785095682014E-04 
2032	 3.43148372778166E-04 
2033	 2.7698246725019E-05 
2034	-1.52289704746751E-04 
2035	-2.02446529836031E-04 
2036	-2.25285695929624E-04 
2037	-1.9467761835348E-04 
2038	-5.68698883445074E-04 
2039	-6.62087979711788E-04 
2040	-4.37321388605066E-04 
2041	-4.96740919640471E-04 
2042	-1.02676773905672E-03 
2043	-6.51087077099479E-04 
2044	 4.52724685705789E-04 
2045	 3.46208139096118E-04 
2046	 1.02450817980888E-03 
2047	 2.3814017354662E-03 
2048	 2.23566735142343E-03 
2049	 2.56888224100347E-03 
2050	 2.60888358216363E-03 
2051	 4.88159812309312E-04 
2052	-6.33356732761393E-04 
2053	-1.19329108923829E-03 
2054	-1.56537732113144E-03 
2055	-1.27997898840829E-05 
2056	 3.38404249385535E-04 
2057	 1.92037209532769E-04 
2058	 2.94746674847866E-04 
2059	-1.5466411486977E-04 
2060	-2.1294735281157E-04 
2061	 5.34133313934867E-04 
2062	 5.22478721253374E-04 
2063	-1.13782081478652E-03 
2064	-1.6147262911483E-03 
2065	-1.99327565972801E-03 
2066	-2.98766027922574E-03 
2067	-1.69838612020506E-03 
2068	-7.44380677104837E-04 
2069	-1.39579954526766E-03 
2070	-1.39662967294933E-03 
2071	-1.43285863556688E-03 
2072	-9.12761641576411E-04 
2073	-5.66002499876441E-04 
2074	 5.43565733024886E-04 
2075	 6.7786342691522E-04 
2076	-3.69747596875828E-04 
2077	-3.52838546749057E-04 
2078	 2.4949712033411E-04 
2079	 2.70595084414915E-04 
2080	 1.45373623095732E-04 
2081	 9.60776254209733E-04 
2082	 1.1293083476514E-03 
2083	 1.11911200859603E-03 
2084	 1.80734296162901E-03 
2085	 1.82961840752804E-03 
2086	 4.26195767659156E-04 
2087	-7.86189444120175E-04 
2088	-3.15237732887211E-04 
2089	-1.84545937012255E-04 
2090	-1.35939811121117E-03 
2091	-1.61950635934477E-03 
2092	-1.30909623876977E-03 
2093	-1.64594890484926E-03 
2094	-1.57899485890849E-03 
2095	 3.35419492514372E-04 
2096	 8.1842322962687E-04 
2097	-1.09748232572288E-05 
2098	-4.54771027955098E-05 
2099	 6.36885078178949E-05 
2100	 6.63379296158128E-04 
2101	 4.98051964140853E-04 
2102	-6.90285640025716E-05 
2103	-2.30190950493574E-04 
2104	-1.04189001080173E-03 
2105	-1.82085302851861E-03 
2106	-2.19450210713328E-03 
2107	-2.20634256472151E-03 
2108	-2.33777751967974E-03 
2109	-1.86901643501213E-03 
2110	-1.35889837755393E-03 
2111	-1.21071599263892E-03 
2112	-6.56612815817682E-04 
2113	-4.19810645428416E-04 
2114	-3.29326153069761E-04 
2115	 2.19681234851716E-04 
2116	 1.01266226098083E-03 
2117	 1.25892540235271E-03 
2118	 1.42623353894406E-03 
2119	 1.39741146817062E-03 
2120	 8.55026338547005E-04 
2121	 5.7068728540822E-04 
2122	 2.9280618367069E-04 
2123	 4.83486847764589E-04 
2124	 5.2977365842139E-04 
2125	 1.43134813909912E-04 
2126	-2.56643272752445E-04 
2127	 3.35520255153876E-04 
2128	 8.14268128930742E-04 
2129	 1.12264196542381E-03 
2130	 1.57145324823866E-03 
2131	 1.06707714271687E-03 
2132	 7.8859211111078E-04 
2133	 1.20337652138825E-03 
2134	 1.00134313213318E-03 
2135	 9.42934143777393E-04 
2136	 4.35051686731169E-04 
2137	-1.03552511737851E-03 
2138	-1.73296619200887E-03 
2139	-2.58830708831506E-03 
2140	-2.51386891937964E-03 
2141	-1.3801534937024E-03 
2142	-1.03961395182702E-03 
2143	-8.0388104432626E-04 
2144	 4.01678066953612E-04 
2145	-1.67718029265025E-05 
2146	-2.99372666158464E-04 
2147	 6.77436963186362E-04 
2148	 3.20753869589407E-04 
2149	-1.61913901569661E-04 
2150	 1.40844201162578E-04 
2151	-4.6705054817698E-04 
2152	-8.36190871258888E-04 
2153	-2.33003688531577E-04 
2154	-1.86228499748345E-04 
2155	-4.02326523237447E-05 
2156	 6.47861047063117E-04 
2157	 5.24722819679447E-04 
2158	-2.88301578668329E-04 
2159	-3.95661390002122E-04 
2160	-8.04538225323752E-04 
2161	-8.88182003775034E-04 
2162	-7.90625671267004E-05 
2163	-5.98302304574868E-05 
2164	-5.99403271053124E-04 
2165	-7.54937827054791E-04 
2166	-1.07698756319458E-03 
2167	-1.07064123163226E-03 
2168	-8.29570119668601E-04 
2169	-1.82595947663633E-04 
2170	 1.42708326398505E-03 
2171	 1.65510201013716E-03 
2172	 5.13380501066662E-04 
2173	 1.7344157060646E-04 
2174	-8.14805289168997E-04 
2175	-2.23558539221178E-03 
2176	-1.53102250306081E-03 
2177	-1.0408117081394E-03 
2178	-1.45127144724603E-03 
2179	-1.28837864513957E-03 
2180	-1.23533286147896E-03 
2181	-7.39567929069888E-04 
2182	 6.31806066968527E-05 
2183	-1.61968053793209E-04 
2184	-4.87709792286471E-04 
2185	-1.01045355150393E-04 
2186	-7.45991606808424E-05 
2187	-1.29218306099333E-04 
2188	-2.38777018678688E-04 
2189	-1.08257144032064E-03 
2190	-1.0302603261708E-03 
2191	 2.00640461182703E-04 
2192	 1.75886442439335E-04 
2193	 2.21351576091314E-04 
2194	 4.63323689156646E-04 
2195	-9.08258552467388E-04 
2196	-1.59173614256675E-03 
2197	-5.33473976540924E-04 
2198	-1.24775765551447E-03 
2199	-3.69247014816423E-03 
2200	-4.58800401551437E-03 
2201	-5.31745701125695E-03 
2202	-4.45922759368745E-03 
2203	-3.08568147615643E-03 
2204	-2.88534527580271E-03 
2205	-1.31688012367242E-03 
2206	-2.54960032980693E-04 
2207	 4.24890582204727E-04 
2208	 2.93690287721863E-03 
2209	 4.14387990546125E-03 
2210	 2.73433686412206E-03 
2211	 4.22110064330619E-03 
2212	 5.09320945932196E-03 
2213	 1.30620898170182E-03 
2214	 4.32233739538182E-04 
2215	-3.49189179771169E-04 
2216	-2.80567252875981E-03 
2217	-3.68821588721271E-03 
2218	-2.29037200714614E-03 
2219	-1.50073309867256E-03 
2220	-1.10845312308689E-03 
2221	-8.10818591333888E-05 
2222	 3.1769849202891E-03 
2223	 3.92820937105499E-03 
2224	 2.90161005227912E-03 
2225	 2.03038704471421E-03 
2226	 8.27216977198928E-05 
2227	-8.71889299659117E-04 
2228	-1.69046291821062E-03 
2229	-2.10454652178211E-03 
2230	-2.14448211769321E-03 
2231	-1.65942284193061E-03 
2232	 3.84761090033439E-05 
2233	 4.86189342364937E-04 
2234	 8.71123022490148E-04 
2235	 2.65802146887591E-04 
2236	 1.18467120660002E-03 
2237	 1.09492509579243E-03 
2238	-5.13828879389464E-04 
2239	-5.5149878251745E-04 
2240	 2.22334244208606E-04 
2241	 9.20342160559428E-05 
2242	-1.5340857049729E-04 
2243	-8.74586523119549E-04 
2244	-2.49517729614507E-03 
2245	-3.24253190904432E-03 
2246	-2.62575306998557E-03 
2247	-4.78647047591039E-05 
2248	 8.96488131257084E-04 
2249	-2.21191185649811E-03 
2250	-3.75780516531118E-03 
2251	-3.22841765026019E-03 
2252	-2.4267014811617E-03 
2253	-7.26957896233023E-04 
2254	 9.58384256926467E-04 
2255	-7.89665432088022E-05 
2256	-1.52362304622489E-03 
2257	-1.24777319853292E-03 
2258	-3.03912834269354E-03 
2259	-2.46060819566952E-03 
2260	-1.05211434656557E-03 
2261	 2.30427373982405E-03 
2262	 1.35655774385257E-03 
2263	-7.89561074986743E-04 
2264	-1.58444721960374E-03 
2265	-4.82276009728451E-03 
2266	-5.95258672284828E-03 
2267	-4.55833055173582E-03 
2268	-4.48783172302593E-03 
2269	-5.41551005248161E-03 
2270	-6.33797082428031E-03 
2271	-5.82819495546066E-03 
2272	-5.44021206096105E-03 
2273	-5.92197150628726E-03 
2274	-6.70190210661107E-03 
2275	-9.3001934682068E-03 
2276	-8.67941258540057E-03 
2277	-5.24024356911761E-03 
2278	-4.33768445901967E-03 
2279	-2.5681187177486E-03 
2280	-9.15602999055352E-04 
2281	-8.57491444792025E-04 
2282	-1.50847318130643E-03 
2283	-2.40894364379289E-03 
2284	-7.43315326802197E-04 
2285	 5.97745445710257E-04 
2286	-1.03747884508332E-04 
2287	 1.17957398082781E-03 
2288	 1.12610375049607E-04 
2289	-3.28292749816919E-03 
2290	-4.97854423990606E-03 
2291	-5.13994038951608E-03 
2292	-1.72591750863108E-03 
2293	 1.22514401077761E-03 
2294	 1.02271285540092E-03 
2295	-5.80704619195631E-04 
2296	-1.9215311905318E-03 
2297	-1.57150789152681E-03 
2298	-2.51124521597598E-03 
2299	-2.36836488117275E-03 
2300	-1.9873558487473E-03 
2301	-2.13157113544887E-03 
2302	-1.89856999539998E-03 
2303	-4.06981896586344E-03 
2304	-3.44612232267045E-03 
2305	-1.8463213864642E-03 
2306	 7.45451802563919E-04 
2307	 6.87415325618496E-03 
2308	 8.77857502714046E-03 
2309	 5.69315619169212E-03 
2310	-2.6247312677242E-04 
2311	-5.70094381979667E-03 
2312	-6.64104798974459E-03 
2313	-4.97922686727676E-03 
2314	-3.19401328682348E-03 
2315	-2.9606338473219E-03 
2316	-3.20337007120064E-03 
2317	-3.66457321373546E-03 
2318	-2.37792963162093E-03 
2319	-1.43452111086704E-03 
2320	-4.58381043264345E-03 
2321	-7.01510408132725E-03 
2322	-7.6058050787128E-03 
2323	-6.31244500512791E-03 
2324	-5.72572490858759E-03 
2325	-5.5356273005242E-03 
2326	-4.89399028499846E-03 
2327	-8.62317980213165E-03 
2328	-9.96835781046213E-03 
2329	-6.13326932590696E-03 
2330	-7.47173881686933E-03 
2331	-1.07058488185663E-02 
2332	-7.3176697040322E-03 
2333	-6.47364698027872E-03 
2334	-9.04650632444556E-03 
2335	-7.71921349080259E-03 
2336	-1.16635577962369E-02 
2337	-1.53273010412483E-02 
2338	-9.21778707122676E-03 
2339	-5.73961588754433E-03 
2340	-2.18978226964783E-03 
2341	 3.17945620480297E-04 
2342	-5.31189417491166E-03 
2343	-8.36055253130034E-03 
2344	-8.67189460845539E-03 
2345	-5.59422547090613E-03 
2346	-1.69623422015141E-04 
2347	 1.35018661915292E-03 
2348	 4.83656349739988E-03 
2349	 1.44019726302274E-03 
2350	-5.09541852899963E-03 
2351	-3.79724268592625E-03 
2352	-3.77429823678846E-03 
2353	-1.6846115338405E-03 
2354	-2.43712523257502E-03 
2355	-1.14488055894939E-02 
2356	-1.43579083514819E-02 
2357	-9.40313815365252E-03 
2358	-9.70257286247062E-03 
2359	-1.10881731642913E-02 
2360	-1.03705057174943E-02 
2361	-1.66422299410277E-02 
2362	-2.15372671898509E-02 
2363	-2.16394890052567E-02 
2364	-2.57593840975576E-02 
2365	-2.73744359344404E-02 
2366	-2.86855723778881E-02 
2367	-3.16158210232105E-02 
2368	-2.51343271241413E-02 
2369	-1.81802730769061E-02 
2370	-1.56809401801591E-02 
2371	-1.45715119926244E-02 
2372	-0.01822603158397 
2373	-2.44515538271173E-02 
2374	-2.98130399056844E-02 
2375	-3.15720315814679E-02 
2376	-2.95414384020642E-02 
2377	-2.85746474286708E-02 
2378	-3.08613624495445E-02 
2379	-0.034365742203357 
2380	-3.38933232271241E-02 
2381	-2.55442455563861E-02 
2382	-2.36432885928173E-02 
2383	-2.34526506087174E-02 
2384	-0.030037906340341 
2385	-5.74912199997522E-02 
2386	-7.06337517622502E-02 
2387	-6.10810333186559E-02 
2388	-5.20428280901127E-02 
2389	-3.51987259769377E-02 
2390	-1.58216295295793E-02 
2391	-1.24068804110865E-02 
2392	-7.78762570765549E-03 
2393	-1.04963427725674E-02 
2394	-3.20947539025251E-02 
2395	-4.54372054866989E-02 
2396	-5.76663604851222E-02 
2397	-6.89410845225093E-02 
2398	-6.10899730569531E-02 
2399	-0.05254324248515 
2400	-3.86028172839691E-02 
2401	 1.45259455207949E-03 
2402	 2.66729140014766E-02 
2403	 2.28395503579428E-02 
2404	 9.05298347835664E-03 
2405	-1.62684272686468E-02 
2406	-3.64044314320367E-02 
2407	-6.37821697101929E-02 
2408	-7.43196703609271E-02 
2409	-6.81577690861463E-02 
2410	-7.88274401509569E-02 
2411	-4.82880801674576E-02 
2412	-1.07966119813974E-02 
2413	-9.63683945838803E-03 
2414	 8.53789053182686E-04 
2415	-6.91301154007167E-03 
2416	-1.64991294657451E-02 
2417	 0.008268523708998 
2418	 4.66807357440523E-02 
2419	 0.122787648525802 
2420	 0.123792770560948 
2421	 7.60809300830888E-02 
2422	 4.40650327877764E-02 
2423	-9.68212428185453E-03 
2424	 8.23961301885119E-03 
2425	 2.03597878419776E-03 
2426	-0.049353605181393 
2427	-5.96898667413402E-02 
2428	-0.115897811434427 
2429	-0.147945574550237 
2430	-0.127259962581195 
2431	-0.12360659176092 
2432	-0.061534018366662 
2433	-3.17526317815374E-02 
2434	-7.62407283616507E-02 
2435	-9.73996961097702E-02 
2436	-0.162069405873643 
2437	-0.158721419863582 
2438	-0.068693644501927 
2439	-3.24661776658445E-02 
2440	-3.14888703425582E-03 
2441	-8.5509848253467E-03 
2442	-5.42809107833691E-02 
2443	-8.08420128694113E-02 
2444	-0.150961659460213 
2445	-0.158471490084823 
2446	-0.116942763316163 
2447	-0.116523176386829 
2448	-8.79662462830192E-02 
2449	-9.80557600159642E-02 
2450	-0.137061960699155 
2451	-0.215035012144301 
2452	-0.271803483235523 
2453	-0.247757286503776 
2454	-0.320953725162652 
2455	-0.221159729598555 
2456	-0.158107892438806 
2457	-0.223257269116747 
2458	-0.124529586921215 
2459	-9.62910089871915E-02 
2460	-0.182766847961012 
2461	-0.163208160433023 
2462	-0.181038095240929 
2463	-0.247791961266418 
2464	-0.238536048371464 
2465	-0.286869905064043 
2466	-0.41374339467042 
2467	-0.420145097568555 
2468	-0.571641424088815 
2469	-0.632927986456308 
2470	-0.547805024457382 
2471	-0.830032026119389 
2472	-0.677490067932279 
2473	-0.562559992714716 
2474	-0.820420801463451 
2475	-0.781358223370421 
2476	-1.09925572521893 
2477	-1.01440033056413 
2478	-0.261415154159353 
2479	-0.177869495101841 
2480	-0.120936309839642 
2481	-0.264651702262869 
2482	-0.792445731929115 
2483	-2.95146474048258 
2484	-13.150573910263 
2485	-4.3978619186915 
2486	-1.88925465898606 
2487	-1.49695781061375 
2488	-0.344783302193557 
2489	-2.27452350915572 
2490	 4.89389839102859 
2491	 20.2961839841438 
2492	 2.92530729396606 
2493	-3.14857708420564 
2494	-0.671063405955792 
2495	-2.20713251916516 
2496	 33.1073585657756 
2497	 8.87001420564963 
2498	-8.86147682863909 
2499	-4.58314246544178 
2500	-3.75984751486965 
