Wavelength	rt0624far00001.asd
350	 0.010594772156834 
351	 0.01175758789696 
352	 1.25180302135241E-02 
353	 1.25894957592714E-02 
354	 1.21371951636958E-02 
355	 1.13545523128826E-02 
356	 1.21675507890861E-02 
357	 1.28928009117966E-02 
358	 0.01188112844045 
359	 1.26976680647977E-02 
360	 1.33370131687608E-02 
361	 1.33290620603347E-02 
362	 1.33693840253279E-02 
363	 1.34660709684103E-02 
364	 1.35766041211956E-02 
365	 1.36715713924921E-02 
366	 1.37621597254677E-02 
367	 1.40262523000613E-02 
368	 1.41470841393433E-02 
369	 1.39672871772015E-02 
370	 0.014352335392113 
371	 1.46334555870352E-02 
372	 1.48284802671931E-02 
373	 0.015305941491728 
374	 0.015718588014846 
375	 1.57659704511963E-02 
376	 1.54881519730552E-02 
377	 1.53616942187545E-02 
378	 1.57481726217551E-02 
379	 1.59932763416909E-02 
380	 1.57568408937672E-02 
381	 1.65086172872525E-02 
382	 1.67102215194149E-02 
383	 0.016520666865571 
384	 1.68717161764303E-02 
385	 1.77858927084904E-02 
386	 0.01811497633003 
387	 0.017879875590243 
388	 1.84162395955837E-02 
389	 1.84757451391136E-02 
390	 1.83463212893714E-02 
391	 1.84593968982563E-02 
392	 1.88769711799396E-02 
393	 1.91486710667587E-02 
394	 1.93463222015386E-02 
395	 1.97305885875808E-02 
396	 2.04705707920825E-02 
397	 2.05580424604288E-02 
398	 2.02625477343217E-02 
399	 2.08646232166693E-02 
400	 2.10222648154453E-02 
401	 2.11249188139601E-02 
402	 2.14854566231521E-02 
403	 2.16388165084517E-02 
404	 2.18123965948561E-02 
405	 2.20817522738915E-02 
406	 2.24042985871238E-02 
407	 2.23657371861154E-02 
408	 0.022584926934623 
409	 2.30346816451289E-02 
410	 2.30479663896074E-02 
411	 2.32455842588083E-02 
412	 2.36154900946569E-02 
413	 2.39786984778676E-02 
414	 2.40243204312168E-02 
415	 2.41866142656429E-02 
416	 2.44262037656436E-02 
417	 2.45669921466855E-02 
418	 2.48867236551591E-02 
419	 2.51847346079157E-02 
420	 2.54592912891881E-02 
421	 2.59393832722421E-02 
422	 2.60758615580446E-02 
423	 2.61950731921034E-02 
424	 2.65950549368421E-02 
425	 2.69886582799633E-02 
426	 2.73272848529087E-02 
427	 2.76445142102042E-02 
428	 2.80128526945933E-02 
429	 2.84252272550133E-02 
430	 2.87222825177712E-02 
431	 2.89512258116578E-02 
432	 2.94068189161221E-02 
433	 2.95936193178105E-02 
434	 2.98795049434716E-02 
435	 3.05266892318824E-02 
436	 3.09398003968616E-02 
437	 3.12818767635854E-02 
438	 3.16306369126799E-02 
439	 3.20173545235453E-02 
440	 3.24771692323228E-02 
441	 0.032905030231993 
442	 3.32577619919508E-02 
443	 3.36002779539871E-02 
444	 3.40262645089363E-02 
445	 0.034433458711771 
446	 3.47219550088406E-02 
447	 3.50192982656221E-02 
448	 3.54125944292248E-02 
449	 3.58364866606595E-02 
450	 3.61233395671185E-02 
451	 0.036292277655481 
452	 3.65361597769107E-02 
453	 3.69167833450253E-02 
454	 3.71865337728963E-02 
455	 3.74022908004752E-02 
456	 3.76194693027383E-02 
457	 3.78719737343845E-02 
458	 0.038039858000764 
459	 3.82291829590464E-02 
460	 3.84574588589262E-02 
461	 3.86433129557889E-02 
462	 3.88110953944586E-02 
463	 3.89666467226021E-02 
464	 3.91159881125888E-02 
465	 3.92593611607417E-02 
466	 0.03952331060711 
467	 3.97366225267673E-02 
468	 3.96889442924206E-02 
469	 4.00473629685272E-02 
470	 4.03945550270418E-02 
471	 4.05406630055139E-02 
472	 4.07302957324551E-02 
473	 4.09419912756489E-02 
474	 4.11723400536417E-02 
475	 4.14255370083631E-02 
476	 4.17476385185052E-02 
477	 4.20239275133709E-02 
478	 4.22333278856434E-02 
479	 4.24361241842658E-02 
480	 4.27889475904899E-02 
481	 4.31569893237927E-02 
482	 4.34431767567155E-02 
483	 4.36931329766629E-02 
484	 4.40875970247846E-02 
485	 4.45380062134656E-02 
486	 4.48906718420991E-02 
487	 4.52656622639246E-02 
488	 4.56758703398634E-02 
489	 4.60685139894052E-02 
490	 4.63477339998739E-02 
491	 4.67314614813274E-02 
492	 4.72577682107575E-02 
493	 0.04786040169029 
494	 0.048307007688201 
495	 4.87953931813789E-02 
496	 4.93055535689207E-02 
497	 4.97359842537444E-02 
498	 5.02738687287767E-02 
499	 5.08238643532926E-02 
500	 5.13561606722815E-02 
501	 5.19858990009253E-02 
502	 5.26253531456993E-02 
503	 5.32501336465767E-02 
504	 5.38598781803989E-02 
505	 5.44591942239467E-02 
506	 5.50829858541935E-02 
507	 5.57507681637827E-02 
508	 5.64531970937328E-02 
509	 5.69507969062889E-02 
510	 5.74817615353303E-02 
511	 5.81828395033758E-02 
512	 5.87698099980442E-02 
513	 5.94299011251088E-02 
514	 6.01739726643485E-02 
515	 6.09271612931163E-02 
516	 6.16188331203628E-02 
517	 6.23309359594848E-02 
518	 6.30863227393885E-02 
519	 6.38209792212228E-02 
520	 6.45189606275063E-02 
521	 6.52176492092796E-02 
522	 6.59424060153846E-02 
523	 6.66028025458793E-02 
524	 0.067318963154058 
525	 6.80951888518331E-02 
526	 6.88593876778039E-02 
527	 6.96717575794835E-02 
528	 7.03859437302431E-02 
529	 7.09830330297794E-02 
530	 7.17493954031914E-02 
531	 7.24981904754874E-02 
532	 7.32352167444797E-02 
533	 7.40089929104076E-02 
534	 7.47129245393024E-02 
535	 7.54537659944725E-02 
536	 7.62719799542873E-02 
537	 7.71136178471054E-02 
538	 7.79215689431712E-02 
539	 7.86784880702828E-02 
540	 7.94054964461323E-02 
541	 0.080198472049294 
542	 8.09753377131784E-02 
543	 8.17533373011477E-02 
544	 8.25978592453956E-02 
545	 8.33358985189358E-02 
546	 8.40788180503309E-02 
547	 8.49033565282366E-02 
548	 8.57666774043101E-02 
549	 8.64755760055533E-02 
550	 8.71626557143356E-02 
551	 8.80162947056372E-02 
552	 8.87720511477744E-02 
553	 8.95554819726087E-02 
554	 9.03660805585208E-02 
555	 9.10385326710999E-02 
556	 9.18253405781791E-02 
557	 9.26397592441439E-02 
558	 9.33688664261813E-02 
559	 9.41340302561234E-02 
560	 0.094843459066613 
561	 9.54585180645761E-02 
562	 0.096001854440721 
563	 9.66993759871436E-02 
564	 0.097385521210441 
565	 9.79410350774884E-02 
566	 0.098433952533242 
567	 9.89517733170295E-02 
568	 9.94324664953551E-02 
569	 9.98083432701963E-02 
570	 0.100344816145723 
571	 0.100818215385841 
572	 0.101149394054393 
573	 0.10144861959141 
574	 0.10183844160718 
575	 0.102207475501248 
576	 0.102447573147748 
577	 0.102666875358478 
578	 0.102828419143679 
579	 0.102994362502407 
580	 0.103257082860224 
581	 0.103402080540389 
582	 0.103426344503478 
583	 0.103380910861146 
584	 0.103357247719503 
585	 0.103375594344161 
586	 0.103335205885001 
587	 0.103135613101225 
588	 0.102956791071898 
589	 0.102857857898242 
590	 0.102774737808745 
591	 0.102530527520893 
592	 0.102264515035369 
593	 0.101900979158157 
594	 0.101384796458038 
595	 0.100833377860408 
596	 0.100221573977021 
597	 9.95570819752451E-02 
598	 9.88661964218745E-02 
599	 9.81298181536217E-02 
600	 9.74653697576907E-02 
601	 9.69476706760262E-02 
602	 9.65455791249363E-02 
603	 9.62597601609751E-02 
604	 9.60809220106415E-02 
605	 9.59976240700574E-02 
606	 9.59981738035706E-02 
607	 9.60240698064328E-02 
608	 0.096056286330466 
609	 9.61155052202251E-02 
610	 9.61026553075326E-02 
611	 9.60822204746526E-02 
612	 9.61045118681697E-02 
613	 9.60664076139036E-02 
614	 9.60568322555039E-02 
615	 9.60562816696645E-02 
616	 9.60005788031521E-02 
617	 9.60116945542488E-02 
618	 9.60124144278016E-02 
619	 9.59622772418341E-02 
620	 0.095911307452815 
621	 9.58953717989617E-02 
622	 9.58734205120881E-02 
623	 9.58111903476146E-02 
624	 9.58525937764011E-02 
625	 9.58468870998287E-02 
626	 9.57459688856061E-02 
627	 9.56148996279264E-02 
628	 9.55693274516383E-02 
629	 9.55960013888883E-02 
630	 9.56272199520039E-02 
631	 9.55251543849358E-02 
632	 9.55083786767729E-02 
633	 9.55060008225202E-02 
634	 9.53430912365022E-02 
635	 0.095217234187236 
636	 9.51036448641707E-02 
637	 9.49662298291767E-02 
638	 9.47834752858696E-02 
639	 9.45209749404702E-02 
640	 9.42888446499604E-02 
641	 9.41685146437646E-02 
642	 9.39409624879436E-02 
643	 9.37180778046444E-02 
644	 9.34960073690216E-02 
645	 9.31853452212864E-02 
646	 9.29219087523096E-02 
647	 9.26535319365777E-02 
648	 9.23418718079238E-02 
649	 9.20607018925804E-02 
650	 9.17953043378535E-02 
651	 9.14821114926299E-02 
652	 9.10707717772087E-02 
653	 9.07105879287704E-02 
654	 9.03105430289207E-02 
655	 8.98276635573732E-02 
656	 8.93707382013271E-02 
657	 8.88535802235416E-02 
658	 8.83810931892987E-02 
659	 8.80153565981162E-02 
660	 8.76281151223648E-02 
661	 8.72596705625845E-02 
662	 8.68926825274126E-02 
663	 8.64977438196922E-02 
664	 8.62426399109458E-02 
665	 8.59917307596197E-02 
666	 8.56921248767084E-02 
667	 8.55145293520125E-02 
668	 0.085408928528581 
669	 8.52547110127278E-02 
670	 8.49673361909383E-02 
671	 0.084756341026164 
672	 8.46688207844786E-02 
673	 8.46285806370843E-02 
674	 8.44699991940908E-02 
675	 8.44328317603689E-02 
676	 8.44732857495985E-02 
677	 8.45021939347379E-02 
678	 8.44304441659665E-02 
679	 8.45753034059631E-02 
680	 8.49088089272257E-02 
681	 8.52651238789746E-02 
682	 8.57919182607993E-02 
683	 8.63449307790335E-02 
684	 8.68016838547626E-02 
685	 8.71278940300036E-02 
686	 8.76720312587723E-02 
687	 8.83109414336851E-02 
688	 8.87525953820284E-02 
689	 8.88941820602235E-02 
690	 8.90482571607639E-02 
691	 0.089148458330057 
692	 8.89506781552381E-02 
693	 8.88451024508645E-02 
694	 8.86311709302949E-02 
695	 8.82043151250273E-02 
696	 8.77038028491888E-02 
697	 8.73062147407452E-02 
698	 8.68000928533197E-02 
699	 8.59754821744824E-02 
700	 8.51996487832839E-02 
701	 0.084448621792102 
702	 8.36755757500272E-02 
703	 8.28094162654597E-02 
704	 8.17679209922807E-02 
705	 8.06479617867125E-02 
706	 7.95190174690098E-02 
707	 7.82842113988433E-02 
708	 7.69717666697204E-02 
709	 7.55855609074484E-02 
710	 7.41070365580122E-02 
711	 7.24976759095349E-02 
712	 7.07189611270125E-02 
713	 6.88432193190348E-02 
714	 6.70096089970371E-02 
715	 6.51187143485392E-02 
716	 0.063166214964223 
717	 6.11733697394006E-02 
718	 5.88835239487085E-02 
719	 5.67690769763888E-02 
720	 5.49141570950475E-02 
721	 5.29783920320977E-02 
722	 5.11115051087535E-02 
723	 4.91010747574209E-02 
724	 4.70056544802019E-02 
725	 4.48764727062609E-02 
726	 4.26518377124489E-02 
727	 4.03050349473681E-02 
728	 0.037868464155723 
729	 3.53726890598753E-02 
730	 3.28630112340605E-02 
731	 3.05156836111736E-02 
732	 2.84919082285634E-02 
733	 2.68111678354515E-02 
734	 2.53548746268296E-02 
735	 2.40661637987156E-02 
736	 2.29619557903971E-02 
737	 2.23357682121323E-02 
738	 2.19255030256455E-02 
739	 2.14736496227082E-02 
740	 2.11862012056014E-02 
741	 2.08896318165324E-02 
742	 2.06921363711375E-02 
743	 2.07760274783968E-02 
744	 2.06822545326903E-02 
745	 2.04616461149159E-02 
746	 0.020238864077732 
747	 2.01551404159503E-02 
748	 2.01563304804297E-02 
749	 2.01533481742232E-02 
750	 2.00958983822981E-02 
751	 2.00939357079567E-02 
752	 2.01204351083467E-02 
753	 2.01404610104269E-02 
754	 2.01175974553377E-02 
755	 2.00482649611597E-02 
756	 1.99670813494944E-02 
757	 1.99069233641778E-02 
758	 1.99005408874111E-02 
759	 1.96557382421615E-02 
760	 1.93058698493583E-02 
761	 1.94090247017177E-02 
762	 1.98020743114369E-02 
763	 1.98083664622258E-02 
764	 1.97624430726672E-02 
765	 2.01249262947039E-02 
766	 2.04644455493143E-02 
767	 2.05522077970794E-02 
768	 2.04731874942711E-02 
769	 2.05795443845953E-02 
770	 2.07287111032437E-02 
771	 2.09510357442463E-02 
772	 2.12309748552593E-02 
773	 2.13498356393929E-02 
774	 2.14873984680107E-02 
775	 2.16617713270071E-02 
776	 2.18365374962151E-02 
777	 2.20893854944297E-02 
778	 2.23531002026637E-02 
779	 2.26008961645686E-02 
780	 2.28583936802944E-02 
781	 0.023078289426232 
782	 2.34480632073306E-02 
783	 2.39820549725012E-02 
784	 2.42262181903207E-02 
785	 2.43951798851246E-02 
786	 2.46842436304619E-02 
787	 2.52001825952741E-02 
788	 2.56310108458022E-02 
789	 2.60516181932024E-02 
790	 2.64919238653187E-02 
791	 2.69155175433992E-02 
792	 2.70481270969801E-02 
793	 2.72883804491019E-02 
794	 2.78578610725387E-02 
795	 2.85438600044915E-02 
796	 2.88500166467731E-02 
797	 2.91446730217562E-02 
798	 0.029768692595591 
799	 3.00458245850446E-02 
800	 3.02803417965807E-02 
801	 3.05979517504763E-02 
802	 3.09862610889608E-02 
803	 3.12485018889762E-02 
804	 3.13290244087075E-02 
805	 3.13597081771433E-02 
806	 3.16341994828846E-02 
807	 3.17647813239682E-02 
808	 3.17018836393671E-02 
809	 3.15139139259123E-02 
810	 3.13653806047042E-02 
811	 3.12696827326451E-02 
812	 3.11318080235946E-02 
813	 3.08291942418206E-02 
814	 3.03915338153574E-02 
815	 3.01258332139847E-02 
816	 2.99141865152868E-02 
817	 2.93459070411382E-02 
818	 2.87295734587945E-02 
819	 2.80206999980211E-02 
820	 0.027191909976978 
821	 2.63159189260324E-02 
822	 2.53090883521603E-02 
823	 2.41416108036973E-02 
824	 2.28733612926346E-02 
825	 2.16457715107004E-02 
826	 2.03975909449514E-02 
827	 1.89633149284066E-02 
828	 1.73122482398717E-02 
829	 1.59826235426273E-02 
830	 1.49187237801626E-02 
831	 1.39972316311156E-02 
832	 1.31164944867671E-02 
833	 1.24681850417602E-02 
834	 1.18801351246932E-02 
835	 1.13775067007095E-02 
836	 1.12955646683322E-02 
837	 1.08051299422366E-02 
838	 1.03754849025135E-02 
839	 1.03674173714598E-02 
840	 1.00730333931854E-02 
841	 9.75242845183877E-03 
842	 9.53222978547754E-03 
843	 9.4190626545117E-03 
844	 9.02519498134549E-03 
845	 8.92915406548067E-03 
846	 9.00674615796476E-03 
847	 8.68038023930549E-03 
848	 8.22022412474279E-03 
849	 7.98484869263967E-03 
850	 8.06016898961871E-03 
851	 8.16083051171399E-03 
852	 8.01756515985658E-03 
853	 7.67644481502811E-03 
854	 7.37129194637434E-03 
855	 7.52907407064649E-03 
856	 7.32126873471213E-03 
857	 6.95557796534767E-03 
858	 6.79680278162872E-03 
859	 6.62879036529737E-03 
860	 6.57080309162516E-03 
861	 6.70568313630722E-03 
862	 6.95745781717542E-03 
863	 0.006480370012679 
864	 6.1527108300245E-03 
865	 6.11640322346762E-03 
866	 5.80509097948425E-03 
867	 5.97190105853923E-03 
868	 5.8985549532742E-03 
869	 5.4595178135745E-03 
870	 5.50763160066647E-03 
871	 5.6192941877281E-03 
872	 5.33574601460911E-03 
873	 4.65297785301937E-03 
874	 4.57633332326912E-03 
875	 4.50225857444396E-03 
876	 4.4265438927337E-03 
877	 4.41496949827639E-03 
878	 4.09868151162459E-03 
879	 4.08254826142385E-03 
880	 4.20147168857534E-03 
881	 4.01240929906856E-03 
882	 3.82111613598571E-03 
883	 3.66341347406509E-03 
884	 3.58598657288492E-03 
885	 3.59556864511443E-03 
886	 3.27724314034874E-03 
887	 3.01223829868122E-03 
888	 2.9820058000014E-03 
889	 3.0185198089235E-03 
890	 2.79609231231901E-03 
891	 2.76260757806392E-03 
892	 2.98667192156283E-03 
893	 2.63223678407378E-03 
894	 2.24654636799688E-03 
895	 2.24374113821105E-03 
896	 2.61198828301835E-03 
897	 2.25287905855149E-03 
898	 2.09225315425111E-03 
899	 1.96473298955478E-03 
900	 1.6181871821744E-03 
901	 1.85863025034854E-03 
902	 1.88368944843505E-03 
903	 1.65810351693246E-03 
904	 1.4657509330977E-03 
905	 1.44849222072013E-03 
906	 1.27749872183801E-03 
907	 1.02953368172616E-03 
908	 1.02228667750636E-03 
909	 1.0356108431873E-03 
910	 8.02272372214585E-04 
911	 3.24589988070508E-04 
912	-8.32851503922985E-05 
913	 4.07305549585987E-04 
914	 7.77729424919807E-04 
915	 5.05013541795255E-04 
916	 9.77845997491392E-06 
917	 4.72665815853798E-04 
918	 4.15661432241816E-04 
919	-3.6838147629681E-04 
920	 1.20116603797305E-04 
921	 3.02948084709138E-04 
922	 1.55906871067234E-04 
923	-7.67739682833968E-05 
924	-2.53320237231113E-04 
925	-3.7074376733045E-04 
926	-1.03455892907769E-03 
927	-2.30839148929902E-03 
928	-1.8357644421471E-03 
929	-2.51272653636785E-03 
930	-3.38036328551243E-03 
931	-2.46159386820811E-03 
932	-3.02334846199033E-03 
933	-4.28991770293957E-03 
934	-5.16280564806269E-03 
935	-4.84972934195281E-03 
936	-3.94592856868829E-03 
937	-4.44550418228181E-03 
938	-4.63651951283936E-03 
939	-2.78530038871058E-03 
940	-2.06451593789519E-03 
941	-2.38178720859852E-03 
942	-2.95645361784251E-03 
943	-3.01214159776275E-03 
944	-4.25685121433496E-03 
945	-3.75961024223899E-03 
946	-3.11773098072722E-03 
947	-5.41326489928909E-03 
948	-4.73063491118616E-03 
949	-4.56413751977486E-03 
950	-4.94726428520812E-03 
951	-3.9277341667349E-03 
952	-4.4932334359417E-03 
953	-4.56408242459426E-03 
954	-4.62837558779458E-03 
955	-6.43016868554986E-03 
956	-5.24371547508963E-03 
957	-5.20333432804789E-03 
958	-5.17619568893149E-03 
959	-1.14990555415622E-03 
960	-1.6721376014404E-03 
961	-1.67071196905572E-03 
962	-9.66091924556693E-04 
963	-3.16720798793862E-03 
964	-3.18235382389886E-03 
965	-3.05223160859512E-03 
966	-3.12361140108153E-03 
967	-2.2164696528869E-03 
968	-2.77067718905516E-03 
969	-2.59024413462832E-03 
970	-1.94479355987866E-03 
971	-3.25032764742047E-03 
972	-4.38125055877704E-03 
973	-4.58775203340569E-03 
974	-4.10216084185104E-03 
975	-3.82844302818619E-03 
976	-2.81127719738499E-03 
977	-3.19808118506337E-03 
978	-4.12246504600622E-03 
979	-2.69073150977629E-03 
980	-0.00474526050801 
981	-4.07664610970039E-03 
982	-1.62433902879709E-03 
983	-3.92634162294914E-03 
984	-4.0026742571474E-03 
985	-3.72832333743921E-03 
986	-3.75802702012222E-03 
987	-3.34405764381328E-03 
988	-4.76687004613773E-03 
989	-4.37825069222015E-03 
990	-3.08386343294497E-03 
991	-4.5075311779953E-03 
992	-2.62819328054773E-03 
993	-0.001676709266365 
994	-2.2640346832081E-03 
995	-2.19219198798407E-03 
996	-2.98839705951242E-03 
997	-3.84082334702735E-03 
998	-4.61072670850017E-03 
999	-5.35365284747113E-03 
1000	-4.28260487447253E-03 
1001	 1.94985805243801E-03 
1002	 1.70510360499428E-03 
1003	 1.69438453489901E-03 
1004	 1.93777676514624E-03 
1005	 2.01463975435493E-03 
1006	 2.16178296206982E-03 
1007	 2.24035033592027E-03 
1008	 2.05259016894103E-03 
1009	 1.99509631446728E-03 
1010	 1.49835644406925E-03 
1011	 9.58640332112229E-04 
1012	 8.79412405498392E-04 
1013	 9.07213386864772E-04 
1014	 1.01904612705357E-03 
1015	 1.68904970019083E-03 
1016	 1.8872377558449E-03 
1017	 1.82735967520728E-03 
1018	 1.79564466496421E-03 
1019	 1.42375480378086E-03 
1020	 1.61797881603699E-03 
1021	 2.2216990992547E-03 
1022	 2.54876995869584E-03 
1023	 2.92091567456719E-03 
1024	 3.24757257429758E-03 
1025	 3.10896981070842E-03 
1026	 2.84672927652699E-03 
1027	 2.55303492438266E-03 
1028	 2.19983357204379E-03 
1029	 2.00057697278524E-03 
1030	 1.5971532094772E-03 
1031	 1.55311604938201E-03 
1032	 1.87795754880202E-03 
1033	 1.97911359869347E-03 
1034	 2.23979222227618E-03 
1035	 2.21314219747729E-03 
1036	 1.98591950058703E-03 
1037	 1.80416183092544E-03 
1038	 1.34166529380521E-03 
1039	 1.09467534762789E-03 
1040	 1.05773792801509E-03 
1041	 1.42552411554713E-03 
1042	 1.65573266082816E-03 
1043	 2.30900562458684E-03 
1044	 2.2719511218512E-03 
1045	 1.75131715470529E-03 
1046	 1.69395614537069E-03 
1047	 1.40793989566844E-03 
1048	 1.49208141804258E-03 
1049	 2.25749367147084E-03 
1050	 2.44303074099885E-03 
1051	 2.43196659475532E-03 
1052	 2.42180892702179E-03 
1053	 2.12555639822737E-03 
1054	 1.96268737749872E-03 
1055	 1.68789855131779E-03 
1056	 1.6994513324569E-03 
1057	 1.85427689472901E-03 
1058	 2.2257478051306E-03 
1059	 2.32723120736901E-03 
1060	 2.67463749509105E-03 
1061	 2.57056411884687E-03 
1062	 0.001940681404671 
1063	 1.71522440933234E-03 
1064	 1.41586678412745E-03 
1065	 1.34008411765274E-03 
1066	 1.61818463045892E-03 
1067	 1.66247724495578E-03 
1068	 1.56695436050921E-03 
1069	 1.6699982749184E-03 
1070	 1.99514228682559E-03 
1071	 2.01837880175879E-03 
1072	 1.73332786519019E-03 
1073	 1.99465082585446E-03 
1074	 1.98223911410123E-03 
1075	 1.58386247168587E-03 
1076	 1.67945142037284E-03 
1077	 2.29550232282708E-03 
1078	 2.33063703431248E-03 
1079	 2.16462007184494E-03 
1080	 2.12420370797043E-03 
1081	 1.74106916695804E-03 
1082	 1.7334878312337E-03 
1083	 2.09087385433173E-03 
1084	 2.34672692452048E-03 
1085	 3.07513248356334E-03 
1086	 3.04250372820351E-03 
1087	 2.12539773590384E-03 
1088	 1.90154019435516E-03 
1089	 1.41108487917533E-03 
1090	 1.3977290247112E-03 
1091	 1.47825935159483E-03 
1092	 2.43306702433523E-03 
1093	 2.47002263426568E-03 
1094	 1.83206163279636E-03 
1095	 1.82140372399817E-03 
1096	 2.09426297859906E-03 
1097	 2.03015302693673E-03 
1098	 2.05189458291971E-03 
1099	 2.01066813340085E-03 
1100	 1.27005805431672E-03 
1101	 1.24347261412926E-03 
1102	 2.24796467094673E-03 
1103	 2.42601050192351E-03 
1104	 2.44561840708817E-03 
1105	 2.2707873260787E-03 
1106	 1.89686785243749E-03 
1107	 1.51303184775761E-03 
1108	 1.91516887825295E-03 
1109	 2.59607604571647E-03 
1110	 2.73086008162367E-03 
1111	 2.55463735167248E-03 
1112	 2.53236576412334E-03 
1113	 2.26307626570038E-03 
1114	 2.08073530862835E-03 
1115	 1.99029617601402E-03 
1116	 2.04495535506506E-03 
1117	 1.87892678036214E-03 
1118	 1.84693111506388E-03 
1119	 2.68601390343404E-03 
1120	 2.89785812718041E-03 
1121	 2.0895433613661E-03 
1122	 2.58922269650686E-03 
1123	 3.86774513233626E-03 
1124	 2.62206463746233E-03 
1125	 2.44717270794756E-03 
1126	 3.05679963131975E-03 
1127	 1.2830025050361E-03 
1128	 8.700193270452E-04 
1129	 1.07537206742244E-03 
1130	 1.62350929741481E-03 
1131	 1.79731044384399E-03 
1132	 3.18314066308571E-03 
1133	 3.1827960123018E-03 
1134	 1.45051184288088E-03 
1135	 1.36149185662254E-03 
1136	 2.2270187410558E-03 
1137	 1.96066921021944E-03 
1138	 1.15700419565056E-03 
1139	 2.0554349389842E-03 
1140	 2.05979929960726E-03 
1141	 1.46648710133286E-03 
1142	 2.34726488757432E-03 
1143	 2.61072438337085E-03 
1144	 1.94280846936779E-03 
1145	 1.37486427593336E-03 
1146	 8.40626479940582E-04 
1147	 1.22277792934119E-03 
1148	 1.57817035152094E-03 
1149	 1.23586541844154E-03 
1150	 1.35804736091167E-03 
1151	 1.44796754199902E-03 
1152	 1.32748476586901E-03 
1153	 1.49181245747974E-03 
1154	 1.63240005889262E-03 
1155	 1.63848448200751E-03 
1156	 1.34171904077166E-03 
1157	 1.65139590377838E-03 
1158	 1.85691624903416E-03 
1159	 1.46653811029263E-03 
1160	 1.41823194657782E-03 
1161	 1.62993016560854E-03 
1162	 1.44495174867142E-03 
1163	 1.49131512801927E-03 
1164	 1.93472704616344E-03 
1165	 2.00752297437123E-03 
1166	 1.56006495623736E-03 
1167	 1.28925387291502E-03 
1168	 1.32656734462667E-03 
1169	 1.14969989801137E-03 
1170	 1.3371044928773E-03 
1171	 1.43691913265975E-03 
1172	 1.49802333831948E-03 
1173	 1.42694294931118E-03 
1174	 1.28580194537371E-03 
1175	 1.3332863993801E-03 
1176	 1.09730656989017E-03 
1177	 1.26642823560409E-03 
1178	 1.45931931872696E-03 
1179	 1.35015807525657E-03 
1180	 1.54032543638441E-03 
1181	 1.67061086988561E-03 
1182	 1.51935725031426E-03 
1183	 1.66415976777523E-03 
1184	 1.6847761427047E-03 
1185	 1.49414932465883E-03 
1186	 1.70991334106665E-03 
1187	 1.92161980229613E-03 
1188	 1.80169514068577E-03 
1189	 1.59284747622457E-03 
1190	 1.44615015728163E-03 
1191	 1.45300192989357E-03 
1192	 1.43718309525444E-03 
1193	 1.56377713521847E-03 
1194	 1.7441403791297E-03 
1195	 1.84023308185535E-03 
1196	 1.69165702576775E-03 
1197	 1.36749355749061E-03 
1198	 1.39753554929403E-03 
1199	 1.56155265757042E-03 
1200	 1.36424174695663E-03 
1201	 1.3422319291973E-03 
1202	 1.49790207736116E-03 
1203	 1.39254980779662E-03 
1204	 1.29716255768673E-03 
1205	 1.22481814725414E-03 
1206	 1.11735728620256E-03 
1207	 1.22878840987002E-03 
1208	 1.58654119234933E-03 
1209	 1.78204811518824E-03 
1210	 1.57592585839768E-03 
1211	 1.43628635280142E-03 
1212	 1.37900587467505E-03 
1213	 1.20989971388436E-03 
1214	 1.15636571006661E-03 
1215	 1.3713994966553E-03 
1216	 1.54608563310232E-03 
1217	 1.65127897832229E-03 
1218	 1.73399537754527E-03 
1219	 1.76988564301238E-03 
1220	 1.92857486135017E-03 
1221	 1.76242286974738E-03 
1222	 1.45391205532629E-03 
1223	 0.001526319991546 
1224	 1.5122005293721E-03 
1225	 1.28747185770389E-03 
1226	 0.001354670413285 
1227	 1.59635728416414E-03 
1228	 1.6553473858387E-03 
1229	 1.6065271217706E-03 
1230	 1.50450991546509E-03 
1231	 1.49779387243549E-03 
1232	 1.61102185636461E-03 
1233	 1.56536238686992E-03 
1234	 1.62453137391578E-03 
1235	 1.72906878091258E-03 
1236	 1.67001414814143E-03 
1237	 1.6069226307483E-03 
1238	 1.64996992993875E-03 
1239	 1.84434090523412E-03 
1240	 1.54797490302579E-03 
1241	 1.45882477428779E-03 
1242	 1.66517578362998E-03 
1243	 1.56602830179554E-03 
1244	 1.51970026853793E-03 
1245	 1.57158809067519E-03 
1246	 1.43870661103397E-03 
1247	 1.43938598082053E-03 
1248	 1.53188952259581E-03 
1249	 1.44329285702881E-03 
1250	 1.42073242159595E-03 
1251	 1.41336823429612E-03 
1252	 1.38810946440816E-03 
1253	 1.44870549546578E-03 
1254	 1.39470539407186E-03 
1255	 1.29510064392311E-03 
1256	 1.31694017231418E-03 
1257	 1.55858359838247E-03 
1258	 1.53799199742972E-03 
1259	 1.2483988531356E-03 
1260	 1.26458385907951E-03 
1261	 1.49761205108063E-03 
1262	 1.51748859568514E-03 
1263	 1.59010124258096E-03 
1264	 1.61182497738551E-03 
1265	 1.79986480908169E-03 
1266	 1.63236212120906E-03 
1267	 1.45458554130765E-03 
1268	 1.79851271313131E-03 
1269	 1.94052572380278E-03 
1270	 1.53080013045774E-03 
1271	 1.35232257484688E-03 
1272	 1.45768285304201E-03 
1273	 1.37181516142989E-03 
1274	 1.23769008351792E-03 
1275	 1.11392821840845E-03 
1276	 1.13892561278573E-03 
1277	 1.27408440620404E-03 
1278	 1.34804465726654E-03 
1279	 1.61818214308984E-03 
1280	 1.76251000702465E-03 
1281	 1.70368524026223E-03 
1282	 1.22890610196003E-03 
1283	 1.30172035015166E-03 
1284	 1.64427820032661E-03 
1285	 1.62486508645055E-03 
1286	 1.63148950688064E-03 
1287	 1.64959920705682E-03 
1288	 1.34721066932099E-03 
1289	 1.27546591778626E-03 
1290	 1.4177143378663E-03 
1291	 1.72462340594195E-03 
1292	 1.74333857519707E-03 
1293	 1.53621882496814E-03 
1294	 1.41890827632457E-03 
1295	 1.39787340336975E-03 
1296	 1.42580131894549E-03 
1297	 1.44838626153764E-03 
1298	 1.42802605330021E-03 
1299	 1.44900595575761E-03 
1300	 1.64696201688445E-03 
1301	 1.79636547262198E-03 
1302	 1.6528957111446E-03 
1303	 1.47867467617155E-03 
1304	 1.30866406490726E-03 
1305	 1.05781063418798E-03 
1306	 1.12657376303811E-03 
1307	 1.90049206525619E-03 
1308	 1.98351544942782E-03 
1309	 1.64267435275335E-03 
1310	 1.7696341038319E-03 
1311	 2.00945040978828E-03 
1312	 1.88364778706437E-03 
1313	 1.73655404386477E-03 
1314	 1.86357393999864E-03 
1315	 1.88514471072736E-03 
1316	 1.67617571520402E-03 
1317	 1.56098943255595E-03 
1318	 1.67150248830304E-03 
1319	 1.58535486155643E-03 
1320	 1.4481305939111E-03 
1321	 1.56839281994639E-03 
1322	 1.9002011778093E-03 
1323	 1.92046569465308E-03 
1324	 1.88078554656474E-03 
1325	 2.07490334539091E-03 
1326	 2.09218462657967E-03 
1327	 1.89144310103979E-03 
1328	 1.79491454546691E-03 
1329	 1.88200169172161E-03 
1330	 1.86994147396782E-03 
1331	 1.94417539799026E-03 
1332	 1.98342868280263E-03 
1333	 1.45082534150303E-03 
1334	 1.34520151077412E-03 
1335	 1.52917010204857E-03 
1336	 1.60164352047036E-03 
1337	 1.64709171846296E-03 
1338	 2.43809182641878E-03 
1339	 2.69616690930336E-03 
1340	 2.26617992743193E-03 
1341	 2.17607565864499E-03 
1342	 0.002366935926602 
1343	 2.3038070959269E-03 
1344	 1.73639101981117E-03 
1345	 1.68561999017929E-03 
1346	 2.29749524035462E-03 
1347	 2.43498339944882E-03 
1348	 2.21056611781946E-03 
1349	 2.91425763835235E-03 
1350	 4.68672653974846E-03 
1351	 5.55036844189355E-03 
1352	 6.45729156832122E-03 
1353	 8.88278213990822E-03 
1354	 0.010784254892362 
1355	 1.28805208284133E-02 
1356	 9.76389045182235E-03 
1357	 1.51857870362149E-02 
1358	 4.19468306145758E-02 
1359	 5.31066180879157E-02 
1360	 5.63804881523446E-02 
1361	 0.088561932690177 
1362	 3.44159238113865E-02 
1363	-4.22691063485077E-02 
1364	-5.05283294336731E-02 
1365	-9.72066522610346E-02 
1366	 1.98966677235936E-02 
1367	 0.162158387463633 
1368	 0.156720101669031 
1369	 8.42857749169032E-02 
1370	 0.1505720484418 
1371	 0.200488116860183 
1372	 8.52129321451311E-02 
1373	-2.11501347394804E-02 
1374	 1.20500435382379E-02 
1375	-0.115007463402043 
1376	-0.164340420141291 
1377	 7.91580746839751E-02 
1378	 0.146141542085243 
1379	 3.55435964646412E-02 
1380	-1.44421292725865E-02 
1381	 1.11860353563765E-02 
1382	 5.38825085905956E-02 
1383	 6.20123088115694E-02 
1384	 2.48878421860738E-02 
1385	 2.69018498514869E-02 
1386	 4.39670873984953E-02 
1387	 3.10571364655975E-03 
1388	 7.97235195250405E-03 
1389	 0.124645183665282 
1390	 0.133098499039828 
1391	 4.42869829273446E-02 
1392	 1.35350253447708E-02 
1393	 8.22991672648307E-04 
1394	 0.028130526152059 
1395	 6.78211591576726E-02 
1396	 5.36917600671338E-02 
1397	 6.19940942752582E-02 
1398	 8.32378600048099E-02 
1399	 4.53245204945477E-02 
1400	 2.00731753260585E-02 
1401	 5.43057025469857E-02 
1402	 5.99257452742807E-02 
1403	 2.48401917873274E-02 
1404	 3.12661784398729E-02 
1405	 3.50683029747843E-02 
1406	 2.01323132296775E-02 
1407	 1.15434983136853E-02 
1408	 1.88987311563443E-02 
1409	 2.09811087622113E-02 
1410	 1.67659176962844E-02 
1411	 1.18731800238506E-02 
1412	 1.13447870132144E-02 
1413	 1.22481948372993E-02 
1414	 8.32346098564839E-03 
1415	 6.77170372121102E-03 
1416	 1.09173574802916E-02 
1417	 9.56565973108047E-03 
1418	 3.2210822925015E-03 
1419	 2.88204040471014E-03 
1420	 4.2209033549117E-03 
1421	 5.51049611168731E-03 
1422	 1.08193565882114E-02 
1423	 9.55216234867429E-03 
1424	 3.25015784846146E-03 
1425	 2.35573460090682E-03 
1426	 1.19009248690026E-03 
1427	 1.21167187137541E-03 
1428	 6.34793127609476E-03 
1429	 6.79513993019615E-03 
1430	 2.63974611119807E-03 
1431	 2.15024640227869E-03 
1432	 3.30789344610614E-03 
1433	 2.33628233189915E-03 
1434	 1.30689355858714E-03 
1435	 1.78858087004496E-03 
1436	 2.64724370265611E-03 
1437	 5.98679339650562E-04 
1438	-8.94348948427166E-04 
1439	 5.98818829633754E-04 
1440	 0.001478211466311 
1441	 6.27575349450896E-04 
1442	 1.7493607734431E-03 
1443	 3.25664767452157E-03 
1444	 2.84747324623267E-03 
1445	 2.33141434013587E-03 
1446	 2.2201618194401E-03 
1447	 1.79579220181267E-03 
1448	 7.96912050941999E-04 
1449	 5.75928263886039E-04 
1450	 1.2896497590533E-03 
1451	 1.13927272861439E-03 
1452	 5.44254179484974E-04 
1453	 5.53218895884717E-04 
1454	 6.71817094945519E-04 
1455	 6.30539093445206E-04 
1456	 8.55191093588729E-04 
1457	 1.79407052222861E-03 
1458	 1.74361376668132E-03 
1459	 9.67965530075637E-04 
1460	 9.88294525628127E-04 
1461	 1.25171681833005E-03 
1462	 1.1044637965714E-03 
1463	 8.96855769123712E-04 
1464	 1.16294221315487E-03 
1465	 1.41950296725559E-03 
1466	 1.3510779468564E-03 
1467	 1.81015778870602E-03 
1468	 2.15405839313331E-03 
1469	 1.86343063096322E-03 
1470	 1.3226211006577E-03 
1471	 1.03289123833513E-03 
1472	 1.01294942745357E-03 
1473	 3.19282689352653E-04 
1474	 8.51639863690882E-05 
1475	 6.40706332796348E-04 
1476	 7.35230766349868E-04 
1477	 5.90923329623651E-04 
1478	 5.72709437708134E-04 
1479	 5.49109497708898E-04 
1480	 7.45800097158601E-04 
1481	 1.07897766317544E-03 
1482	 1.09829205657189E-03 
1483	 9.99947821603052E-04 
1484	 1.22164971883803E-03 
1485	 1.61537245882654E-03 
1486	 1.5056225452612E-03 
1487	 1.52869841581997E-03 
1488	 1.37207204254076E-03 
1489	 3.4479159942219E-04 
1490	 1.68192565256719E-04 
1491	 6.82767509819899E-04 
1492	 7.1362212307489E-04 
1493	 7.34081508791167E-04 
1494	 8.28941253075071E-04 
1495	 6.64461071159211E-04 
1496	 7.34452785519133E-04 
1497	 1.27338326890892E-03 
1498	 1.3256733069022E-03 
1499	 9.3742751462486E-04 
1500	 9.70916047966783E-04 
1501	 1.20032848841858E-03 
1502	 1.08395846519498E-03 
1503	 8.83291371821652E-04 
1504	 9.78241246279226E-04 
1505	 1.22382465680355E-03 
1506	 9.1095638555966E-04 
1507	 6.09285059139719E-04 
1508	 7.30304023152716E-04 
1509	 7.51589509752462E-04 
1510	 7.70912579690386E-04 
1511	 1.14402492423113E-03 
1512	 1.37760044839146E-03 
1513	 1.1635785421091E-03 
1514	 9.56373303970018E-04 
1515	 1.07489487821022E-03 
1516	 1.07432899370112E-03 
1517	 9.45246234031991E-04 
1518	 9.55552137339207E-04 
1519	 9.08780405735819E-04 
1520	 8.94096369197682E-04 
1521	 1.00144750557623E-03 
1522	 1.13313727189078E-03 
1523	 1.20809657983253E-03 
1524	 1.20668066045502E-03 
1525	 1.09478860258074E-03 
1526	 1.06953814879397E-03 
1527	 1.09044657604376E-03 
1528	 1.01274465885367E-03 
1529	 1.03273750177923E-03 
1530	 1.02097029687646E-03 
1531	 9.83759385244419E-04 
1532	 8.85613382427276E-04 
1533	 7.36253225651582E-04 
1534	 7.03130276507577E-04 
1535	 7.97625325840934E-04 
1536	 1.01583895656218E-03 
1537	 1.09726916549286E-03 
1538	 9.66979587318514E-04 
1539	 8.2744667047256E-04 
1540	 7.84053498942255E-04 
1541	 7.318310893792E-04 
1542	 6.65431761735621E-04 
1543	 7.58633710902763E-04 
1544	 8.06182459610948E-04 
1545	 7.93191073288037E-04 
1546	 9.88880618504722E-04 
1547	 1.00932785167205E-03 
1548	 7.74073357173292E-04 
1549	 7.85471993612236E-04 
1550	 9.18645044226926E-04 
1551	 9.25182219552649E-04 
1552	 1.0255549514784E-03 
1553	 1.09220742766812E-03 
1554	 9.70416044160179E-04 
1555	 9.33375645586416E-04 
1556	 9.33020961017308E-04 
1557	 9.3151148172855E-04 
1558	 9.4879635306745E-04 
1559	 9.21399809136994E-04 
1560	 9.760457149696E-04 
1561	 9.76036418810594E-04 
1562	 8.88680082097054E-04 
1563	 1.04430220709758E-03 
1564	 1.14578778916812E-03 
1565	 9.13008936406436E-04 
1566	 8.41445615818967E-04 
1567	 8.79877923562835E-04 
1568	 7.75625759275949E-04 
1569	 7.78077704303784E-04 
1570	 8.33922788178433E-04 
1571	 8.28331113845908E-04 
1572	 8.7795116418156E-04 
1573	 1.07312006314025E-03 
1574	 1.24903072914786E-03 
1575	 1.08622284097985E-03 
1576	 8.85192291211529E-04 
1577	 9.1709536248035E-04 
1578	 9.18597936947961E-04 
1579	 9.40730140695431E-04 
1580	 1.01725372283739E-03 
1581	 1.01544455202417E-03 
1582	 9.66488988406719E-04 
1583	 9.57317703817307E-04 
1584	 9.4288828040273E-04 
1585	 7.49415582068134E-04 
1586	 6.55110210976205E-04 
1587	 8.36926319087758E-04 
1588	 8.18002815003457E-04 
1589	 8.19907450609582E-04 
1590	 1.08736733601923E-03 
1591	 1.01028280091032E-03 
1592	 8.30983028581819E-04 
1593	 9.24273287255489E-04 
1594	 8.91635956243063E-04 
1595	 8.1819709096229E-04 
1596	 9.13361121039999E-04 
1597	 1.0137362855038E-03 
1598	 1.07580961383644E-03 
1599	 1.0006378330846E-03 
1600	 8.65027858021848E-04 
1601	 8.87334197120888E-04 
1602	 8.84255738561678E-04 
1603	 8.53058912585297E-04 
1604	 9.03833510015137E-04 
1605	 9.01195715737939E-04 
1606	 9.89284511774634E-04 
1607	 1.08522096334371E-03 
1608	 1.06585796422192E-03 
1609	 1.09604899891832E-03 
1610	 9.73124789822604E-04 
1611	 9.13504630495027E-04 
1612	 1.04308669381031E-03 
1613	 1.09915896196131E-03 
1614	 9.80151466642583E-04 
1615	 6.09229484567702E-04 
1616	 5.44092503748351E-04 
1617	 8.54697024954244E-04 
1618	 9.34432731949141E-04 
1619	 8.22373171909511E-04 
1620	 7.6511767055415E-04 
1621	 6.03312836997616E-04 
1622	 2.50684340914973E-04 
1623	 2.35441861098414E-04 
1624	 5.22393342600748E-04 
1625	 7.14955190498935E-04 
1626	 8.65306897875172E-04 
1627	 8.69531977264802E-04 
1628	 9.88293718151122E-04 
1629	 1.03314891878042E-03 
1630	 7.954026524312E-04 
1631	 8.22457994228147E-04 
1632	 8.73506277867099E-04 
1633	 7.27727892874298E-04 
1634	 6.53507281478604E-04 
1635	 7.82841392447989E-04 
1636	 9.87363241120102E-04 
1637	 9.35785380918374E-04 
1638	 8.72265889447084E-04 
1639	 9.85892394717476E-04 
1640	 8.88179736457381E-04 
1641	 7.02239407032723E-04 
1642	 9.20443010108908E-04 
1643	 1.1382480985735E-03 
1644	 9.66915028914333E-04 
1645	 9.97071351437465E-04 
1646	 1.08142277847274E-03 
1647	 7.52147998374006E-04 
1648	 6.77760750470449E-04 
1649	 9.34630193710485E-04 
1650	 9.76448206517059E-04 
1651	 9.57626102432932E-04 
1652	 8.37734802837377E-04 
1653	 7.3996455504173E-04 
1654	 7.03126817678256E-04 
1655	 7.42581605985505E-04 
1656	 7.97994472903305E-04 
1657	 8.86758629719105E-04 
1658	 7.50605566668049E-04 
1659	 4.61354578522821E-04 
1660	 5.54929523314597E-04 
1661	 7.10641054478256E-04 
1662	 7.42656293731893E-04 
1663	 1.0594174736718E-03 
1664	 1.03775089849501E-03 
1665	 6.67516155711859E-04 
1666	 6.08764108384096E-04 
1667	 5.56871255928404E-04 
1668	 6.14856743810204E-04 
1669	 6.58163573273992E-04 
1670	 6.21259001753588E-04 
1671	 7.91744098593217E-04 
1672	 1.08668481373118E-03 
1673	 1.19249492183891E-03 
1674	 7.39041762990531E-04 
1675	 4.14710093294724E-04 
1676	 6.30121605643743E-04 
1677	 6.32351215467014E-04 
1678	 6.30376292936188E-04 
1679	 1.05181997151324E-03 
1680	 1.19022813409573E-03 
1681	 9.56953567889518E-04 
1682	 1.09282206869676E-03 
1683	 1.23785345006398E-03 
1684	 9.17371677391604E-04 
1685	 7.38477723080876E-04 
1686	 9.86192910928904E-04 
1687	 1.13805604845007E-03 
1688	 1.07001408446532E-03 
1689	 8.86638176879103E-04 
1690	 9.66058409754055E-04 
1691	 1.16676017912796E-03 
1692	 8.21257447267371E-04 
1693	 7.35278460208912E-04 
1694	 7.88340868766631E-04 
1695	 4.99297019108427E-04 
1696	 7.0961185172306E-04 
1697	 9.79339734241037E-04 
1698	 7.12175807945293E-04 
1699	 5.81450534567015E-04 
1700	 9.54515070019682E-04 
1701	 1.17400156356133E-03 
1702	 9.02891756057126E-04 
1703	 8.41972619358703E-04 
1704	 9.06367569973463E-04 
1705	 8.81361836425721E-04 
1706	 1.49403229098575E-03 
1707	 1.7010617202708E-03 
1708	 7.60539766240924E-04 
1709	 6.04016015132983E-04 
1710	 9.65027364916966E-04 
1711	 7.62665055766635E-04 
1712	 1.04964264406529E-03 
1713	 8.78851231383587E-04 
1714	 8.35043971976818E-04 
1715	 1.17467581438273E-03 
1716	 1.37274869197794E-03 
1717	 1.41263762794871E-03 
1718	 1.18453077977337E-03 
1719	 9.64325005956106E-04 
1720	 9.5125469228841E-04 
1721	 9.68841652463088E-04 
1722	 1.20378650782233E-03 
1723	 1.42305356572989E-03 
1724	 1.29996763993008E-03 
1725	 1.26456362853367E-03 
1726	 1.45995720891683E-03 
1727	 1.43132445975609E-03 
1728	 1.0749804373702E-03 
1729	 8.24844651433996E-04 
1730	 5.98014575519153E-04 
1731	 3.54589190111099E-04 
1732	 4.32088061728137E-04 
1733	 6.03614573790081E-04 
1734	 7.51683634389929E-04 
1735	 9.31367574816693E-04 
1736	 1.21140080938366E-03 
1737	 1.13132813396194E-03 
1738	 6.85033827729077E-04 
1739	 7.51115037110811E-04 
1740	 1.26527927975041E-03 
1741	 1.69402672207757E-03 
1742	 1.51095583380035E-03 
1743	 1.02806635321717E-03 
1744	 4.62424289314399E-04 
1745	 1.21268713920922E-04 
1746	 1.27685960423145E-03 
1747	 1.49905179897793E-03 
1748	 8.68673880263021E-04 
1749	 7.81982574515378E-04 
1750	 9.18899660609603E-04 
1751	 9.8019540252619E-04 
1752	 1.38188448884519E-03 
1753	 1.35599347873787E-03 
1754	 5.71685749761573E-04 
1755	 4.25689099427756E-04 
1756	 6.40289633732784E-04 
1757	 7.14388303923529E-04 
1758	 1.19648183304339E-03 
1759	 1.19401421029259E-03 
1760	 9.50884155020149E-04 
1761	 1.0665382804594E-03 
1762	 8.65506981741064E-04 
1763	 7.3371298838374E-04 
1764	 6.94380573450533E-04 
1765	 9.54271238821896E-04 
1766	 1.27217471960773E-03 
1767	 1.17873270590074E-03 
1768	 1.44290629033252E-03 
1769	 1.00794783926476E-03 
1770	 4.97812986738488E-04 
1771	 1.2875520653817E-03 
1772	 1.10168565907693E-03 
1773	 3.95362724334791E-04 
1774	 7.76570754864888E-04 
1775	 7.77480367928984E-04 
1776	 5.37730549123101E-04 
1777	 8.01806274085519E-04 
1778	 1.04903648297271E-03 
1779	 5.97963540753714E-04 
1780	 6.49756782098499E-04 
1781	 2.07085030315145E-03 
1782	 1.8996134601295E-03 
1783	 1.27246808854202E-04 
1784	-1.60628776364155E-04 
1785	-8.26021341087096E-04 
1786	-3.52130422242271E-04 
1787	 2.66606619191778E-03 
1788	 2.60936113571481E-03 
1789	 1.09335968229558E-03 
1790	 9.55771834729688E-04 
1791	-2.06961654744367E-05 
1792	 8.9883997185811E-04 
1793	 2.12970274325196E-03 
1794	 1.56365422408753E-03 
1795	-2.22369139652454E-04 
1796	-6.37480523192909E-04 
1797	 4.00380798078433E-04 
1798	 1.3872679364457E-03 
1799	 4.40353930848664E-03 
1800	 6.35182654834834E-03 
1801	 6.27752054069714E-03 
1802	 1.2244019731783E-03 
1803	-7.66901369389858E-04 
1804	-2.61556400512369E-03 
1805	-2.86932379873834E-03 
1806	 4.27396868554566E-03 
1807	 7.0304467230266E-03 
1808	 7.0983109435797E-03 
1809	 5.02684022224687E-03 
1810	-6.0650544056286E-03 
1811	-5.15075390379883E-03 
1812	 3.93298925245077E-03 
1813	 1.20571612697328E-02 
1814	 3.97196742574964E-02 
1815	 4.13525956145861E-02 
1816	 1.62906840560916E-02 
1817	-1.34957216566172E-02 
1818	-4.54064979026559E-02 
1819	-3.59298387559197E-02 
1820	-8.59423183533323E-03 
1821	 1.40429554734475E-02 
1822	 4.03840015444784E-02 
1823	 5.55745731523267E-02 
1824	 0.043542042357021 
1825	-1.82948868585212E-04 
1826	-2.59548519021126E-02 
1827	-0.149914878507041 
1828	-0.183790327699307 
1829	-5.14558973321042E-03 
1830	 5.29563248438042E-02 
1831	-0.117060132242806 
1832	-0.14806847577888 
1833	-0.280043974289592 
1834	-0.324469893264207 
1835	 0.389044985048894 
1836	 0.918692835087926 
1837	 0.158473322523259 
1838	 2.46998763893624E-02 
1839	-0.425914912233709 
1840	-0.144181896144019 
1841	 4.67789178119807E-02 
1842	 0.708089733518708 
1843	 0.780915813749091 
1844	-0.767068341354307 
1845	-0.755010840975756 
1846	-0.763431920233528 
1847	-3.14796196189759 
1848	-1.63542362002369 
1849	-2.95021858545871 
1850	 0.161467565783467 
1851	-0.890103075399005 
1852	-0.353744704581237 
1853	-0.431470332993503 
1854	-0.689661125478623 
1855	-1.87575128243474 
1856	-2.74897221679454 
1857	-2.26639189983189 
1858	-2.44045922574454 
1859	 0.245806122752559 
1860	-2.75180532197009 
1861	-1.12230086799933 
1862	 6.58335235438608E-02 
1863	 1.34953603972814 
1864	 1.69614337717522 
1865	 2.88864061173462 
1866	 27.870956094387 
1867	-3.10930343969245 
1868	 0.161724346465709 
1869	 4.33097080160652E-02 
1870	-0.814385315178406 
1871	-3.69984989370319 
1872	 2.63365896109251 
1873	 2.02806074688923 
1874	 1.17255674101378 
1875	 1.50343934355973 
1876	-2.49213533046332 
1877	-0.870091011471175 
1878	-0.740897932618967 
1879	-0.758361742946143 
1880	-0.568208483876007 
1881	 7.00689821978745E-02 
1882	 0.515982416612345 
1883	-0.118412009627644 
1884	-0.268862277813578 
1885	-0.665421414968225 
1886	-1.12163758354517 
1887	-0.52679053343701 
1888	-0.192128783489333 
1889	-0.100586234025074 
1890	-5.92224591840504E-02 
1891	 2.86168180570534E-02 
1892	 0.14534706122074 
1893	 0.190703633768759 
1894	 0.265020995225116 
1895	 0.47182479146864 
1896	 0.336607394096178 
1897	 0.293841072156545 
1898	 0.959195902375152 
1899	 1.02427641540368 
1900	-1.81666317921408 
1901	-1.58058255779599 
1902	-0.950327994539259 
1903	-0.12594406386988 
1904	 0.141040749338826 
1905	 0.227073932400277 
1906	-0.198437930591556 
1907	-2.72116481493301 
1908	-2.63434337803188 
1909	-1.25989674593575 
1910	-0.930369898839182 
1911	-0.382729888687912 
1912	 0.885446334431361 
1913	 2.49954557557975 
1914	 0.395357924571169 
1915	 0.209876035206051 
1916	 0.124288210624865 
1917	 0.169087353938062 
1918	 5.35705470383975E-02 
1919	-0.206211999478394 
1920	-0.22515902077851 
1921	-0.175035449332901 
1922	-0.176347880664562 
1923	-2.67232902820409E-02 
1924	-1.24747553496081E-02 
1925	-9.90370082644886E-02 
1926	-0.118844128494708 
1927	-0.129841661924994 
1928	-0.156854278153261 
1929	-0.101535824880813 
1930	-3.58473230840755E-02 
1931	 9.57480224661989E-03 
1932	 5.30403224355832E-02 
1933	 3.92022803435922E-02 
1934	 6.68786783353266E-03 
1935	-1.51254570737703E-02 
1936	-4.33733552583134E-02 
1937	-4.90732883776723E-02 
1938	-4.24806429476896E-02 
1939	-3.41466483655885E-02 
1940	-1.86360438212958E-02 
1941	 1.65072132906738E-05 
1942	-3.5634750844574E-03 
1943	-3.35823528912788E-03 
1944	 3.25396155375876E-03 
1945	-2.32901031637813E-03 
1946	-5.66223572351961E-03 
1947	-8.54698172453547E-03 
1948	-1.83701727311928E-02 
1949	-1.93991774006714E-02 
1950	-1.04721431820049E-02 
1951	-1.33147728734175E-02 
1952	-0.012664901022682 
1953	-1.00827485498877E-02 
1954	-0.007318789518284 
1955	-1.62940406546346E-02 
1956	-1.60102662854157E-02 
1957	-1.18776321826724E-02 
1958	-1.42945098410684E-02 
1959	-1.15163971607269E-02 
1960	-7.13121966860396E-03 
1961	-7.34525136462133E-03 
1962	-6.68515243051926E-03 
1963	-5.61898135536083E-03 
1964	-4.19508163161506E-03 
1965	-5.7160508029007E-04 
1966	 1.24898754721745E-03 
1967	 2.58190844217051E-03 
1968	 2.86799210646347E-03 
1969	 3.66718709414847E-03 
1970	 3.67752605405579E-03 
1971	 1.59265477017341E-03 
1972	-2.28133326310692E-04 
1973	-4.48882346307456E-04 
1974	-2.13124243256899E-03 
1975	-2.52515229515692E-03 
1976	-6.28243622757843E-04 
1977	-9.67313916892952E-04 
1978	-2.37391025677629E-03 
1979	-2.39941300938578E-03 
1980	-1.92288579856163E-03 
1981	-1.78577449030005E-03 
1982	-1.12855033200985E-03 
1983	 3.67399601551021E-04 
1984	 4.93804131632074E-04 
1985	 4.97687812422117E-04 
1986	 5.05149804483033E-04 
1987	-3.55143001740458E-04 
1988	 6.26583920814377E-04 
1989	 1.39514267379809E-03 
1990	 1.19222918916944E-03 
1991	 2.24939591057064E-03 
1992	 2.54930470510583E-03 
1993	 2.2483253604998E-03 
1994	 2.10477038153293E-03 
1995	 2.15814916238444E-03 
1996	 1.73037480848853E-03 
1997	 7.64383225193634E-04 
1998	 2.02473911066719E-04 
1999	-2.04930380468053E-04 
2000	 1.08649135757208E-05 
2001	 1.80335356421089E-03 
2002	 1.22537408520187E-03 
2003	 1.1533218262685E-03 
2004	 2.7050417170429E-03 
2005	 1.79373014372004E-03 
2006	 3.33073886153364E-03 
2007	 2.91293792642507E-03 
2008	-1.87149977335742E-03 
2009	-3.88544128291757E-03 
2010	-5.15883471497713E-03 
2011	-5.50256904566771E-03 
2012	-4.99191936104275E-03 
2013	-3.60421669288295E-03 
2014	-9.53964868604124E-04 
2015	-1.15385236967529E-03 
2016	-1.14756849267066E-03 
2017	-5.10963263731736E-04 
2018	-7.78729256957193E-04 
2019	-1.20944559409838E-04 
2020	 4.73554046283584E-04 
2021	 6.3793825883477E-04 
2022	 7.70640445907517E-04 
2023	 7.63962025770742E-04 
2024	 6.81174436014198E-04 
2025	 6.97768405907309E-04 
2026	 2.03505419916453E-04 
2027	-5.93725912929187E-04 
2028	-1.20097709278355E-03 
2029	-1.54541110528939E-03 
2030	-1.03340070373786E-03 
2031	 1.06919825007056E-04 
2032	 4.00066759381035E-04 
2033	-4.56177383778267E-04 
2034	-8.64943976221291E-04 
2035	-9.76263671168246E-04 
2036	-1.00041564469207E-03 
2037	-1.21353744176988E-04 
2038	 3.49642622738798E-04 
2039	 7.67555631684605E-04 
2040	 1.2288889586124E-03 
2041	 1.19822595004457E-03 
2042	 1.04745389278706E-03 
2043	 9.98009859801017E-04 
2044	 5.36910705749081E-04 
2045	-2.55508886256392E-04 
2046	 2.01178277364023E-04 
2047	 3.42723499561755E-05 
2048	-3.24855818287489E-04 
2049	 1.38744508140535E-04 
2050	-6.70224719112648E-04 
2051	-1.62800563844503E-03 
2052	-1.03767105959641E-03 
2053	-6.53017991534965E-04 
2054	-3.16760628243953E-06 
2055	 1.3465975375234E-03 
2056	 0.002020561164618 
2057	 1.89446802358547E-03 
2058	 1.52978390950252E-03 
2059	 5.97334439687778E-04 
2060	 3.48613130427548E-04 
2061	-2.44288764180702E-04 
2062	-5.09115147521555E-04 
2063	 3.97807589031554E-04 
2064	 1.26010168232513E-03 
2065	 7.49694109718331E-04 
2066	 5.09871607065635E-04 
2067	-1.62574846664043E-04 
2068	-9.83832502224547E-04 
2069	-1.01428288273494E-03 
2070	-1.78207523780661E-03 
2071	-2.07775925179358E-03 
2072	-1.4877693828016E-03 
2073	-1.20718097803901E-03 
2074	-7.87188900981871E-04 
2075	-3.68944554004247E-04 
2076	 2.52530222200096E-04 
2077	 3.84994634900003E-04 
2078	 8.15999271234612E-05 
2079	 2.29832802315822E-04 
2080	 6.70115316459399E-04 
2081	 2.32984275785588E-04 
2082	 4.48797549960594E-04 
2083	 9.82646606313932E-04 
2084	 4.78727211462557E-04 
2085	 5.22207626653364E-04 
2086	 7.12385915947768E-05 
2087	-4.69002294438452E-04 
2088	 5.05149248912606E-05 
2089	 5.09842034397421E-04 
2090	 4.8861837806215E-04 
2091	 5.15577510015704E-05 
2092	 1.15691802356888E-04 
2093	-1.75237277101281E-04 
2094	 2.18668396325521E-06 
2095	 1.17466015722553E-03 
2096	 1.48071188547383E-03 
2097	 1.16137693157757E-03 
2098	 1.00667981970343E-03 
2099	 6.67719749263913E-04 
2100	 7.92728051833493E-04 
2101	-3.70204858499148E-04 
2102	-1.40684270397411E-03 
2103	-1.6420442424999E-03 
2104	-0.002026854976461 
2105	-6.79840520755194E-04 
2106	 7.9097361660331E-04 
2107	 7.61749015754186E-05 
2108	-1.78394587346571E-04 
2109	 1.13443638326164E-03 
2110	 1.9456410810917E-03 
2111	 2.88132906077259E-03 
2112	 3.86681742913825E-03 
2113	 3.82555791337883E-03 
2114	 1.85503714378605E-03 
2115	 7.44321760006043E-04 
2116	-6.88958229193117E-04 
2117	-1.09689808066024E-03 
2118	-1.27801216704293E-03 
2119	-1.25779151647842E-03 
2120	-2.98290792023433E-04 
2121	 5.74989960490884E-04 
2122	 5.12683323599941E-04 
2123	 1.0199095775402E-03 
2124	 1.48480881981739E-03 
2125	 1.53509019457284E-03 
2126	 1.32632932157299E-03 
2127	 1.04408733588536E-03 
2128	 1.21195960828723E-03 
2129	 9.3435749047374E-04 
2130	 6.8227717201738E-04 
2131	 7.21816838109806E-04 
2132	 1.37921343573495E-04 
2133	-4.06568592230752E-04 
2134	-5.83542775463762E-04 
2135	-5.97493310721203E-04 
2136	-4.60335399439472E-04 
2137	 1.40963422148786E-04 
2138	 6.60987840739202E-04 
2139	 1.38019676501465E-03 
2140	 1.72195304713564E-03 
2141	 2.36910416691674E-03 
2142	 1.88806215102002E-03 
2143	 1.94690722539692E-04 
2144	-5.66218638166217E-04 
2145	-1.19422885907624E-03 
2146	-1.78775332161241E-03 
2147	-4.33305915515325E-04 
2148	 3.33140003771612E-04 
2149	-8.75399423118383E-04 
2150	-1.62940105737976E-03 
2151	-2.43207826818168E-03 
2152	-2.94950055377935E-03 
2153	-1.58006174434865E-03 
2154	-5.52378358288324E-04 
2155	-5.86153473026242E-04 
2156	-3.9134804716794E-04 
2157	-3.10085678682456E-04 
2158	-8.49970029929427E-04 
2159	-6.76644096755115E-04 
2160	 3.5601178792844E-04 
2161	 3.87905482522214E-04 
2162	-4.43942971702489E-04 
2163	-5.93169086015407E-04 
2164	-3.98123678761233E-04 
2165	-4.99632050326364E-04 
2166	-1.18834741329248E-04 
2167	-3.07653571321467E-04 
2168	-2.05511100464695E-03 
2169	-2.43555783668012E-03 
2170	-2.62690183668533E-03 
2171	-0.001522309525872 
2172	-1.1645712904248E-04 
2173	 7.34850821171347E-05 
2174	-5.61306632543494E-04 
2175	-4.05199735048622E-04 
2176	 4.82829203184931E-04 
2177	 1.62818793111915E-03 
2178	 1.52450909818349E-03 
2179	 7.50351189854159E-05 
2180	-7.29746752649068E-04 
2181	-1.57434278458248E-03 
2182	-2.1216832961698E-03 
2183	-8.16989203120958E-04 
2184	-1.04404345571209E-03 
2185	-2.11906853573813E-03 
2186	-2.36506819082917E-03 
2187	-2.39005333718452E-03 
2188	-2.95007064060143E-03 
2189	-3.64571749685808E-03 
2190	-3.57696646203601E-03 
2191	-3.51645844851561E-03 
2192	-2.27109644027652E-03 
2193	 9.53081977619697E-04 
2194	 1.84756040649485E-03 
2195	 2.31834814556317E-03 
2196	 2.1098782202941E-03 
2197	-8.18710916399807E-04 
2198	-1.05097322565942E-03 
2199	 7.29172195134857E-04 
2200	 8.98991849937405E-04 
2201	-3.09733797092924E-05 
2202	 5.18760222471829E-04 
2203	 2.71895347664459E-04 
2204	-8.46559081862193E-04 
2205	-7.50990910684064E-04 
2206	-1.42469912606086E-03 
2207	-2.54741653457264E-03 
2208	-2.57615912481351E-03 
2209	-1.15838849859936E-03 
2210	 7.20569147380523E-04 
2211	 4.81180875215416E-05 
2212	-2.33285294463894E-03 
2213	-3.38982670863886E-03 
2214	-3.60530971344104E-03 
2215	-3.96759372064596E-03 
2216	-2.56674855380989E-03 
2217	-1.89147294202274E-03 
2218	-2.52586422167273E-03 
2219	-2.69635195812472E-03 
2220	-1.89027439650569E-03 
2221	-1.77465762096806E-03 
2222	-2.3318812287134E-03 
2223	-1.9911275937218E-03 
2224	-1.17065277400147E-03 
2225	-8.74118079577198E-04 
2226	-5.73549781004835E-04 
2227	-2.67819674911506E-04 
2228	-5.48218315591874E-05 
2229	-1.64606411152354E-05 
2230	 2.09966025376222E-04 
2231	-6.69811038212412E-05 
2232	-1.09421337061977E-03 
2233	-1.8623687399551E-03 
2234	-3.53951425708203E-03 
2235	-2.84535360433312E-03 
2236	-1.68300041029384E-03 
2237	-2.10061814474887E-03 
2238	-1.97155207122913E-03 
2239	-2.12191091660308E-03 
2240	-3.71954903434729E-03 
2241	-2.78228053234195E-03 
2242	 7.4653942990641E-04 
2243	 1.54436574820142E-03 
2244	 2.4275856437026E-03 
2245	 3.65282655604189E-03 
2246	 1.32943067557877E-03 
2247	-7.51536790661022E-04 
2248	-6.13749535370396E-04 
2249	-8.59634573685279E-04 
2250	-5.02872826512614E-04 
2251	 9.84480865545956E-05 
2252	-1.78227791813187E-03 
2253	-3.7236754139919E-03 
2254	-3.41347801621834E-03 
2255	-1.7322142908898E-03 
2256	 5.83502726313878E-04 
2257	 2.1329631695622E-03 
2258	 2.75201285042745E-03 
2259	 2.75761008009404E-03 
2260	 2.86384110941367E-03 
2261	 3.01952708997273E-03 
2262	 2.60937050577668E-03 
2263	 1.74941399724463E-03 
2264	 7.26363824017322E-04 
2265	-1.7506154192327E-03 
2266	-2.39686231270525E-03 
2267	-1.60704132404317E-03 
2268	-2.05726704096728E-03 
2269	-2.04366239161733E-03 
2270	-1.58416294155997E-03 
2271	-2.07512749033978E-03 
2272	-2.26249188513532E-03 
2273	-1.24718876637219E-03 
2274	-1.52995526688687E-03 
2275	-3.90607965075693E-03 
2276	-3.56579074039268E-03 
2277	-6.09293164694622E-04 
2278	-1.918705998447E-04 
2279	-8.15814740129634E-04 
2280	 2.37704393744001E-04 
2281	 1.50141686956481E-03 
2282	 1.49604372245366E-03 
2283	 1.46840008335939E-04 
2284	-4.76924724187547E-04 
2285	-1.05692972215391E-03 
2286	-3.39934578271163E-03 
2287	-4.59700206202973E-03 
2288	-3.67171669321824E-03 
2289	-4.15050555649932E-03 
2290	-5.15724044539666E-03 
2291	-2.76209367499118E-03 
2292	 1.48928229056981E-03 
2293	 3.51717572517377E-03 
2294	 1.95746691964681E-03 
2295	 5.25702286413496E-04 
2296	 3.18149505907447E-04 
2297	-2.23631671805322E-03 
2298	-3.69790457258619E-03 
2299	-2.17947470945844E-03 
2300	-3.18799574194626E-03 
2301	-2.86398080012935E-03 
2302	 4.06773095057962E-04 
2303	-2.78651126729684E-04 
2304	-1.4232454462298E-03 
2305	 1.6777784272378E-04 
2306	-1.71653656768245E-03 
2307	-3.62306952044332E-03 
2308	-1.90714450109257E-03 
2309	-1.05190977562065E-03 
2310	 1.47965781753154E-03 
2311	 3.74885717358302E-03 
2312	 4.6333864451186E-03 
2313	 2.48516862161272E-03 
2314	-4.63457471911204E-03 
2315	-5.31187919153464E-03 
2316	-7.88222103005818E-05 
2317	 4.25238185302303E-03 
2318	 8.85415209528253E-03 
2319	 6.9983225359003E-03 
2320	 2.0216989232299E-04 
2321	-3.52775094353885E-03 
2322	-5.94879558235974E-03 
2323	-4.69520315119027E-03 
2324	-3.07896920581585E-03 
2325	-1.95241937217723E-03 
2326	 1.33119524001776E-03 
2327	 9.51971112730197E-04 
2328	-1.14349696625664E-03 
2329	-5.7106403178034E-03 
2330	-7.32591083479073E-03 
2331	-5.39469320754565E-03 
2332	-9.45674397940778E-03 
2333	-8.49083777707099E-03 
2334	-7.32094741536546E-03 
2335	-9.27263350361746E-03 
2336	-3.69937904084946E-03 
2337	-5.37869027782173E-03 
2338	-1.23850217319346E-02 
2339	-1.16308412782972E-02 
2340	-8.55078533906658E-03 
2341	-6.52255701350002E-03 
2342	-2.29826592528719E-03 
2343	 2.40776873233294E-03 
2344	 1.84895561790945E-03 
2345	 1.60632115531986E-03 
2346	 8.36505915077586E-04 
2347	-7.07712965931685E-03 
2348	-1.23703379096573E-02 
2349	-1.10289134538577E-02 
2350	-0.011350453710825 
2351	-9.12902988420387E-03 
2352	-6.34191999959384E-03 
2353	-8.51106003984027E-03 
2354	-5.71472823240016E-03 
2355	 2.08908360415354E-03 
2356	 8.78669567692696E-03 
2357	 8.81591523689154E-03 
2358	 6.50957083432114E-03 
2359	 7.92531133167904E-03 
2360	 2.90866640631834E-03 
2361	 1.63581956959073E-04 
2362	 1.50513354181871E-03 
2363	-5.0627622723335E-03 
2364	-7.9268554077976E-03 
2365	-7.40392718542823E-03 
2366	-4.66991236335686E-03 
2367	 3.66898555965158E-03 
2368	 3.58442916440241E-03 
2369	-8.63368606404322E-03 
2370	-1.33217077287179E-02 
2371	-1.23219994481667E-02 
2372	-1.54358777388596E-02 
2373	-3.67731231899317E-03 
2374	 8.38043200243385E-03 
2375	 3.95911842915547E-04 
2376	-1.04618427845065E-03 
2377	 8.7245642727376E-03 
2378	 9.21509823887491E-03 
2379	 0.010223323452613 
2380	 1.14761572232321E-02 
2381	-1.57335469380753E-03 
2382	-1.33668182807307E-02 
2383	-1.37911628813006E-02 
2384	-1.53186485667572E-02 
2385	-6.16066583830596E-03 
2386	 1.21591098028063E-02 
2387	 8.40754049289359E-03 
2388	 3.37780274069874E-03 
2389	 9.00898698591341E-04 
2390	-1.24227348283775E-02 
2391	-1.09495006308806E-02 
2392	-7.26297217568859E-03 
2393	-2.34822635764571E-02 
2394	-3.46115059097931E-02 
2395	-3.69485066531404E-02 
2396	-4.21987519591193E-02 
2397	-3.67085236204597E-02 
2398	-2.47688183462772E-02 
2399	-2.59127233674809E-02 
2400	-2.65367160828125E-02 
2401	-4.26071030897666E-03 
2402	 1.01033999331225E-03 
2403	-1.97677730351258E-02 
2404	-2.07991040657343E-02 
2405	-4.65421421441665E-02 
2406	-7.27318266805953E-02 
2407	-0.039165811768164 
2408	-2.58934230579886E-02 
2409	-2.40805127131214E-02 
2410	-1.29586927061601E-02 
2411	-2.20573075298951E-02 
2412	-2.19730740892166E-02 
2413	-8.80627304907903E-03 
2414	-3.8376730159501E-03 
2415	 2.78525615277028E-02 
2416	 4.82761938061372E-02 
2417	 1.44466260444607E-02 
2418	 1.11596306738859E-02 
2419	-3.13361930333044E-02 
2420	-8.48047452409964E-02 
2421	-3.49951358700121E-02 
2422	-2.46952342489897E-02 
2423	-3.64438607317666E-02 
2424	-8.27360989348193E-03 
2425	-1.35919127023264E-02 
2426	-2.4968031443116E-04 
2427	 2.97000929834755E-02 
2428	 2.32133557065216E-02 
2429	 2.29880166525016E-02 
2430	 2.87303054628138E-02 
2431	 3.55176618417964E-02 
2432	 5.68752259777323E-02 
2433	 7.49848969417511E-02 
2434	 6.76697021944422E-02 
2435	 4.25049321978783E-02 
2436	 2.94978042711913E-02 
2437	-3.69920861365344E-02 
2438	-8.63529832518135E-02 
2439	-7.84953695211576E-02 
2440	-6.61930367548651E-02 
2441	 1.19722637554928E-02 
2442	 6.15596208994949E-02 
2443	 4.61876798494562E-02 
2444	-2.98400384243244E-02 
2445	-0.180964084162314 
2446	-0.22735304505112 
2447	-0.196043221948963 
2448	-0.202188024673776 
2449	-0.215823395339727 
2450	-0.199232690834233 
2451	-0.152429106946539 
2452	-0.089106733730132 
2453	-5.88056278277422E-03 
2454	 2.94736870100711E-02 
2455	 0.053032183522973 
2456	 8.71597913727722E-02 
2457	 0.103015932114906 
2458	 9.96580439521358E-02 
2459	 2.88123230746167E-02 
2460	-2.99685856595769E-02 
2461	-2.73520666275992E-02 
2462	-6.25551188704473E-02 
2463	-7.95710410764398E-02 
2464	-0.135473252341532 
2465	-0.333727329772497 
2466	-0.395783466622198 
2467	-0.352935482147959 
2468	-0.560968243097665 
2469	-0.402230553029701 
2470	-0.221342390628622 
2471	-0.397912218547327 
2472	-0.197488957177167 
2473	 1.08670002359059E-03 
2474	-0.222193021907291 
2475	-0.604449874629445 
2476	-0.918281902318625 
2477	-0.873835930936106 
2478	-0.390142228142547 
2479	-7.83944448728079E-02 
2480	-8.30260904347657E-02 
2481	-0.167883916212044 
2482	-0.251685350993735 
2483	-0.414598397130566 
2484	 0.590860475537349 
2485	 1.09236004842271 
2486	 0.422376597768239 
2487	 1.49430411172854 
2488	 2.24787668679962 
2489	 2.86812778361737 
2490	-3.00636602311756 
2491	-6.92599347567494 
2492	 1.84814460504825 
2493	-1.73356319134678 
2494	-0.294539978099621 
2495	-0.852320554075091 
2496	-13.9800878510651 
2497	-2.35408648217015 
2498	 6.75084259968287E-02 
2499	 0.530097043581731 
2500	-0.424244055275214 
