Wavelength	rt0624far00005.asd
350	 1.05489556541141E-02 
351	 1.15444243356193E-02 
352	 1.23831042896665E-02 
353	 1.24194563305456E-02 
354	 1.18068602331502E-02 
355	 1.18829600859037E-02 
356	 1.24733856489056E-02 
357	 1.27508486018827E-02 
358	 1.22841924807578E-02 
359	 0.013260710839799 
360	 0.013753323356168 
361	 0.01347097299578 
362	 1.33229146944976E-02 
363	 1.34335985083426E-02 
364	 1.35144190645193E-02 
365	 1.35243787616833E-02 
366	 0.013886898272786 
367	 1.41827142576695E-02 
368	 1.44075456208327E-02 
369	 1.45759620597868E-02 
370	 1.43144103355847E-02 
371	 1.43602653364885E-02 
372	 1.48123361981799E-02 
373	 1.53371059230529E-02 
374	 1.56787261165467E-02 
375	 1.55595486883135E-02 
376	 0.015172575141263 
377	 1.52994506435118E-02 
378	 1.57434429079776E-02 
379	 1.61067722242157E-02 
380	 1.61721135088675E-02 
381	 0.016441748267202 
382	 1.66677346598598E-02 
383	 1.69433493149684E-02 
384	 1.74838767415841E-02 
385	 0.018215811487053 
386	 1.86184862466128E-02 
387	 1.86172399358727E-02 
388	 0.018654141071984 
389	 1.86638581783817E-02 
390	 1.87346237750973E-02 
391	 1.89169695284405E-02 
392	 1.91520354915876E-02 
393	 1.92491414655253E-02 
394	 1.93786664074236E-02 
395	 1.97780041598889E-02 
396	 2.03315352970778E-02 
397	 2.05529798834238E-02 
398	 2.06592136124061E-02 
399	 2.13821769786848E-02 
400	 2.13359696824367E-02 
401	 2.13463450227199E-02 
402	 2.18950121597047E-02 
403	 2.19361783563881E-02 
404	 2.21493977194097E-02 
405	 2.24900112059993E-02 
406	 0.022694053273702 
407	 2.28355010840394E-02 
408	 2.31066598669039E-02 
409	 2.33883567598077E-02 
410	 2.32979154927923E-02 
411	 0.023561590474313 
412	 2.39829852497301E-02 
413	 2.42995358586173E-02 
414	 2.45129295224397E-02 
415	 2.47016287395893E-02 
416	 2.48269584887425E-02 
417	 2.48697125453528E-02 
418	 2.52146131086058E-02 
419	 2.56102038633998E-02 
420	 2.59637753206552E-02 
421	 2.63956378438436E-02 
422	 2.65844054748754E-02 
423	 2.67817214928595E-02 
424	 2.71673274557857E-02 
425	 2.73616576278957E-02 
426	 2.77524589617394E-02 
427	 2.82652464579739E-02 
428	 2.86375938962697E-02 
429	 2.90497734426046E-02 
430	 2.93529254076708E-02 
431	 2.95681443158505E-02 
432	 2.99396223728932E-02 
433	 3.02188809751546E-02 
434	 3.05862747925658E-02 
435	 3.11444203867566E-02 
436	 3.15016251141514E-02 
437	 3.18332576361176E-02 
438	 0.032226008933722 
439	 3.26969755106032E-02 
440	 3.31292807409294E-02 
441	 3.35295168662096E-02 
442	 3.39145745711906E-02 
443	 3.42927302517117E-02 
444	 3.47046003291644E-02 
445	 0.035088449741751 
446	 3.54003186638605E-02 
447	 3.57849540269155E-02 
448	 3.61402298373348E-02 
449	 3.64590130171132E-02 
450	 3.68028997450963E-02 
451	 3.71126319068904E-02 
452	 3.73518133976446E-02 
453	 3.75564035300566E-02 
454	 3.79054234197297E-02 
455	 3.82048398349024E-02 
456	 0.038446045265766 
457	 3.86745903774655E-02 
458	 3.88257538855859E-02 
459	 0.039071225692403 
460	 3.93659876679679E-02 
461	 3.94531937027863E-02 
462	 3.96061460012186E-02 
463	 3.98253924589945E-02 
464	 4.00496440228226E-02 
465	 4.01936145293784E-02 
466	 4.04541713959668E-02 
467	 4.06772272167358E-02 
468	 4.06415680877233E-02 
469	 4.09969286984835E-02 
470	 0.041362282031996 
471	 4.15367122016136E-02 
472	 4.16855130765241E-02 
473	 4.18862657376269E-02 
474	 4.21347110571281E-02 
475	 4.23993171082852E-02 
476	 4.26622667295032E-02 
477	 4.29161261344697E-02 
478	 4.31720567748681E-02 
479	 0.043457100855902 
480	 4.38252972914863E-02 
481	 4.41344016085496E-02 
482	 4.43475639473676E-02 
483	 4.46850821554654E-02 
484	 4.50914789645236E-02 
485	 0.045498673857303 
486	 4.58555345259022E-02 
487	 0.046260321425136 
488	 4.66924454669487E-02 
489	 4.71063729588312E-02 
490	 0.047448543502488 
491	 4.78220121706226E-02 
492	 4.82727464755138E-02 
493	 4.88090611625412E-02 
494	 4.94100550054002E-02 
495	 4.98440985854238E-02 
496	 5.02335105821382E-02 
497	 5.08404968283232E-02 
498	 5.13776448170522E-02 
499	 5.19653111057946E-02 
500	 5.26273717821928E-02 
501	 5.31792892983414E-02 
502	 5.37714452605339E-02 
503	 5.44228435820013E-02 
504	 5.50812573389005E-02 
505	 5.55535032316988E-02 
506	 5.60936983469822E-02 
507	 5.67883590620459E-02 
508	 5.75623312727502E-02 
509	 5.81827017012849E-02 
510	 5.87675492388611E-02 
511	 5.93977136948193E-02 
512	 5.99070776712474E-02 
513	 0.060524647665902 
514	 6.12762345041989E-02 
515	 6.20727484283966E-02 
516	 6.27687537504374E-02 
517	 6.35325580136814E-02 
518	 0.064339331178428 
519	 6.49021394543522E-02 
520	 6.56851829225723E-02 
521	 6.65105954051884E-02 
522	 6.71638994165356E-02 
523	 6.78054509468966E-02 
524	 6.85399672507668E-02 
525	 6.93508940563887E-02 
526	 7.01438993257462E-02 
527	 7.10168313953954E-02 
528	 7.17376854263358E-02 
529	 7.22686761704717E-02 
530	 7.30297844627411E-02 
531	 0.073857303665472 
532	 7.46554611726222E-02 
533	 7.53722626573576E-02 
534	 7.61421774111966E-02 
535	 7.69525429952657E-02 
536	 7.77611268370154E-02 
537	 7.85015261945094E-02 
538	 7.93399647247892E-02 
539	 8.01648572682217E-02 
540	 8.09008768440756E-02 
541	 0.081834876201862 
542	 8.26271906872855E-02 
543	 8.33223982168871E-02 
544	 8.41849946442772E-02 
545	 8.50197492096333E-02 
546	 8.58117600913246E-02 
547	 8.65865042092582E-02 
548	 0.087406693998299 
549	 8.81993622319074E-02 
550	 8.89571714889578E-02 
551	 8.97062920880514E-02 
552	 9.04964670593353E-02 
553	 9.13352848994098E-02 
554	 9.21590451226788E-02 
555	 9.28303925670773E-02 
556	 9.36447380672387E-02 
557	 0.094489278812565 
558	 9.52178321227877E-02 
559	 9.59518985005603E-02 
560	 9.66563767672298E-02 
561	 9.73317438742006E-02 
562	 9.80020649576636E-02 
563	 9.86513745663314E-02 
564	 9.92695354315055E-02 
565	 9.98555514002813E-02 
566	 0.100424222485532 
567	 0.101003098571643 
568	 0.101521347352991 
569	 0.101920621962484 
570	 0.102442040560059 
571	 0.102884185256277 
572	 0.103221211769746 
573	 0.103639560218919 
574	 0.104021032578497 
575	 0.104347353538239 
576	 0.104618847600218 
577	 0.10483081182927 
578	 0.104993646567092 
579	 0.10517454523021 
580	 0.105446730637098 
581	 0.105605744523774 
582	 0.105670141596637 
583	 0.105682918401464 
584	 0.105670125864186 
585	 0.105699169416061 
586	 0.105679835239853 
587	 0.10550345978897 
588	 0.105313949409118 
589	 0.105168205203222 
590	 0.10503325220227 
591	 0.104788094959064 
592	 0.104564748747917 
593	 0.104264737874826 
594	 0.103796014974047 
595	 0.10321419645477 
596	 0.102536783601739 
597	 0.101795431868947 
598	 0.101041639073089 
599	 0.100398311692617 
600	 9.97784509256528E-02 
601	 9.91954693921934E-02 
602	 9.88861765165165E-02 
603	 9.86641456992121E-02 
604	 9.84808260852576E-02 
605	 9.83475483258503E-02 
606	 0.098327902697611 
607	 9.84186517431788E-02 
608	 9.85158405575423E-02 
609	 9.84297209607232E-02 
610	 9.84082229708148E-02 
611	 9.84620281103297E-02 
612	 9.85427622222696E-02 
613	 9.86021292105416E-02 
614	 9.85631868536138E-02 
615	 9.84856746166485E-02 
616	 9.84971329484138E-02 
617	 9.85373748062395E-02 
618	 9.85182323879937E-02 
619	 9.84331850875952E-02 
620	 0.098407601116355 
621	 9.83992901133779E-02 
622	 9.83838846277567E-02 
623	 9.83406236681675E-02 
624	 9.82412305727116E-02 
625	 9.82487985369003E-02 
626	 9.83262121575483E-02 
627	 9.82550666021964E-02 
628	 9.82037540594414E-02 
629	 9.81606818309892E-02 
630	 9.80983515531483E-02 
631	 9.80273254723233E-02 
632	 9.80626491597846E-02 
633	 0.09808920673848 
634	 9.79201395836639E-02 
635	 9.77680253922937E-02 
636	 9.76156612794172E-02 
637	 9.74619350000422E-02 
638	 9.73614646484487E-02 
639	 9.71797627874704E-02 
640	 9.69805382376194E-02 
641	 0.096842424261225 
642	 9.66499967619438E-02 
643	 9.63873929557091E-02 
644	 0.096084143283722 
645	 9.58081312655623E-02 
646	 9.55984757617098E-02 
647	 9.53200728711077E-02 
648	 0.094943003297059 
649	 9.47670107451854E-02 
650	 9.45228190116126E-02 
651	 9.41646142817128E-02 
652	 9.37524898161055E-02 
653	 9.33962439236974E-02 
654	 9.29466239753918E-02 
655	 9.23888229682008E-02 
656	 9.19849783367319E-02 
657	 0.091550315761616 
658	 9.10977469883187E-02 
659	 9.06800706140583E-02 
660	 9.04032172429213E-02 
661	 9.00407797245233E-02 
662	 8.96175862919443E-02 
663	 8.93146970205616E-02 
664	 8.90733807218255E-02 
665	 8.88040859131717E-02 
666	 8.84883124220804E-02 
667	 8.82430730334296E-02 
668	 8.81053759726207E-02 
669	 8.79899120699205E-02 
670	 8.77937422484129E-02 
671	 8.75480928115216E-02 
672	 8.74530063334956E-02 
673	 8.74907138154991E-02 
674	 8.74409496750751E-02 
675	 8.73339795898249E-02 
676	 8.72855603687469E-02 
677	 8.73554508300455E-02 
678	 8.74107672096985E-02 
679	 8.75687118390409E-02 
680	 8.78113071600933E-02 
681	 8.80878158379848E-02 
682	 8.85834125508727E-02 
683	 8.91260413508841E-02 
684	 8.95920795476857E-02 
685	 8.99964168864432E-02 
686	 9.04778240843292E-02 
687	 9.10093878422563E-02 
688	 9.14520420352564E-02 
689	 9.16272925700073E-02 
690	 9.17711770124321E-02 
691	 9.18296558420928E-02 
692	 9.16202610238843E-02 
693	 9.15264941472322E-02 
694	 9.12819438409691E-02 
695	 9.07921879678836E-02 
696	 9.03424182062597E-02 
697	 0.089931223666196 
698	 8.93146265526844E-02 
699	 8.83455830765853E-02 
700	 8.76521811751491E-02 
701	 8.69673916442835E-02 
702	 8.61674176969051E-02 
703	 8.52667292355362E-02 
704	 8.42283566724013E-02 
705	 8.31390033178931E-02 
706	 8.20256092041183E-02 
707	 8.06950905591316E-02 
708	 7.93080368319877E-02 
709	 7.79104036585674E-02 
710	 7.64692191267044E-02 
711	 7.48483239843331E-02 
712	 0.072991205992356 
713	 0.071026800983512 
714	 6.92126944224192E-02 
715	 6.72805762275641E-02 
716	 0.065204319293067 
717	 6.30461041668364E-02 
718	 6.06778171905026E-02 
719	 0.058561889509362 
720	 5.67366156988839E-02 
721	 5.48138276111495E-02 
722	 5.29516171843737E-02 
723	 5.08417287497232E-02 
724	 4.85633903455756E-02 
725	 4.63460894436967E-02 
726	 4.41679922550843E-02 
727	 4.18037576330726E-02 
728	 3.91718507116834E-02 
729	 3.65955884552784E-02 
730	 3.40450141927958E-02 
731	 3.16554848065122E-02 
732	 2.95678774541346E-02 
733	 2.78164031926511E-02 
734	 2.63010391480353E-02 
735	 2.49924324188633E-02 
736	 2.39439747700139E-02 
737	 2.32778223698514E-02 
738	 2.28112533061003E-02 
739	 0.022363867544016 
740	 2.19903269051852E-02 
741	 2.16696385197941E-02 
742	 2.14840096985929E-02 
743	 2.15173520449918E-02 
744	 2.14780655928004E-02 
745	 2.13898122777831E-02 
746	 2.12726262956181E-02 
747	 0.021092619008959 
748	 2.10683561349795E-02 
749	 2.10531264696537E-02 
750	 2.09135439585412E-02 
751	 2.08845643132405E-02 
752	 2.08894457991546E-02 
753	 2.09168183385769E-02 
754	 2.09767212652745E-02 
755	 2.09714993416825E-02 
756	 2.08876928656271E-02 
757	 2.07589997156008E-02 
758	 2.06581003553112E-02 
759	 2.05440405037176E-02 
760	 2.04079443731975E-02 
761	 2.03663841935158E-02 
762	 2.05868358554504E-02 
763	 2.07327243160085E-02 
764	 2.07921835298975E-02 
765	 2.08929893899956E-02 
766	 2.11892478135263E-02 
767	 2.13245630885092E-02 
768	 2.13140851848827E-02 
769	 2.15085555395867E-02 
770	 2.16317042767298E-02 
771	 2.17949383456832E-02 
772	 2.20766758011298E-02 
773	 2.22668951088271E-02 
774	 2.24041875647583E-02 
775	 0.022565423024928 
776	 2.28189805144868E-02 
777	 2.30317578266047E-02 
778	 2.32614010249085E-02 
779	 2.35390338531375E-02 
780	 2.38558217293188E-02 
781	 2.42014869036229E-02 
782	 2.45765724602409E-02 
783	 2.49512415248705E-02 
784	 2.52178300262362E-02 
785	 2.55311099316922E-02 
786	 2.59499460480853E-02 
787	 2.64457994898376E-02 
788	 2.67699648832578E-02 
789	 2.71768923658976E-02 
790	 2.76893031755407E-02 
791	 0.028120357243948 
792	 2.83073563571632E-02 
793	 2.86810981478093E-02 
794	 2.93420881370991E-02 
795	 2.97253406921655E-02 
796	 3.00867657962292E-02 
797	 3.04795923460908E-02 
798	 3.08930411679676E-02 
799	 3.12418791059672E-02 
800	 3.16539095717499E-02 
801	 3.20418482399658E-02 
802	 3.22431601593077E-02 
803	 3.24734717815051E-02 
804	 3.25762005914331E-02 
805	 3.26715877058327E-02 
806	 3.31753180547836E-02 
807	 3.32402346341237E-02 
808	 3.29799655094825E-02 
809	 3.27249080380108E-02 
810	 3.28411369745563E-02 
811	 3.27460303972084E-02 
812	 3.24602383554163E-02 
813	 3.21953918547882E-02 
814	 0.031768670048507 
815	 3.14764466820916E-02 
816	 3.12353619786516E-02 
817	 0.030681911386268 
818	 2.99887411140607E-02 
819	 2.92342954411357E-02 
820	 2.84434535329611E-02 
821	 2.76193712284408E-02 
822	 2.65352811632924E-02 
823	 2.52484170899215E-02 
824	 2.39295625678195E-02 
825	 2.27293114910434E-02 
826	 2.14224144213869E-02 
827	 1.98633104505106E-02 
828	 1.81422419567804E-02 
829	 1.69737474598258E-02 
830	 1.59060084239674E-02 
831	 1.48006013376082E-02 
832	 1.38266652998847E-02 
833	 0.012943127023498 
834	 1.22670692082703E-02 
835	 1.18682786360818E-02 
836	 1.17357760561102E-02 
837	 1.13128349409717E-02 
838	 1.09441039360449E-02 
839	 1.08899130087991E-02 
840	 1.06267371335537E-02 
841	 1.03773859387903E-02 
842	 1.02329371487113E-02 
843	 1.01578583308534E-02 
844	 9.72185165835631E-03 
845	 9.56004010305527E-03 
846	 9.59106283430346E-03 
847	 9.25230633295759E-03 
848	 8.69293333546585E-03 
849	 8.57860286671696E-03 
850	 8.86099846934801E-03 
851	 8.57351339572631E-03 
852	 8.42546855972975E-03 
853	 8.12150578106181E-03 
854	 7.63733623090302E-03 
855	 7.91960848199421E-03 
856	 7.92265342176293E-03 
857	 7.66640709137875E-03 
858	 7.4335779710051E-03 
859	 7.26958899766319E-03 
860	 7.08494146269056E-03 
861	 7.08443598111296E-03 
862	 7.41988575467597E-03 
863	 7.03063546526227E-03 
864	 6.69044556742228E-03 
865	 6.53092695250481E-03 
866	 6.07422472683467E-03 
867	 6.17042754268625E-03 
868	 6.35814212817175E-03 
869	 6.19804462306937E-03 
870	 5.56450327737042E-03 
871	 5.78545374074722E-03 
872	 5.86713293114761E-03 
873	 5.19191524999967E-03 
874	 5.13797731765519E-03 
875	 5.12242433949863E-03 
876	 4.93894513753402E-03 
877	 4.63818341342074E-03 
878	 4.79326930846559E-03 
879	 4.84833611849193E-03 
880	 4.77526344891231E-03 
881	 4.73792971030045E-03 
882	 4.37390307957795E-03 
883	 4.10783426345929E-03 
884	 3.95791311164237E-03 
885	 3.65597637267737E-03 
886	 3.54349627995592E-03 
887	 3.46331150273867E-03 
888	 3.31144644159265E-03 
889	 3.13473676242107E-03 
890	 3.41093719230866E-03 
891	 3.54120808296695E-03 
892	 3.20729831722327E-03 
893	 2.93187518017928E-03 
894	 2.69450156083345E-03 
895	 2.64339477031232E-03 
896	 2.74732845216926E-03 
897	 2.41975502621867E-03 
898	 1.94607637329818E-03 
899	 1.71105351428097E-03 
900	 1.94326992681416E-03 
901	 2.34619519448512E-03 
902	 2.40044575645853E-03 
903	 2.10156918766176E-03 
904	 1.74156362148494E-03 
905	 1.83271758345807E-03 
906	 1.79904928545046E-03 
907	 1.55890367677878E-03 
908	 1.33928144532993E-03 
909	 5.99891732102988E-04 
910	 6.3336843906202E-04 
911	 1.21583966678738E-03 
912	 8.63584866397865E-04 
913	 5.39701890445668E-04 
914	 4.939201578439E-04 
915	 5.39620674851129E-04 
916	 1.84074930028725E-04 
917	 2.59819279295704E-04 
918	 2.56281714933415E-04 
919	 2.5243799929574E-04 
920	 1.31614450691914E-03 
921	 1.11499790301215E-03 
922	 6.47460016758316E-04 
923	 6.97961311828893E-04 
924	 2.10963735233122E-04 
925	-3.56342562192872E-05 
926	-3.32904285615333E-04 
927	-9.75597725580057E-04 
928	-1.21386777723735E-03 
929	-2.05857539082129E-03 
930	-2.98101446627664E-03 
931	-2.79173301857723E-03 
932	-1.38724882651532E-03 
933	-2.4234143091884E-03 
934	-4.06798950224344E-03 
935	-3.2621881352063E-03 
936	-4.09274430528623E-03 
937	-3.49181428288565E-03 
938	-2.20189967201207E-03 
939	-1.98627706890711E-03 
940	-3.19080880834218E-03 
941	-3.30388277889334E-03 
942	-3.02415059449724E-03 
943	-3.94339975637277E-03 
944	-2.20888654825773E-03 
945	-2.14598092232137E-03 
946	-3.85565360624789E-03 
947	-4.71014345358227E-03 
948	-5.23441822314428E-03 
949	-5.00335447224479E-03 
950	-4.71179545733968E-03 
951	-5.22669071320324E-03 
952	-3.63939033329511E-03 
953	-3.49148619357869E-03 
954	-4.85275216081136E-03 
955	-5.07310235544405E-03 
956	-4.01724943267008E-03 
957	-4.30408819703938E-03 
958	-4.75283968589893E-03 
959	-2.30896716902699E-03 
960	-2.7991642229992E-03 
961	-3.29105096887054E-03 
962	-2.32457293315453E-03 
963	-8.0982259586165E-04 
964	-2.61969871473571E-03 
965	-3.06047259600697E-03 
966	-1.57644033707996E-03 
967	-1.22749783485061E-03 
968	-6.83599264040746E-04 
969	-4.03676471935993E-04 
970	-1.38416331425112E-03 
971	-4.28037293321725E-03 
972	-4.20271116458842E-03 
973	-3.4763059367798E-03 
974	-2.91130118316223E-03 
975	-1.30476497579462E-03 
976	-6.35770154093589E-04 
977	-1.90807746849615E-03 
978	-3.63164448496691E-03 
979	-3.05557697553812E-03 
980	-4.33182022773955E-03 
981	-3.24027757277068E-03 
982	-1.16086659588011E-03 
983	-3.40792654643042E-03 
984	-2.31857601950205E-03 
985	-2.60301187665404E-03 
986	-3.73198780464676E-03 
987	-1.24573183302641E-03 
988	-2.12541328661644E-03 
989	-3.51360862650698E-03 
990	-3.58486393578646E-03 
991	-2.4752339401602E-03 
992	-1.77895857789987E-03 
993	-2.61309016527179E-03 
994	-3.5909392124623E-03 
995	-2.41790464288803E-03 
996	-1.95051330992471E-03 
997	-2.54102159986357E-03 
998	-3.8261841235667E-03 
999	-4.85614149155141E-03 
1000	-3.99664944174504E-03 
1001	 1.58538861220608E-03 
1002	 1.2320868846472E-03 
1003	 1.18239972347519E-03 
1004	 1.20830982727627E-03 
1005	 1.37596286298018E-03 
1006	 1.81197951468542E-03 
1007	 2.13052928305101E-03 
1008	 2.55583646888052E-03 
1009	 2.8574915853019E-03 
1010	 2.98097455503045E-03 
1011	 3.08959792236055E-03 
1012	 3.01439421346302E-03 
1013	 2.8923693183178E-03 
1014	 2.68485074500408E-03 
1015	 2.33270621549988E-03 
1016	 2.08421477981033E-03 
1017	 1.73784407232128E-03 
1018	 1.4827445366323E-03 
1019	 1.30893625517624E-03 
1020	 1.26771306707256E-03 
1021	 1.29341165088039E-03 
1022	 1.33426858185453E-03 
1023	 1.58753048873478E-03 
1024	 1.55211363419986E-03 
1025	 1.63685111315934E-03 
1026	 2.01790793660087E-03 
1027	 2.28054371576049E-03 
1028	 2.81189352910306E-03 
1029	 2.87252203259585E-03 
1030	 2.66370288506401E-03 
1031	 2.52019340018847E-03 
1032	 2.14774774120403E-03 
1033	 1.89511257290977E-03 
1034	 1.51439597108718E-03 
1035	 1.48868854038067E-03 
1036	 1.75489304145397E-03 
1037	 1.81466792165151E-03 
1038	 1.95074270745618E-03 
1039	 2.28590264167762E-03 
1040	 2.01807026595096E-03 
1041	 1.74209842034384E-03 
1042	 1.9255511884211E-03 
1043	 2.4127483414462E-03 
1044	 2.52633125659704E-03 
1045	 2.87465536750417E-03 
1046	 2.92935851810812E-03 
1047	 2.53421330854594E-03 
1048	 2.42670064111399E-03 
1049	 2.44380118577326E-03 
1050	 2.38582841192857E-03 
1051	 2.22166980164629E-03 
1052	 2.19325370087404E-03 
1053	 2.23709320432414E-03 
1054	 2.29268718677718E-03 
1055	 2.62469874961729E-03 
1056	 2.67127893626701E-03 
1057	 2.59179854156696E-03 
1058	 2.32447661695202E-03 
1059	 2.2595535728086E-03 
1060	 1.99274616023579E-03 
1061	 2.0657283373148E-03 
1062	 2.56249671388426E-03 
1063	 2.66897070266799E-03 
1064	 2.64828808019325E-03 
1065	 2.74047117112159E-03 
1066	 3.04837507954017E-03 
1067	 2.80583696518639E-03 
1068	 1.93214380539495E-03 
1069	 1.77747145960514E-03 
1070	 1.51338306971229E-03 
1071	 1.4301628035999E-03 
1072	 1.93841899233422E-03 
1073	 2.72964394351484E-03 
1074	 2.90217965078995E-03 
1075	 2.67974956000521E-03 
1076	 2.61772833205126E-03 
1077	 2.46124968312582E-03 
1078	 2.35482562803288E-03 
1079	 2.1643041764351E-03 
1080	 2.13915040741123E-03 
1081	 2.13116296521384E-03 
1082	 2.14423497911861E-03 
1083	 2.43498049644968E-03 
1084	 2.48353322689021E-03 
1085	 2.3528166794722E-03 
1086	 2.31933818423656E-03 
1087	 2.22959838701587E-03 
1088	 2.10718037159413E-03 
1089	 1.90318961013671E-03 
1090	 1.93913302362326E-03 
1091	 1.88082933144043E-03 
1092	 1.69536039317165E-03 
1093	 1.74182320130278E-03 
1094	 1.99132494249631E-03 
1095	 2.1041217605443E-03 
1096	 2.35654835978529E-03 
1097	 2.36072965338787E-03 
1098	 2.15546797101083E-03 
1099	 2.07353644091264E-03 
1100	 1.80630890698507E-03 
1101	 1.82488836528866E-03 
1102	 2.15120531059915E-03 
1103	 2.17575063288255E-03 
1104	 2.23473946533775E-03 
1105	 2.20451105138697E-03 
1106	 1.69221878917948E-03 
1107	 1.69236160120854E-03 
1108	 1.85925051326119E-03 
1109	 1.82058084835999E-03 
1110	 1.90128230536807E-03 
1111	 2.19799784173521E-03 
1112	 2.15910630590485E-03 
1113	 1.95680064566109E-03 
1114	 2.05897127663739E-03 
1115	 1.80755277011895E-03 
1116	 2.16574217226047E-03 
1117	 3.74182951606431E-03 
1118	 4.04532563771626E-03 
1119	 4.41621616211592E-03 
1120	 4.32034893328162E-03 
1121	 2.83060832696124E-03 
1122	 3.53204511969093E-04 
1123	 5.4126861886183E-04 
1124	 1.08828844955521E-03 
1125	 1.63977762384537E-03 
1126	 2.62179667468513E-03 
1127	 2.46306885646127E-03 
1128	 1.10386890308256E-03 
1129	 6.43627170250484E-04 
1130	 4.78980791582177E-04 
1131	 7.93497601548998E-04 
1132	 1.40856471430608E-03 
1133	 1.64361920081458E-03 
1134	 2.47745460580896E-03 
1135	 2.26752812125082E-03 
1136	 9.90703410027437E-04 
1137	 7.4695301457014E-04 
1138	 3.65143534928262E-04 
1139	 4.61897742522789E-04 
1140	 1.69362872426507E-03 
1141	 2.30483888945234E-03 
1142	 2.49699599346388E-03 
1143	 2.5157500302255E-03 
1144	 1.89691865618348E-03 
1145	 1.94619640523279E-03 
1146	 1.99651524483082E-03 
1147	 1.29790532457374E-03 
1148	 1.63766632440842E-03 
1149	 2.12470517011184E-03 
1150	 2.03493811219044E-03 
1151	 2.04330757446088E-03 
1152	 2.19181318745935E-03 
1153	 1.76849657531877E-03 
1154	 1.76722546259284E-03 
1155	 2.27303552926899E-03 
1156	 2.46147122280589E-03 
1157	 2.10595281229385E-03 
1158	 1.80769466865584E-03 
1159	 1.63621924406309E-03 
1160	 1.72558378382499E-03 
1161	 2.07888022627238E-03 
1162	 2.0255249752692E-03 
1163	 1.73160226448567E-03 
1164	 1.75137898228642E-03 
1165	 1.83958151154953E-03 
1166	 1.86859073006109E-03 
1167	 1.94071109352587E-03 
1168	 1.78949222010887E-03 
1169	 1.51098727900006E-03 
1170	 1.51836171660065E-03 
1171	 1.43222706690323E-03 
1172	 1.28224264301487E-03 
1173	 1.28492950844034E-03 
1174	 1.37175412867075E-03 
1175	 1.38085738578355E-03 
1176	 1.47750890787915E-03 
1177	 1.63240010147757E-03 
1178	 1.55677245696098E-03 
1179	 1.5489932124851E-03 
1180	 1.6264044425433E-03 
1181	 1.64800174961946E-03 
1182	 1.81883876104332E-03 
1183	 1.96709968243866E-03 
1184	 2.00384952665539E-03 
1185	 1.98800771913527E-03 
1186	 1.72680107647422E-03 
1187	 1.55252658141594E-03 
1188	 1.6772085142657E-03 
1189	 1.55175597536795E-03 
1190	 1.32478325869634E-03 
1191	 1.37715048013372E-03 
1192	 1.3818018910378E-03 
1193	 1.11687564068652E-03 
1194	 1.22975738559356E-03 
1195	 1.83414538825262E-03 
1196	 1.90301459185154E-03 
1197	 1.88366580942541E-03 
1198	 1.99809234888877E-03 
1199	 1.75502321306953E-03 
1200	 1.59564365139062E-03 
1201	 1.68453773056493E-03 
1202	 1.78144695826384E-03 
1203	 1.84580335015404E-03 
1204	 1.86364703535539E-03 
1205	 1.80852802063861E-03 
1206	 1.64437043776012E-03 
1207	 1.59586225393322E-03 
1208	 1.79673142410593E-03 
1209	 1.93184439428202E-03 
1210	 1.77475489427033E-03 
1211	 1.55473516110467E-03 
1212	 1.58118725134934E-03 
1213	 1.59167793465436E-03 
1214	 1.53060681952641E-03 
1215	 1.56995905297556E-03 
1216	 1.69166530543886E-03 
1217	 1.38160708191526E-03 
1218	 1.10851880102702E-03 
1219	 1.48834128482534E-03 
1220	 1.73506848071693E-03 
1221	 1.4907656203638E-03 
1222	 1.47427918841207E-03 
1223	 1.65390660359264E-03 
1224	 1.57134499623673E-03 
1225	 1.59924193595547E-03 
1226	 1.93776274908166E-03 
1227	 1.89063205334269E-03 
1228	 1.56919827071657E-03 
1229	 1.70058054012763E-03 
1230	 2.01292590069761E-03 
1231	 1.87867713312664E-03 
1232	 1.61253870432778E-03 
1233	 1.70922413575706E-03 
1234	 1.65288044271798E-03 
1235	 1.62941138728773E-03 
1236	 1.83777550149311E-03 
1237	 1.96470241657401E-03 
1238	 2.09016788313651E-03 
1239	 1.83880579461735E-03 
1240	 1.69073094704801E-03 
1241	 1.72547619948783E-03 
1242	 1.61859881227578E-03 
1243	 1.52595912047692E-03 
1244	 1.66791132396633E-03 
1245	 1.61286733218328E-03 
1246	 1.4919377565053E-03 
1247	 1.78648426542485E-03 
1248	 2.04480116964631E-03 
1249	 1.83800798070391E-03 
1250	 1.68844526573878E-03 
1251	 1.84568484999622E-03 
1252	 1.86849917595124E-03 
1253	 1.81009966818479E-03 
1254	 1.94979055370272E-03 
1255	 1.70763331778829E-03 
1256	 1.55381426164433E-03 
1257	 1.5115525099637E-03 
1258	 1.53599696230181E-03 
1259	 1.42185389395606E-03 
1260	 1.43005727511539E-03 
1261	 1.56965945285757E-03 
1262	 1.57616620393718E-03 
1263	 1.51114698741274E-03 
1264	 1.67786512894019E-03 
1265	 1.60477380535497E-03 
1266	 1.52703599706352E-03 
1267	 1.63782553164287E-03 
1268	 1.60456845187658E-03 
1269	 1.48654573499768E-03 
1270	 1.4840575918895E-03 
1271	 1.57531273771588E-03 
1272	 1.59000099252846E-03 
1273	 1.62553831682042E-03 
1274	 1.77149463423077E-03 
1275	 1.6659362621902E-03 
1276	 1.59207793404071E-03 
1277	 1.90543616756784E-03 
1278	 1.99871566289705E-03 
1279	 1.74699462516252E-03 
1280	 1.73962214698047E-03 
1281	 1.75135405152879E-03 
1282	 1.68480115681947E-03 
1283	 1.62443981788856E-03 
1284	 1.72127162905242E-03 
1285	 1.72125843673621E-03 
1286	 1.61080250572955E-03 
1287	 1.53848419255525E-03 
1288	 1.42902169500257E-03 
1289	 1.46112454939017E-03 
1290	 1.48854045377826E-03 
1291	 1.61677223970903E-03 
1292	 1.84425823543713E-03 
1293	 2.06463621474669E-03 
1294	 1.9609911041806E-03 
1295	 1.60343866918212E-03 
1296	 1.6661339044563E-03 
1297	 1.93353036177396E-03 
1298	 1.8623415556004E-03 
1299	 1.78599738603399E-03 
1300	 1.76585072934474E-03 
1301	 1.60003859282756E-03 
1302	 1.66782299383057E-03 
1303	 1.90041397560876E-03 
1304	 1.73619789252385E-03 
1305	 1.5239777071038E-03 
1306	 1.52471664517749E-03 
1307	 1.66299054895234E-03 
1308	 1.68089058450815E-03 
1309	 1.83001505992153E-03 
1310	 1.8684306557506E-03 
1311	 1.68213204520577E-03 
1312	 1.7104471311096E-03 
1313	 2.0831984694186E-03 
1314	 2.03689549940341E-03 
1315	 1.55106872651972E-03 
1316	 1.49352109844055E-03 
1317	 1.52453114949153E-03 
1318	 1.41732290834088E-03 
1319	 1.56822541889188E-03 
1320	 1.67373572096792E-03 
1321	 1.69492822857042E-03 
1322	 1.42723691572736E-03 
1323	 1.43339979649532E-03 
1324	 1.76231510541127E-03 
1325	 1.65571688914305E-03 
1326	 1.34234458039147E-03 
1327	 1.37237777387261E-03 
1328	 1.49621496684031E-03 
1329	 1.9581008364832E-03 
1330	 2.31187862579043E-03 
1331	 2.22478523302781E-03 
1332	 2.15893974850707E-03 
1333	 1.59168226250932E-03 
1334	 1.17396001407726E-03 
1335	 1.18196883324234E-03 
1336	 1.62787821630494E-03 
1337	 1.55767233438375E-03 
1338	 1.55093433042433E-03 
1339	 1.63444519195053E-03 
1340	 1.42900189391582E-03 
1341	 1.45584097449742E-03 
1342	 1.92745993450558E-03 
1343	 2.09901871672569E-03 
1344	 1.98553492181365E-03 
1345	 1.94085197893346E-03 
1346	 1.98577761590195E-03 
1347	 2.1416563774356E-03 
1348	 2.16787420412303E-03 
1349	 2.22309015879288E-03 
1350	 2.58272401404528E-03 
1351	 3.12938228867728E-03 
1352	 3.68640262946432E-03 
1353	 5.03359100493221E-03 
1354	 8.46433428634786E-03 
1355	 1.36413718135517E-02 
1356	 9.8535731225634E-03 
1357	 3.96811170853109E-03 
1358	 3.03447700814446E-03 
1359	-1.07052393109958E-02 
1360	 7.92228820178646E-04 
1361	 5.01983206333255E-02 
1362	 0.123247365744805 
1363	 0.168838604589826 
1364	 9.86475573162166E-02 
1365	 2.33587878721191E-02 
1366	 0.125021487960233 
1367	 0.144645862142826 
1368	 8.80816352286185E-02 
1369	 5.39533334003633E-02 
1370	 0.093261123852808 
1371	 3.08158518652204E-02 
1372	-7.12140483131917E-02 
1373	-5.62782893793552E-02 
1374	-0.023861697211759 
1375	-0.148585148733225 
1376	-0.167663479401588 
1377	 4.12107282149719E-02 
1378	 7.50728176896564E-02 
1379	-1.70781936777127E-02 
1380	-5.81130402320599E-02 
1381	-8.04211434922405E-02 
1382	-8.20970522159647E-02 
1383	-8.56890985693715E-02 
1384	-0.111117553403981 
1385	-0.144349779728113 
1386	-0.133300104503364 
1387	-0.128406160306918 
1388	-8.94580489124425E-02 
1389	 6.19844669952062E-02 
1390	 0.110305731133344 
1391	 0.12899464003823 
1392	 2.97114045924498E-02 
1393	 5.60534321411321E-02 
1394	 0.139601708876559 
1395	 8.05170097659602E-02 
1396	 1.91945464432136E-02 
1397	 3.50392900027101E-02 
1398	-3.15075921597948E-02 
1399	-0.11473884646769 
1400	-6.12615868996891E-02 
1401	-9.92723866993143E-03 
1402	-3.26109748309778E-02 
1403	-2.84687072247171E-02 
1404	-7.11290444443427E-03 
1405	 1.66343040821516E-02 
1406	 2.25640871475547E-02 
1407	 1.73070150778007E-02 
1408	 2.98753154815477E-02 
1409	 2.25342541423225E-02 
1410	-1.59812465152689E-02 
1411	-0.017917445817028 
1412	-4.44240066495221E-04 
1413	 2.53632916163891E-03 
1414	 4.71079041251136E-03 
1415	 3.8894520446916E-03 
1416	 1.40946167520445E-03 
1417	-8.51547589471604E-04 
1418	-7.91924989100586E-03 
1419	-5.98194865054957E-03 
1420	 9.61969997977898E-04 
1421	 1.33557289985117E-03 
1422	 3.87119581134202E-03 
1423	 4.60292167373099E-03 
1424	-7.06870425457292E-04 
1425	-9.05572369444897E-04 
1426	 3.71633506315089E-03 
1427	 3.79471794055752E-03 
1428	 1.44715599495708E-03 
1429	 1.52290113486782E-03 
1430	 1.47957453388817E-03 
1431	 9.4155619740497E-04 
1432	 2.18953561395909E-03 
1433	 2.89585086305327E-03 
1434	 1.97186453699781E-03 
1435	 1.11379121440499E-03 
1436	 1.2459718982645E-04 
1437	 1.67067444366743E-04 
1438	 1.8885018835301E-03 
1439	 1.95148193268847E-03 
1440	 1.30598896348493E-03 
1441	 2.47133978540664E-03 
1442	 2.23249755488491E-03 
1443	 8.02864498685027E-04 
1444	 7.10338205931372E-04 
1445	 1.19922883992233E-03 
1446	 8.20910413594521E-04 
1447	 1.94897508650299E-04 
1448	 5.27511212891331E-04 
1449	 1.17889108602252E-03 
1450	 1.38670862562771E-03 
1451	 1.45572856292101E-03 
1452	 1.00774481920251E-03 
1453	 8.10269056117668E-04 
1454	 8.78754964334706E-04 
1455	 1.08277653603413E-03 
1456	 1.18491500553299E-03 
1457	 1.52989915328335E-03 
1458	 1.53909666854078E-03 
1459	 1.1261326633866E-03 
1460	 1.41780151584593E-03 
1461	 2.31229170207717E-03 
1462	 2.34388938227957E-03 
1463	 2.13316628473185E-03 
1464	 2.19910518574221E-03 
1465	 1.81031421592065E-03 
1466	 1.62931972924563E-03 
1467	 2.04442696043412E-03 
1468	 1.99743743357365E-03 
1469	 1.43772614255199E-03 
1470	 1.40853864596507E-03 
1471	 1.6393037062898E-03 
1472	 1.51900485707316E-03 
1473	 1.4972393955669E-03 
1474	 1.29276244299062E-03 
1475	 4.91702471333126E-04 
1476	 5.67715164307463E-04 
1477	 1.30666875452754E-03 
1478	 1.35152994824901E-03 
1479	 1.38267398287586E-03 
1480	 1.5740367641838E-03 
1481	 1.60747465763851E-03 
1482	 1.42318274328285E-03 
1483	 1.09899974804352E-03 
1484	 1.13645915423069E-03 
1485	 1.30663623852384E-03 
1486	 1.19822542120464E-03 
1487	 1.12524846722667E-03 
1488	 1.28949073074489E-03 
1489	 1.33591545704044E-03 
1490	 1.27453027863734E-03 
1491	 1.37694650303177E-03 
1492	 1.52661903573149E-03 
1493	 1.58496636352152E-03 
1494	 1.54274285055564E-03 
1495	 1.63551368983213E-03 
1496	 1.62585925907538E-03 
1497	 1.33145731573594E-03 
1498	 1.1894348069268E-03 
1499	 1.05266752914184E-03 
1500	 1.17356312678261E-03 
1501	 1.63130794834186E-03 
1502	 1.6883404881977E-03 
1503	 1.68453251855001E-03 
1504	 1.75575781272259E-03 
1505	 1.62102990664374E-03 
1506	 1.41844778331853E-03 
1507	 1.48134282841113E-03 
1508	 1.46693333092672E-03 
1509	 1.32405863673319E-03 
1510	 1.25932844503344E-03 
1511	 1.35063205128921E-03 
1512	 1.45996974539253E-03 
1513	 1.22370011678675E-03 
1514	 1.00871574943059E-03 
1515	 1.30355134015642E-03 
1516	 1.42772559505651E-03 
1517	 1.18079122023427E-03 
1518	 1.31115987611217E-03 
1519	 1.42627193328204E-03 
1520	 1.10372145429582E-03 
1521	 0.001054168637138 
1522	 1.29342377120501E-03 
1523	 1.2792432182134E-03 
1524	 1.07364853639409E-03 
1525	 1.17639106133415E-03 
1526	 1.52425066359855E-03 
1527	 1.64600189488607E-03 
1528	 1.58216092085569E-03 
1529	 1.48848461399843E-03 
1530	 1.36588194026637E-03 
1531	 1.05718897040814E-03 
1532	 9.45517784954208E-04 
1533	 1.25639719130078E-03 
1534	 1.26939924615412E-03 
1535	 1.15902936817151E-03 
1536	 1.41979939135913E-03 
1537	 1.47411569815367E-03 
1538	 1.28333815291351E-03 
1539	 1.2495830266369E-03 
1540	 0.001124970688972 
1541	 1.10015381498794E-03 
1542	 1.21586578288873E-03 
1543	 1.26018629330854E-03 
1544	 1.43252065918752E-03 
1545	 1.36350913860898E-03 
1546	 1.1066857536158E-03 
1547	 1.22867378552836E-03 
1548	 1.40625122882109E-03 
1549	 1.2220303145713E-03 
1550	 1.04502723936392E-03 
1551	 1.12693796976221E-03 
1552	 1.16707456277561E-03 
1553	 1.0915796928189E-03 
1554	 1.07993371554152E-03 
1555	 1.09316947143758E-03 
1556	 1.04540912845033E-03 
1557	 1.09444230048679E-03 
1558	 1.19531233499192E-03 
1559	 1.19499544341499E-03 
1560	 1.02138119934968E-03 
1561	 7.20905886135557E-04 
1562	 7.20900832846362E-04 
1563	 1.00592174573664E-03 
1564	 1.08629643564555E-03 
1565	 9.7189215073308E-04 
1566	 1.0622048915342E-03 
1567	 1.24545649920514E-03 
1568	 1.19328221193922E-03 
1569	 1.1208103227701E-03 
1570	 1.11578226007371E-03 
1571	 1.13460751679428E-03 
1572	 1.10472567513658E-03 
1573	 1.18598248497855E-03 
1574	 1.52283501558707E-03 
1575	 1.4424574164386E-03 
1576	 1.14684277528721E-03 
1577	 1.03745536469383E-03 
1578	 9.80976080494142E-04 
1579	 1.06302819213194E-03 
1580	 1.03123655908756E-03 
1581	 1.05576494442224E-03 
1582	 1.2383388644556E-03 
1583	 1.31277263492845E-03 
1584	 1.34934206131549E-03 
1585	 1.32325012308036E-03 
1586	 1.2663537072238E-03 
1587	 1.45149417581278E-03 
1588	 1.38243163335459E-03 
1589	 9.56663500228815E-04 
1590	 1.11081622794518E-03 
1591	 0.00141792215064 
1592	 1.40452454774101E-03 
1593	 1.46563332880426E-03 
1594	 1.34384988463463E-03 
1595	 1.06134135515111E-03 
1596	 9.94415477837099E-04 
1597	 1.18014736345491E-03 
1598	 1.25773651700393E-03 
1599	 1.14699827555294E-03 
1600	 1.2324056923855E-03 
1601	 1.3441201980034E-03 
1602	 1.47646299695172E-03 
1603	 1.56486407269424E-03 
1604	 1.27892450348917E-03 
1605	 1.10787764140374E-03 
1606	 1.26342815170411E-03 
1607	 1.31023707336246E-03 
1608	 1.28643067603828E-03 
1609	 1.36504879663914E-03 
1610	 1.28024217200852E-03 
1611	 1.14740107396115E-03 
1612	 1.27949878688685E-03 
1613	 1.4427001358153E-03 
1614	 1.45854113532424E-03 
1615	 1.3711848233257E-03 
1616	 1.29749297683751E-03 
1617	 1.27468713539123E-03 
1618	 1.20210450776037E-03 
1619	 1.16656854439669E-03 
1620	 1.1730289961035E-03 
1621	 1.12360377900636E-03 
1622	 1.03741603875906E-03 
1623	 9.06875620259442E-04 
1624	 9.91412248617928E-04 
1625	 1.16631954097629E-03 
1626	 1.19202156917334E-03 
1627	 1.41858473491565E-03 
1628	 1.49068192133214E-03 
1629	 1.2951816645131E-03 
1630	 1.30982791882555E-03 
1631	 1.35552576085624E-03 
1632	 1.35930135509199E-03 
1633	 1.27849459686567E-03 
1634	 1.13239234310298E-03 
1635	 1.23119066934856E-03 
1636	 1.28161368703222E-03 
1637	 1.34345094784343E-03 
1638	 1.61056690248931E-03 
1639	 1.32917876426077E-03 
1640	 8.79570350906002E-04 
1641	 1.10509146824048E-03 
1642	 1.29337895964677E-03 
1643	 1.15750284617485E-03 
1644	 1.29417617366943E-03 
1645	 1.33421330323643E-03 
1646	 9.45456665885326E-04 
1647	 6.57702181589674E-04 
1648	 6.98912377096943E-04 
1649	 8.60400940643266E-04 
1650	 8.73391153807914E-04 
1651	 8.38083172581841E-04 
1652	 9.37676616099456E-04 
1653	 8.08799783434166E-04 
1654	 8.49490374019333E-04 
1655	 1.59084126479199E-03 
1656	 1.75486449448163E-03 
1657	 1.35195160408623E-03 
1658	 1.06969807551444E-03 
1659	 6.09163571164358E-04 
1660	 5.2489933601428E-04 
1661	 6.22802654744887E-04 
1662	 7.07759662320177E-04 
1663	 1.03061631968299E-03 
1664	 1.13913013613366E-03 
1665	 1.07923826351081E-03 
1666	 1.14121019033408E-03 
1667	 1.4348890157629E-03 
1668	 1.45722638671215E-03 
1669	 1.08770456351668E-03 
1670	 1.43641883282566E-03 
1671	 1.54628849083146E-03 
1672	 9.34392037684758E-04 
1673	 8.21797679077231E-04 
1674	 1.06486120004359E-03 
1675	 9.84705900407333E-04 
1676	 1.1053170917029E-03 
1677	 1.37691892638765E-03 
1678	 1.25711940716832E-03 
1679	 1.19254120240014E-03 
1680	 1.32679726856847E-03 
1681	 1.22606010937799E-03 
1682	 1.1627148295927E-03 
1683	 1.1945369187844E-03 
1684	 8.30750280443467E-04 
1685	 7.16660828743538E-04 
1686	 1.17978005835546E-03 
1687	 1.27944590160455E-03 
1688	 8.95300793458571E-04 
1689	 8.43536457858388E-04 
1690	 7.97536350289618E-04 
1691	 3.94449186357913E-04 
1692	 8.59190902676318E-04 
1693	 1.49433113205741E-03 
1694	 1.10428069404596E-03 
1695	 1.04197362299183E-03 
1696	 1.30238567761557E-03 
1697	 1.04801482754956E-03 
1698	 1.22650072143226E-03 
1699	 1.54760986344807E-03 
1700	 1.01123200393833E-03 
1701	 6.59791509490269E-04 
1702	 1.00616073298208E-03 
1703	 1.01433789533414E-03 
1704	 8.09069368884689E-04 
1705	 9.94616071085332E-04 
1706	 1.16851572139695E-03 
1707	 1.06935846176821E-03 
1708	 9.80320419107044E-04 
1709	 1.01316071544614E-03 
1710	 8.56786331559777E-04 
1711	 5.89785862261783E-04 
1712	 6.83073611810145E-04 
1713	 9.69491071539385E-04 
1714	 1.07650487703472E-03 
1715	 1.34052795973046E-03 
1716	 1.37221443996126E-03 
1717	 1.19304281331974E-03 
1718	 1.09587615776727E-03 
1719	 8.35029737228974E-04 
1720	 9.20018254262092E-04 
1721	 1.34682530050559E-03 
1722	 1.54170396634711E-03 
1723	 1.37253162741816E-03 
1724	 8.70103585690783E-04 
1725	 6.68729994849764E-04 
1726	 8.14618495131007E-04 
1727	 7.9414557363038E-04 
1728	 9.96803908344154E-04 
1729	 9.74714891125098E-04 
1730	 5.05815519051101E-04 
1731	 1.0933400907712E-03 
1732	 1.9105882684333E-03 
1733	 1.37203302070062E-03 
1734	 8.23919090807893E-04 
1735	 8.00389857759577E-04 
1736	 4.19930371833821E-04 
1737	 5.52302741112519E-04 
1738	 1.15672660192407E-03 
1739	 8.40437791416503E-04 
1740	 6.82301723089537E-04 
1741	 8.77150551308777E-04 
1742	 8.07921953277884E-04 
1743	 1.00514684558983E-03 
1744	 8.28036334216112E-04 
1745	 7.82774254800419E-04 
1746	 9.81748859585371E-04 
1747	 8.88791120489783E-04 
1748	 3.86186555053816E-04 
1749	 6.23166557007557E-04 
1750	 1.53977344981018E-03 
1751	 1.61816921520637E-03 
1752	 1.71114345465345E-03 
1753	 1.64727858961569E-03 
1754	 6.10960291528155E-04 
1755	 3.95363050213691E-04 
1756	 9.32904703426297E-04 
1757	 6.63854613807532E-04 
1758	 8.04875226254787E-04 
1759	 1.15323547710673E-03 
1760	 9.36997549959019E-04 
1761	 8.68568072321376E-04 
1762	 9.19739126960768E-04 
1763	 1.0708521102029E-03 
1764	 1.42784249432833E-03 
1765	 1.45055442462532E-03 
1766	 1.67458116345204E-03 
1767	 1.30568414070281E-03 
1768	 4.98651789085693E-04 
1769	 9.26935285059345E-04 
1770	 1.02102292983249E-03 
1771	 7.55184915323703E-04 
1772	 0.001462845337163 
1773	 1.37766427851646E-03 
1774	 8.29966016382666E-04 
1775	 7.79125406400827E-04 
1776	 9.15033058642885E-04 
1777	 1.65089193301662E-03 
1778	 1.99018858300845E-03 
1779	 2.61683188022739E-03 
1780	 2.2533453326489E-03 
1781	 1.38010899792189E-04 
1782	-2.79138591757955E-05 
1783	 7.17532268897034E-04 
1784	 4.68120535779947E-04 
1785	 9.76510249752637E-04 
1786	 1.07190454435665E-03 
1787	-9.04906753870533E-05 
1788	 2.47337739148461E-05 
1789	 1.77558034929089E-03 
1790	 1.15703733315822E-04 
1791	-2.14005171349359E-03 
1792	-2.13185574510976E-03 
1793	-1.06073344234677E-03 
1794	 1.00030158011309E-03 
1795	 3.80098748475705E-03 
1796	 1.98761838993072E-03 
1797	-4.36934834328766E-04 
1798	 1.7307217332274E-03 
1799	 2.47281314333959E-03 
1800	 3.56190791148353E-03 
1801	 4.47089271540281E-03 
1802	 1.34791329133625E-03 
1803	-6.54379660997543E-04 
1804	-1.4908850205057E-03 
1805	-2.0576643089961E-03 
1806	-2.21116607534383E-03 
1807	-4.84717904021797E-03 
1808	-9.73089745118855E-03 
1809	-7.34458847247924E-03 
1810	 8.13423016949302E-04 
1811	 3.49647208729122E-03 
1812	 1.59455594232861E-02 
1813	 1.57544812063921E-02 
1814	-1.16360072319488E-02 
1815	-2.24891016527485E-02 
1816	-2.91910955668989E-02 
1817	-2.01197615408107E-02 
1818	-7.29451702063808E-03 
1819	-1.95755671795795E-03 
1820	 1.34334036367508E-02 
1821	-3.42949682712678E-02 
1822	-5.23960458772569E-02 
1823	-3.09687517912407E-02 
1824	-4.42678963881934E-02 
1825	-8.41508018301294E-02 
1826	-0.05951429422007 
1827	 5.99333371112296E-03 
1828	 5.92053741426391E-02 
1829	 0.299054447570746 
1830	 0.386982551035094 
1831	-0.405020539854036 
1832	-0.443570936310799 
1833	-0.294747370854732 
1834	-0.206381585411564 
1835	 0.119946890280499 
1836	 0.651572129527881 
1837	 0.819250007970375 
1838	 0.898016843007238 
1839	 0.192152870587906 
1840	 8.83115426314782E-02 
1841	-0.240096250061903 
1842	-1.04829837216713 
1843	-1.05219018790886 
1844	 0.970302875087547 
1845	 1.39955403774198 
1846	 4.81153586559512 
1847	 53.0142523815993 
1848	-3.68144308630297 
1849	-3.23242840593647 
1850	 2.54725870398741 
1851	 0.304821884233099 
1852	-0.124684814304552 
1853	-8.95683536536669E-02 
1854	-3.22430421498427E-02 
1855	 0.947328070530688 
1856	 1.82442989698124 
1857	 1.02502878521158 
1858	 0.719832730760548 
1859	-1.25934654116956 
1860	 6.48056331376673 
1861	 5.76983688802347 
1862	 2.88201394102375 
1863	 0.35659789819967 
1864	-0.28005454230151 
1865	-0.636347782255443 
1866	 4.03186463171699 
1867	-1.07569282910443 
1868	-0.251182371952628 
1869	-0.535235512179378 
1870	-1.47701512824541 
1871	-4.9568481982004 
1872	 2.86014990974148 
1873	 2.05551725828614 
1874	 1.25553467173451 
1875	-7.07412241780735E-02 
1876	 1.99540132664853 
1877	 0.415868787074895 
1878	 0.391023430469007 
1879	-2.20454211660869E-02 
1880	-0.231401240554864 
1881	-0.48790698145733 
1882	-1.11340790308619 
1883	-0.931098681494176 
1884	-0.320547099296166 
1885	-0.537153614661633 
1886	-0.919744961036118 
1887	-0.40791232658898 
1888	-4.74417639591595E-02 
1889	 2.90561230316074E-02 
1890	 0.103201533568494 
1891	 0.100238592657173 
1892	-2.61915834055119E-02 
1893	-6.92404036975138E-02 
1894	-3.50573979848399E-02 
1895	 0.125716701916047 
1896	 0.10293214043858 
1897	-0.216160701681997 
1898	-1.08720182642157 
1899	-5.75311460939389 
1900	-27.3217027321668 
1901	-1.7271027347307 
1902	-0.844009344376549 
1903	 0.11180883690499 
1904	 0.141503558111157 
1905	-0.432523815034074 
1906	-0.269140487899213 
1907	-0.133495210033046 
1908	 0.428707465326629 
1909	 0.475862335059375 
1910	 0.471962563740189 
1911	 1.02736420530001 
1912	 3.20289931350416 
1913	 2.28281595941972 
1914	 1.39883737545512 
1915	 0.906459619754091 
1916	 0.430168478958892 
1917	 0.146173052597288 
1918	 0.111493266731816 
1919	 0.159311909400787 
1920	 2.70570047385715E-02 
1921	-4.44754066737007E-02 
1922	 0.053641665282186 
1923	-1.04790280232684E-02 
1924	-0.118481054374927 
1925	-6.11651669496733E-02 
1926	-2.99301991101073E-02 
1927	-3.31144667015728E-02 
1928	-1.83322526647568E-02 
1929	 7.81548040993303E-02 
1930	 6.94753731210936E-02 
1931	 3.74648662756734E-02 
1932	 4.74273451164164E-02 
1933	 1.74105979970975E-02 
1934	 2.42506704297211E-02 
1935	 3.69425989244069E-02 
1936	 2.03425239758687E-02 
1937	 2.96813899536012E-02 
1938	 2.41890992222228E-02 
1939	 1.48081019200474E-02 
1940	 5.15275369493321E-04 
1941	 3.31054872318307E-03 
1942	-3.59570394452418E-05 
1943	-8.52275066298137E-03 
1944	-6.50377221610266E-03 
1945	 2.24061589878448E-03 
1946	 9.55891918477698E-03 
1947	 1.30752857503855E-02 
1948	 1.44622875104227E-02 
1949	 1.48622339840757E-02 
1950	 1.47735580892384E-02 
1951	 1.78801714214515E-02 
1952	 1.89938307611805E-02 
1953	 2.52675567151437E-02 
1954	 2.69719693391887E-02 
1955	 1.73958004003136E-02 
1956	 9.91947477712468E-03 
1957	 1.05674213826337E-02 
1958	 6.01703508284444E-03 
1959	 3.3262520476232E-03 
1960	 5.08600960760366E-03 
1961	 5.11525850055193E-03 
1962	 3.75577462372803E-03 
1963	 4.27259168601794E-03 
1964	 3.02848328152279E-03 
1965	-3.68811846876136E-04 
1966	-9.31953375969919E-04 
1967	-5.89053207937353E-04 
1968	-6.9783841877478E-05 
1969	 4.59415725505624E-04 
1970	 3.39239317224306E-03 
1971	 4.25871787110755E-03 
1972	 2.14599745128151E-03 
1973	 2.09783005255481E-03 
1974	 1.46072803271778E-03 
1975	-1.6621357334956E-04 
1976	 8.37204776021993E-05 
1977	 5.4780469891375E-04 
1978	 3.79289852453991E-04 
1979	-1.90095590081535E-05 
1980	-3.37113715220325E-04 
1981	-4.18048692005134E-04 
1982	-7.17553349061073E-04 
1983	-1.13805575589049E-03 
1984	-1.11599760087618E-03 
1985	-8.38910747058314E-04 
1986	-3.11596710173282E-04 
1987	 6.82564692516975E-04 
1988	 1.26627741360434E-03 
1989	 1.3394896277747E-03 
1990	 7.92164525377918E-04 
1991	-6.37755892488103E-05 
1992	 4.23675673540943E-04 
1993	 1.3193488961807E-03 
1994	 1.48750470294154E-03 
1995	 1.82644468283047E-03 
1996	 1.20884931189759E-03 
1997	-4.15903314631568E-04 
1998	-1.40498939009923E-03 
1999	-0.001710606853968 
2000	-5.87598022921063E-04 
2001	 1.7661367716237E-03 
2002	 2.85454156006992E-03 
2003	 2.76912365398074E-03 
2004	 1.97408744655936E-04 
2005	-3.70893465034109E-03 
2006	-5.35765273125847E-03 
2007	-4.53213016341236E-03 
2008	 5.79478149693123E-04 
2009	 2.36590687710723E-03 
2010	 2.51300279123244E-03 
2011	 3.04939089808542E-03 
2012	 3.57924073883566E-03 
2013	 5.1300347232344E-04 
2014	 3.77594931987965E-04 
2015	 2.96935831672431E-03 
2016	 1.8049597740888E-03 
2017	 1.83083961009103E-03 
2018	 2.73678982807594E-03 
2019	 2.85895472070569E-03 
2020	 3.17944303593736E-03 
2021	 3.41284014812602E-03 
2022	 2.48688750737106E-03 
2023	 5.24013113649875E-04 
2024	-3.41916785281781E-04 
2025	-1.39575822382099E-03 
2026	-1.1061600998455E-03 
2027	 2.01487241767424E-04 
2028	 8.9158948521757E-04 
2029	 8.82460954908801E-04 
2030	 1.55575875254736E-03 
2031	 2.0823357571464E-03 
2032	 1.77510378434937E-03 
2033	 2.52829598697652E-03 
2034	 2.81967524184582E-03 
2035	 1.53656092487249E-03 
2036	 1.38633047748269E-03 
2037	 1.38720847146351E-03 
2038	 1.11987010911438E-03 
2039	 1.25928538003786E-03 
2040	 2.11476329115129E-03 
2041	 2.1172310668733E-03 
2042	 1.83478757782332E-03 
2043	 1.56016957832723E-03 
2044	 8.19306966378736E-04 
2045	 1.12161609879178E-04 
2046	 6.6565868275154E-05 
2047	 3.61015157824961E-04 
2048	 2.40129351147613E-04 
2049	 3.44526528603734E-04 
2050	 8.53473343875893E-04 
2051	 9.93377704165163E-04 
2052	 1.37743781369872E-03 
2053	 1.86899512032496E-03 
2054	 0.00152166602561 
2055	 1.22827028112731E-03 
2056	 1.24446308218614E-03 
2057	 1.58076645469575E-03 
2058	 1.54233324708543E-03 
2059	 1.64538784502613E-03 
2060	 1.82603725922507E-03 
2061	 2.16096933795702E-03 
2062	 1.27694027132459E-03 
2063	 1.3659254535966E-03 
2064	 1.23388153697576E-03 
2065	 2.81455176775189E-04 
2066	 4.29561227874191E-04 
2067	 5.71838236176999E-04 
2068	 1.64831651260887E-04 
2069	 2.8922905726154E-04 
2070	 1.79955896340727E-04 
2071	 5.26734286751921E-05 
2072	 4.77699310648927E-04 
2073	 2.75893435944187E-04 
2074	-4.76865512309474E-04 
2075	-5.84801196551769E-04 
2076	-8.56633836093825E-04 
2077	-7.86251881687869E-04 
2078	-1.34905854530546E-04 
2079	 5.37427414049177E-04 
2080	 1.7664875405591E-03 
2081	 1.79239931603488E-03 
2082	 1.71806499483412E-03 
2083	 1.81138965831913E-03 
2084	 2.07720748128092E-03 
2085	 2.83722121662476E-03 
2086	 3.2066859018671E-03 
2087	 3.43386529407456E-03 
2088	 3.1108820431233E-03 
2089	 2.2755114402278E-03 
2090	 2.04081693836882E-03 
2091	 2.08222703183357E-03 
2092	 1.80011409768766E-03 
2093	 7.71488875993572E-04 
2094	 6.92830674746375E-04 
2095	 1.4906386328012E-03 
2096	 1.59817285398718E-03 
2097	 1.85838034405323E-03 
2098	 2.04397904378407E-03 
2099	 2.28815620109147E-03 
2100	 1.15483856854596E-03 
2101	 5.95757712682418E-04 
2102	 6.41085343575596E-04 
2103	-1.27933223390421E-04 
2104	-2.44866718487781E-04 
2105	 1.37946761311885E-04 
2106	 1.30845767338144E-04 
2107	 5.25989235343113E-04 
2108	 9.274979245924E-04 
2109	 1.11822481941404E-03 
2110	 1.52515245407557E-03 
2111	 2.30613784022029E-03 
2112	 2.82515919998041E-03 
2113	 2.65151048829633E-03 
2114	 1.54963677130288E-03 
2115	 1.45186208286359E-03 
2116	 1.05264337870809E-03 
2117	 1.06640025992068E-03 
2118	 2.58412527367391E-03 
2119	 2.77596816909139E-03 
2120	 2.17002290129008E-03 
2121	 1.63240029650684E-03 
2122	 1.75934159257039E-03 
2123	 9.1903962890339E-04 
2124	 2.75855794199464E-04 
2125	 4.55185063981041E-04 
2126	 3.24973276436776E-04 
2127	 6.29141138683201E-04 
2128	 8.84159911330629E-04 
2129	 9.68559537167259E-04 
2130	 1.64952490368965E-03 
2131	 1.72327531130971E-03 
2132	 1.75171903432394E-03 
2133	 1.64692490888512E-03 
2134	 1.3599254833874E-03 
2135	 4.27927550311406E-04 
2136	-1.52675083992049E-04 
2137	-1.10355260642594E-03 
2138	-9.74024672251965E-04 
2139	-3.50345558030178E-04 
2140	-2.3156313506185E-04 
2141	 6.43783261731122E-04 
2142	 1.39257461179256E-03 
2143	 1.86047697004017E-03 
2144	 2.06110143593473E-03 
2145	 1.96643379415619E-03 
2146	 2.26475451889421E-03 
2147	 2.34249036685514E-03 
2148	 1.0715923966021E-03 
2149	 9.39180897469771E-04 
2150	 1.98640932885403E-03 
2151	 2.59454780026281E-03 
2152	 3.02159640446784E-03 
2153	 3.43394996264357E-03 
2154	 3.17361863782227E-03 
2155	 2.41243982740118E-03 
2156	 2.88655623524925E-03 
2157	 2.61380448988515E-03 
2158	 1.77933255388893E-03 
2159	 1.69675724017922E-03 
2160	 1.67931093938153E-03 
2161	 1.93269635101902E-03 
2162	 3.30765265946241E-03 
2163	 3.75921005040254E-03 
2164	 3.56304319920085E-03 
2165	 3.44473276170112E-03 
2166	 3.42544594050761E-03 
2167	 3.28275330361398E-03 
2168	 2.9566974519259E-03 
2169	 2.62928518187762E-03 
2170	 2.31691231179962E-03 
2171	 1.09008205068159E-03 
2172	 7.41597115446927E-04 
2173	 4.1296296559806E-04 
2174	 4.90540687331463E-04 
2175	 1.38298152325512E-03 
2176	 1.79113245050287E-03 
2177	 2.2878911213147E-03 
2178	 3.0386520326819E-03 
2179	 2.70384393418944E-03 
2180	 1.87059374434879E-03 
2181	 1.68244498442473E-03 
2182	 1.29841072129406E-03 
2183	 1.86495183821398E-03 
2184	 1.99819902408784E-03 
2185	 1.23197098990763E-03 
2186	 1.12896895265931E-03 
2187	-1.73775600774074E-04 
2188	 2.10665890071027E-04 
2189	 3.20364346420802E-03 
2190	 3.56071642672399E-03 
2191	 3.4268805128322E-03 
2192	 3.56736625676471E-03 
2193	 1.75680479144753E-03 
2194	 1.25846611995947E-03 
2195	 1.74999338612265E-03 
2196	 1.70445928454737E-03 
2197	 1.93619966335475E-03 
2198	 1.85849318513751E-03 
2199	 9.64767686405944E-04 
2200	 2.07772272852221E-03 
2201	 3.46916629195811E-03 
2202	 3.4727343765089E-03 
2203	 3.83768199644313E-03 
2204	 3.25082491941054E-03 
2205	 1.58917174874441E-03 
2206	 3.13936579648478E-04 
2207	-3.79818688480927E-04 
2208	-9.5243848756276E-04 
2209	-1.44227906858049E-03 
2210	-1.8747654457302E-03 
2211	-2.21365689764276E-03 
2212	-1.4331204021604E-03 
2213	-4.96034371814677E-04 
2214	 7.3141967688814E-04 
2215	 2.55810219869079E-03 
2216	 2.78911587058473E-03 
2217	 3.00784544790796E-03 
2218	 2.31039652005933E-03 
2219	 2.50128028974379E-03 
2220	 3.31559039489337E-03 
2221	 3.06138434216848E-03 
2222	 2.96694067995635E-03 
2223	 1.8301974190174E-03 
2224	-1.86006444087117E-03 
2225	-2.12674825866603E-03 
2226	-1.17311656435722E-03 
2227	-7.45768367455465E-04 
2228	 1.86761668879809E-03 
2229	 2.77822349574019E-03 
2230	 2.36642976077061E-03 
2231	 2.97256863569643E-03 
2232	 4.72636987412041E-03 
2233	 4.49720466974062E-03 
2234	 3.4599913391635E-03 
2235	 1.15628578944754E-03 
2236	-2.92305202157088E-04 
2237	-1.76898011388097E-03 
2238	-9.43293167404315E-04 
2239	 1.04238503066387E-03 
2240	 9.15889964220997E-04 
2241	 1.37529307371531E-03 
2242	-4.67125767194376E-05 
2243	-2.15987713360307E-03 
2244	-1.5920287722658E-03 
2245	-0.001886698694752 
2246	-2.34725378268914E-03 
2247	 2.01776707364887E-04 
2248	 1.51094297807639E-03 
2249	 1.08250431401919E-03 
2250	 2.85967059193742E-03 
2251	 3.13810553443611E-03 
2252	 1.92388435511706E-03 
2253	 1.74790492277227E-03 
2254	 4.61662441921402E-04 
2255	-1.16752146519234E-04 
2256	 4.92692673048997E-04 
2257	-9.05752103849414E-04 
2258	-2.79609079815033E-03 
2259	-2.60882014080578E-03 
2260	-2.21478971171033E-03 
2261	-1.59346191835986E-03 
2262	-1.01233428649936E-04 
2263	 3.23302820172333E-03 
2264	 3.90166438744319E-03 
2265	 3.68600563424033E-03 
2266	 4.11147629303227E-03 
2267	 3.80723327313082E-03 
2268	 4.24708680921096E-03 
2269	 5.11399000950932E-03 
2270	 5.56301675804053E-03 
2271	 7.0242303780728E-03 
2272	 5.89928992962557E-03 
2273	 2.81374539741867E-03 
2274	 1.29866183156952E-03 
2275	-2.40939946438168E-03 
2276	-3.93913843495378E-03 
2277	-1.90546227954754E-03 
2278	-2.65276343327452E-03 
2279	-5.43992551100011E-03 
2280	-4.74243120894887E-03 
2281	-3.71688516205508E-03 
2282	-1.35096575907547E-03 
2283	 2.99837496114807E-03 
2284	 3.36930430014794E-03 
2285	 2.98178797469171E-03 
2286	 2.20697363289775E-03 
2287	 1.36439743733219E-03 
2288	 6.5551086722484E-04 
2289	-1.98413593049919E-03 
2290	-3.56012286011424E-03 
2291	-2.39028633796475E-03 
2292	 7.61028162829173E-04 
2293	 2.99117582161282E-03 
2294	 1.03018263743153E-03 
2295	-3.8971171422126E-03 
2296	-6.09539918515206E-03 
2297	-5.46773604728141E-03 
2298	-0.001191292627691 
2299	 4.12215686365053E-03 
2300	 4.43778680691812E-03 
2301	 5.46454256547478E-03 
2302	 4.44638612116975E-03 
2303	 2.95299847861214E-04 
2304	-3.08689748556566E-04 
2305	-6.39877515652567E-05 
2306	 1.78354654519836E-03 
2307	 4.41380296282892E-03 
2308	 5.05835903788226E-03 
2309	 4.8161321571151E-03 
2310	 2.2630993300097E-03 
2311	 5.25637936616665E-04 
2312	 1.4434498438986E-03 
2313	 9.83313792825863E-05 
2314	-9.34793520091728E-04 
2315	 7.6300240984266E-04 
2316	-9.41101868991065E-04 
2317	-2.35581816838992E-03 
2318	-1.90936570461646E-04 
2319	-5.57514622657066E-04 
2320	-3.29139042869847E-04 
2321	-2.53300239005256E-04 
2322	-2.03419761249288E-03 
2323	-1.9577244000895E-03 
2324	-3.16616048400119E-03 
2325	-0.001201597848405 
2326	 2.78379993279062E-03 
2327	 3.22427896610292E-03 
2328	 4.74993845408833E-03 
2329	 4.50363999436712E-03 
2330	 8.09858519950829E-04 
2331	 1.12244325860665E-03 
2332	 1.54574787067471E-03 
2333	-2.48890261128537E-03 
2334	-2.77124614769697E-03 
2335	 5.61781710882207E-04 
2336	 1.64839828166654E-03 
2337	-1.47230569040126E-04 
2338	 1.09698912838015E-03 
2339	-1.45485477294753E-04 
2340	-5.42322651688601E-03 
2341	-2.74090952824023E-03 
2342	 1.41814295820114E-03 
2343	 5.04528777446384E-04 
2344	 2.54830131020746E-05 
2345	 1.63277647865017E-03 
2346	-4.75549630935932E-03 
2347	-9.04312527580102E-03 
2348	-5.25900485302877E-03 
2349	-8.34614633589774E-03 
2350	-8.05569649454375E-03 
2351	 2.92852699447362E-03 
2352	 6.31861403253334E-03 
2353	 5.65136707933497E-04 
2354	 6.22464058439232E-03 
2355	 7.72741922784772E-03 
2356	 3.64609334784551E-04 
2357	 4.47054085385696E-03 
2358	 2.28496533547209E-03 
2359	-8.58711621299928E-03 
2360	-1.01522047292985E-02 
2361	-1.30356225261409E-02 
2362	-1.87182683682912E-02 
2363	-8.45815350379861E-03 
2364	-3.3451602772677E-03 
2365	-5.76322524799253E-03 
2366	 6.43114499816923E-03 
2367	 1.10823711015341E-03 
2368	-1.59405622174198E-02 
2369	-1.66530038362361E-02 
2370	-1.76285161722244E-02 
2371	-1.18469612814226E-02 
2372	 4.25209220673351E-03 
2373	 0.010021112566716 
2374	 1.09857925804706E-02 
2375	 9.0388599228466E-03 
2376	 2.30949643762105E-03 
2377	-3.12596683068856E-03 
2378	-1.41517069654559E-02 
2379	-1.38921614474747E-02 
2380	-1.17186539263206E-02 
2381	-1.47923660102755E-02 
2382	 6.30201993179531E-05 
2383	 4.0410585229346E-03 
2384	-2.24510583134115E-02 
2385	-3.46237383119882E-02 
2386	-6.36999024362773E-03 
2387	 2.30204857195668E-03 
2388	-1.38502489066726E-02 
2389	-1.17145319769944E-02 
2390	-2.57124395857627E-02 
2391	-4.41947642389187E-02 
2392	-1.82232112055508E-02 
2393	 1.56690411378844E-02 
2394	 1.72369628728454E-02 
2395	 2.47237411658281E-03 
2396	-3.80676844147408E-03 
2397	 2.37707754966268E-03 
2398	-9.61026610949054E-03 
2399	-1.36819151665836E-02 
2400	-6.82968658113429E-03 
2401	-2.50080942559323E-02 
2402	-1.16169104320106E-02 
2403	 5.89734559172319E-03 
2404	-7.56956996312549E-04 
2405	 1.60896083977315E-02 
2406	 1.99282734245289E-02 
2407	 1.23955326831893E-02 
2408	 1.52286724041249E-02 
2409	 1.36750800322588E-02 
2410	 2.55767267331198E-03 
2411	-2.84060354300231E-02 
2412	-2.25184184885637E-02 
2413	 2.52346583610611E-02 
2414	 1.87034764049517E-02 
2415	-1.19086011909218E-02 
2416	-1.86511433909425E-02 
2417	-3.23768241822595E-02 
2418	-4.12803831087126E-02 
2419	 1.64852034825319E-03 
2420	 0.050740840258639 
2421	 7.10235461459224E-02 
2422	 6.20786306590012E-02 
2423	 3.80625693944027E-02 
2424	 4.34112387990376E-02 
2425	 2.02012453447762E-02 
2426	-9.1131969591189E-03 
2427	 5.70175916377929E-03 
2428	-1.56632935265209E-02 
2429	-7.62562063796571E-02 
2430	-8.29584863481144E-02 
2431	-2.68208838014045E-02 
2432	-2.14095691451035E-03 
2433	 8.51587909731623E-03 
2434	 5.48329212115689E-02 
2435	 3.60292683716179E-02 
2436	 4.92866144226777E-03 
2437	 5.74631676524096E-02 
2438	 5.42236878212629E-02 
2439	 3.53492558414413E-02 
2440	 4.66918336022019E-02 
2441	 1.38279932863888E-02 
2442	-1.37662664397248E-02 
2443	-3.40699762682359E-02 
2444	-6.67765324577517E-02 
2445	-5.27278845319018E-02 
2446	-1.08973137073533E-02 
2447	-7.52555202107434E-02 
2448	-8.48215028547836E-02 
2449	-6.60185303252738E-02 
2450	-3.90222785284381E-02 
2451	 2.80881279741743E-02 
2452	 0.132883484472709 
2453	 0.163148357643302 
2454	 0.160804187059218 
2455	 0.122025244607298 
2456	 5.32961296107185E-02 
2457	 7.11083633265568E-02 
2458	 1.02314160788129E-02 
2459	 2.75884445736485E-02 
2460	 0.112820556498095 
2461	 0.077510996906075 
2462	 0.12462893174626 
2463	 0.168908234976939 
2464	 0.162528128924673 
2465	 0.181100376742357 
2466	 0.110593473447991 
2467	 3.30411677980169E-02 
2468	 7.12823869698132E-02 
2469	 0.126707492194282 
2470	 0.232442244986989 
2471	 0.122151126923615 
2472	-7.45999549305714E-02 
2473	 1.98048306439003E-02 
2474	 0.188177435928013 
2475	 0.510418656335243 
2476	 0.904854311390683 
2477	 0.491349816661095 
2478	 6.76763064576925E-02 
2479	-4.57980846442591E-02 
2480	 2.45344411135553E-02 
2481	 0.170168657722301 
2482	 0.348516852345067 
2483	 0.298086035358905 
2484	-2.05912165119627 
2485	-4.29519501299687 
2486	-2.63126898800324 
2487	-2.07959444915754 
2488	-0.656903323343043 
2489	 0.724587030465384 
2490	-0.623422729539783 
2491	-7.59724704941883 
2492	 0.213027330982016 
2493	 1.05333728316739E-03 
2494	-1.14558944848796 
2495	-3.83973588316254 
2496	 30.0120809360731 
2497	 6.64790480402758 
2498	-2.18887687708419 
2499	 0.305574259841381 
2500	 1.21314456691897 
