Wavelength	rt0624far00009.asd
350	 1.19023630931872E-02 
351	 1.23417104622593E-02 
352	 1.27719196322036E-02 
353	 1.27339561017168E-02 
354	 1.24046553835686E-02 
355	 1.31894862037479E-02 
356	 1.35428846223874E-02 
357	 1.32590236730339E-02 
358	 1.28347361066386E-02 
359	 1.37469507698999E-02 
360	 1.41674146290608E-02 
361	 1.38498197688873E-02 
362	 1.36886647212602E-02 
363	 1.36939728131504E-02 
364	 1.37868623112045E-02 
365	 1.40516337093381E-02 
366	 1.48845806114077E-02 
367	 1.48422395990405E-02 
368	 1.45950656687738E-02 
369	 1.49507170815998E-02 
370	 0.015059490324129 
371	 1.52970561368335E-02 
372	 1.56127774443469E-02 
373	 1.57610978477792E-02 
374	 1.61784730762888E-02 
375	 1.62209764916168E-02 
376	 0.015866101321842 
377	 1.60500795443111E-02 
378	 1.65068685890202E-02 
379	 1.67249900479022E-02 
380	 1.65489502505738E-02 
381	 1.71375687379974E-02 
382	 1.72972682719851E-02 
383	 1.73215995064297E-02 
384	 1.80633967000518E-02 
385	 0.018922030892012 
386	 1.90282065531875E-02 
387	 1.85887919566269E-02 
388	 1.89318330051835E-02 
389	 1.89991119306749E-02 
390	 1.91898369565579E-02 
391	 1.97726266043163E-02 
392	 2.00880329181373E-02 
393	 2.00485880601597E-02 
394	 1.99369973056794E-02 
395	 2.01439775457488E-02 
396	 2.08225018644781E-02 
397	 2.12841255347418E-02 
398	 2.14599092831456E-02 
399	 2.18114897610945E-02 
400	 2.17881455016684E-02 
401	 2.18367152682613E-02 
402	 2.22166669443698E-02 
403	 2.24808412447632E-02 
404	 2.26183736589722E-02 
405	 2.27616204369854E-02 
406	 2.30399820301363E-02 
407	 2.31509825307304E-02 
408	 2.34376594439772E-02 
409	 2.38033939543474E-02 
410	 2.37365633728229E-02 
411	 2.39243095141548E-02 
412	 2.43015718855859E-02 
413	 2.46828106026076E-02 
414	 2.49618710618364E-02 
415	 2.51108204482237E-02 
416	 2.52007485162611E-02 
417	 2.53502363924082E-02 
418	 0.025648947425349 
419	 2.60084651018574E-02 
420	 2.63648766657599E-02 
421	 2.66976088576115E-02 
422	 2.69329030429882E-02 
423	 2.71840150683413E-02 
424	 2.75194219450192E-02 
425	 2.77638938431163E-02 
426	 2.81028253034264E-02 
427	 2.85001381838854E-02 
428	 2.88364910233832E-02 
429	 2.92614936770883E-02 
430	 2.95730608132333E-02 
431	 0.029794157853284 
432	 3.02372838293203E-02 
433	 3.05807582179556E-02 
434	 3.09484107393518E-02 
435	 3.14507419652123E-02 
436	 3.18843467648292E-02 
437	 3.21975582047569E-02 
438	 3.24827932853418E-02 
439	 3.29036766933416E-02 
440	 3.34978605006632E-02 
441	 0.033970758388741 
442	 3.42357151612173E-02 
443	 3.45515600735921E-02 
444	 3.49768788521892E-02 
445	 3.54007755276961E-02 
446	 0.035722145167702 
447	 3.61100843855086E-02 
448	 3.64310487512277E-02 
449	 3.67065346349682E-02 
450	 3.70619647145077E-02 
451	 3.73451866233327E-02 
452	 3.75957134722823E-02 
453	 3.78592532743361E-02 
454	 3.81390103117517E-02 
455	 3.83647607378433E-02 
456	 0.038593283211593 
457	 3.88875590140834E-02 
458	 0.039082130945023 
459	 3.92548380584278E-02 
460	 3.94467057890002E-02 
461	 0.039646455316843 
462	 3.98156274825979E-02 
463	 4.00076588376986E-02 
464	 4.02373314378833E-02 
465	 4.03484301832635E-02 
466	 4.05688039159155E-02 
467	 4.08157347668889E-02 
468	 4.09096455525611E-02 
469	 4.11855393956747E-02 
470	 4.14500434205531E-02 
471	 4.16310321324276E-02 
472	 4.18800758773433E-02 
473	 4.20591659856779E-02 
474	 4.21974259025277E-02 
475	 4.23848443474883E-02 
476	 4.27784114380076E-02 
477	 4.30762599632267E-02 
478	 4.32724252248839E-02 
479	 4.35593854724559E-02 
480	 4.38390433553374E-02 
481	 4.41519166389382E-02 
482	 4.44926617939916E-02 
483	 4.47141109792013E-02 
484	 4.50758736225339E-02 
485	 4.55479802783537E-02 
486	 4.59945500797644E-02 
487	 0.046386065047302 
488	 4.67071148361888E-02 
489	 4.70008133370628E-02 
490	 4.73617464002508E-02 
491	 4.78432611353715E-02 
492	 4.83577206806257E-02 
493	 4.88341214165399E-02 
494	 4.93390680918994E-02 
495	 4.98273227155888E-02 
496	 5.02914054171325E-02 
497	 5.07558195067881E-02 
498	 5.13167941047954E-02 
499	 5.19139903366693E-02 
500	 5.24954121607093E-02 
501	 5.30493056988414E-02 
502	 5.36144371616124E-02 
503	 5.42231479730382E-02 
504	 5.48777022184021E-02 
505	 5.54715720288436E-02 
506	 5.60719606812781E-02 
507	 5.67278574043171E-02 
508	 5.74525254195711E-02 
509	 5.80113285569435E-02 
510	 5.85610686951443E-02 
511	 5.92065768219432E-02 
512	 5.97715892774576E-02 
513	 6.04211618071237E-02 
514	 6.11928279727911E-02 
515	 6.20162946596471E-02 
516	 6.25411664069833E-02 
517	 6.32070709589554E-02 
518	 6.40981998232111E-02 
519	 6.47840850003026E-02 
520	 6.55103196544524E-02 
521	 6.62549654424338E-02 
522	 6.69602816836584E-02 
523	 6.76262174770382E-02 
524	 6.83225730153713E-02 
525	 6.90734510886938E-02 
526	 6.98692562481637E-02 
527	 7.07157319189892E-02 
528	 7.14321803376507E-02 
529	 7.20068961666423E-02 
530	 7.28134303647284E-02 
531	 7.35414399379595E-02 
532	 7.42461726607981E-02 
533	 0.075069173185125 
534	 7.58444260830058E-02 
535	 7.66131399480869E-02 
536	 7.73879992493921E-02 
537	 7.81305184478931E-02 
538	 7.90016352305936E-02 
539	 7.98755611572837E-02 
540	 8.06407511548244E-02 
541	 8.14792201244441E-02 
542	 0.082220209836793 
543	 8.29313661888852E-02 
544	 8.37994775401297E-02 
545	 8.45394054912147E-02 
546	 8.53042541102362E-02 
547	 8.61724028721459E-02 
548	 8.69782034306163E-02 
549	 8.77202170080895E-02 
550	 8.84767277933454E-02 
551	 8.93160640085483E-02 
552	 9.00191002561993E-02 
553	 9.08419647916421E-02 
554	 9.17452569060898E-02 
555	 9.23360461808069E-02 
556	 9.31240521147992E-02 
557	 9.40010433443517E-02 
558	 9.47749295150265E-02 
559	 9.55357909642895E-02 
560	 9.62222126828575E-02 
561	 0.096834913552702 
562	 9.74283240869579E-02 
563	 9.81331431171393E-02 
564	 9.87766552886021E-02 
565	 9.92947471317409E-02 
566	 9.99171732069144E-02 
567	 0.10047234355782 
568	 0.100926810927148 
569	 0.101321315649782 
570	 0.101824942118728 
571	 0.102246979054137 
572	 0.102572248132049 
573	 0.102993403732905 
574	 0.103423294944302 
575	 0.103779585733049 
576	 0.104021790017868 
577	 0.104254528245832 
578	 0.104407195447769 
579	 0.104584633796273 
580	 0.104937526806785 
581	 0.104962135185831 
582	 0.104905417149654 
583	 0.104964720187342 
584	 0.105086695748906 
585	 0.105073701655019 
586	 0.104986261881756 
587	 0.104945726083977 
588	 0.104822192720744 
589	 0.104630656700195 
590	 0.104423076520019 
591	 0.104260481141139 
592	 0.10402001590358 
593	 0.103711199485438 
594	 0.103338789183838 
595	 0.102787940755551 
596	 0.102132784480212 
597	 0.101418233566206 
598	 0.100682869180498 
599	 0.100017063239093 
600	 9.94313329282361E-02 
601	 9.89190202035207E-02 
602	 9.84533884580651E-02 
603	 9.82067447687527E-02 
604	 9.81265072640685E-02 
605	 0.098096116908628 
606	 9.81008593747667E-02 
607	 9.81349431807597E-02 
608	 9.81855353526714E-02 
609	 9.82294991710773E-02 
610	 9.81986688874895E-02 
611	 9.81603260223899E-02 
612	 9.81680388650767E-02 
613	 9.81428579988989E-02 
614	 9.81380154733364E-02 
615	 9.81380024268219E-02 
616	 9.81005155966673E-02 
617	 9.81072941522202E-02 
618	 9.81245952826895E-02 
619	 9.81359203392373E-02 
620	 9.81785693881033E-02 
621	 9.81146547028698E-02 
622	 9.80067080438429E-02 
623	 9.79737842421166E-02 
624	 9.80627686833675E-02 
625	 9.80193421527602E-02 
626	 0.097858413477327 
627	 9.78468475651531E-02 
628	 9.78462951101134E-02 
629	 9.78092766571833E-02 
630	 9.77306490588897E-02 
631	 9.76649005661174E-02 
632	 9.76623158681696E-02 
633	 9.76656993583295E-02 
634	 9.75782388371625E-02 
635	 9.74675560604933E-02 
636	 9.73078969636986E-02 
637	 9.71299910183954E-02 
638	 9.70559233810569E-02 
639	 9.69223490212539E-02 
640	 9.67098405655458E-02 
641	 9.64609273297312E-02 
642	 9.62630177525755E-02 
643	 0.096060516532835 
644	 9.58215352478616E-02 
645	 9.55454495708472E-02 
646	 9.53414299892692E-02 
647	 9.50774247923207E-02 
648	 9.47195711770901E-02 
649	 9.45796536898955E-02 
650	 9.43256797203343E-02 
651	 9.39560220190637E-02 
652	 0.093595547097704 
653	 9.32457177033468E-02 
654	 9.28387752264182E-02 
655	 9.23716097473348E-02 
656	 9.19933122526007E-02 
657	 9.13877356906055E-02 
658	 9.08548521659051E-02 
659	 9.06003129879957E-02 
660	 9.02278521842207E-02 
661	 8.98174090162004E-02 
662	 8.94000902149395E-02 
663	 8.90061180133186E-02 
664	 8.88748996754117E-02 
665	 8.86877182895442E-02 
666	 8.83408951436167E-02 
667	 8.82510676378453E-02 
668	 8.81169633630523E-02 
669	 8.79363067838727E-02 
670	 8.77755937846501E-02 
671	 8.75203208669389E-02 
672	 8.74105533137655E-02 
673	 8.74013968397651E-02 
674	 8.71940742293601E-02 
675	 8.71475878684209E-02 
676	 0.087186022340308 
677	 0.087212894842639 
678	 8.72915074516953E-02 
679	 8.74327832677634E-02 
680	 8.76680541904434E-02 
681	 8.80269955078974E-02 
682	 8.84863844674877E-02 
683	 8.89952261884075E-02 
684	 8.94638280401848E-02 
685	 0.089783685106718 
686	 9.02956785698931E-02 
687	 9.09174462120771E-02 
688	 9.13655636811183E-02 
689	 9.13675737421415E-02 
690	 9.14749181883824E-02 
691	 9.16369321731832E-02 
692	 9.14933788924601E-02 
693	 9.14034528253403E-02 
694	 0.091163145070876 
695	 9.07051455587418E-02 
696	 9.02602414353506E-02 
697	 0.089882490503114 
698	 8.93004554306927E-02 
699	 8.83352421618314E-02 
700	 8.76976283728722E-02 
701	 8.70412886951277E-02 
702	 8.62294442132303E-02 
703	 8.53246725663743E-02 
704	 8.42991059121932E-02 
705	 8.32559158045989E-02 
706	 8.22240771632008E-02 
707	 8.09941805632403E-02 
708	 0.07964174161223 
709	 7.81972801835397E-02 
710	 7.66652988034599E-02 
711	 0.075022092076923 
712	 0.073291048291294 
713	 7.14878273486063E-02 
714	 6.95784027221907E-02 
715	 6.75935436245318E-02 
716	 6.55602107122047E-02 
717	 6.35238520596761E-02 
718	 6.12709588193233E-02 
719	 5.91749123445285E-02 
720	 5.73000837093723E-02 
721	 5.53318028311617E-02 
722	 5.34509745086218E-02 
723	 5.13882622947432E-02 
724	 4.92083907567376E-02 
725	 4.70527582849866E-02 
726	 4.47721825313983E-02 
727	 4.23383824162905E-02 
728	 3.98131576052749E-02 
729	 3.72868258501688E-02 
730	 3.47209788455571E-02 
731	 3.23130322226573E-02 
732	 3.02738505108075E-02 
733	 2.85034082857812E-02 
734	 2.69318166685727E-02 
735	 2.55923691521109E-02 
736	 2.46246594769068E-02 
737	 2.39397813152622E-02 
738	 2.33754456436185E-02 
739	 2.28431874088404E-02 
740	 2.25088324652075E-02 
741	 2.22606916456127E-02 
742	 2.20877267788185E-02 
743	 2.20192084988881E-02 
744	 2.19881450776578E-02 
745	 2.18972077190913E-02 
746	 2.17396308017117E-02 
747	 2.16289805557493E-02 
748	 2.15789486795163E-02 
749	 2.15872981758493E-02 
750	 2.16048344839338E-02 
751	 2.14462290042282E-02 
752	 2.14245191452706E-02 
753	 2.14931629410037E-02 
754	 2.14277930005287E-02 
755	 0.021345416297241 
756	 2.13544200023005E-02 
757	 2.14504650212121E-02 
758	 2.14736511237437E-02 
759	 2.13411661673834E-02 
760	 2.10282015019208E-02 
761	 2.09037169409767E-02 
762	 2.12851849595801E-02 
763	 2.13712193052436E-02 
764	 2.13295200205971E-02 
765	 2.15384545396074E-02 
766	 2.17471577009651E-02 
767	 2.18798365183765E-02 
768	 2.19723667737987E-02 
769	 2.21439952213311E-02 
770	 2.22157238128702E-02 
771	 2.23375327059991E-02 
772	 2.26085590357995E-02 
773	 2.28153264419025E-02 
774	 2.30121456129917E-02 
775	 2.32383744548513E-02 
776	 2.35000136791763E-02 
777	 0.023588778605147 
778	 2.38272067119597E-02 
779	 2.42489935859941E-02 
780	 2.45685186349681E-02 
781	 2.48285799129068E-02 
782	 2.51865423908367E-02 
783	 2.56461206314826E-02 
784	 2.58035965904526E-02 
785	 2.60865117724147E-02 
786	 2.65052188035919E-02 
787	 2.69359456804312E-02 
788	 2.74044806234001E-02 
789	 2.78819687443119E-02 
790	 2.83437880946938E-02 
791	 2.87681816331906E-02 
792	 2.90574400890366E-02 
793	 2.94043744449058E-02 
794	 0.029866796074268 
795	 3.02172089869562E-02 
796	 3.06624445794731E-02 
797	 3.11629863689739E-02 
798	 3.16163712314002E-02 
799	 3.19183257030742E-02 
800	 3.22391653734087E-02 
801	 3.25406426491838E-02 
802	 3.27215443923376E-02 
803	 3.31397423089104E-02 
804	 3.33856269959587E-02 
805	 3.33926680996276E-02 
806	 3.35413781403164E-02 
807	 3.37103604993567E-02 
808	 3.37150493962222E-02 
809	 3.35115001666501E-02 
810	 3.34328090206753E-02 
811	 0.0333257428374 
812	 3.31519637068893E-02 
813	 3.28909227370147E-02 
814	 3.24177928136379E-02 
815	 3.19929770043306E-02 
816	 3.16576028964332E-02 
817	 3.12396439709789E-02 
818	 3.06583013974006E-02 
819	 0.029794437071121 
820	 2.87782885283652E-02 
821	 2.80846371595387E-02 
822	 2.70468329595143E-02 
823	 2.57917173349866E-02 
824	 2.45522069984662E-02 
825	 2.31853346509795E-02 
826	 2.18678630415135E-02 
827	 2.03664684154961E-02 
828	 1.85445263994367E-02 
829	 1.72972398027084E-02 
830	 1.62483680264221E-02 
831	 1.52047755615045E-02 
832	 0.014210385935451 
833	 1.34136311409639E-02 
834	 1.27792618990794E-02 
835	 1.23500413661499E-02 
836	 1.23025626632241E-02 
837	 1.18437922505509E-02 
838	 1.13118194343624E-02 
839	 0.011069345761127 
840	 1.08285727991407E-02 
841	 1.06390077872887E-02 
842	 1.04953742589335E-02 
843	 1.03476063457485E-02 
844	 9.99207843771131E-03 
845	 9.82669265185004E-03 
846	 9.81084376215855E-03 
847	 9.60267869242573E-03 
848	 9.26907460848551E-03 
849	 9.00996391315705E-03 
850	 8.89151390531283E-03 
851	 8.78534058605163E-03 
852	 8.78706466550632E-03 
853	 8.57645740510882E-03 
854	 8.11952961941529E-03 
855	 8.14097634933697E-03 
856	 7.89951228823259E-03 
857	 7.6735649310896E-03 
858	 7.78381097101885E-03 
859	 7.66181165052267E-03 
860	 7.4478431199884E-03 
861	 7.30575115365306E-03 
862	 7.33165861429103E-03 
863	 7.14538333218516E-03 
864	 7.10242671597885E-03 
865	 6.98477936391561E-03 
866	 6.20685277270967E-03 
867	 6.35972614917662E-03 
868	 6.58072495610283E-03 
869	 6.29832494433628E-03 
870	 5.79513974499875E-03 
871	 5.93266235017741E-03 
872	 5.8871791410909E-03 
873	 5.24900582616182E-03 
874	 5.38692275936634E-03 
875	 5.35776909164006E-03 
876	 5.18310691037422E-03 
877	 5.0950804275612E-03 
878	 4.9634379450901E-03 
879	 4.82979742518643E-03 
880	 4.66745198106449E-03 
881	 4.43872262911694E-03 
882	 4.21257707106491E-03 
883	 4.07171888543098E-03 
884	 4.01852319340882E-03 
885	 3.97479682455304E-03 
886	 3.74596661451159E-03 
887	 3.66515994106323E-03 
888	 3.67780760665877E-03 
889	 3.30175046443315E-03 
890	 3.3950907058806E-03 
891	 3.54762268203838E-03 
892	 3.38704171617099E-03 
893	 3.02109936252572E-03 
894	 2.52718849416905E-03 
895	 2.36386803390947E-03 
896	 2.70109708132072E-03 
897	 2.65738845258269E-03 
898	 2.23325779386879E-03 
899	 1.78605746697718E-03 
900	 1.77686038918497E-03 
901	 2.53606483052733E-03 
902	 2.65225105019988E-03 
903	 2.10659185341615E-03 
904	 1.54025677248493E-03 
905	 1.59106957675421E-03 
906	 1.72620746227698E-03 
907	 1.67845523745532E-03 
908	 1.41274869492315E-03 
909	 8.35232291221397E-04 
910	 7.17054304210015E-04 
911	 9.64912665158089E-04 
912	 7.8365710379099E-04 
913	 9.11632743820562E-04 
914	 7.79189662522616E-04 
915	 3.6229897820405E-04 
916	 3.73704199152508E-04 
917	 8.12046707700168E-04 
918	 2.41912583184566E-04 
919	-8.03779856780271E-04 
920	 9.18143887523325E-04 
921	 1.26292492264594E-03 
922	 8.55315469362971E-04 
923	 5.75346370399906E-04 
924	-2.17400529695743E-04 
925	-1.07786832098056E-05 
926	 1.52039630400145E-04 
927	-7.14340325966747E-04 
928	-7.5393229639341E-04 
929	-1.56613475597651E-03 
930	-2.69070551930896E-03 
931	-2.8570609531654E-03 
932	-2.36316840042787E-03 
933	-3.19223310979867E-03 
934	-5.16092548056057E-03 
935	-6.1388307673747E-03 
936	-2.4997500927717E-03 
937	-2.81787750107668E-03 
938	-4.33269221960485E-03 
939	-2.59580316787419E-03 
940	-3.33918016267245E-03 
941	-3.32457567297447E-03 
942	-2.97493597462706E-03 
943	-3.81193219632558E-03 
944	-1.70077242478508E-03 
945	-1.68562233088882E-03 
946	-3.78230241990974E-03 
947	-4.86096282714127E-03 
948	-6.02309708741557E-03 
949	-5.9003895307386E-03 
950	-4.83634437357107E-03 
951	-4.23917935859684E-03 
952	-4.12768410643284E-03 
953	-4.14256542043067E-03 
954	-4.33635715525751E-03 
955	-4.86511069779701E-03 
956	-4.26816673028047E-03 
957	-4.2383844289964E-03 
958	-4.31892175786906E-03 
959	-2.85397986246479E-03 
960	-2.99090266844012E-03 
961	-3.06402867621413E-03 
962	-2.44503694988919E-03 
963	-1.89384814772536E-03 
964	-3.34129489896567E-03 
965	-3.17732242274938E-03 
966	-1.70355779832582E-03 
967	-2.13470753811126E-03 
968	-1.7297602046606E-03 
969	-8.6523295350892E-04 
970	-9.06733901569643E-04 
971	-3.13089730802148E-03 
972	-3.20285044581545E-03 
973	-2.80676885811924E-03 
974	-2.71169805439884E-03 
975	-2.23474612583241E-03 
976	-2.50729789016192E-03 
977	-2.92525809581444E-03 
978	-3.00340244159083E-03 
979	-2.80554321613999E-03 
980	-4.20637525313468E-03 
981	-3.37654512775754E-03 
982	-1.93425250817402E-03 
983	-4.85514656544052E-03 
984	-2.55365596163198E-03 
985	-1.75485819088514E-03 
986	-3.08008642719481E-03 
987	-1.82133641991337E-03 
988	-3.53462242529004E-03 
989	-3.60729018739971E-03 
990	-2.33906434474788E-03 
991	-3.4838917249291E-03 
992	-1.75150191374203E-03 
993	-1.86828771053911E-03 
994	-0.003420590475825 
995	-2.66984061074506E-03 
996	-2.81998721658017E-03 
997	-3.70708290864164E-03 
998	-4.11729592602757E-03 
999	-3.07275073783344E-03 
1000	-3.71550327228675E-03 
1001	 1.51862826266472E-03 
1002	 1.3991050366585E-03 
1003	 1.48526852677301E-03 
1004	 1.68395771812254E-03 
1005	 1.85056457587169E-03 
1006	 2.12391698906473E-03 
1007	 2.41682849214295E-03 
1008	 2.60991452493221E-03 
1009	 2.26836655020243E-03 
1010	 1.86893296338399E-03 
1011	 1.68268372010224E-03 
1012	 1.59315255041954E-03 
1013	 1.49934473581083E-03 
1014	 1.38910611025537E-03 
1015	 1.29795249350631E-03 
1016	 1.36987328812856E-03 
1017	 1.49240756801946E-03 
1018	 1.55389225309362E-03 
1019	 1.74271616312222E-03 
1020	 1.87617872935069E-03 
1021	 1.68876135039042E-03 
1022	 2.0675209776133E-03 
1023	 2.38733966398644E-03 
1024	 2.34329974574392E-03 
1025	 2.58353979265979E-03 
1026	 2.65385308103073E-03 
1027	 2.73358894438666E-03 
1028	 2.96191314803188E-03 
1029	 2.97400057303595E-03 
1030	 2.7735803228991E-03 
1031	 2.60191559800287E-03 
1032	 2.25483280849487E-03 
1033	 2.15180908485726E-03 
1034	 2.28182130638451E-03 
1035	 2.16430709444092E-03 
1036	 1.94289461780765E-03 
1037	 1.85452326656634E-03 
1038	 1.78489734455138E-03 
1039	 0.001425674733606 
1040	 1.46123418408971E-03 
1041	 1.85991323249037E-03 
1042	 2.13010503265123E-03 
1043	 2.60550892195824E-03 
1044	 2.70196401148213E-03 
1045	 2.59982703638582E-03 
1046	 2.68967983228552E-03 
1047	 2.65043691044751E-03 
1048	 2.66325489630799E-03 
1049	 3.04671873579354E-03 
1050	 2.98755155949101E-03 
1051	 2.33583517942591E-03 
1052	 2.20024538732618E-03 
1053	 2.21057553349048E-03 
1054	 2.18178655388898E-03 
1055	 2.43316395887542E-03 
1056	 2.63133446751214E-03 
1057	 2.7894658089065E-03 
1058	 2.89673885321396E-03 
1059	 2.78012885206036E-03 
1060	 2.52761159911855E-03 
1061	 2.4636159988882E-03 
1062	 2.15473861409818E-03 
1063	 2.14045164537056E-03 
1064	 2.54231157610979E-03 
1065	 2.68144697121468E-03 
1066	 2.81348444324055E-03 
1067	 2.80563891279756E-03 
1068	 2.61568807150426E-03 
1069	 2.54886531611615E-03 
1070	 2.24361375522336E-03 
1071	 2.27293297480476E-03 
1072	 2.70884310489003E-03 
1073	 3.0084510739697E-03 
1074	 3.10663712328026E-03 
1075	 3.30095950137877E-03 
1076	 3.18906227094002E-03 
1077	 2.59218124844006E-03 
1078	 2.42993652209356E-03 
1079	 2.3952610236775E-03 
1080	 2.30930189346187E-03 
1081	 2.40514146286766E-03 
1082	 2.31399841774644E-03 
1083	 1.88681755339235E-03 
1084	 1.85293097171204E-03 
1085	 2.03601172706728E-03 
1086	 2.10299703155099E-03 
1087	 2.46145869684585E-03 
1088	 2.60314983346428E-03 
1089	 2.39612589983742E-03 
1090	 2.42357714783581E-03 
1091	 2.4389480290942E-03 
1092	 2.48868512826714E-03 
1093	 2.45895868841277E-03 
1094	 2.40716623105353E-03 
1095	 2.38682674671107E-03 
1096	 2.38415040826621E-03 
1097	 2.29644864556249E-03 
1098	 2.18043961316586E-03 
1099	 2.09305027388322E-03 
1100	 1.76275354239577E-03 
1101	 1.77116692066928E-03 
1102	 2.12805976690894E-03 
1103	 2.33507089728786E-03 
1104	 2.84176819360982E-03 
1105	 2.96300141419201E-03 
1106	 2.68447737137139E-03 
1107	 2.35963897627159E-03 
1108	 2.27906014352921E-03 
1109	 2.64269165110783E-03 
1110	 2.7428471467858E-03 
1111	 3.30286568359796E-03 
1112	 3.27980089297978E-03 
1113	 2.38814607938019E-03 
1114	 0.002061160791374 
1115	 1.83939109567798E-03 
1116	 1.86229188318201E-03 
1117	 2.55951668290198E-03 
1118	 2.65754936527482E-03 
1119	 2.60096008857379E-03 
1120	 2.40169289431457E-03 
1121	 1.12470723889298E-03 
1122	 1.18133599294612E-03 
1123	 1.66047014313318E-03 
1124	 8.4766258470949E-04 
1125	 1.44848055527355E-03 
1126	 2.51808037879239E-03 
1127	 2.14778364524546E-03 
1128	 2.68986676906284E-03 
1129	 2.34958103601987E-03 
1130	 1.57771986268123E-04 
1131	-1.10436632633723E-05 
1132	 1.04103827840889E-03 
1133	 1.26505748575789E-03 
1134	 2.09392560968099E-03 
1135	 2.52614546469462E-03 
1136	 2.00547371066466E-03 
1137	 1.7938945362545E-03 
1138	 1.98581391852114E-03 
1139	 1.89632311443247E-03 
1140	 4.48336776965955E-04 
1141	 8.16141167803704E-04 
1142	 1.32888426982829E-03 
1143	 7.02070843084649E-04 
1144	 1.77062646440358E-03 
1145	 2.30004192423854E-03 
1146	 5.44578243244614E-04 
1147	 5.78101260046825E-04 
1148	 1.48209042883859E-03 
1149	 1.29365755486131E-03 
1150	 1.41106234150324E-03 
1151	 2.60012245315737E-03 
1152	 2.34068641115426E-03 
1153	 7.20169725629573E-04 
1154	 6.38856496752825E-04 
1155	 8.06988582965046E-04 
1156	 1.28673944042645E-03 
1157	 2.07038045268195E-03 
1158	 2.05539815617953E-03 
1159	 1.57595770860578E-03 
1160	 1.26071239659758E-03 
1161	 1.16366182583247E-03 
1162	 1.48831613846642E-03 
1163	 1.77446744308771E-03 
1164	 1.5417189859929E-03 
1165	 1.58769061559551E-03 
1166	 1.72673317930329E-03 
1167	 1.43777637758792E-03 
1168	 1.57079804061141E-03 
1169	 1.82361365184993E-03 
1170	 1.45728167223859E-03 
1171	 1.38309499002856E-03 
1172	 1.92945358155253E-03 
1173	 1.80107368795091E-03 
1174	 1.05490727001711E-03 
1175	 9.563756365262E-04 
1176	 1.58053364150518E-03 
1177	 1.63281196740728E-03 
1178	 1.71580995973876E-03 
1179	 1.9238101128611E-03 
1180	 1.71515646942198E-03 
1181	 1.60212240407284E-03 
1182	 2.05918358180323E-03 
1183	 2.11889871820452E-03 
1184	 1.56133368996624E-03 
1185	 1.37784704974408E-03 
1186	 1.32952724036557E-03 
1187	 1.42182652736756E-03 
1188	 1.7681972813749E-03 
1189	 1.68924723003612E-03 
1190	 1.53692221082592E-03 
1191	 1.69945606080653E-03 
1192	 1.6921964558274E-03 
1193	 1.64083933555392E-03 
1194	 1.55629759510931E-03 
1195	 1.57288599992226E-03 
1196	 1.52036589004003E-03 
1197	 1.55689936752004E-03 
1198	 1.64109923663339E-03 
1199	 1.57574520440537E-03 
1200	 1.39479605351032E-03 
1201	 1.33163152521529E-03 
1202	 1.43099938341264E-03 
1203	 1.35372521613885E-03 
1204	 1.32696805002971E-03 
1205	 1.46423296725402E-03 
1206	 0.001472795650575 
1207	 1.65561706858342E-03 
1208	 1.7766798040952E-03 
1209	 1.50972281615874E-03 
1210	 1.46336243535997E-03 
1211	 1.53174428085513E-03 
1212	 1.43490439531712E-03 
1213	 1.59632931121033E-03 
1214	 1.64690037957347E-03 
1215	 1.59852354060642E-03 
1216	 1.3744566297275E-03 
1217	 1.45981570992382E-03 
1218	 1.48076023864825E-03 
1219	 1.42958775541057E-03 
1220	 1.5018869190864E-03 
1221	 1.52283840140666E-03 
1222	 1.40955865406206E-03 
1223	 1.44203980523831E-03 
1224	 1.67924128933129E-03 
1225	 1.7237231373474E-03 
1226	 1.52463843942858E-03 
1227	 1.50282684801348E-03 
1228	 1.71626498757954E-03 
1229	 1.66597041554559E-03 
1230	 1.57350884389522E-03 
1231	 1.59502211180586E-03 
1232	 1.38576530134262E-03 
1233	 1.33521859334299E-03 
1234	 1.69057567071635E-03 
1235	 1.80969992761285E-03 
1236	 1.76008378458736E-03 
1237	 1.67955559242264E-03 
1238	 1.45993908143495E-03 
1239	 1.56942979183766E-03 
1240	 1.40245601207571E-03 
1241	 1.31496301608998E-03 
1242	 1.5886503923602E-03 
1243	 1.4901377037275E-03 
1244	 1.25214536281048E-03 
1245	 1.4287681870381E-03 
1246	 1.50788415396621E-03 
1247	 1.31237565684492E-03 
1248	 1.47725814109126E-03 
1249	 1.85081306017266E-03 
1250	 1.72717415066176E-03 
1251	 1.35124685397879E-03 
1252	 1.34227413195844E-03 
1253	 1.63779306035381E-03 
1254	 1.84343800232528E-03 
1255	 1.87900307933671E-03 
1256	 1.94013999871965E-03 
1257	 1.74501351406439E-03 
1258	 1.70969141635755E-03 
1259	 1.8520697683942E-03 
1260	 1.86181186598664E-03 
1261	 1.76050804467864E-03 
1262	 1.68980278971092E-03 
1263	 1.47597623203143E-03 
1264	 1.55708118925909E-03 
1265	 1.68237456844813E-03 
1266	 1.51881518087975E-03 
1267	 1.50255523243328E-03 
1268	 1.66442016967705E-03 
1269	 1.58211225848361E-03 
1270	 1.48196406750861E-03 
1271	 1.30800579134342E-03 
1272	 1.19797171276087E-03 
1273	 1.49396791538023E-03 
1274	 1.78819561781183E-03 
1275	 1.67096886910431E-03 
1276	 1.55373438531442E-03 
1277	 1.64469782853542E-03 
1278	 1.49293710209499E-03 
1279	 1.44042500381863E-03 
1280	 1.61316763453802E-03 
1281	 1.62510402427445E-03 
1282	 1.39370141908989E-03 
1283	 1.38496017727422E-03 
1284	 1.52908119631268E-03 
1285	 1.56324935424742E-03 
1286	 1.59421155439983E-03 
1287	 1.61493894830079E-03 
1288	 1.61166932793569E-03 
1289	 1.54987804528247E-03 
1290	 1.34295538302284E-03 
1291	 1.40636849977731E-03 
1292	 1.56649405992349E-03 
1293	 1.63265167610278E-03 
1294	 1.52671717889798E-03 
1295	 1.44909956786148E-03 
1296	 1.55520171469331E-03 
1297	 1.67426342434847E-03 
1298	 1.75343661422635E-03 
1299	 1.79661441078991E-03 
1300	 1.71013332749886E-03 
1301	 1.40622981885598E-03 
1302	 1.34821658129884E-03 
1303	 1.58758352780998E-03 
1304	 1.53851149241623E-03 
1305	 1.46009691486761E-03 
1306	 1.50141602203462E-03 
1307	 1.74576653230913E-03 
1308	 1.74449274931971E-03 
1309	 1.51739513278285E-03 
1310	 1.64132779546626E-03 
1311	 1.98484138700297E-03 
1312	 2.01844025364384E-03 
1313	 2.18817580377748E-03 
1314	 2.18347128432983E-03 
1315	 1.62575695019036E-03 
1316	 1.50997059154681E-03 
1317	 1.68715536450006E-03 
1318	 1.76745324950507E-03 
1319	 2.01763498188842E-03 
1320	 2.05985746510811E-03 
1321	 1.82465094174609E-03 
1322	 1.95738988614506E-03 
1323	 2.22195780220383E-03 
1324	 2.21676543971162E-03 
1325	 2.22047330807372E-03 
1326	 2.23536581729813E-03 
1327	 1.77026797038982E-03 
1328	 1.50570790472145E-03 
1329	 1.76999933549854E-03 
1330	 1.67250278752919E-03 
1331	 1.54447111991774E-03 
1332	 1.85429110866998E-03 
1333	 1.82088391812811E-03 
1334	 1.70866740794514E-03 
1335	 1.74724193573799E-03 
1336	 1.81209316701858E-03 
1337	 1.81491655648171E-03 
1338	 1.8979046236014E-03 
1339	 1.94482670847308E-03 
1340	 1.95170299632217E-03 
1341	 2.25252443584862E-03 
1342	 2.86503405505377E-03 
1343	 2.8893679473121E-03 
1344	 2.57814589144742E-03 
1345	 2.67083758770344E-03 
1346	 2.54642663450421E-03 
1347	 2.63679648147034E-03 
1348	 3.6652028526956E-03 
1349	 4.37104411414523E-03 
1350	 4.65370593861764E-03 
1351	 4.89842692185911E-03 
1352	 6.11567781889934E-03 
1353	 6.48550040136836E-03 
1354	 3.84035100958982E-03 
1355	-4.90392488165258E-03 
1356	-1.73233979875672E-04 
1357	 9.3984171150862E-03 
1358	 7.51090146510242E-03 
1359	 2.65272008865627E-02 
1360	 1.61841223675576E-02 
1361	 2.08243353748349E-02 
1362	 9.05189843836638E-02 
1363	 6.83073639649124E-02 
1364	 5.01997438205267E-02 
1365	 0.122933060488076 
1366	 8.68155606592682E-02 
1367	 4.29281722357248E-02 
1368	 7.89556450628469E-02 
1369	 0.188759012798606 
1370	 0.16105658108066 
1371	 0.155013817043237 
1372	 0.13743874424111 
1373	-1.38757365738878E-02 
1374	-7.77559359896063E-02 
1375	-9.56757736904305E-02 
1376	-8.76779480120558E-02 
1377	-4.89488064662948E-02 
1378	-0.061396338030972 
1379	-0.107967053752754 
1380	-5.97685545264832E-02 
1381	 5.77895706988245E-02 
1382	 6.52875055613955E-02 
1383	 0.152990033580348 
1384	 0.158283814694677 
1385	-5.20750471279236E-02 
1386	-9.83100682002241E-02 
1387	-6.34401899035339E-02 
1388	-6.30067864865051E-02 
1389	-2.58194514408891E-02 
1390	-7.87245571859643E-03 
1391	 0.01994156998777 
1392	-2.69103194286171E-02 
1393	-0.025332909747353 
1394	-1.43661034547413E-02 
1395	 1.48379115574841E-02 
1396	 3.26282888279977E-02 
1397	 2.95755511314574E-02 
1398	 3.27366921060125E-02 
1399	 1.53560872154376E-02 
1400	 5.82562208374614E-03 
1401	 1.40227946855893E-02 
1402	-2.84835287115564E-03 
1403	-2.18135406581086E-02 
1404	-5.82937242772877E-03 
1405	 7.32982190188255E-03 
1406	 2.66509992220103E-02 
1407	 2.12800950044087E-02 
1408	 1.47179321024536E-02 
1409	 1.31779128204022E-02 
1410	 2.0293623763396E-03 
1411	 1.36394699482921E-03 
1412	 1.11417974993228E-02 
1413	 9.88711597450741E-03 
1414	 4.60238506193281E-03 
1415	 2.30645210130584E-03 
1416	-2.54737370711087E-03 
1417	-3.08309125572868E-03 
1418	-8.68182171525022E-04 
1419	 1.08161396634057E-04 
1420	 2.36979045546467E-03 
1421	 3.08834797759982E-03 
1422	 2.68992621173694E-03 
1423	 2.30097705273834E-03 
1424	 2.22374713372113E-03 
1425	 1.20505794784714E-03 
1426	-1.85093797515735E-03 
1427	-1.68491145997428E-03 
1428	 1.26768192660788E-03 
1429	 6.5921392216452E-04 
1430	-2.03642764917748E-03 
1431	-1.05927076688264E-03 
1432	 8.8796643623896E-04 
1433	 5.90699033406898E-04 
1434	 2.23962258297879E-03 
1435	 2.94608138190697E-03 
1436	 4.98397445024866E-05 
1437	-1.69824649670496E-03 
1438	-3.46214599227458E-04 
1439	 1.46151199926817E-03 
1440	 1.93152062851268E-03 
1441	 1.96244005775441E-03 
1442	 3.75744439533967E-04 
1443	-8.54840245475145E-04 
1444	 2.52717146774479E-04 
1445	 5.3594413064305E-04 
1446	 5.61783760391698E-04 
1447	 1.98788877367097E-03 
1448	 2.43956167375598E-03 
1449	 1.68015569603275E-03 
1450	 1.72376431666436E-03 
1451	 1.63514436731981E-03 
1452	 9.60218194853923E-04 
1453	 1.11317866926742E-03 
1454	 1.57221398626603E-03 
1455	 3.03583753630947E-03 
1456	 2.83727926600853E-03 
1457	 1.89050240021374E-03 
1458	 1.81344466241617E-03 
1459	 1.46106838319113E-03 
1460	 1.2873270232274E-03 
1461	 1.82659937917403E-03 
1462	 1.99171365130108E-03 
1463	 1.7119234504183E-03 
1464	 1.32220120804529E-03 
1465	 9.63698843274417E-04 
1466	 9.8798018901879E-04 
1467	 7.53441289465857E-04 
1468	 5.12262381845185E-04 
1469	 8.21320191668718E-04 
1470	 1.20528844004856E-03 
1471	 1.40543052438885E-03 
1472	 1.37313236003431E-03 
1473	 1.6048166932697E-03 
1474	 1.62235934365378E-03 
1475	 1.01987384100324E-03 
1476	 9.74493487561404E-04 
1477	 1.53293014338431E-03 
1478	 1.54226543803868E-03 
1479	 1.26506789620954E-03 
1480	 1.13446115909286E-03 
1481	 6.59609999155463E-04 
1482	 8.45897655780887E-04 
1483	 1.81348586810141E-03 
1484	 1.86366898903198E-03 
1485	 1.67962953984279E-03 
1486	 1.54020883884578E-03 
1487	 6.84066431797985E-04 
1488	 5.89832676399497E-04 
1489	 1.13842459232181E-03 
1490	 1.40419214338975E-03 
1491	 1.85374181157121E-03 
1492	 1.90893274596121E-03 
1493	 1.59065484189998E-03 
1494	 1.58899842777796E-03 
1495	 1.71248365604583E-03 
1496	 1.64499786772253E-03 
1497	 1.54308524655551E-03 
1498	 1.52750785327012E-03 
1499	 1.4786298489042E-03 
1500	 1.31204751901871E-03 
1501	 1.07394189343134E-03 
1502	 1.05845950126615E-03 
1503	 1.02225742744774E-03 
1504	 9.69375158218674E-04 
1505	 1.10550768239384E-03 
1506	 1.29685985884358E-03 
1507	 1.08438622159989E-03 
1508	 1.0099969807999E-03 
1509	 1.28059590058003E-03 
1510	 1.39313621138856E-03 
1511	 1.24847035335981E-03 
1512	 1.11348078359221E-03 
1513	 1.05600030345004E-03 
1514	 9.72947574088836E-04 
1515	 1.10182524133637E-03 
1516	 1.30637680697187E-03 
1517	 1.17294610101957E-03 
1518	 1.09528414726503E-03 
1519	 1.1297996241166E-03 
1520	 9.38024362594672E-04 
1521	 7.7594453682588E-04 
1522	 8.44971321932576E-04 
1523	 9.71002947866549E-04 
1524	 1.10158463798484E-03 
1525	 1.26293540862005E-03 
1526	 1.22870154613017E-03 
1527	 1.08602542994935E-03 
1528	 1.08556001477652E-03 
1529	 1.16064658505008E-03 
1530	 1.18253910342214E-03 
1531	 1.13052624043655E-03 
1532	 1.17439283070089E-03 
1533	 1.28784955794221E-03 
1534	 1.26562050756562E-03 
1535	 1.22292217385867E-03 
1536	 1.31083760353588E-03 
1537	 1.40100631657769E-03 
1538	 1.38834364705774E-03 
1539	 1.26048292323754E-03 
1540	 1.20774575291005E-03 
1541	 1.21711819790284E-03 
1542	 1.07091869545484E-03 
1543	 1.00397870835877E-03 
1544	 1.07185089220174E-03 
1545	 1.1200155666193E-03 
1546	 1.15412942877071E-03 
1547	 1.2116846309313E-03 
1548	 1.29818988565097E-03 
1549	 1.31661566426196E-03 
1550	 1.25383019751994E-03 
1551	 1.00548071622929E-03 
1552	 8.46396560636089E-04 
1553	 1.11439713507809E-03 
1554	 1.24369229558355E-03 
1555	 1.2236771953108E-03 
1556	 1.41228501491235E-03 
1557	 1.23694865392728E-03 
1558	 9.05982010867106E-04 
1559	 1.03834178376424E-03 
1560	 1.05923816806311E-03 
1561	 8.9591051104799E-04 
1562	 1.09557789658391E-03 
1563	 1.30455732702399E-03 
1564	 1.27991914045261E-03 
1565	 1.31770922606621E-03 
1566	 1.37415824851765E-03 
1567	 1.30784382496258E-03 
1568	 1.30037923717132E-03 
1569	 1.41942115503522E-03 
1570	 1.37209390734916E-03 
1571	 1.30529621072744E-03 
1572	 1.43900598460267E-03 
1573	 1.39988501008254E-03 
1574	 1.26058506759804E-03 
1575	 1.28539567397873E-03 
1576	 1.18343520878507E-03 
1577	 1.09258781324077E-03 
1578	 1.25171306186927E-03 
1579	 1.37738015030219E-03 
1580	 1.3071209739012E-03 
1581	 1.35379499154421E-03 
1582	 1.54781814776048E-03 
1583	 1.39266010986752E-03 
1584	 1.23407441915506E-03 
1585	 1.33080445869474E-03 
1586	 1.23907053904263E-03 
1587	 1.04439340413552E-03 
1588	 1.09453997464743E-03 
1589	 1.33788475615845E-03 
1590	 1.42163914870721E-03 
1591	 1.34444251362465E-03 
1592	 1.27732535999181E-03 
1593	 1.19617076008088E-03 
1594	 1.18997102462116E-03 
1595	 1.29755947371639E-03 
1596	 1.36539093315303E-03 
1597	 1.28395413956831E-03 
1598	 1.05805617390807E-03 
1599	 9.42925899409475E-04 
1600	 1.16625431672043E-03 
1601	 1.45570843980614E-03 
1602	 1.47090092522778E-03 
1603	 1.33271829212084E-03 
1604	 1.31835479819309E-03 
1605	 1.31378174555476E-03 
1606	 1.1628507783052E-03 
1607	 1.14728699035942E-03 
1608	 1.15292535717241E-03 
1609	 9.17823942818065E-04 
1610	 9.03226605452166E-04 
1611	 1.12670570395802E-03 
1612	 1.02787562552244E-03 
1613	 8.33741453894204E-04 
1614	 8.68592495992485E-04 
1615	 8.04987190442408E-04 
1616	 8.61475794923097E-04 
1617	 1.19931438709233E-03 
1618	 1.2880842193188E-03 
1619	 1.22057462200834E-03 
1620	 1.38319389800545E-03 
1621	 1.47859291838422E-03 
1622	 1.17592499986315E-03 
1623	 9.58453236292109E-04 
1624	 1.16239823568937E-03 
1625	 1.25435374105252E-03 
1626	 1.22250780069539E-03 
1627	 1.41977018989647E-03 
1628	 1.34532630183619E-03 
1629	 1.09128703081457E-03 
1630	 1.21787081748312E-03 
1631	 1.29348567761381E-03 
1632	 1.26983308139612E-03 
1633	 1.34020635298661E-03 
1634	 1.30639765825355E-03 
1635	 1.35996562822492E-03 
1636	 1.35286061794479E-03 
1637	 1.2266563891277E-03 
1638	 1.22054485270573E-03 
1639	 1.17246665577097E-03 
1640	 1.11388156472475E-03 
1641	 1.18130522600856E-03 
1642	 1.46602609853452E-03 
1643	 1.56294990776129E-03 
1644	 1.25308297498094E-03 
1645	 1.21163306195851E-03 
1646	 1.4277322659379E-03 
1647	 1.50204468654539E-03 
1648	 1.45161072683597E-03 
1649	 1.24607011045809E-03 
1650	 1.01694807384969E-03 
1651	 1.06838626797596E-03 
1652	 1.44102215453871E-03 
1653	 1.54642164898243E-03 
1654	 1.53575127392343E-03 
1655	 1.53188270950985E-03 
1656	 1.46131007545586E-03 
1657	 1.08562480232269E-03 
1658	 1.06815736159966E-03 
1659	 1.29941985463255E-03 
1660	 1.26696103372304E-03 
1661	 1.34618725138404E-03 
1662	 1.5005762339857E-03 
1663	 1.58137404788901E-03 
1664	 1.44261130066821E-03 
1665	 1.10381593683391E-03 
1666	 1.10626420171664E-03 
1667	 1.16620268274207E-03 
1668	 1.1692935026959E-03 
1669	 1.14630464940062E-03 
1670	 8.05371809130175E-04 
1671	 7.53741380438224E-04 
1672	 1.03680657998365E-03 
1673	 1.31792768038122E-03 
1674	 1.77059300110261E-03 
1675	 1.73492874386941E-03 
1676	 1.09688101013022E-03 
1677	 9.79615069947753E-04 
1678	 1.35625458947532E-03 
1679	 1.31122071328476E-03 
1680	 1.12261171049062E-03 
1681	 1.28217271273786E-03 
1682	 1.2868927329948E-03 
1683	 1.10585110550982E-03 
1684	 1.2279933249959E-03 
1685	 1.33648627516307E-03 
1686	 1.28375507660527E-03 
1687	 1.25806439619806E-03 
1688	 1.08806259461027E-03 
1689	 9.29670305528615E-04 
1690	 9.8170405715207E-04 
1691	 1.45602907384567E-03 
1692	 2.10396484713214E-03 
1693	 2.16083997020959E-03 
1694	 1.71123947974585E-03 
1695	 1.16204982198253E-03 
1696	 7.49388210478132E-04 
1697	 7.5499339893429E-04 
1698	 1.07737791202801E-03 
1699	 1.11838409571597E-03 
1700	 8.99231969339557E-04 
1701	 9.20819532407533E-04 
1702	 1.03471172007861E-03 
1703	 9.10305788080245E-04 
1704	 6.81545287492158E-04 
1705	 8.03751203555147E-04 
1706	 9.02561871864668E-04 
1707	 8.95871951599289E-04 
1708	 1.32579556369915E-03 
1709	 1.38621434261012E-03 
1710	 9.01857538167262E-04 
1711	 8.80519281168151E-04 
1712	 1.04817640810609E-03 
1713	 1.15483547090668E-03 
1714	 1.37666781689597E-03 
1715	 1.37871572622077E-03 
1716	 1.17624073149656E-03 
1717	 1.44060274960079E-03 
1718	 1.37749529289362E-03 
1719	 1.42810632402361E-03 
1720	 1.4185313228425E-03 
1721	 9.41901512170829E-04 
1722	 8.61814342005898E-04 
1723	 1.10989648712586E-03 
1724	 1.46540805006328E-03 
1725	 1.71504622595916E-03 
1726	 1.38142704623277E-03 
1727	 8.69497206899762E-04 
1728	 7.91068472621472E-04 
1729	 1.14962544078924E-03 
1730	 1.50148269585545E-03 
1731	 1.70481422142385E-03 
1732	 1.20507809815287E-03 
1733	 2.91554471776037E-04 
1734	 2.65491575968808E-04 
1735	 5.97813565307549E-04 
1736	 9.44072103754944E-04 
1737	 1.92278418858988E-03 
1738	 2.1824552117893E-03 
1739	 1.35461612020248E-03 
1740	 1.12759965623213E-03 
1741	 9.06664554503298E-04 
1742	 6.48553307125158E-04 
1743	 1.33478160863691E-03 
1744	 1.57465206659852E-03 
1745	 1.14037304314464E-03 
1746	-1.63216293180739E-04 
1747	-3.1453084098701E-04 
1748	 7.25738430365365E-04 
1749	 7.59460654423407E-04 
1750	 7.97862085956129E-04 
1751	 1.01559454012343E-03 
1752	 1.57913376303404E-04 
1753	-4.17877359942269E-05 
1754	 1.06817150903425E-03 
1755	 1.25748284577019E-03 
1756	 8.91261565465973E-04 
1757	 1.1947280679719E-03 
1758	 6.19080514882241E-04 
1759	 3.53262028712124E-04 
1760	 6.04489765783655E-04 
1761	 7.96493335912884E-04 
1762	 1.01761956542546E-03 
1763	 1.21233679788954E-03 
1764	 1.33064575301666E-03 
1765	 1.16764825499403E-03 
1766	 1.30021138147314E-03 
1767	 1.34200782781338E-03 
1768	 1.02202112815792E-03 
1769	 1.21738899572898E-03 
1770	 1.36098228456057E-03 
1771	 1.66407080113811E-03 
1772	 2.0679519985693E-03 
1773	 1.80212196381508E-03 
1774	 1.5199743186573E-03 
1775	 1.38967479628464E-03 
1776	 1.27613457615412E-03 
1777	 1.14100322961374E-03 
1778	 1.1543064328917E-03 
1779	 1.50082429003769E-03 
1780	 1.35259363161634E-03 
1781	 9.98687146775134E-04 
1782	 9.32430142145523E-04 
1783	 2.62488176372012E-04 
1784	 3.51952465467814E-04 
1785	 1.36743816064941E-03 
1786	 1.77823068904866E-03 
1787	 2.9835441454998E-03 
1788	 2.80000397864067E-03 
1789	 1.05062277670708E-03 
1790	 1.03106374572882E-03 
1791	-1.2979214156771E-03 
1792	-2.30891514928198E-03 
1793	 3.35424237988256E-04 
1794	 1.39191369994806E-03 
1795	 2.83159721511819E-03 
1796	 4.22215508515315E-03 
1797	 1.27912846078326E-03 
1798	-1.49395172822485E-03 
1799	-3.02502837782027E-03 
1800	-1.58895690543076E-03 
1801	-4.04563579645004E-04 
1802	 4.37513942811963E-03 
1803	 4.74368780717006E-03 
1804	-2.99833721187061E-03 
1805	-5.00794864065165E-03 
1806	-8.00523729633562E-03 
1807	-5.9360229409184E-03 
1808	 1.46373163770058E-02 
1809	 2.05188624163195E-02 
1810	 1.80736367646576E-02 
1811	 1.35067639285645E-02 
1812	-1.79268721422741E-02 
1813	-2.29250630830882E-02 
1814	-7.4632277593796E-03 
1815	 2.70061576604781E-03 
1816	 4.42739397055805E-02 
1817	 6.57662125046718E-02 
1818	 0.052662817259766 
1819	 1.25943423576996E-02 
1820	-5.04138324937938E-02 
1821	-9.97630744889196E-02 
1822	-0.124773191408002 
1823	-2.32814461530308E-02 
1824	 2.09233914292519E-02 
1825	 4.14119036196892E-02 
1826	 5.59399298665138E-02 
1827	-3.31291354500697E-02 
1828	-3.71508483336675E-02 
1829	 6.73281514244944E-02 
1830	 0.110262047493146 
1831	 0.131486671020163 
1832	 0.100172374958426 
1833	-0.222751327495592 
1834	-0.302498777274535 
1835	 1.28055381269704E-03 
1836	 0.160806284829243 
1837	 0.619731413583116 
1838	 0.829844497669902 
1839	 0.173033447264911 
1840	-0.43139028850702 
1841	-0.856133390479387 
1842	-3.09961407006619 
1843	-5.20081394208993 
1844	-3.65683074605715 
1845	-3.16042539126161 
1846	-0.609047136718335 
1847	 11.7328445146997 
1848	-1.44396586885815 
1849	-1.35774526991657 
1850	 0.842103763972042 
1851	-0.128727988043993 
1852	-0.612376965443175 
1853	-0.249588821541562 
1854	-3.20921382762788E-02 
1855	 0.341131070240571 
1856	 0.320261062024295 
1857	 0.955441014668683 
1858	 1.26608683282394 
1859	 3.52924993217988E-02 
1860	 3.05729093454918 
1861	 3.20741155914257 
1862	 6.27035117879062 
1863	 2.52723776651341 
1864	 2.82764281990986 
1865	 4.43639435035415 
1866	 13.0990986861899 
1867	-0.102557527104097 
1868	 0.159443393620292 
1869	-4.23172170514064E-02 
1870	-0.775668596827032 
1871	-4.38332320047426 
1872	 2.96188398766667 
1873	 1.7514674340292 
1874	 0.675717758206814 
1875	-0.171521877446793 
1876	 1.28403548004857 
1877	-0.169303530559676 
1878	-0.105223837086827 
1879	-8.59778598740182E-02 
1880	 0.11413977051091 
1881	 0.893750118024798 
1882	 1.63899658391958 
1883	 0.905426786296772 
1884	 0.750856004811443 
1885	 0.483168351848964 
1886	-0.50720512462954 
1887	-0.973878921854516 
1888	-0.717532997643888 
1889	-0.596475807443642 
1890	-0.19819703684266 
1891	-0.12614693590676 
1892	-8.44252864510126E-02 
1893	-6.16139589594806E-02 
1894	-0.253158865421418 
1895	-0.487370120430551 
1896	-0.749462655993514 
1897	-1.27356238692265 
1898	-1.2559760054033 
1899	-1.39540685860849 
1900	-2.0977746595906 
1901	-0.457292467205161 
1902	-0.339074191999825 
1903	-0.510446046516698 
1904	-0.466141618037005 
1905	-0.730093770891791 
1906	-0.623671251831275 
1907	-1.90334534062846 
1908	-2.358768782696 
1909	-0.752964213225951 
1910	-0.131815736022536 
1911	-0.311510805095078 
1912	 3.73921382771966 
1913	 5.32915138802563 
1914	-0.154207282617188 
1915	-0.317273627070067 
1916	-6.88843002004464E-02 
1917	 0.275674002819489 
1918	 0.227694394447594 
1919	 0.346228508673155 
1920	 0.379414907932077 
1921	 0.129632206080329 
1922	 9.58174709080216E-04 
1923	-0.156234909284308 
1924	-0.19481979338099 
1925	-4.71837730915958E-02 
1926	-2.88307714353675E-02 
1927	-3.32143510055637E-02 
1928	-5.43004419400754E-02 
1929	-3.88731637049888E-02 
1930	-7.55930330438785E-02 
1931	-6.18668032981663E-02 
1932	-3.00441001744583E-02 
1933	-5.72882575210004E-02 
1934	-3.88721300230632E-02 
1935	-2.49199270460903E-02 
1936	-3.37962255728188E-02 
1937	-7.14575439790777E-03 
1938	-5.3497228374161E-03 
1939	-5.42848996397001E-03 
1940	-1.44514104000811E-02 
1941	-1.1162663757293E-03 
1942	 1.01710227286789E-03 
1943	 1.01848954325693E-02 
1944	 2.15326788282652E-02 
1945	 1.61169854310591E-02 
1946	 8.25146982856239E-03 
1947	-7.69941634019493E-04 
1948	-9.49613622160486E-03 
1949	-5.48718504869165E-03 
1950	-9.10362260117242E-04 
1951	-3.4011676560248E-03 
1952	-1.8130161434953E-03 
1953	 1.48095401682078E-03 
1954	-8.27528189264876E-04 
1955	-7.14672020469721E-03 
1956	-6.59622329035651E-03 
1957	-5.28952573038692E-03 
1958	-3.5995429529863E-03 
1959	-3.5792801834364E-05 
1960	-2.12594229029024E-03 
1961	-3.79555041352635E-03 
1962	 9.38163756332051E-04 
1963	 2.99017479810961E-03 
1964	 3.30063124792138E-03 
1965	 4.12669985839748E-03 
1966	 4.7179012210988E-03 
1967	 2.27464070032121E-03 
1968	 1.55853355922728E-03 
1969	 2.89169483517715E-03 
1970	 3.60485384938362E-03 
1971	 2.74958030894609E-03 
1972	 1.24126374086315E-03 
1973	 1.8796469374732E-03 
1974	 2.13141321182033E-03 
1975	 6.77637474170012E-04 
1976	 1.23982957265512E-03 
1977	 1.5081833388697E-03 
1978	 9.90967357194556E-04 
1979	 1.02120413114479E-03 
1980	 1.95501405118313E-03 
1981	 0.001445344743408 
1982	 6.27106962947163E-04 
1983	 1.0559987225722E-03 
1984	 1.01210960642891E-03 
1985	 6.59361201617112E-04 
1986	 9.09513523188714E-04 
1987	 8.81989906152742E-04 
1988	 7.29285245254349E-04 
1989	 1.28402123199196E-03 
1990	 1.4237104632564E-03 
1991	 5.69288216544539E-04 
1992	-1.96364356086545E-04 
1993	-7.35689503782486E-04 
1994	-1.02738114230099E-03 
1995	-0.001224979200687 
1996	-6.4620606824241E-04 
1997	 1.36976537544303E-04 
1998	 1.12794536814096E-03 
1999	 2.26149088484769E-03 
2000	 2.72414353943408E-03 
2001	 2.80432501254131E-03 
2002	 3.07114530653788E-03 
2003	 4.38285371495109E-03 
2004	 3.84795791635112E-03 
2005	 2.99813590749006E-03 
2006	 3.7798854323749E-03 
2007	 3.1079764596263E-03 
2008	 5.66794156598076E-03 
2009	 5.73369238817024E-03 
2010	 4.09575417271758E-03 
2011	 3.30200161456811E-03 
2012	 1.52256103571415E-03 
2013	 1.43169452636064E-03 
2014	 2.81433434957154E-04 
2015	 1.31050619432035E-03 
2016	 3.14800827983989E-03 
2017	 2.15293473110448E-03 
2018	 1.06748863032377E-03 
2019	 9.44838313372529E-04 
2020	 1.34027808146143E-03 
2021	 6.45487479480481E-04 
2022	-1.21811509039854E-04 
2023	 1.04297387898243E-03 
2024	 1.78717185393621E-03 
2025	 2.15456581172971E-03 
2026	 2.14136343836495E-03 
2027	 2.63243542817145E-03 
2028	 2.47224423461263E-03 
2029	 1.56594637904446E-03 
2030	 9.69559766139136E-04 
2031	 1.29186162172455E-03 
2032	 1.94681414220834E-03 
2033	 1.8206186736911E-03 
2034	 1.65301856336951E-03 
2035	 1.22954012633544E-03 
2036	 5.58978872179122E-04 
2037	 7.78165042165531E-04 
2038	 1.21726927349884E-03 
2039	 1.4195437186579E-03 
2040	 1.91344805484716E-03 
2041	 1.97986833420495E-03 
2042	 1.48277629387205E-03 
2043	 1.44111201644082E-03 
2044	 1.44426269046051E-03 
2045	 1.57933599301418E-03 
2046	 1.80490153851063E-03 
2047	 1.78543054652401E-03 
2048	 2.01452902021366E-03 
2049	 2.60930663597408E-03 
2050	 3.43317275527909E-03 
2051	 3.09926076590656E-03 
2052	 3.05992444675554E-03 
2053	 3.07664608218943E-03 
2054	 9.21443366882783E-04 
2055	 2.6175050982481E-04 
2056	 4.7666909689473E-04 
2057	 1.23537376582921E-03 
2058	 1.16436082467001E-03 
2059	 2.5011053862731E-03 
2060	 2.63695218741778E-03 
2061	 1.44380027619543E-03 
2062	 1.95234429732775E-04 
2063	 1.75367344079211E-05 
2064	 6.75887220430497E-04 
2065	 1.00409517974195E-03 
2066	 1.41596596188171E-03 
2067	 2.00053755062843E-03 
2068	 2.10069261267677E-03 
2069	 2.18117856206156E-03 
2070	 1.73136714567913E-03 
2071	 1.43009281370891E-03 
2072	 1.03562753570791E-03 
2073	 8.82287409599008E-04 
2074	 1.14070003259263E-03 
2075	 9.31405544346736E-04 
2076	 7.58604590327735E-04 
2077	 5.71412790162402E-04 
2078	-5.46318878209309E-04 
2079	-6.27067023246821E-04 
2080	-1.26156564069527E-04 
2081	 5.77305400336313E-04 
2082	 7.58059301491775E-04 
2083	 1.78294493908649E-03 
2084	 2.14103571942837E-03 
2085	 0.001270894833199 
2086	 1.50718880642838E-03 
2087	 1.6796457112091E-03 
2088	 1.44592330594052E-03 
2089	 1.27035224105495E-03 
2090	 9.51693988906167E-04 
2091	 8.17845551467941E-04 
2092	 7.77119541677667E-04 
2093	 1.49851521901826E-03 
2094	 1.45029923053393E-03 
2095	 5.16227219603512E-04 
2096	 5.04370239402262E-04 
2097	 8.95015102999741E-04 
2098	 8.89667528302767E-04 
2099	 1.01634187797165E-03 
2100	 1.49598319259139E-03 
2101	 1.58414061053814E-03 
2102	 1.17681909259212E-03 
2103	 8.47166848869871E-04 
2104	 1.03400332481213E-03 
2105	 9.57915907055306E-04 
2106	 7.05209192484575E-04 
2107	 1.95363246989039E-05 
2108	-4.41633953300918E-04 
2109	-4.77720284318186E-04 
2110	-6.91455132604856E-04 
2111	 4.53435394402362E-04 
2112	 1.53945194015408E-03 
2113	 1.98090218272741E-03 
2114	 1.93634897034697E-03 
2115	 2.25413272212864E-03 
2116	 2.46661593240891E-03 
2117	 2.29931986874859E-03 
2118	 1.93941676416403E-03 
2119	 1.50646747638234E-03 
2120	 6.70517543577576E-04 
2121	-2.23954577526449E-04 
2122	-1.43960587475522E-04 
2123	 5.29464236454114E-04 
2124	 1.13263772859418E-03 
2125	 2.55665676698014E-03 
2126	 2.38766286139689E-03 
2127	 1.74711242436105E-03 
2128	 2.02496487197584E-03 
2129	 1.13506657801953E-03 
2130	 7.11173985984931E-04 
2131	 9.44078848404405E-04 
2132	-6.42980173105711E-05 
2133	-5.82841752087785E-04 
2134	-4.79767765852331E-04 
2135	 6.69652563699481E-04 
2136	 7.75830051165924E-04 
2137	 7.04230219508978E-04 
2138	 5.49840437301538E-04 
2139	-5.6678603114561E-04 
2140	-5.06421407159727E-04 
2141	 1.03309255736218E-03 
2142	 1.33745336265651E-03 
2143	 1.49856962497399E-03 
2144	 1.23392207867924E-03 
2145	 8.58806623461169E-04 
2146	 4.48228683176908E-04 
2147	 7.59370062551339E-04 
2148	 8.43177540954846E-04 
2149	 6.36751571342558E-04 
2150	 3.88593955461922E-04 
2151	 1.14656445010771E-03 
2152	 2.21792256371941E-03 
2153	 2.40878952769178E-03 
2154	 2.48563838070045E-03 
2155	 1.87247543531351E-03 
2156	 1.36768172172858E-03 
2157	 1.65658290002888E-03 
2158	 3.35682587079439E-03 
2159	 3.10499322550414E-03 
2160	 2.28429555715166E-03 
2161	 1.65558598305115E-03 
2162	-5.32755381432607E-04 
2163	-1.43216583493539E-03 
2164	-1.30716127235557E-03 
2165	-1.16071447663067E-03 
2166	-9.30097232283113E-04 
2167	-6.1801912107589E-04 
2168	 4.18661885807327E-04 
2169	 9.9304934993766E-04 
2170	 1.0262713925144E-03 
2171	 2.13912444742304E-03 
2172	 2.40411013066121E-03 
2173	 2.02567623289067E-03 
2174	 1.94669404056902E-03 
2175	 1.53925383705003E-03 
2176	 7.09814159315619E-04 
2177	 5.99193584549754E-04 
2178	 1.50143681483371E-03 
2179	 1.66773538044929E-03 
2180	 2.24017632823091E-03 
2181	 2.87811905583381E-03 
2182	 1.99661429141934E-03 
2183	 4.52314622210959E-04 
2184	-2.67882671606461E-05 
2185	 3.87928879748371E-04 
2186	 2.50257360128786E-04 
2187	 3.00903733634482E-04 
2188	 9.14691180161933E-04 
2189	 1.46317798928197E-03 
2190	 1.45162754716171E-03 
2191	 2.06997038580957E-03 
2192	 2.29673067155653E-03 
2193	 0.001824240922152 
2194	 1.74159230794675E-03 
2195	 1.37544749561456E-03 
2196	 1.21346376041532E-03 
2197	 1.75290043525556E-03 
2198	 1.27063747027753E-03 
2199	 3.0559401398345E-04 
2200	-9.58325928299617E-05 
2201	-1.17976301899233E-03 
2202	-2.01935928934887E-03 
2203	-1.23589705910366E-03 
2204	-2.98117194915396E-04 
2205	 4.16378944691904E-04 
2206	 1.73235700111884E-03 
2207	 1.43195849565684E-03 
2208	 7.13349557834005E-04 
2209	 1.43954371348836E-03 
2210	 1.01240692198167E-03 
2211	 2.42778746239859E-04 
2212	 3.59428229167926E-04 
2213	 2.40761040840476E-03 
2214	 3.24851102107941E-03 
2215	 1.83606936018023E-03 
2216	 3.10836694934993E-03 
2217	 2.37550716760349E-03 
2218	-2.1840559764374E-03 
2219	-3.04358111661998E-03 
2220	-2.03847511997747E-03 
2221	-1.46879410846837E-03 
2222	 8.29098320169056E-04 
2223	 1.79966584246281E-03 
2224	 1.79786860185884E-03 
2225	 2.09651622085952E-03 
2226	 2.59402446273708E-03 
2227	 2.38312432879624E-03 
2228	 1.59204298477365E-03 
2229	 1.83341250015951E-03 
2230	 2.10719025807527E-03 
2231	 1.90428172313038E-03 
2232	 2.5650066462137E-03 
2233	 2.4021405192966E-03 
2234	 8.10356193175308E-04 
2235	 2.84666206230454E-04 
2236	 2.34185316517577E-04 
2237	-1.11455645292036E-03 
2238	-6.94317868813942E-04 
2239	-5.71677847550228E-05 
2240	-6.8547867041598E-04 
2241	 3.1096288071777E-04 
2242	-5.80257637966764E-05 
2243	-1.52733049446484E-03 
2244	-1.53834270666888E-03 
2245	-1.81175267479182E-03 
2246	-1.10480525585516E-03 
2247	-6.8361221014938E-04 
2248	-1.55778315009742E-03 
2249	 5.2875008969153E-04 
2250	 2.44590749867215E-03 
2251	 1.45675686716261E-03 
2252	 2.75504932860178E-03 
2253	 3.11923001952292E-03 
2254	 1.24780492531432E-03 
2255	 0.001416114602814 
2256	 1.31233723427366E-03 
2257	-4.5524209508341E-04 
2258	-1.55115494401009E-03 
2259	-1.27681727113555E-03 
2260	-1.18103312927938E-03 
2261	-1.48289001286403E-03 
2262	-1.25058355155337E-03 
2263	 2.88736644036084E-04 
2264	 1.01629842490862E-03 
2265	 1.62924603937062E-03 
2266	 1.45863829199391E-03 
2267	-1.87167554157753E-04 
2268	 4.80650852183588E-04 
2269	 1.70712582567492E-03 
2270	 2.14499618739378E-03 
2271	 4.98790589163015E-03 
2272	 5.4494998035629E-03 
2273	 3.08251619782241E-03 
2274	 1.85536115791708E-03 
2275	 8.99755577129716E-04 
2276	-1.80159801973404E-04 
2277	-2.90119139067183E-03 
2278	-2.22665551574557E-03 
2279	 2.10922543825623E-03 
2280	 2.57111815152614E-03 
2281	 2.01238793033082E-03 
2282	 3.08510112954472E-03 
2283	 2.57311022721617E-03 
2284	-7.69772964613989E-04 
2285	-1.85185700664787E-03 
2286	-1.78635853075401E-03 
2287	-5.84241883714515E-03 
2288	-9.03567291678437E-03 
2289	-7.48733262799988E-03 
2290	-5.12121396482953E-03 
2291	-2.49915211622223E-03 
2292	 8.91068435496921E-04 
2293	 1.59808505635216E-03 
2294	-4.65486154253125E-04 
2295	-2.96448606819894E-03 
2296	-3.93508261082982E-03 
2297	-1.97838544858395E-03 
2298	-2.27260661126389E-03 
2299	-3.37860412378528E-03 
2300	-4.55560601603479E-04 
2301	 5.14446355816636E-04 
2302	 5.42909626355065E-04 
2303	 4.70836494101302E-03 
2304	 7.84914035591758E-03 
2305	 9.77618289471476E-03 
2306	 1.00197530119107E-02 
2307	 6.66988323634836E-03 
2308	 4.70514502627062E-03 
2309	 1.1819576480877E-03 
2310	-1.52426570485268E-03 
2311	 1.74844921308482E-03 
2312	 3.59237325267692E-03 
2313	 5.43996587754985E-03 
2314	 1.00462432040447E-02 
2315	 8.09381635757882E-03 
2316	 2.45030218216049E-03 
2317	 7.49516020789469E-05 
2318	-9.70302059908651E-04 
2319	 9.62789191268661E-04 
2320	 1.53914892884591E-03 
2321	 1.11327555391893E-03 
2322	-1.17604243605207E-03 
2323	-6.17408453635091E-03 
2324	-4.0071549972639E-03 
2325	-4.53620994464848E-03 
2326	-4.96158007859362E-03 
2327	-1.17858033097505E-03 
2328	-2.78935282069211E-03 
2329	 6.33913067124727E-04 
2330	 1.59029115579269E-03 
2331	-2.49972950264051E-03 
2332	-1.59496832528635E-03 
2333	-2.99297000735017E-03 
2334	-2.46140866659723E-03 
2335	 1.34517283119483E-03 
2336	 6.20935719109389E-03 
2337	 1.04096317773759E-02 
2338	 5.56433586483554E-03 
2339	-2.07856668046633E-03 
2340	-7.40647545554632E-03 
2341	-9.9106606284196E-03 
2342	-7.71903545260827E-03 
2343	-5.08650473128987E-03 
2344	-2.11984129076301E-03 
2345	 1.94179415808695E-03 
2346	 5.08548251482076E-03 
2347	 5.93743655048326E-03 
2348	 4.83808231603801E-03 
2349	 3.55928607230136E-03 
2350	 3.60096969514427E-03 
2351	 8.46682777628199E-03 
2352	 1.01401927488249E-02 
2353	 3.99175629105122E-03 
2354	-8.12203488419928E-05 
2355	-7.40933647616797E-04 
2356	-4.86654858403159E-03 
2357	-5.97609245972503E-03 
2358	-5.1439038358623E-03 
2359	-4.46110856753453E-03 
2360	 8.83698024409457E-03 
2361	 1.72232961923808E-02 
2362	 1.67801664386099E-02 
2363	 1.90141826083007E-02 
2364	 1.07530772313134E-02 
2365	 1.4669193818506E-03 
2366	-9.94355890003495E-04 
2367	-1.05803180826715E-02 
2368	-1.43344733661529E-02 
2369	-9.64376770682002E-03 
2370	-8.54234620985205E-03 
2371	-2.72343312306994E-03 
2372	-2.79203395375231E-03 
2373	 9.40787341906459E-04 
2374	 1.32347941385883E-02 
2375	 8.39827623686593E-03 
2376	 5.35994435130151E-03 
2377	 1.81898115723796E-03 
2378	-1.04316206319366E-02 
2379	-6.91210335519634E-03 
2380	 6.59350747564191E-04 
2381	 1.58569250847893E-03 
2382	 1.25343686053606E-03 
2383	 8.82982017451479E-04 
2384	-6.73888189921935E-03 
2385	-2.06313257081788E-02 
2386	-1.79344255723207E-02 
2387	-1.18503740270947E-02 
2388	-1.03817605195876E-02 
2389	-5.5238207782458E-04 
2390	-1.87041080268231E-03 
2391	-1.62473756528849E-02 
2392	-2.38343693329194E-02 
2393	-0.015407378834542 
2394	-1.12028004795249E-02 
2395	-9.7753973538175E-03 
2396	 5.93144753785365E-03 
2397	 4.66685216864798E-03 
2398	-9.69914629917759E-03 
2399	-8.73701593586256E-03 
2400	-2.29053019876589E-03 
2401	 2.05267811358609E-03 
2402	 4.86966411053867E-03 
2403	 9.1102162310759E-03 
2404	 7.91295683021222E-03 
2405	-2.3686131570737E-03 
2406	-2.37655377868169E-03 
2407	 8.65804937637454E-03 
2408	 4.2519765096842E-03 
2409	-1.65519052221026E-02 
2410	-2.86947830586742E-02 
2411	-5.39761969511759E-02 
2412	-7.34954333772875E-02 
2413	-5.35929968886501E-02 
2414	-2.61053049037683E-02 
2415	 2.75705242024516E-03 
2416	 9.19708314844433E-03 
2417	 2.02802605635613E-02 
2418	 2.65951606287072E-02 
2419	-1.37792821727529E-02 
2420	-2.46324266386216E-02 
2421	-0.050892088700517 
2422	-0.100062411869444 
2423	-9.99212445241786E-02 
2424	-9.51102829853884E-02 
2425	-8.70176994580216E-02 
2426	-3.80235935215606E-02 
2427	-1.68219933753462E-03 
2428	-8.40893755694761E-03 
2429	-3.61804900192075E-03 
2430	-1.71999805734198E-02 
2431	-0.019146997938902 
2432	 0.04820086836822 
2433	 9.46768285505582E-02 
2434	 8.80739954808019E-02 
2435	 5.92546234584092E-02 
2436	 0.046871820017273 
2437	 3.48241053694631E-02 
2438	 3.80298965998303E-02 
2439	 5.61205643269743E-02 
2440	 2.14342217950472E-02 
2441	-7.82386303015869E-03 
2442	 2.46643176963925E-02 
2443	 2.54358127325538E-02 
2444	-3.01985858076867E-02 
2445	-7.02546381298132E-02 
2446	-7.75308070587704E-02 
2447	 6.44854260204778E-02 
2448	 0.108184344413051 
2449	 3.79380991910072E-02 
2450	 3.44672190828447E-02 
2451	-1.02548872933723E-02 
2452	 3.70258995559044E-02 
2453	 7.94703862232771E-02 
2454	-1.30252123171217E-02 
2455	-3.65413246138589E-02 
2456	-9.52379445630622E-03 
2457	-7.15305592256279E-02 
2458	-0.131994542171314 
2459	-0.101158305848302 
2460	-8.81363555595028E-02 
2461	-3.64330405223838E-02 
2462	 1.57025964459268E-02 
2463	 1.06279192876081E-02 
2464	 8.81695192523357E-04 
2465	-8.67960453120822E-03 
2466	 3.17995165489643E-02 
2467	 3.83813060319842E-02 
2468	 1.03936568019644E-02 
2469	 3.39397614810062E-02 
2470	 0.158661288781314 
2471	 0.240143049734583 
2472	 0.245562881504699 
2473	 0.308437112444221 
2474	 0.122306670402278 
2475	 3.43133146758925E-02 
2476	-9.09994021900093E-02 
2477	-0.659701979335585 
2478	-0.258795987878087 
2479	-9.71385531514643E-02 
2480	-4.75431903495728E-02 
2481	 5.69960880343003E-02 
2482	-0.364334070123586 
2483	-3.05973887429106 
2484	-11.0913048883705 
2485	-7.28801479148079 
2486	-2.76672737781924 
2487	-0.9618967672544 
2488	-0.481086520763408 
2489	 1.02430870165722 
2490	-2.54976841177336 
2491	 0.298831923518079 
2492	 0.92117339163456 
2493	-3.13434566835908 
2494	-0.928583267496624 
2495	-1.41024003663673 
2496	-9.34306292671266 
2497	-4.69220180613009 
2498	 2.17790286546857 
2499	 1.07662657278006 
2500	 0.908954536316649 
