Wavelength	rt0624far00003.asd
350	 0.011559686583597 
351	 1.22130922526555E-02 
352	 1.26631884855701E-02 
353	 1.29538641050085E-02 
354	 0.013089215358871 
355	 1.24994129516484E-02 
356	 1.25788200070337E-02 
357	 1.28266901758323E-02 
358	 1.26358684972469E-02 
359	 1.37992930795775E-02 
360	 1.38697695441626E-02 
361	 1.30433010449816E-02 
362	 1.32461184068028E-02 
363	 1.38113601731935E-02 
364	 1.40435172026794E-02 
365	 1.38432450662955E-02 
366	 1.39931189788889E-02 
367	 1.41541525028871E-02 
368	 1.44264842949842E-02 
369	 1.48209945520177E-02 
370	 1.46300975116366E-02 
371	 1.48943273267156E-02 
372	 0.015520957691505 
373	 1.57803733186061E-02 
374	 1.58744050427527E-02 
375	 1.59036317444597E-02 
376	 1.58510318365997E-02 
377	 1.55557903444999E-02 
378	 1.62834145587527E-02 
379	 1.67859972729748E-02 
380	 1.61859611433454E-02 
381	 0.016621986607658 
382	 1.70624330899241E-02 
383	 1.73678696915403E-02 
384	 1.78112749926017E-02 
385	 1.84387337508826E-02 
386	 1.86583749043458E-02 
387	 1.83706727314357E-02 
388	 1.80816467294395E-02 
389	 1.85099459518938E-02 
390	 1.91567821345348E-02 
391	 1.95029790628791E-02 
392	 1.95975104691357E-02 
393	 1.97505618362346E-02 
394	 1.99008793006825E-02 
395	 1.99506889344041E-02 
396	 2.04449801407069E-02 
397	 2.07328463543849E-02 
398	 2.08609571089117E-02 
399	 2.14570414770246E-02 
400	 2.15009326068297E-02 
401	 2.14845330672362E-02 
402	 2.17759151926683E-02 
403	 2.19575557665424E-02 
404	 2.21230984692046E-02 
405	 2.23331790729928E-02 
406	 2.26084769726141E-02 
407	 2.27762082785439E-02 
408	 2.29502849013793E-02 
409	 2.32076874392009E-02 
410	 2.35571878277568E-02 
411	 2.36568111442373E-02 
412	 2.38456717919183E-02 
413	 2.43083907357899E-02 
414	 0.024586918257008 
415	 0.024773597625346 
416	 2.48685110456624E-02 
417	 2.48982623417887E-02 
418	 2.51856743211877E-02 
419	 2.55325970615182E-02 
420	 2.58885387621742E-02 
421	 2.63902836985769E-02 
422	 2.65163079185861E-02 
423	 2.66382519351089E-02 
424	 0.027061381345148 
425	 2.73735779755269E-02 
426	 2.77476413947995E-02 
427	 2.81260071494675E-02 
428	 2.83860184960187E-02 
429	 0.028760010764361 
430	 2.90832247006949E-02 
431	 2.93548623143074E-02 
432	 2.98028539202323E-02 
433	 3.01503913898601E-02 
434	 3.05218789243578E-02 
435	 3.10130009937439E-02 
436	 3.13709953197954E-02 
437	 3.17222210964125E-02 
438	 3.20845118824944E-02 
439	 3.24319438744832E-02 
440	 0.032914810273953 
441	 3.34025074314611E-02 
442	 3.38123781436253E-02 
443	 3.41772795233778E-02 
444	 3.45004068480597E-02 
445	 3.48407637425696E-02 
446	 3.52403011060995E-02 
447	 3.56390982715833E-02 
448	 3.59676845985893E-02 
449	 3.62470101056099E-02 
450	 3.65614537410818E-02 
451	 3.68766080395938E-02 
452	 3.71314523570977E-02 
453	 3.73259819179558E-02 
454	 3.75837519360999E-02 
455	 3.79122621621829E-02 
456	 3.82193976348581E-02 
457	 0.038399526802836 
458	 3.84872882776758E-02 
459	 3.87253675886724E-02 
460	 3.90654510805003E-02 
461	 3.91763469959649E-02 
462	 0.03937863193581 
463	 3.95825314816531E-02 
464	 3.97135488031597E-02 
465	 3.99664587161685E-02 
466	 4.02179390766939E-02 
467	 4.03598777245659E-02 
468	 4.03669639401403E-02 
469	 4.07396650463433E-02 
470	 4.10651107457973E-02 
471	 4.11689954556239E-02 
472	 4.13041508861128E-02 
473	 4.15512113923173E-02 
474	 4.18360596003441E-02 
475	 4.20745162788626E-02 
476	 4.23366558577377E-02 
477	 4.25428036146823E-02 
478	 4.27510556933804E-02 
479	 0.0430980989214 
480	 4.34680079987472E-02 
481	 4.38389961440991E-02 
482	 4.41738196479948E-02 
483	 4.43567762936909E-02 
484	 4.46849601104071E-02 
485	 4.51163553129009E-02 
486	 0.045510548687539 
487	 4.59886686294015E-02 
488	 4.63589593098818E-02 
489	 4.66542514085646E-02 
490	 4.71225850091251E-02 
491	 4.75400889933858E-02 
492	 4.79538452598422E-02 
493	 4.84207457340278E-02 
494	 4.88828661082105E-02 
495	 4.93975921226651E-02 
496	 4.99126384196164E-02 
497	 5.03496516495466E-02 
498	 5.08920551485039E-02 
499	 5.14952840162253E-02 
500	 0.052110494767659 
501	 5.27225510984151E-02 
502	 5.33395014572106E-02 
503	 5.39124663945677E-02 
504	 5.44322939040301E-02 
505	 5.50959909058005E-02 
506	 5.57568358870703E-02 
507	 5.63750959392687E-02 
508	 5.70002686625806E-02 
509	 5.75791423405341E-02 
510	 5.82034286039244E-02 
511	 5.88939554338481E-02 
512	 0.059452340273038 
513	 6.00595751982447E-02 
514	 0.060786395675069 
515	 6.16052004881753E-02 
516	 6.22051369437679E-02 
517	 6.28735337679269E-02 
518	 6.36866679998246E-02 
519	 6.43997041816617E-02 
520	 0.065149981701398 
521	 6.58748876827056E-02 
522	 0.066527003273306 
523	 6.72356231920886E-02 
524	 6.79811301893371E-02 
525	 6.87472291490396E-02 
526	 6.95226711327265E-02 
527	 7.03031466543894E-02 
528	 7.09851284779186E-02 
529	 7.15819725786015E-02 
530	 7.23632108607942E-02 
531	 7.31502431730405E-02 
532	 7.39252730631664E-02 
533	 7.47143025387629E-02 
534	 7.54728148849828E-02 
535	 7.62518985115006E-02 
536	 0.077058327272121 
537	 7.78379464010522E-02 
538	 7.85990078670076E-02 
539	 7.93852810913832E-02 
540	 8.02103462113816E-02 
541	 8.09579164761665E-02 
542	 8.17227844859782E-02 
543	 0.082515974207379 
544	 8.33029121673364E-02 
545	 8.41321670654208E-02 
546	 8.49627382606382E-02 
547	 8.57643743878377E-02 
548	 8.65575047260832E-02 
549	 8.72393624531077E-02 
550	 8.79461269395049E-02 
551	 8.88308775844557E-02 
552	 8.96082619645991E-02 
553	 9.03805771389961E-02 
554	 0.091156600651583 
555	 9.18160305780883E-02 
556	 9.26473329059263E-02 
557	 9.35231715082736E-02 
558	 9.42700746182532E-02 
559	 9.49425149461766E-02 
560	 9.56539377012315E-02 
561	 9.63593487413669E-02 
562	 9.69374092022217E-02 
563	 9.75561574318785E-02 
564	 9.81911278469662E-02 
565	 9.88003987307329E-02 
566	 9.93617445570155E-02 
567	 9.98892422382996E-02 
568	 0.100360618179568 
569	 0.10076798234598 
570	 0.101257389636532 
571	 0.101714172039029 
572	 0.102081961943672 
573	 0.102387921362659 
574	 0.102754649984549 
575	 0.103136124007676 
576	 0.103456111713611 
577	 0.103704059776955 
578	 0.103821355466931 
579	 0.103926714192413 
580	 0.104206032849415 
581	 0.104360133471247 
582	 0.104382993264843 
583	 0.104347891000661 
584	 0.104400927125936 
585	 0.1044677796331 
586	 0.104425099892772 
587	 0.104199176542135 
588	 0.104120525923734 
589	 0.103988514506757 
590	 0.103765959964015 
591	 0.103602737631367 
592	 0.103320663829373 
593	 0.102934213002198 
594	 0.102489195670874 
595	 0.101987794374811 
596	 0.101340488482717 
597	 0.100587319935452 
598	 9.98508374965824E-02 
599	 9.91762742293853E-02 
600	 9.85616044375419E-02 
601	 9.80251625453814E-02 
602	 9.76302843418216E-02 
603	 9.73808497598838E-02 
604	 9.72343518840374E-02 
605	 9.71447359893658E-02 
606	 9.71416999229277E-02 
607	 9.71474450224582E-02 
608	 9.71538698467248E-02 
609	 9.72238149958597E-02 
610	 9.72069853615577E-02 
611	 9.71980918048913E-02 
612	 9.72614897281991E-02 
613	 9.72092573815805E-02 
614	 9.71924831631205E-02 
615	 9.71892612765489E-02 
616	 9.71091677106034E-02 
617	 9.71804705878949E-02 
618	 9.71962959856321E-02 
619	 9.70898318764383E-02 
620	 9.70924541958957E-02 
621	 0.097052200768356 
622	 9.70350058468465E-02 
623	 0.097108652435151 
624	 9.70114193003831E-02 
625	 9.69767564257142E-02 
626	 9.69937353337192E-02 
627	 9.68238884636562E-02 
628	 9.67705894937248E-02 
629	 0.096803259558903 
630	 9.68221725651001E-02 
631	 9.67239554565721E-02 
632	 9.66573566570965E-02 
633	 9.66056220041916E-02 
634	 9.64856282242682E-02 
635	 9.63749909356078E-02 
636	 9.62599077336983E-02 
637	 9.61245077904032E-02 
638	 9.59608588052387E-02 
639	 9.57732081487152E-02 
640	 9.55724133305612E-02 
641	 9.53780084846608E-02 
642	 9.52335231355065E-02 
643	 9.50393626104051E-02 
644	 9.47701866293535E-02 
645	 9.44705683438399E-02 
646	 0.094208035396333 
647	 9.39601279959385E-02 
648	 9.36990025208873E-02 
649	 9.34339004231001E-02 
650	 9.31406702694789E-02 
651	 9.28159026127983E-02 
652	 9.24635624003787E-02 
653	 9.20493899795212E-02 
654	 9.15712190502962E-02 
655	 9.10735229791122E-02 
656	 9.07168093179756E-02 
657	 9.02045501198849E-02 
658	 8.97034871105877E-02 
659	 8.93533056398075E-02 
660	 8.89642277178726E-02 
661	 0.088588730439194 
662	 8.82166623380829E-02 
663	 8.78263632615914E-02 
664	 8.76364951043479E-02 
665	 8.73771771221875E-02 
666	 8.69822091087374E-02 
667	 8.68699112181161E-02 
668	 8.67308509795032E-02 
669	 8.65841019477863E-02 
670	 8.64919014089816E-02 
671	 8.61590542697535E-02 
672	 8.60217863044431E-02 
673	 8.60898959042795E-02 
674	 8.59649613867556E-02 
675	 8.58647301027072E-02 
676	 8.58594555059235E-02 
677	 8.59428618836717E-02 
678	 8.59741842114248E-02 
679	 8.61243546489261E-02 
680	 8.63723022838371E-02 
681	 0.086644427161211 
682	 8.71782335300888E-02 
683	 8.77115728178816E-02 
684	 8.81111303843608E-02 
685	 8.85002182783624E-02 
686	 8.89863213136465E-02 
687	 8.95464094422488E-02 
688	 9.00152453775623E-02 
689	 9.00746664174539E-02 
690	 0.090223462747212 
691	 9.03860527668938E-02 
692	 0.090198199004857 
693	 0.090023736012403 
694	 8.98131087499052E-02 
695	 8.94656577967923E-02 
696	 8.88481896422101E-02 
697	 8.83856773794205E-02 
698	 8.78690777920409E-02 
699	 8.70347558130449E-02 
700	 8.62997669070118E-02 
701	 0.085584684312053 
702	 8.48026259300799E-02 
703	 8.38699251370949E-02 
704	 8.27980226292625E-02 
705	 8.16831992899087E-02 
706	 8.05781731381286E-02 
707	 7.93793367849399E-02 
708	 0.078038114419042 
709	 7.66013681411046E-02 
710	 7.51251611995298E-02 
711	 7.35368744795895E-02 
712	 7.17184336473603E-02 
713	 6.97615222636054E-02 
714	 6.79237630392297E-02 
715	 6.59937720074559E-02 
716	 6.39768237585368E-02 
717	 0.061948903458734 
718	 5.97675085323212E-02 
719	 5.76009073567847E-02 
720	 5.56443136105175E-02 
721	 5.37646523182121E-02 
722	 5.18853531683296E-02 
723	 0.049770181701347 
724	 4.75490530501046E-02 
725	 4.54352006383155E-02 
726	 4.31893901216802E-02 
727	 4.07904677001934E-02 
728	 0.03831492702626 
729	 3.58177386285683E-02 
730	 3.33403895634404E-02 
731	 0.030996676698314 
732	 2.88857344463963E-02 
733	 0.027130754572593 
734	 0.025642159222094 
735	 2.43712138872908E-02 
736	 2.33224111624201E-02 
737	 2.26402497874708E-02 
738	 2.21534104417444E-02 
739	 2.16992565616946E-02 
740	 2.13823345837986E-02 
741	 2.10894867069206E-02 
742	 2.08540336129639E-02 
743	 2.07698901994641E-02 
744	 2.07879780923073E-02 
745	 0.02067525428424 
746	 2.04513375362184E-02 
747	 2.04911378697876E-02 
748	 2.04292317783144E-02 
749	 2.03329086962826E-02 
750	 2.03190529791856E-02 
751	 2.02905078938794E-02 
752	 2.02699717909131E-02 
753	 2.02655891769664E-02 
754	 2.02750778086154E-02 
755	 0.020285229119049 
756	 2.02446627055958E-02 
757	 2.01478332563863E-02 
758	 0.020036735099948 
759	 1.98251469504993E-02 
760	 1.96667729325661E-02 
761	 1.98373760779381E-02 
762	 2.01771580179019E-02 
763	 2.00915255748471E-02 
764	 2.00188288359146E-02 
765	 2.04296073561261E-02 
766	 2.05393418518432E-02 
767	 2.05614661967197E-02 
768	 2.06594261554995E-02 
769	 2.09228882073498E-02 
770	 2.10907815199896E-02 
771	 2.12223550739884E-02 
772	 2.13840008206885E-02 
773	 2.14582686033551E-02 
774	 2.16033310865782E-02 
775	 2.18639536235174E-02 
776	 2.21960250108452E-02 
777	 2.23752617459403E-02 
778	 2.25609622077541E-02 
779	 2.28564358838434E-02 
780	 2.32626536551278E-02 
781	 2.35093730227885E-02 
782	 2.37473737197667E-02 
783	 2.40914843180666E-02 
784	 2.43956312451935E-02 
785	 2.46893552413751E-02 
786	 2.50272115531086E-02 
787	 2.54513723769757E-02 
788	 2.58831189907122E-02 
789	 2.63547508140319E-02 
790	 2.68628343984007E-02 
791	 0.027355464611192 
792	 2.75708287400347E-02 
793	 2.78881944474643E-02 
794	 2.84383437221189E-02 
795	 0.028801367790073 
796	 2.92052895313565E-02 
797	 2.96311516061131E-02 
798	 3.00313249924335E-02 
799	 3.04768796302914E-02 
800	 0.030787184489999 
801	 3.09943912059969E-02 
802	 3.12480432774653E-02 
803	 3.15388515738615E-02 
804	 3.17615164351544E-02 
805	 3.19237357833051E-02 
806	 3.21560291150158E-02 
807	 3.21174025921589E-02 
808	 3.19744462453615E-02 
809	 3.19100990443779E-02 
810	 3.18949233178262E-02 
811	 3.17466848032433E-02 
812	 3.15031682471785E-02 
813	 3.12576080221722E-02 
814	 3.08399698462092E-02 
815	 3.05129535544865E-02 
816	 3.02184546206116E-02 
817	 2.96629076704544E-02 
818	 2.90442668494963E-02 
819	 0.028373395749864 
820	 2.76101450072403E-02 
821	 2.67040026945416E-02 
822	 2.57127137798189E-02 
823	 2.44919092067614E-02 
824	 2.30629148599743E-02 
825	 2.18474919253676E-02 
826	 2.05688335449396E-02 
827	 1.90235700822189E-02 
828	 1.72658136239636E-02 
829	 1.61477893990593E-02 
830	 1.51855181309073E-02 
831	 0.014168559650609 
832	 1.32033226993313E-02 
833	 1.25320365164049E-02 
834	 1.19433440029091E-02 
835	 1.14194277569096E-02 
836	 1.12729325773301E-02 
837	 1.09498259540782E-02 
838	 1.06888240997876E-02 
839	 1.06114685344059E-02 
840	 9.99881127390021E-03 
841	 9.80229654772081E-03 
842	 9.87151801385215E-03 
843	 9.68307801302972E-03 
844	 9.10705114647434E-03 
845	 8.99696095478725E-03 
846	 9.20540309684169E-03 
847	 8.93093564387856E-03 
848	 8.50680441230648E-03 
849	 8.32767195912485E-03 
850	 8.35543523734184E-03 
851	 8.0311657250633E-03 
852	 8.04347222609548E-03 
853	 8.04662366495455E-03 
854	 7.77011029754184E-03 
855	 7.57922398188127E-03 
856	 7.24501719252992E-03 
857	 6.96194479246021E-03 
858	 6.90985749563145E-03 
859	 6.80780559882291E-03 
860	 6.7748160643137E-03 
861	 6.84923777799535E-03 
862	 6.95146127145185E-03 
863	 6.59949373994605E-03 
864	 6.24236266488867E-03 
865	 6.01511462415355E-03 
866	 5.72430466859434E-03 
867	 5.60197672468174E-03 
868	 5.58708441820537E-03 
869	 5.53651416994837E-03 
870	 5.28302407711194E-03 
871	 5.47939096180478E-03 
872	 5.47492903302071E-03 
873	 4.91166365655813E-03 
874	 4.69803577057789E-03 
875	 4.69102033627169E-03 
876	 4.75742156501323E-03 
877	 4.74762335520082E-03 
878	 4.53459331703361E-03 
879	 4.37192057921451E-03 
880	 4.26714822119313E-03 
881	 4.07642383466364E-03 
882	 3.54773787700801E-03 
883	 3.40444619415825E-03 
884	 3.66210454424847E-03 
885	 3.75436396830208E-03 
886	 3.41773395589685E-03 
887	 3.23578158830499E-03 
888	 3.24656200681753E-03 
889	 2.83622603209403E-03 
890	 2.89674076574283E-03 
891	 3.10846219077784E-03 
892	 3.01985044314269E-03 
893	 2.35192586134215E-03 
894	 2.01777722624214E-03 
895	 2.19200079379464E-03 
896	 2.63797170458117E-03 
897	 2.71411511353907E-03 
898	 2.06816363884037E-03 
899	 1.65205582508268E-03 
900	 2.2013371154187E-03 
901	 2.20868550964254E-03 
902	 1.73587593123923E-03 
903	 1.32652501959429E-03 
904	 1.47107996948199E-03 
905	 1.35833822702167E-03 
906	 1.6049114374963E-03 
907	 1.8630223026836E-03 
908	 1.31047688028215E-03 
909	 1.03698844652684E-03 
910	 7.77712038451643E-04 
911	 4.11011535833574E-04 
912	 9.90989474567623E-05 
913	 4.01929058016736E-04 
914	 1.03052093048442E-03 
915	 1.22276591917653E-03 
916	 1.28572625878713E-04 
917	 2.45477012704263E-04 
918	 4.39620224943367E-04 
919	 2.14028420076214E-04 
920	 7.03538639156006E-04 
921	 7.19445805923578E-04 
922	 2.27359097435604E-04 
923	-3.02023699244182E-04 
924	 9.43565721225043E-05 
925	 9.04820460807877E-05 
926	-7.00498957034892E-04 
927	-1.85282075244602E-03 
928	-1.19158812539877E-03 
929	-2.0938160904068E-03 
930	-3.23815170804756E-03 
931	-2.05613896609131E-03 
932	-2.73819972080389E-03 
933	-2.64979525724802E-03 
934	-3.05623789942745E-03 
935	-5.21528086528641E-03 
936	-3.69841682320244E-03 
937	-2.98405398801462E-03 
938	-2.69399982065845E-03 
939	-1.51439815469746E-03 
940	-1.83420662539879E-03 
941	-3.09926789748405E-03 
942	-3.94561723531957E-03 
943	-3.10665253870772E-03 
944	-2.39062575884464E-03 
945	-2.70924075025383E-03 
946	-3.67063428431479E-03 
947	-4.28239066893024E-03 
948	-5.31866078282448E-03 
949	-5.54181383619911E-03 
950	-5.29551785394479E-03 
951	-5.42584554661883E-03 
952	-2.29019739608615E-03 
953	-2.79167477974103E-03 
954	-5.75321704398072E-03 
955	-4.66144717822852E-03 
956	-3.10717982773881E-03 
957	-3.82221508616236E-03 
958	-4.82939698730279E-03 
959	-2.03938402038277E-03 
960	-1.74138957283787E-03 
961	-1.87149200074391E-03 
962	-1.66362695870503E-03 
963	-1.9117176569726E-03 
964	-2.35289545963314E-03 
965	-2.46051970327656E-03 
966	-1.94178823416596E-03 
967	-9.87246183604585E-04 
968	-1.88052770641886E-03 
969	-1.41409116048579E-03 
970	-4.06319943082527E-04 
971	-2.84047459225322E-03 
972	-4.03713009912447E-03 
973	-3.83477083966068E-03 
974	-3.04120695131886E-03 
975	-2.72874036196058E-03 
976	-2.22647711998775E-03 
977	-1.57338304755239E-03 
978	-1.65391909580078E-03 
979	-3.43304293900861E-03 
980	-3.72299256667948E-03 
981	-2.45884358032041E-03 
982	-1.5818786935202E-03 
983	-3.44819679670983E-03 
984	-3.46581498538904E-03 
985	-2.97644213478296E-03 
986	-2.7109804904507E-03 
987	-2.50020035788165E-03 
988	-3.50371714077308E-03 
989	-2.88554493621393E-03 
990	-1.7618419518297E-03 
991	-3.39709363002699E-03 
992	-2.08834885215102E-03 
993	-1.24271357661546E-03 
994	-1.92421345711228E-03 
995	-2.67683580423333E-03 
996	-1.36537891738796E-03 
997	-1.98978932526115E-03 
998	-3.85268120165559E-03 
999	-3.6892943378048E-03 
1000	-3.41995154709119E-03 
1001	 6.02337683216584E-04 
1002	 2.57669051953287E-04 
1003	 3.17920379872149E-04 
1004	 7.56453195318616E-04 
1005	 8.02166577815688E-04 
1006	 6.93539025069586E-04 
1007	 9.88479089841987E-04 
1008	 1.06401832080114E-03 
1009	 9.69016580192681E-04 
1010	 1.25543591296549E-03 
1011	 1.39779108975789E-03 
1012	 1.10028466032632E-03 
1013	 1.08135535072928E-03 
1014	 1.06595333310324E-03 
1015	 1.0132256164795E-03 
1016	 1.08379153704519E-03 
1017	 1.30784830230569E-03 
1018	 1.4236442869146E-03 
1019	 1.72276424887452E-03 
1020	 1.72282809689835E-03 
1021	 1.5088698496243E-03 
1022	 1.34995273922581E-03 
1023	 9.99402705418259E-04 
1024	 9.04640772936271E-04 
1025	 1.0956648512365E-03 
1026	 1.29284441966448E-03 
1027	 1.39833862646805E-03 
1028	 1.58619813202606E-03 
1029	 1.53714523286426E-03 
1030	 1.23742920080786E-03 
1031	 1.22682899868073E-03 
1032	 1.23185150982669E-03 
1033	 1.31596528431412E-03 
1034	 1.64897829868301E-03 
1035	 1.72631479235117E-03 
1036	 1.67279462575403E-03 
1037	 1.67413607110142E-03 
1038	 1.38350664408092E-03 
1039	 1.60591472737938E-03 
1040	 1.82878003999341E-03 
1041	 1.8787784296086E-03 
1042	 1.84636516928645E-03 
1043	 1.7382061450956E-03 
1044	 1.66354812875908E-03 
1045	 1.45777923580046E-03 
1046	 1.35872680316986E-03 
1047	 1.39228039188646E-03 
1048	 1.32852867507511E-03 
1049	 1.07002532292758E-03 
1050	 1.09420433747382E-03 
1051	 1.29430759771598E-03 
1052	 1.40193079323406E-03 
1053	 1.67615149052006E-03 
1054	 1.87254016071408E-03 
1055	 2.06807291094748E-03 
1056	 2.09926748893844E-03 
1057	 2.04484649862798E-03 
1058	 1.9788127198347E-03 
1059	 1.76360301142493E-03 
1060	 1.09937477882715E-03 
1061	 1.11234313211175E-03 
1062	 1.40888427166649E-03 
1063	 1.60054364802573E-03 
1064	 2.33950965281358E-03 
1065	 2.46650002405746E-03 
1066	 2.14665988382226E-03 
1067	 1.98695642990724E-03 
1068	 1.56984013583566E-03 
1069	 1.37283275308628E-03 
1070	 1.16049001681941E-03 
1071	 1.19456479808439E-03 
1072	 1.68044658695289E-03 
1073	 1.84144729505694E-03 
1074	 1.89093697935859E-03 
1075	 2.05443501060037E-03 
1076	 1.99163684761275E-03 
1077	 1.5538620411523E-03 
1078	 1.29086567157481E-03 
1079	 7.81082612620342E-04 
1080	 8.76939832876997E-04 
1081	 1.41794294160218E-03 
1082	 1.62554111250919E-03 
1083	 2.38000465892299E-03 
1084	 2.49589309302918E-03 
1085	 1.72723476469111E-03 
1086	 1.46195685450599E-03 
1087	 1.1195983443832E-03 
1088	 1.05401587931953E-03 
1089	 1.40186923413449E-03 
1090	 1.71722917351141E-03 
1091	 1.84978948602644E-03 
1092	 1.9848468163063E-03 
1093	 2.06923100590565E-03 
1094	 1.99406273292075E-03 
1095	 1.98389053925748E-03 
1096	 2.10442120299952E-03 
1097	 2.00601906503012E-03 
1098	 1.62050895199385E-03 
1099	 1.53453233692247E-03 
1100	 1.50060788793459E-03 
1101	 1.44227840705223E-03 
1102	 1.59646134205776E-03 
1103	 1.65138880417242E-03 
1104	 1.52798996878824E-03 
1105	 1.52969340189365E-03 
1106	 1.83649188692131E-03 
1107	 1.82144345340495E-03 
1108	 1.62754295770745E-03 
1109	 1.83033882585941E-03 
1110	 1.87176932728768E-03 
1111	 1.73531593257668E-03 
1112	 1.75078745286086E-03 
1113	 1.95261196829013E-03 
1114	 1.87280182760098E-03 
1115	 1.78945973827313E-03 
1116	 1.7405934796993E-03 
1117	 1.34284843357561E-03 
1118	 1.06969227121579E-03 
1119	 6.28217539201398E-04 
1120	 6.69035216420414E-04 
1121	 8.79551920060476E-04 
1122	 1.94013185997852E-03 
1123	 3.31433364218729E-03 
1124	 2.80444791240846E-03 
1125	 1.44768614926537E-03 
1126	 1.26779312306748E-03 
1127	 1.69073169877704E-03 
1128	 1.90788862811115E-03 
1129	 1.95911685914784E-03 
1130	 2.14223329994934E-03 
1131	 2.06348685398157E-03 
1132	 1.63060154468709E-03 
1133	 1.66333282587386E-03 
1134	 2.14675359160985E-03 
1135	 2.05874193598544E-03 
1136	 1.6079755078707E-03 
1137	 1.40030414568887E-03 
1138	 1.03220934427621E-03 
1139	 8.5381158309857E-04 
1140	 1.02871274124085E-03 
1141	 1.08341022963077E-03 
1142	 1.17821592722895E-03 
1143	 1.05167480984973E-03 
1144	 4.42667709938238E-04 
1145	 7.40376007386607E-04 
1146	 8.86607108164819E-04 
1147	 2.52983425948809E-04 
1148	 4.37617309239851E-04 
1149	 6.17343203013564E-04 
1150	 6.47987378058783E-04 
1151	 7.07471881761739E-04 
1152	 9.63912129066085E-04 
1153	 1.18288011862494E-03 
1154	 1.19680650644356E-03 
1155	 1.17722686022581E-03 
1156	 1.41013293526176E-03 
1157	 1.22731528863723E-03 
1158	 1.27460207958386E-03 
1159	 1.45471617147127E-03 
1160	 1.16021888250589E-03 
1161	 1.01855920883685E-03 
1162	 1.08378604800969E-03 
1163	 8.25198594668609E-04 
1164	 7.94653340807298E-04 
1165	 0.001088347988226 
1166	 1.17269795074898E-03 
1167	 1.17834092693774E-03 
1168	 1.15854633499685E-03 
1169	 1.03419413657446E-03 
1170	 9.13084222219138E-04 
1171	 9.36716058108141E-04 
1172	 1.29504787348975E-03 
1173	 1.2685686774077E-03 
1174	 1.01281477471471E-03 
1175	 1.15862743485923E-03 
1176	 1.26426360781335E-03 
1177	 1.11277391290037E-03 
1178	 1.45520686372671E-03 
1179	 1.62265348859833E-03 
1180	 1.21340492238604E-03 
1181	 1.11689235387455E-03 
1182	 1.2887962260659E-03 
1183	 1.06055930282281E-03 
1184	 9.59733647168107E-04 
1185	 1.35154945182663E-03 
1186	 1.42832930692755E-03 
1187	 1.21036644157172E-03 
1188	 1.24174782365355E-03 
1189	 1.27188209572103E-03 
1190	 1.24078433399816E-03 
1191	 1.27080160131116E-03 
1192	 1.24795075993529E-03 
1193	 1.1594719563382E-03 
1194	 1.00718372618776E-03 
1195	 9.15622975537677E-04 
1196	 1.06629365624098E-03 
1197	 1.3644486982914E-03 
1198	 1.26417656914577E-03 
1199	 1.12101301501881E-03 
1200	 1.10812172546765E-03 
1201	 9.51133898063228E-04 
1202	 1.03212615774753E-03 
1203	 1.23916209281478E-03 
1204	 1.2086021053982E-03 
1205	 0.001250821997217 
1206	 1.30272948076657E-03 
1207	 1.08498817922548E-03 
1208	 1.04738669664334E-03 
1209	 1.09395886538447E-03 
1210	 9.73981329417303E-04 
1211	 1.14041150211999E-03 
1212	 1.3491430286703E-03 
1213	 1.37882794176353E-03 
1214	 1.38007043956226E-03 
1215	 0.001387307184385 
1216	 1.26724450813555E-03 
1217	 1.0068848867324E-03 
1218	 6.45075640460794E-04 
1219	 6.03403737081438E-04 
1220	 8.32687030593476E-04 
1221	 1.00101870287927E-03 
1222	 1.32581364815117E-03 
1223	 1.26688447998904E-03 
1224	 9.16086608259794E-04 
1225	 8.92395188416019E-04 
1226	 8.82842379502073E-04 
1227	 9.83378548927535E-04 
1228	 1.23258192588666E-03 
1229	 1.29577497050588E-03 
1230	 1.31613678519153E-03 
1231	 1.24894892670105E-03 
1232	 9.84117583580668E-04 
1233	 8.86255663242697E-04 
1234	 1.07782874409048E-03 
1235	 1.13499452233661E-03 
1236	 1.41877621451024E-03 
1237	 1.41069891252292E-03 
1238	 1.22791999823982E-03 
1239	 8.40407396794201E-04 
1240	 7.6893179235954E-04 
1241	 9.70979661596712E-04 
1242	 1.16128075389057E-03 
1243	 1.26263797403599E-03 
1244	 1.16703633594933E-03 
1245	 9.18410660799636E-04 
1246	 1.01583132645531E-03 
1247	 1.36055573515752E-03 
1248	 1.25997198381075E-03 
1249	 1.1335429726543E-03 
1250	 1.16923425646137E-03 
1251	 9.49761648765471E-04 
1252	 8.28479549719685E-04 
1253	 0.000980870108436 
1254	 1.06319179248832E-03 
1255	 9.0268611941833E-04 
1256	 8.71596369929656E-04 
1257	 1.10071462447889E-03 
1258	 1.20997545091539E-03 
1259	 1.16597572262201E-03 
1260	 1.19409089484173E-03 
1261	 1.34893372291859E-03 
1262	 1.36063624711488E-03 
1263	 1.30795855879001E-03 
1264	 1.12947965375299E-03 
1265	 8.70627644852696E-04 
1266	 6.69929208107377E-04 
1267	 6.05053531826777E-04 
1268	 7.63401297200323E-04 
1269	 1.00702078933746E-03 
1270	 1.32988687767031E-03 
1271	 1.56062773302277E-03 
1272	 1.43811244278684E-03 
1273	 1.29967296676815E-03 
1274	 1.35463422042267E-03 
1275	 1.0515095702476E-03 
1276	 5.2186705737193E-04 
1277	 5.2370822936904E-04 
1278	 5.23145768767008E-04 
1279	 5.76501465218364E-04 
1280	 0.001164483610814 
1281	 1.2855400474205E-03 
1282	 1.14619141000039E-03 
1283	 1.11263538339094E-03 
1284	 8.92096225253613E-04 
1285	 7.75374303214765E-04 
1286	 7.88523944312627E-04 
1287	 8.2573031851115E-04 
1288	 9.04987274808587E-04 
1289	 8.89843071142937E-04 
1290	 9.1768826144792E-04 
1291	 8.68022442031158E-04 
1292	 8.09452546384427E-04 
1293	 7.54850603915637E-04 
1294	 7.36942682159139E-04 
1295	 8.68255203454378E-04 
1296	 9.36561530874851E-04 
1297	 7.86965400148717E-04 
1298	 7.26127520033983E-04 
1299	 9.01413730950379E-04 
1300	 1.1694751017694E-03 
1301	 1.24111967422876E-03 
1302	 1.1369834001064E-03 
1303	 1.08857802806203E-03 
1304	 8.89219372572106E-04 
1305	 8.31544718439417E-04 
1306	 9.32539697245196E-04 
1307	 1.47622687123113E-03 
1308	 1.47850593788798E-03 
1309	 1.10621870156782E-03 
1310	 1.17176315058372E-03 
1311	 1.41672453409548E-03 
1312	 1.33158761581589E-03 
1313	 1.1770956195024E-03 
1314	 1.28456934107071E-03 
1315	 1.38561310509249E-03 
1316	 1.26176449917112E-03 
1317	 1.2519431190477E-03 
1318	 1.35996410891606E-03 
1319	 1.15819816284932E-03 
1320	 9.72512097087617E-04 
1321	 8.46250495860848E-04 
1322	 1.28833709458682E-03 
1323	 1.57277080591533E-03 
1324	 1.33625508679989E-03 
1325	 1.20276011972271E-03 
1326	 1.36189357589377E-03 
1327	 1.47357466601621E-03 
1328	 1.35204134392477E-03 
1329	 1.37943539784216E-03 
1330	 1.73166672784612E-03 
1331	 1.62639008964697E-03 
1332	 1.32108762216746E-03 
1333	 1.23476082823789E-03 
1334	 1.19259786262136E-03 
1335	 1.14195468083808E-03 
1336	 9.7278370881543E-04 
1337	 9.50471606245348E-04 
1338	 1.32155007450016E-03 
1339	 1.14158169019245E-03 
1340	 4.36487606066429E-04 
1341	 3.41359794062904E-04 
1342	 1.15268961834637E-04 
1343	-8.99839473392119E-06 
1344	 7.9879112029241E-04 
1345	 1.13294710013313E-03 
1346	 8.92117630346525E-04 
1347	 1.23709793373531E-03 
1348	 2.16999879344265E-03 
1349	 2.24986816157805E-03 
1350	 1.8400018831147E-03 
1351	 1.69958015540676E-03 
1352	-3.45234573976355E-04 
1353	-1.57909421673102E-03 
1354	 5.84553570417656E-05 
1355	 2.44083919156715E-03 
1356	-3.43369940361205E-03 
1357	-8.16818067213548E-03 
1358	 1.02847624207826E-02 
1359	 2.58825405901513E-02 
1360	 1.35651948511515E-02 
1361	 2.50937865342003E-02 
1362	 8.21941222436837E-02 
1363	 3.95950991863958E-02 
1364	-7.53430168035463E-02 
1365	-0.091323359902943 
1366	-0.135650573596443 
1367	-0.23544878056369 
1368	-0.244988468552054 
1369	-2.47508968151893E-02 
1370	 5.03822899904413E-02 
1371	 5.45051830947953E-02 
1372	 9.59243249105844E-02 
1373	 0.159704520370811 
1374	 0.147352345356699 
1375	 7.90944356055283E-02 
1376	 4.74141648613478E-02 
1377	-3.31387538723672E-02 
1378	-1.78059998999928E-02 
1379	 0.114118978998371 
1380	 0.107037448712104 
1381	-4.77780299940659E-03 
1382	 4.15596597380623E-02 
1383	 0.14530153951027 
1384	 0.152688666046836 
1385	 0.242524487115319 
1386	 0.258029101335759 
1387	 9.51021120004948E-02 
1388	 2.11563605339295E-02 
1389	 4.78943157706892E-02 
1390	 2.17815911984652E-02 
1391	-5.63152342979631E-02 
1392	-4.61412634408053E-02 
1393	 4.32875789610566E-02 
1394	 4.27001761511438E-02 
1395	-1.73575553726257E-02 
1396	 7.66930164183113E-05 
1397	 1.57453017574829E-02 
1398	-1.53111371292951E-02 
1399	-0.01881270510443 
1400	 3.66574883895308E-03 
1401	 3.88168922870128E-02 
1402	 0.043497042613344 
1403	 1.20318734486988E-02 
1404	 1.60525861557337E-03 
1405	 9.7363846078212E-03 
1406	-4.12206521682139E-03 
1407	-1.16456062716723E-02 
1408	 9.06032062996143E-03 
1409	 1.05204636256039E-02 
1410	-9.74111951357803E-03 
1411	-1.34972620404755E-02 
1412	-7.30466986230064E-03 
1413	-2.17248700353307E-03 
1414	 6.42364683332717E-04 
1415	 2.36605478843325E-03 
1416	 8.81262450194457E-03 
1417	 1.02791233218517E-02 
1418	 0.007843314978284 
1419	 5.82195361114976E-03 
1420	 3.49077517951401E-03 
1421	 3.57089602512855E-03 
1422	 3.01246488054709E-03 
1423	 2.08234174581122E-03 
1424	 3.1412199012169E-03 
1425	 3.30640828100361E-03 
1426	 1.70355968814527E-03 
1427	 1.81803744344853E-03 
1428	 3.6801102858258E-03 
1429	 3.4696291646468E-03 
1430	 2.57692403476976E-03 
1431	 1.96709269113257E-03 
1432	-4.71403068568789E-04 
1433	-7.77459938817223E-04 
1434	 1.49420537498935E-03 
1435	 1.84058906796572E-03 
1436	 2.24511068284275E-03 
1437	 1.41399194472241E-03 
1438	 2.59512905189278E-03 
1439	 3.42333369429351E-03 
1440	 3.12714331886011E-03 
1441	 2.7970602782966E-03 
1442	 8.86520501706192E-04 
1443	-3.98842525773746E-04 
1444	 1.23242027470228E-03 
1445	 3.05740574969624E-03 
1446	 2.75550067663621E-03 
1447	 1.25727429736256E-03 
1448	 4.6984088232178E-04 
1449	 7.04045737662564E-04 
1450	 8.49830882046948E-04 
1451	 1.23264135711912E-03 
1452	 1.4850224225278E-03 
1453	 6.41801885182669E-04 
1454	 4.85839042184262E-04 
1455	 9.41106756499565E-04 
1456	 8.91290905952123E-04 
1457	 3.00812778480876E-04 
1458	 5.41579535631417E-04 
1459	 1.35675379572329E-03 
1460	 1.19570485783492E-03 
1461	 7.88496330157785E-04 
1462	 8.52174195133384E-04 
1463	 6.69036638405341E-04 
1464	 3.99668266392578E-04 
1465	 8.82800088080735E-05 
1466	 7.44414625002157E-04 
1467	 2.43051156501614E-03 
1468	 2.07601752335687E-03 
1469	 1.0134613187903E-03 
1470	 1.19725354359392E-03 
1471	 5.07319868253845E-04 
1472	-1.49154828002668E-04 
1473	 6.1818643682164E-04 
1474	 9.66427429930911E-04 
1475	-2.17283555273676E-04 
1476	-2.96575323630622E-04 
1477	 1.53252793386203E-03 
1478	 1.73984361403106E-03 
1479	 5.90777784218798E-04 
1480	 4.67736559977733E-04 
1481	 5.91972556777862E-04 
1482	 3.98427635562078E-04 
1483	 3.23697016478222E-04 
1484	 6.17588566394084E-04 
1485	 8.91694313134459E-04 
1486	 8.44573972628786E-04 
1487	 1.14301796496858E-03 
1488	 1.20452131766902E-03 
1489	 5.85876257502245E-04 
1490	 5.79753023217218E-04 
1491	 1.19806131234317E-03 
1492	 1.11755624056276E-03 
1493	 0.000512099349775 
1494	 5.71802473873486E-04 
1495	 9.83441442609912E-04 
1496	 9.6117843029573E-04 
1497	 1.04033101932866E-03 
1498	 1.0411954774187E-03 
1499	 5.70080885605306E-04 
1500	 3.53568441999674E-04 
1501	 3.85559843698109E-04 
1502	 4.17733805324356E-04 
1503	 4.52352649599698E-04 
1504	 4.45629963790247E-04 
1505	 4.98570550958711E-04 
1506	 5.8363559483609E-04 
1507	 5.88480657408804E-04 
1508	 3.24137296428938E-04 
1509	 3.82027267286638E-04 
1510	 6.78826904492744E-04 
1511	 5.06448398771188E-04 
1512	 4.74852789805252E-04 
1513	 7.71024074029103E-04 
1514	 6.93899703553556E-04 
1515	 3.96366562405212E-04 
1516	 4.58157802478782E-04 
1517	 7.22354299158579E-04 
1518	 6.86843894120492E-04 
1519	 5.20926250833131E-04 
1520	 5.82364171402501E-04 
1521	 5.8140293251261E-04 
1522	 3.90048845257766E-04 
1523	 4.71726907265613E-04 
1524	 7.42112310352189E-04 
1525	 7.49261370038051E-04 
1526	 6.6075500895035E-04 
1527	 7.69230721897578E-04 
1528	 8.54193224180264E-04 
1529	 8.59893580455543E-04 
1530	 8.59791819433183E-04 
1531	 8.1309639949903E-04 
1532	 8.85994559533581E-04 
1533	 8.25309578243001E-04 
1534	 6.96757130582125E-04 
1535	 9.60838216151807E-04 
1536	 1.14932614928148E-03 
1537	 9.64040783570424E-04 
1538	 8.59034527197985E-04 
1539	 6.79788997545745E-04 
1540	 4.23801308349618E-04 
1541	 6.02538045879442E-04 
1542	 7.65670036865436E-04 
1543	 6.11244238753171E-04 
1544	 6.83015376772191E-04 
1545	 9.18056553435445E-04 
1546	 8.34077649569518E-04 
1547	 6.38961143245341E-04 
1548	 8.20993289019526E-04 
1549	 1.02823284473073E-03 
1550	 8.07174747611698E-04 
1551	 7.2317291382946E-04 
1552	 9.96919325231271E-04 
1553	 1.01467739926774E-03 
1554	 9.22887422812654E-04 
1555	 1.10888511726067E-03 
1556	 1.1009121101928E-03 
1557	 7.363252782533E-04 
1558	 6.72482032111431E-04 
1559	 8.39147843091836E-04 
1560	 7.36856439118999E-04 
1561	 6.75797791188165E-04 
1562	 7.67931882141999E-04 
1563	 6.87426852239375E-04 
1564	 4.55417694193776E-04 
1565	 5.63304412157532E-04 
1566	 7.64690543553615E-04 
1567	 5.72025349552776E-04 
1568	 5.75913991490817E-04 
1569	 6.29006077121877E-04 
1570	 4.5086857713311E-04 
1571	 5.57356878625185E-04 
1572	 6.78340057551871E-04 
1573	 5.55692568979442E-04 
1574	 5.36018791419706E-04 
1575	 6.49842452275394E-04 
1576	 7.17711797091954E-04 
1577	 7.38367761291485E-04 
1578	 8.13544555911794E-04 
1579	 7.8431768120928E-04 
1580	 6.30597223454329E-04 
1581	 6.96376452620368E-04 
1582	 8.24584026992321E-04 
1583	 7.47983281010586E-04 
1584	 7.25873776322886E-04 
1585	 8.05466549251905E-04 
1586	 7.92374112904354E-04 
1587	 7.10833599955657E-04 
1588	 5.9920583002318E-04 
1589	 5.20532593206217E-04 
1590	 5.50495022436888E-04 
1591	 6.24689902932499E-04 
1592	 7.64828510224836E-04 
1593	 7.88386766922704E-04 
1594	 4.85262951506167E-04 
1595	 3.71758207200374E-04 
1596	 5.23846311719769E-04 
1597	 5.6795088148059E-04 
1598	 7.49005184435231E-04 
1599	 9.49253006290704E-04 
1600	 8.31984805108828E-04 
1601	 7.64272851539472E-04 
1602	 9.75896116669102E-04 
1603	 9.32705952370708E-04 
1604	 7.76352854080028E-04 
1605	 9.17461498497289E-04 
1606	 8.64941795593843E-04 
1607	 6.94500301582077E-04 
1608	 7.36216767797726E-04 
1609	 7.87611967716399E-04 
1610	 6.44323229962932E-04 
1611	 5.47989309371426E-04 
1612	 6.07415019237158E-04 
1613	 4.14295587988841E-04 
1614	 2.82727811799538E-04 
1615	 5.77858499518387E-04 
1616	 8.44532787304892E-04 
1617	 8.25253006468626E-04 
1618	 7.68707774869647E-04 
1619	 6.32718802204414E-04 
1620	 4.79363650699724E-04 
1621	 6.03120647906901E-04 
1622	 6.81062500581914E-04 
1623	 5.98288769860765E-04 
1624	 5.29217400353061E-04 
1625	 5.02188141557141E-04 
1626	 6.53267536589254E-04 
1627	 7.73389173934074E-04 
1628	 6.58941586507277E-04 
1629	 5.51481487420733E-04 
1630	 6.28313414037651E-04 
1631	 6.96928623603163E-04 
1632	 5.51301986173897E-04 
1633	 5.29308582568655E-04 
1634	 5.53195655216044E-04 
1635	 4.06369706615829E-04 
1636	 5.68428113347291E-04 
1637	 6.78401654258743E-04 
1638	 4.44486174196176E-04 
1639	 3.51336466041545E-04 
1640	 4.5422613571599E-04 
1641	 6.09279485701666E-04 
1642	 6.06487305922038E-04 
1643	 4.6095483860896E-04 
1644	 4.63765915538107E-04 
1645	 5.73226491766169E-04 
1646	 5.20655999305798E-04 
1647	 5.14066458088447E-04 
1648	 6.8852328110029E-04 
1649	 6.54024180293785E-04 
1650	 6.00702528145912E-04 
1651	 8.27234598749545E-04 
1652	 6.78662462916695E-04 
1653	 2.55829855578131E-04 
1654	 3.49429282392449E-04 
1655	 9.44571595172825E-04 
1656	 9.04839709606627E-04 
1657	 4.35273233152094E-04 
1658	 5.00995222065657E-04 
1659	 6.73669145391673E-04 
1660	 6.60867156048012E-04 
1661	 9.72092419851139E-04 
1662	 9.9631056832807E-04 
1663	 4.82990092623714E-04 
1664	 3.37887379101497E-04 
1665	 4.87370770406979E-04 
1666	 6.65856044276331E-04 
1667	 9.39944941782306E-04 
1668	 5.58634706458376E-04 
1669	 5.41390347673658E-04 
1670	 5.3744324560549E-04 
1671	 1.60947744884001E-04 
1672	 8.00226270303575E-05 
1673	 5.11087342810526E-04 
1674	 7.05387508881678E-04 
1675	 3.65058251346189E-04 
1676	 2.50638340883752E-04 
1677	 2.06332460017882E-04 
1678	 1.15684679098466E-04 
1679	 4.68286189574772E-04 
1680	 5.80648531587477E-04 
1681	 3.29777551531415E-04 
1682	 1.93379709081167E-04 
1683	 1.94335939614859E-04 
1684	 5.33439662296647E-04 
1685	 8.58467753455956E-04 
1686	 6.78506143931426E-04 
1687	 6.11158718685129E-04 
1688	 7.5353913271742E-04 
1689	 4.70655765679101E-04 
1690	 2.64361899927388E-04 
1691	 4.28399345737502E-04 
1692	 4.85194761945886E-04 
1693	 5.62381291567893E-04 
1694	 7.96280693241748E-04 
1695	 8.71228986120898E-04 
1696	 4.77401783084665E-04 
1697	 1.79093358070761E-04 
1698	 6.13036244694221E-04 
1699	 8.75188610783466E-04 
1700	 8.01359482440999E-04 
1701	 1.12565009887573E-03 
1702	 1.12787833320896E-03 
1703	 8.75416017838888E-04 
1704	 9.72718405272171E-04 
1705	 7.22714837207456E-04 
1706	 3.83557350591309E-04 
1707	 4.93354421898671E-04 
1708	 7.17425448454034E-04 
1709	 9.37757407955207E-04 
1710	 1.07741349420636E-03 
1711	 8.72753839278426E-04 
1712	 4.64770585945679E-04 
1713	 6.95807704701497E-04 
1714	 7.34937519096048E-04 
1715	 4.28106175127311E-04 
1716	 8.52317687344842E-04 
1717	 8.26608581898229E-04 
1718	 3.90513495181472E-04 
1719	 7.93397307806102E-04 
1720	 7.35639346926416E-04 
1721	 2.39144724285979E-04 
1722	 6.61066360442972E-04 
1723	 4.58226902761871E-04 
1724	 2.49111438248687E-05 
1725	 7.85468734147459E-04 
1726	 8.52996322538844E-04 
1727	 2.09845243502548E-04 
1728	 4.3124562656182E-04 
1729	 5.48135130382552E-04 
1730	 4.89403821951748E-04 
1731	 1.05041264450947E-03 
1732	 9.39929173349461E-04 
1733	 2.70205190718488E-04 
1734	 3.33310513124985E-04 
1735	 2.84867745083686E-04 
1736	 3.639056423423E-05 
1737	 4.42153848267933E-04 
1738	 7.91325143152672E-04 
1739	 7.57213737544154E-04 
1740	 1.01986274346245E-03 
1741	 1.27516857547836E-03 
1742	 8.10443781715051E-04 
1743	 5.24035218393866E-04 
1744	 7.27059984063431E-04 
1745	 5.10268396776298E-04 
1746	-2.36351197860598E-05 
1747	-1.11149315495987E-04 
1748	-2.33148354054349E-04 
1749	-4.41647710556853E-05 
1750	 1.05078805068543E-03 
1751	 1.32359379457358E-03 
1752	 1.27872429133875E-03 
1753	 1.1746207512246E-03 
1754	 1.83516552037029E-04 
1755	-7.79926573944166E-05 
1756	 2.58278351267999E-04 
1757	-9.15510385933953E-05 
1758	 2.90412419526321E-04 
1759	 3.88640310107756E-04 
1760	 1.02025321877955E-05 
1761	 3.63697220571943E-04 
1762	 9.24744396000795E-04 
1763	 1.26141075723661E-03 
1764	 1.33896398536916E-03 
1765	 5.71826508843928E-04 
1766	 2.96762891092536E-05 
1767	 1.99679299946172E-04 
1768	 5.91484121824645E-04 
1769	 1.27023372967699E-03 
1770	 1.0925960797734E-03 
1771	 8.50312036141055E-04 
1772	 1.06685661228733E-03 
1773	 8.24977293913876E-04 
1774	 1.13550611512969E-03 
1775	 6.73390363880787E-04 
1776	 3.39800985089283E-04 
1777	 6.45000891079048E-04 
1778	 6.06209211520714E-04 
1779	 8.86483508373768E-05 
1780	-1.03400174324475E-04 
1781	-3.65439876395621E-04 
1782	-3.0902135937387E-04 
1783	 2.6935917703699E-04 
1784	 7.19611044488084E-04 
1785	 1.51650403011581E-03 
1786	 1.78592451404253E-03 
1787	 1.86858544033201E-03 
1788	 1.08355566914893E-03 
1789	-1.19910721162075E-03 
1790	 3.82529410294968E-04 
1791	 1.23672953792132E-03 
1792	 2.59911209103187E-03 
1793	 4.21853536702398E-03 
1794	 1.53450402248203E-03 
1795	-6.93296000981991E-04 
1796	-4.48435778363113E-04 
1797	-2.36905506319085E-03 
1798	-3.17518437766059E-03 
1799	-2.37305247651658E-03 
1800	 3.12672288113556E-03 
1801	 5.17723851003154E-03 
1802	 7.50592779521586E-03 
1803	 7.52524269594637E-03 
1804	-3.80944118625887E-03 
1805	-7.21233972330288E-03 
1806	-4.63343447812062E-03 
1807	-5.00399312973427E-03 
1808	 2.03703116891842E-03 
1809	 3.21518781923996E-03 
1810	-5.79245509732212E-03 
1811	-4.28635653670274E-03 
1812	 4.68000155462727E-03 
1813	 2.50993025715162E-03 
1814	 8.51723067360705E-04 
1815	-4.81353789054399E-03 
1816	-3.44847901139866E-02 
1817	-1.70652006529134E-02 
1818	-1.17846921441384E-02 
1819	 1.48731431798474E-02 
1820	 5.15277712288102E-02 
1821	 1.97569793506152E-02 
1822	 1.15324598375822E-02 
1823	-1.64131840647002E-02 
1824	-5.16416466343604E-02 
1825	-6.85267674539377E-02 
1826	-6.79712646020437E-02 
1827	-0.063186663854373 
1828	-7.16688584616466E-02 
1829	-3.43428080980761E-02 
1830	 7.32631851334121E-03 
1831	-0.127440509797898 
1832	-0.105574203957841 
1833	-8.7680230484941E-03 
1834	-4.87532317878532E-02 
1835	-3.25405794320893E-02 
1836	-0.294837344740083 
1837	-1.56003252568968 
1838	-2.205457285935 
1839	-1.31723243375048 
1840	-1.60103090906942 
1841	-0.771912226410272 
1842	 0.445952180581475 
1843	 1.0871759746628 
1844	 8.69649332698621E-02 
1845	 0.111347055836523 
1846	-0.666149639490523 
1847	-18.69710065186 
1848	 2.50430650408775 
1849	 2.85049703861327 
1850	-3.32183995029208 
1851	-1.90606719408749 
1852	-1.47390366672976 
1853	-0.573289551626759 
1854	-0.243803269876165 
1855	 1.18714917851418 
1856	 2.66398092583431 
1857	 0.346231215051345 
1858	 0.55470566314503 
1859	 0.81323970013076 
1860	-6.11932592838004 
1861	-6.88298216559175 
1862	-3.3769941581094 
1863	-1.04282930042166 
1864	-0.897845796538059 
1865	-0.265036492718756 
1866	 12.2905659511839 
1867	-2.59765104300975 
1868	-1.0477931232955 
1869	-1.13555238936707 
1870	-1.32855867667576 
1871	-2.4737685748881 
1872	 0.420198423171958 
1873	-0.117345566033905 
1874	-0.197588501780418 
1875	-1.93710745553481 
1876	 3.78840598970683 
1877	 0.274512968085223 
1878	 0.250059499748595 
1879	 0.637309888534321 
1880	 0.607255881125678 
1881	 0.43620801758726 
1882	 0.58221537188952 
1883	 0.756269047630089 
1884	 0.527054791770442 
1885	 0.9782067278073 
1886	 1.90378761848603 
1887	 1.5713322229606 
1888	 0.567726072716025 
1889	 0.224337759613329 
1890	-0.136870651065335 
1891	-0.232665659532467 
1892	-0.278512556733344 
1893	-0.435997397339529 
1894	-0.25310349948572 
1895	-0.309029317572999 
1896	-0.601717224140735 
1897	-0.26357056696762 
1898	-0.518734754351878 
1899	-2.4205171557107 
1900	-12.5417840260378 
1901	-1.92790974053292 
1902	-1.39389740219991 
1903	-0.890238283747953 
1904	-0.801422906843796 
1905	 2.00664360176144E-03 
1906	 0.843244472662785 
1907	 1.09842507905276 
1908	 0.827090042082895 
1909	 0.321644690465285 
1910	-0.293949070604637 
1911	-0.807000410729678 
1912	-1.81963179936116 
1913	-1.61995905859686 
1914	-0.955942497080421 
1915	-0.380895069432803 
1916	 6.74548745099966E-02 
1917	 0.135024129238559 
1918	 8.57716518922938E-02 
1919	 0.166788802833679 
1920	-4.79075746865808E-03 
1921	-0.183668748452303 
1922	-4.46799930302142E-02 
1923	-2.30628518187413E-03 
1924	-6.50857553132403E-02 
1925	-6.44708468526477E-02 
1926	-5.91101945141067E-02 
1927	-9.24113058688965E-02 
1928	-0.111371700604761 
1929	-7.37259333789453E-02 
1930	-4.95572360498108E-02 
1931	-5.28339018144801E-02 
1932	-4.52594664306412E-02 
1933	-3.17702405201948E-02 
1934	-1.84696122750584E-02 
1935	-2.02171073653205E-02 
1936	-2.84673831801864E-02 
1937	-2.31054782540054E-02 
1938	-2.55415370920881E-02 
1939	-2.43406903440682E-02 
1940	-1.79061304601144E-02 
1941	-1.41795855032188E-02 
1942	-2.26365481282316E-02 
1943	-1.65881571902089E-02 
1944	-8.84648014490128E-03 
1945	-9.52275168719291E-03 
1946	 5.53653094625205E-05 
1947	 5.88537334642747E-03 
1948	 1.71897706311123E-03 
1949	 1.79060987308902E-03 
1950	 9.92231540330331E-04 
1951	 4.63132842229605E-03 
1952	 3.93306103502365E-03 
1953	 4.37199613846906E-03 
1954	-1.99616270264502E-03 
1955	-4.86789934838975E-03 
1956	-7.99894374175437E-03 
1957	-6.83323245883769E-03 
1958	-1.18606951681134E-05 
1959	-2.31971270019006E-04 
1960	-2.40190190740919E-03 
1961	-6.1008833684138E-03 
1962	-7.63053025702574E-03 
1963	-1.55321516113968E-03 
1964	-7.7058561439178E-04 
1965	-7.39988845590816E-04 
1966	 3.1494198116457E-04 
1967	 1.7761904480828E-03 
1968	-5.02068626896284E-04 
1969	 1.00630115021847E-03 
1970	 3.0904571715905E-03 
1971	 1.36051620451837E-03 
1972	-3.35298936588785E-04 
1973	-9.56977267622181E-04 
1974	-1.36084385573966E-03 
1975	-3.8498020403712E-04 
1976	 1.11541317672912E-03 
1977	 1.02089540380916E-03 
1978	 1.82574104013644E-04 
1979	-4.96760377679011E-04 
1980	-1.69147652682276E-03 
1981	-2.21796389856981E-03 
1982	-2.21599338816958E-03 
1983	-2.13396620465873E-03 
1984	-1.44192863743424E-03 
1985	-9.25172783672384E-04 
1986	-1.1545093764726E-03 
1987	-1.43145986768633E-03 
1988	-1.44400914272599E-03 
1989	-1.42132320547242E-03 
1990	-1.38116090889997E-03 
1991	-8.28956346453355E-04 
1992	-8.15706423596964E-04 
1993	-1.19401173609553E-03 
1994	-8.8111906274205E-04 
1995	 5.65209130040874E-04 
1996	 9.49808874861369E-04 
1997	-2.4780363028642E-04 
1998	-8.4214862809635E-04 
1999	-1.97671157146067E-03 
2000	-2.96403506870441E-03 
2001	-2.24553169850423E-03 
2002	-1.02087727579531E-03 
2003	-1.23572309975453E-03 
2004	-4.53722924108347E-03 
2005	-5.18652777280416E-03 
2006	-4.58937229659662E-03 
2007	-6.88689437507546E-03 
2008	-5.58547973515185E-03 
2009	-4.31661805039964E-03 
2010	-3.47816482761357E-03 
2011	-3.44248083274857E-03 
2012	-2.78407361800751E-03 
2013	-1.15598319102633E-03 
2014	-2.01255171854039E-03 
2015	-2.32597676658803E-03 
2016	-2.05775612428422E-03 
2017	-3.02658356736092E-03 
2018	-2.57971111090051E-03 
2019	 4.31849351079513E-04 
2020	 1.85329389615076E-03 
2021	 1.49525534011481E-03 
2022	 1.5347273783675E-03 
2023	-2.4288537168802E-04 
2024	-8.76422833203098E-04 
2025	-5.02147520641213E-04 
2026	-9.31050624030465E-05 
2027	 4.99683371314014E-04 
2028	 2.72449313948484E-04 
2029	 6.64740725593809E-04 
2030	 7.72224712826296E-04 
2031	-8.28866704818542E-05 
2032	-1.1899750694096E-04 
2033	 5.80689163815299E-04 
2034	 1.36676633489593E-04 
2035	-2.45559836650288E-04 
2036	-7.64622736843053E-05 
2037	-3.1764530195349E-04 
2038	 6.66569235699368E-05 
2039	 7.17389440303541E-05 
2040	 6.04576627635462E-05 
2041	 9.90339597536657E-05 
2042	-3.2384570223659E-04 
2043	-3.64306618083618E-04 
2044	-3.22329426091595E-04 
2045	 1.16894588350225E-03 
2046	 1.8384336703517E-03 
2047	 1.96754432526567E-03 
2048	 1.8270912080141E-03 
2049	 6.88781714422895E-04 
2050	 1.20838447925061E-04 
2051	-1.05027503771267E-04 
2052	-1.97185908288206E-04 
2053	 7.68010530141122E-05 
2054	 2.59188471278491E-04 
2055	 2.63346846371131E-04 
2056	 2.50275302047201E-05 
2057	-4.75201677580371E-04 
2058	-1.80699886192281E-04 
2059	 1.0966247520661E-04 
2060	 2.64473749703048E-04 
2061	 1.18839044355389E-03 
2062	 1.59745872803069E-03 
2063	 6.52225553112304E-04 
2064	 5.7596322562694E-04 
2065	 1.71953421244496E-03 
2066	 1.77537220023644E-03 
2067	 1.35601066574458E-03 
2068	 1.42097364751401E-03 
2069	 2.75367604683406E-04 
2070	-1.91805610056832E-04 
2071	 7.1090023948522E-04 
2072	 1.13338263224297E-03 
2073	 7.92594007287974E-04 
2074	-5.49458108313545E-04 
2075	-3.8368245016928E-04 
2076	 1.52833823608676E-05 
2077	 1.60825506108955E-05 
2078	 1.05154123304297E-03 
2079	 1.38112601331865E-03 
2080	 9.0914308493062E-04 
2081	 2.18035930366387E-04 
2082	 5.8511379733052E-04 
2083	 9.33553320058304E-04 
2084	 8.1299636421813E-04 
2085	 1.01380932462097E-03 
2086	 1.2223131951101E-03 
2087	 7.89956143276563E-04 
2088	 3.42431977048817E-04 
2089	 4.05841555738928E-04 
2090	 6.63709799116236E-04 
2091	 5.82419556878866E-04 
2092	 1.39512997046861E-04 
2093	-5.84187758983729E-04 
2094	-1.00315887621732E-03 
2095	-2.19859129713419E-03 
2096	-2.17678010555206E-03 
2097	-1.06486367321063E-03 
2098	-4.73098581245152E-04 
2099	 5.43532707400119E-04 
2100	 1.09428458067946E-03 
2101	 1.55287187698389E-03 
2102	 9.96296600935058E-04 
2103	-5.22290857980679E-04 
2104	-1.06556373703793E-03 
2105	-1.53470758428166E-03 
2106	-1.58951552041664E-03 
2107	-6.01530134916533E-04 
2108	 3.25135148693697E-04 
2109	 4.06032149427812E-04 
2110	 3.1631722811225E-04 
2111	 3.47528948670645E-04 
2112	-6.43168586977446E-05 
2113	 4.48991131424858E-07 
2114	 6.76818089696479E-04 
2115	 7.84965179666908E-04 
2116	 9.69292639049822E-04 
2117	 7.82572726394999E-04 
2118	-2.22461346719408E-04 
2119	-4.61950551354544E-04 
2120	-5.10601630295418E-04 
2121	-5.85741711740539E-04 
2122	-3.21647398438891E-04 
2123	 1.716845588148E-04 
2124	 8.3896609612765E-04 
2125	 1.10531725254893E-03 
2126	 1.34897947199917E-03 
2127	 1.85966442269629E-03 
2128	 1.78041547661983E-03 
2129	 1.75003472550524E-03 
2130	 1.90220031099561E-03 
2131	 1.59885829844507E-03 
2132	 9.9142718822954E-04 
2133	-9.03333985875696E-05 
2134	-2.18429694554301E-04 
2135	 6.60322956182907E-04 
2136	 7.01575820036705E-04 
2137	 5.61803038609081E-04 
2138	 6.40377772752602E-04 
2139	-2.10107656626856E-05 
2140	-1.22152090521255E-04 
2141	 1.1080065842325E-03 
2142	 1.35397267804091E-03 
2143	 1.3705472123851E-03 
2144	 8.26081278784338E-04 
2145	-9.8535184266521E-05 
2146	-1.01045611406868E-03 
2147	-6.61465030653883E-04 
2148	-2.91263962106135E-04 
2149	-1.25041361975813E-03 
2150	-1.75253160100381E-03 
2151	-1.73620062622889E-03 
2152	-2.05520907881384E-03 
2153	-1.60497036425217E-03 
2154	-7.26584425253816E-05 
2155	 8.98113822650672E-04 
2156	 3.87387699807234E-04 
2157	 5.15534242269915E-04 
2158	 1.33060534013775E-03 
2159	 8.61097907754314E-04 
2160	-7.21809773680023E-04 
2161	-1.01854917696584E-03 
2162	-1.66002465195182E-03 
2163	-1.69941340190141E-03 
2164	-5.17251424456977E-04 
2165	-1.96364318650203E-04 
2166	 1.11922983813176E-04 
2167	-2.79117053606288E-05 
2168	-1.35585923968424E-03 
2169	-1.12285840384511E-03 
2170	 7.36432071412917E-06 
2171	 6.80703126882526E-04 
2172	 3.05264582022992E-04 
2173	 7.62199912911464E-04 
2174	 1.05657096856931E-03 
2175	-3.22286028569906E-04 
2176	-3.90361142510265E-04 
2177	 1.34213974829992E-03 
2178	 1.29294073760492E-03 
2179	 3.8577789642712E-04 
2180	 3.05413511292111E-05 
2181	-7.39741438707357E-04 
2182	-1.5035071037168E-03 
2183	-1.20387759707762E-03 
2184	-8.78409201532471E-04 
2185	-9.39157529406636E-04 
2186	-9.18640091856306E-04 
2187	-0.001274048962019 
2188	-1.35106762386421E-03 
2189	-1.26769356913992E-03 
2190	-9.47210797277617E-04 
2191	 5.61240254368977E-05 
2192	 3.63305938264549E-04 
2193	 1.31660554688985E-04 
2194	 4.50744278703369E-04 
2195	 9.93807711403471E-04 
2196	 8.07301508588547E-04 
2197	 5.61326875948741E-04 
2198	 3.86607190147027E-04 
2199	-6.38319342458306E-04 
2200	-1.21545250855749E-03 
2201	-1.28238066883436E-03 
2202	-7.14749391957967E-04 
2203	-2.12793325668581E-04 
2204	 6.79041086234845E-05 
2205	 1.93734957697986E-03 
2206	 2.86223073784114E-03 
2207	 2.13370980866733E-03 
2208	 1.86887922949048E-03 
2209	 1.89633026445209E-03 
2210	 2.76553813818308E-03 
2211	 3.70528508060144E-03 
2212	 3.45100377560934E-03 
2213	 1.10950199195388E-03 
2214	-2.19599065763062E-03 
2215	-2.95304317681744E-03 
2216	-2.58386574691227E-03 
2217	-2.70179944378976E-03 
2218	-1.13157528468538E-03 
2219	-1.35019445997936E-03 
2220	-3.48546336841957E-03 
2221	-3.92558244674696E-03 
2222	-3.81625086123239E-03 
2223	-4.19208038365784E-03 
2224	-4.03789058727742E-03 
2225	-4.14036538215296E-03 
2226	-5.52326031919133E-03 
2227	-5.32806891473635E-03 
2228	-3.44781012487975E-03 
2229	-3.18610038894545E-03 
2230	-3.01405162532885E-03 
2231	-2.64039385052299E-03 
2232	-3.16138860572313E-03 
2233	-3.14361967518824E-03 
2234	-2.80387840181235E-03 
2235	-1.75038213271189E-03 
2236	-8.440184934477E-04 
2237	-2.4742950821245E-03 
2238	-1.64929393675219E-03 
2239	 3.58402526035118E-04 
2240	-6.21531649654111E-05 
2241	 7.80746290460068E-04 
2242	 2.08915075369694E-03 
2243	-1.49647259204876E-04 
2244	-2.02867209951772E-03 
2245	-1.23988073594279E-03 
2246	-1.18235151807619E-03 
2247	-7.4909451981402E-04 
2248	-2.23247440221632E-03 
2249	-4.17387960784928E-03 
2250	-4.96302006703445E-03 
2251	-6.8627147384815E-03 
2252	-4.03663723835162E-03 
2253	-1.37025180378152E-04 
2254	-5.72668988100707E-04 
2255	-8.614998285349E-04 
2256	-3.39970155004757E-04 
2257	-1.19609314835812E-03 
2258	-1.07082545172374E-03 
2259	 2.19817825190111E-03 
2260	 2.95316717871491E-03 
2261	 1.88596071366551E-03 
2262	 8.32683067164768E-04 
2263	-1.83123974638642E-03 
2264	-2.66265867376143E-03 
2265	-2.87432190557277E-03 
2266	-2.73159087471382E-03 
2267	-4.7480248212808E-04 
2268	-2.35237448556923E-04 
2269	-1.87774870358439E-03 
2270	-1.44545514071216E-03 
2271	 4.28731763629873E-04 
2272	 1.54330525198746E-04 
2273	-1.16106564787286E-03 
2274	-9.13659042819486E-04 
2275	-1.80029430658377E-03 
2276	-1.96807651156392E-03 
2277	 6.39984898888882E-04 
2278	 2.33123200504949E-03 
2279	 2.78102910730567E-03 
2280	 2.8383846034388E-03 
2281	 3.92754229913635E-03 
2282	 3.79053411373212E-03 
2283	-1.14261374664397E-03 
2284	-1.18509674340714E-03 
2285	 1.75322787356815E-03 
2286	 4.76401116441589E-04 
2287	-2.88790603029944E-04 
2288	 6.99823359724664E-04 
2289	 1.75330420459773E-03 
2290	 1.75181012957546E-03 
2291	 1.42904874636903E-03 
2292	 2.5521133101954E-03 
2293	-2.2064987395369E-04 
2294	-3.08207867160977E-03 
2295	-2.91849589165131E-03 
2296	-4.72205966110971E-03 
2297	-5.36481799740277E-03 
2298	-4.64669229918654E-03 
2299	-2.7156447562171E-03 
2300	 1.07678656653451E-04 
2301	 1.17874733012492E-03 
2302	 2.06280765231685E-03 
2303	 1.64084273417384E-03 
2304	 7.20610228037135E-04 
2305	 2.55266037825994E-03 
2306	 2.95015921025117E-03 
2307	 1.06105651478108E-03 
2308	 4.58584646310777E-04 
2309	-3.45188020866157E-05 
2310	-8.43425783956163E-05 
2311	 1.30886379806629E-03 
2312	 9.35161449061023E-04 
2313	-2.37151387064366E-03 
2314	-2.71818942878919E-03 
2315	 1.28134693328537E-03 
2316	 3.28368910900261E-03 
2317	 3.97269865074266E-03 
2318	 3.44353271028941E-03 
2319	-3.31482367140032E-03 
2320	-4.04554390875109E-03 
2321	 1.6909690815985E-03 
2322	 1.51536608184077E-03 
2323	 2.00164469522588E-03 
2324	 8.60569558624795E-04 
2325	-2.57210102501181E-04 
2326	 1.27283304567894E-03 
2327	-1.14160513294654E-03 
2328	-4.16371871257599E-04 
2329	 1.15896423925654E-03 
2330	 7.08334289386017E-04 
2331	 4.07377346310804E-03 
2332	 5.71710367346677E-03 
2333	 3.70717911914201E-03 
2334	-1.11371635068449E-03 
2335	-3.25711273005392E-03 
2336	-2.10902972052589E-03 
2337	-6.80854046549866E-03 
2338	-7.2617688190708E-03 
2339	 8.12619662941562E-04 
2340	 3.28618668191178E-03 
2341	 2.61793619891811E-03 
2342	 0.009040201702872 
2343	 8.03829185387585E-03 
2344	 2.55490211037575E-06 
2345	-1.71841200809303E-03 
2346	-3.64378047964252E-03 
2347	-1.25299994226857E-03 
2348	 7.9103534576369E-04 
2349	-5.99960373926374E-03 
2350	-9.70584707058167E-03 
2351	-1.63094530974839E-02 
2352	-2.77094847531939E-02 
2353	-0.028264435714325 
2354	-2.40541950512132E-02 
2355	-2.08902237731975E-02 
2356	-1.36895747910427E-02 
2357	-8.16917528130869E-04 
2358	 5.58802592923908E-03 
2359	 5.36377966913123E-03 
2360	 0.014009605723455 
2361	 1.29237779364461E-02 
2362	 3.79620064217478E-03 
2363	 7.14802501451858E-03 
2364	 5.45983571174333E-03 
2365	 6.70904963970716E-03 
2366	 1.08984758519407E-02 
2367	-2.6041973297893E-03 
2368	-1.02948250676842E-02 
2369	-7.84316428497084E-03 
2370	-8.29793456498555E-03 
2371	-7.92487826809425E-03 
2372	-2.99003226721192E-03 
2373	-6.61077934971881E-03 
2374	-2.45135519524708E-02 
2375	-2.56196098511366E-02 
2376	-2.82402448396872E-02 
2377	-3.55993262229422E-02 
2378	-1.39156603993815E-02 
2379	-9.62942451864678E-03 
2380	-2.44215740602393E-02 
2381	-2.39350012374117E-02 
2382	-0.028924178948419 
2383	-3.10357248925783E-02 
2384	-1.94708593134045E-02 
2385	-1.48372660008506E-02 
2386	-1.84645548303716E-02 
2387	-1.21605974786282E-02 
2388	-1.33546180278048E-03 
2389	-9.42108127632782E-04 
2390	-1.24436996359096E-02 
2391	-1.39452619537975E-02 
2392	 8.04725686432765E-03 
2393	 0.02692969434117 
2394	 3.32787729955698E-02 
2395	 2.31565611770656E-02 
2396	-7.84489284861315E-03 
2397	-2.86324251173598E-02 
2398	-1.92206584864643E-02 
2399	-2.57241388342945E-03 
2400	-2.44481613140015E-04 
2401	 2.47505003122818E-04 
2402	-1.83888397964528E-03 
2403	-0.014143850626772 
2404	-3.99468321741511E-02 
2405	-0.074997062410955 
2406	-8.28534706544891E-02 
2407	-6.34063434787557E-02 
2408	-2.56580957546564E-02 
2409	 0.030165788462212 
2410	 1.52118452940302E-02 
2411	-5.57258512192002E-02 
2412	-0.088841554205796 
2413	-9.72866082651568E-02 
2414	-8.43229032952818E-02 
2415	-4.66024436392816E-02 
2416	-2.28154004150129E-02 
2417	-2.73587498841854E-02 
2418	-7.88668230707091E-03 
2419	 6.85637600143595E-02 
2420	 0.119529276077658 
2421	 0.131144669454037 
2422	 9.35069790657981E-02 
2423	 6.40219111578867E-03 
2424	-0.053433639594449 
2425	-6.36393555430562E-02 
2426	-4.87056503668743E-02 
2427	-3.36290477320945E-02 
2428	-1.39446695193867E-02 
2429	 3.45439988431504E-03 
2430	-0.013021616079736 
2431	-0.029202223932746 
2432	-3.90374805740933E-02 
2433	-5.71037265668112E-02 
2434	-9.87243301901357E-02 
2435	-0.120179087618584 
2436	-0.1168983956531 
2437	-0.147063449806328 
2438	-0.164117734865095 
2439	-0.157906636579979 
2440	-0.144839620357921 
2441	-0.133542276279485 
2442	-8.96891042778267E-02 
2443	-2.23106881179655E-02 
2444	-1.70093103780191E-02 
2445	-3.39399921953386E-02 
2446	-5.70571619391099E-02 
2447	-0.155014212673048 
2448	-0.178492408604318 
2449	-0.204838693167809 
2450	-0.233623228485718 
2451	-0.189901514825188 
2452	-0.24963820499637 
2453	-0.247436106288146 
2454	-0.210941944003084 
2455	-0.223036578662033 
2456	-0.188075800124582 
2457	-0.113662211197316 
2458	-8.08651855873405E-02 
2459	-9.89636242549216E-02 
2460	-9.18275323913319E-02 
2461	 1.34892805078788E-02 
2462	 7.62154104287215E-02 
2463	 0.102924200256581 
2464	 0.161921880763248 
2465	 0.100349383682068 
2466	-4.13583598204331E-02 
2467	 6.35014612416913E-02 
2468	 5.97394223943883E-02 
2469	-0.215542074257436 
2470	-9.43752177041349E-02 
2471	-6.48109810444458E-02 
2472	-0.051080446177706 
2473	 3.61986235255629E-02 
2474	-3.50232861656658E-02 
2475	-0.224685875098981 
2476	-0.735184904854058 
2477	-0.809713488783174 
2478	-0.252232952977297 
2479	-1.69518081983557E-03 
2480	 0.123168185065486 
2481	 0.180594764212012 
2482	 0.158485547347042 
2483	-1.37939798164602 
2484	-8.4953645597444 
2485	-3.36479414796082 
2486	-2.0513869156892 
2487	-3.20537604648863 
2488	-3.27718904939769 
2489	-9.02113774207302 
2490	 9.57337419130972 
2491	 20.9527219105095 
2492	 2.74775618210904 
2493	-2.27353600190448 
2494	-1.00807453035731 
2495	-1.72811611995473 
2496	 9.53061821815186 
2497	 7.65746687735348 
2498	-4.81753138768708 
2499	-1.62295657735754 
2500	-1.81378089274172 
