Wavelength	rt0624close00003.asd
350	 1.72301905506503E-02 
351	 1.77709654139081E-02 
352	 1.84657862495323E-02 
353	 1.86171117711204E-02 
354	 1.81014690631454E-02 
355	 1.77555087242681E-02 
356	 1.82212080406664E-02 
357	 1.86755985699653E-02 
358	 1.83782168984429E-02 
359	 1.91265141381959E-02 
360	 1.93032087929832E-02 
361	 1.89239561303285E-02 
362	 1.90768568404219E-02 
363	 1.90598496304781E-02 
364	 1.90669176928887E-02 
365	 1.93251127413259E-02 
366	 1.99909026514389E-02 
367	 1.95607406516436E-02 
368	 1.92491583050595E-02 
369	 0.020146158382745 
370	 2.02547693114153E-02 
371	 2.04203489860742E-02 
372	 2.07543498997724E-02 
373	 2.09331175351766E-02 
374	 2.08915866280019E-02 
375	 2.09955576105817E-02 
376	 2.12150707774911E-02 
377	 2.09476071589526E-02 
378	 2.13417473982518E-02 
379	 2.18248448124053E-02 
380	 2.17672962292266E-02 
381	 2.16593450255234E-02 
382	 2.16987928533608E-02 
383	 2.20651957023112E-02 
384	 2.28165969366529E-02 
385	 2.35504589277487E-02 
386	 2.38771081066969E-02 
387	 2.38486406595985E-02 
388	 0.023968052485726 
389	 2.39610141165608E-02 
390	 2.40566641103427E-02 
391	 2.43601427900557E-02 
392	 2.44553458528874E-02 
393	 2.47732718701143E-02 
394	 2.50622657399022E-02 
395	 2.50413960041438E-02 
396	 2.56530967584387E-02 
397	 2.60869026527839E-02 
398	 2.61918018934693E-02 
399	 2.64366234115485E-02 
400	 2.63863882578043E-02 
401	 2.66205158563995E-02 
402	 2.73006893424405E-02 
403	 2.73708008693676E-02 
404	 2.73283037890586E-02 
405	 0.027364150495192 
406	 2.75400551055531E-02 
407	 2.77798036602978E-02 
408	 2.81617924667668E-02 
409	 2.85585183902255E-02 
410	 2.86641071066648E-02 
411	 2.87660522303601E-02 
412	 2.89415821739226E-02 
413	 0.029219226933594 
414	 2.96454811819352E-02 
415	 2.99653032805862E-02 
416	 0.03009319015409 
417	 3.00939704468789E-02 
418	 3.03894344606967E-02 
419	 3.07254690596649E-02 
420	 3.10143433976492E-02 
421	 3.13946929368071E-02 
422	 3.16396555329116E-02 
423	 0.031896332157988 
424	 3.22753475147857E-02 
425	 3.25521721608124E-02 
426	 3.29950791595062E-02 
427	 3.34277454348715E-02 
428	 3.35610402608141E-02 
429	 3.39471893451941E-02 
430	 3.43552575951556E-02 
431	 3.47122240392409E-02 
432	 3.52149182729439E-02 
433	 0.035450483304265 
434	 3.57409714515227E-02 
435	 0.036318735507733 
436	 3.66751092967455E-02 
437	 3.69854268397568E-02 
438	 3.73860288493193E-02 
439	 3.79406568077988E-02 
440	 3.83010870980634E-02 
441	 3.86055608114951E-02 
442	 3.89793274624291E-02 
443	 3.94527899113672E-02 
444	 3.97537481218091E-02 
445	 4.00507103470722E-02 
446	 4.05098520201637E-02 
447	 4.07844320199738E-02 
448	 4.10832294233011E-02 
449	 4.14318545190915E-02 
450	 4.17168639239032E-02 
451	 4.19489797252236E-02 
452	 4.21669886461416E-02 
453	 4.24131192701003E-02 
454	 0.042737412822952 
455	 4.29414812354615E-02 
456	 4.31253859173133E-02 
457	 0.043419360302048 
458	 4.34713410590036E-02 
459	 4.36068258219972E-02 
460	 4.38645991992934E-02 
461	 4.39738245886174E-02 
462	 0.044121195085538 
463	 4.43318001796936E-02 
464	 4.45613972675631E-02 
465	 0.044653534188997 
466	 4.48361771556961E-02 
467	 4.49983520865871E-02 
468	 4.49615923597784E-02 
469	 4.53760326153369E-02 
470	 4.56890881683762E-02 
471	 4.57308675935302E-02 
472	 4.59815891943622E-02 
473	 4.61289880242033E-02 
474	 4.62609488251903E-02 
475	 4.65149696841493E-02 
476	 4.68566361890535E-02 
477	 4.70921031512895E-02 
478	 4.72359324119505E-02 
479	 4.74533131306699E-02 
480	 4.78357301616944E-02 
481	 4.81381133353857E-02 
482	 4.82759921775885E-02 
483	 4.85722006002757E-02 
484	 0.048943015305478 
485	 4.93580036871226E-02 
486	 4.97848936455469E-02 
487	 0.050149486283308 
488	 5.04735536983719E-02 
489	 5.07846960777822E-02 
490	 5.11125392102504E-02 
491	 5.15573727326559E-02 
492	 5.20422393287172E-02 
493	 5.24953099529461E-02 
494	 5.29757852425215E-02 
495	 0.053389306698149 
496	 5.37858456015274E-02 
497	 5.42724229117911E-02 
498	 5.47428755233416E-02 
499	 5.52258832278685E-02 
500	 5.57395334822573E-02 
501	 5.62651018765026E-02 
502	 5.68101469966181E-02 
503	 5.73830583126563E-02 
504	 5.79720314844898E-02 
505	 5.84679719334115E-02 
506	 5.90416612694894E-02 
507	 5.97159773124187E-02 
508	 6.03821878519687E-02 
509	 0.060903222312875 
510	 6.14568833023248E-02 
511	 6.21190177431247E-02 
512	 6.25970986751131E-02 
513	 6.31268145649666E-02 
514	 6.37920555850858E-02 
515	 0.064562327143902 
516	 6.51229286805725E-02 
517	 6.58113884398199E-02 
518	 6.66860130971839E-02 
519	 0.067399840438011 
520	 6.80618712110824E-02 
521	 0.068692456096896 
522	 6.93068384174412E-02 
523	 6.99234606900957E-02 
524	 7.06567051745265E-02 
525	 7.15019759406635E-02 
526	 7.23570482146494E-02 
527	 7.30455182281676E-02 
528	 7.36507257707033E-02 
529	 7.42823641182329E-02 
530	 0.075021718120488 
531	 7.58149977042654E-02 
532	 7.66173036023084E-02 
533	 0.07738858264376 
534	 7.81376528631316E-02 
535	 7.88719222916361E-02 
536	 7.96362483406967E-02 
537	 8.05096037479019E-02 
538	 8.13609915790838E-02 
539	 8.21940332136479E-02 
540	 8.30394559729717E-02 
541	 8.39125490002316E-02 
542	 8.46778934611851E-02 
543	 8.54136115880699E-02 
544	 8.63062812128676E-02 
545	 8.71322537345355E-02 
546	 8.79208770841415E-02 
547	 8.87300441758338E-02 
548	 8.96219852777223E-02 
549	 9.03913883986111E-02 
550	 9.11393960068604E-02 
551	 9.20232398734593E-02 
552	 9.28111527820639E-02 
553	 9.36435311630178E-02 
554	 0.094509826426292 
555	 9.52088836210818E-02 
556	 9.60312860672912E-02 
557	 9.69002577435547E-02 
558	 9.76918915502735E-02 
559	 9.84760613325204E-02 
560	 0.099188459531305 
561	 9.98408177258132E-02 
562	 0.100500565463507 
563	 0.101226893785963 
564	 0.101925878709339 
565	 0.102545200409878 
566	 0.103149822935367 
567	 0.103795987323708 
568	 0.104382684164106 
569	 0.104816934167526 
570	 0.105416594274284 
571	 0.106009406538645 
572	 0.106517782445587 
573	 0.107000718435835 
574	 0.107505801011757 
575	 0.107977229265775 
576	 0.108366714930391 
577	 0.108747977386874 
578	 0.109073294521698 
579	 0.109397461239507 
580	 0.109811594559623 
581	 0.110109362519693 
582	 0.110380385694274 
583	 0.110670889428211 
584	 0.110872402490893 
585	 0.111099194529816 
586	 0.111331053877574 
587	 0.111506840209219 
588	 0.111613886378587 
589	 0.111707601047522 
590	 0.111802247633729 
591	 0.111868497473299 
592	 0.111897724328391 
593	 0.111885297475073 
594	 0.111816950825639 
595	 0.111642298210581 
596	 0.111440776676777 
597	 0.111201906220713 
598	 0.110883368904797 
599	 0.110673867865228 
600	 0.110468876265331 
601	 0.110229622151066 
602	 0.110091328320326 
603	 0.110097072490313 
604	 0.110152563221005 
605	 0.110159774009452 
606	 0.110275585620157 
607	 0.110391069357465 
608	 0.110475787047831 
609	 0.110589001232115 
610	 0.110628924667776 
611	 0.110708824679829 
612	 0.110882260641307 
613	 0.110886897106296 
614	 0.110948945988998 
615	 0.111045619483091 
616	 0.111045194854371 
617	 0.111201080979262 
618	 0.111307229934712 
619	 0.111281951266334 
620	 0.111313481299228 
621	 0.111383683553107 
622	 0.111455855668882 
623	 0.111500000503035 
624	 0.111595296182482 
625	 0.111591978625203 
626	 0.111537369301662 
627	 0.1116518533598 
628	 0.11162937099658 
629	 0.111647757193984 
630	 0.111836398703588 
631	 0.111969934660494 
632	 0.111988713106561 
633	 0.111945643838117 
634	 0.111945958079264 
635	 0.111957305315853 
636	 0.111967935172048 
637	 0.111958458157315 
638	 0.11189615426367 
639	 0.111842049195162 
640	 0.111805801503568 
641	 0.111778879537025 
642	 0.111751187518067 
643	 0.111709812505503 
644	 0.111644244945129 
645	 0.11155011789677 
646	 0.111484269530715 
647	 0.11134934979089 
648	 0.111148151718742 
649	 0.111191187910518 
650	 0.111182986506051 
651	 0.111012539181856 
652	 0.110699134677201 
653	 0.110565579534529 
654	 0.110395057614048 
655	 0.1101439315283 
656	 0.110080468657642 
657	 0.109710427994728 
658	 0.109348199108901 
659	 0.109272359444721 
660	 0.10920435928581 
661	 0.10899782728203 
662	 0.108682525771958 
663	 0.108430547988485 
664	 0.108514360396883 
665	 0.108557332789177 
666	 0.108372623012215 
667	 0.1082526185243 
668	 0.108228442692053 
669	 0.108247013396469 
670	 0.108223627251006 
671	 0.108117167051143 
672	 0.10810876862655 
673	 0.108188972673186 
674	 0.108173336744122 
675	 0.108230616484327 
676	 0.108337529857175 
677	 0.108449021326762 
678	 0.108549173784525 
679	 0.10873314966403 
680	 0.108959655111 
681	 0.109170744839834 
682	 0.109683940314094 
683	 0.110167138773903 
684	 0.110443005625105 
685	 0.110626509689919 
686	 0.111031912379977 
687	 0.111598019844437 
688	 0.112075567111421 
689	 0.112290511265903 
690	 0.112516440660199 
691	 0.112762352373119 
692	 0.112891298396469 
693	 0.112946792661619 
694	 0.112932008297186 
695	 0.112820517035701 
696	 0.112517752003582 
697	 0.112470715577665 
698	 0.112385425858618 
699	 0.111902853633836 
700	 0.111541685896674 
701	 0.111175857982344 
702	 0.110780803208775 
703	 0.110407488195716 
704	 0.109793913347498 
705	 0.109111807865406 
706	 0.108477428437146 
707	 0.107707990746247 
708	 0.106888626274957 
709	 0.106017534251558 
710	 0.10506092473797 
711	 0.104028888058488 
712	 0.102818284303922 
713	 0.101499668365408 
714	 0.100289361885178 
715	 9.89329957223226E-02 
716	 9.74832464014485E-02 
717	 9.60233405834187E-02 
718	 9.42743418144896E-02 
719	 0.092727011416956 
720	 9.13134198504441E-02 
721	 8.96221698456208E-02 
722	 8.80560839504418E-02 
723	 0.086315560031049 
724	 8.44368150385014E-02 
725	 8.26234574260779E-02 
726	 8.06389962915856E-02 
727	 7.83955386411471E-02 
728	 7.59351997061211E-02 
729	 0.073450100357149 
730	 7.07800932645262E-02 
731	 6.81449473578118E-02 
732	 6.58475027081128E-02 
733	 6.38221927416172E-02 
734	 6.19888370547312E-02 
735	 6.03887249167558E-02 
736	 5.91998698178451E-02 
737	 5.82916913953552E-02 
738	 5.76022526006786E-02 
739	 0.057085726804333 
740	 5.66614150117142E-02 
741	 5.63317204429582E-02 
742	 5.61207579594509E-02 
743	 5.60416973180279E-02 
744	 5.59792293135222E-02 
745	 5.58822607495108E-02 
746	 5.57811097793102E-02 
747	 5.58006262321332E-02 
748	 0.055762517659251 
749	 5.57058296224943E-02 
750	 0.05568520489138 
751	 5.55948580592933E-02 
752	 5.56368470998188E-02 
753	 5.57715486324372E-02 
754	 5.58210524149417E-02 
755	 0.055697638252435 
756	 5.56373678127812E-02 
757	 5.56565134274649E-02 
758	 5.53434428564876E-02 
759	 5.52422080718696E-02 
760	 5.53490970661867E-02 
761	 5.52982217819279E-02 
762	 5.55110753103849E-02 
763	 5.56312202398962E-02 
764	 5.57492209993853E-02 
765	 5.60418490078421E-02 
766	 5.64292339500773E-02 
767	 5.65806872649094E-02 
768	 5.66039708791111E-02 
769	 5.69952421904692E-02 
770	 5.72440485668539E-02 
771	 5.74603343465789E-02 
772	 0.057768166239036 
773	 5.79764392373026E-02 
774	 5.82208879306022E-02 
775	 5.85146636222258E-02 
776	 5.88250220537839E-02 
777	 0.059176367061128 
778	 0.059507269219683 
779	 5.98308768562176E-02 
780	 6.02388192395333E-02 
781	 6.06901315959764E-02 
782	 6.12252943220977E-02 
783	 6.17836692885305E-02 
784	 6.20344937962569E-02 
785	 6.24436332899893E-02 
786	 6.29827792852477E-02 
787	 6.34822393399219E-02 
788	 6.40534195437132E-02 
789	 6.46074362063244E-02 
790	 6.51607878898772E-02 
791	 6.57819826208087E-02 
792	 0.065993312767058 
793	 6.63915955691563E-02 
794	 6.72020340438948E-02 
795	 0.067811265834092 
796	 6.81207812263527E-02 
797	 6.84638793889445E-02 
798	 6.90978360665086E-02 
799	 6.95371428490466E-02 
800	 0.069859871856433 
801	 7.01655029356393E-02 
802	 7.05477706520808E-02 
803	 7.09303654169243E-02 
804	 7.10803227496311E-02 
805	 7.11076250009256E-02 
806	 0.071474501367496 
807	 7.14711354778061E-02 
808	 7.12527608442658E-02 
809	 7.10807585309274E-02 
810	 7.10164244068527E-02 
811	 7.11037510924407E-02 
812	 7.10175159713447E-02 
813	 0.070456501850185 
814	 7.01962233661011E-02 
815	 6.96617799807646E-02 
816	 6.89320524166123E-02 
817	 6.85465289555937E-02 
818	 6.78937484138345E-02 
819	 6.70358277837321E-02 
820	 6.60800117685599E-02 
821	 6.51185311138389E-02 
822	 6.37101404232139E-02 
823	 6.19944111088866E-02 
824	 6.02455221499234E-02 
825	 5.85143404590072E-02 
826	 5.67047584979536E-02 
827	 5.45871931632042E-02 
828	 0.052129837944408 
829	 0.05009358129466 
830	 4.81418702692297E-02 
831	 4.63374834826814E-02 
832	 4.50440995730845E-02 
833	 4.37062053418085E-02 
834	 4.25225286210495E-02 
835	 4.16426530917021E-02 
836	 4.10270481502529E-02 
837	 4.04035558008401E-02 
838	 3.97904238981221E-02 
839	 3.92607692311177E-02 
840	 3.88371819834486E-02 
841	 3.84137186626264E-02 
842	 3.79527044960327E-02 
843	 3.74571702444975E-02 
844	 3.69391953260005E-02 
845	 3.65496082067857E-02 
846	 3.62428521138134E-02 
847	 0.035828416481629 
848	 3.51785276263724E-02 
849	 3.47644687879959E-02 
850	 3.46361307284612E-02 
851	 0.034241657576234 
852	 3.37755291760425E-02 
853	 3.34463774632799E-02 
854	 3.32895386493278E-02 
855	 3.29645590493539E-02 
856	 3.23874447674698E-02 
857	 0.031850607550992 
858	 3.15951607837467E-02 
859	 3.12769102758791E-02 
860	 3.10843195574327E-02 
861	 0.030994684254822 
862	 3.08403368057725E-02 
863	 3.03307081632507E-02 
864	 0.02983634928919 
865	 2.94347577334675E-02 
866	 2.89273782858957E-02 
867	 2.87253121174167E-02 
868	 2.83250758747812E-02 
869	 2.77148770384282E-02 
870	 2.76404243945188E-02 
871	 2.76352824719047E-02 
872	 2.71208158571115E-02 
873	 2.61043296254266E-02 
874	 2.59228118704995E-02 
875	 2.55727450255228E-02 
876	 2.50320861828497E-02 
877	 2.45545664169211E-02 
878	 2.42333814372404E-02 
879	 0.023858555643835 
880	 2.33776447575767E-02 
881	 2.28436075885952E-02 
882	 2.23698376365645E-02 
883	 2.18865491408122E-02 
884	 2.15357534694205E-02 
885	 2.14924199824574E-02 
886	 2.08366122773918E-02 
887	 2.00656045925194E-02 
888	 1.96145347622103E-02 
889	 1.95810132640695E-02 
890	 1.90872785982431E-02 
891	 1.88403222401664E-02 
892	 1.90263899437817E-02 
893	 1.84256881832657E-02 
894	 1.77369460142024E-02 
895	 1.74253646493089E-02 
896	 1.74980494245387E-02 
897	 1.68521953401079E-02 
898	 0.016218065074292 
899	 1.58983989842327E-02 
900	 1.58604444455256E-02 
901	 1.55842383042764E-02 
902	 1.53380090546876E-02 
903	 1.49704575150845E-02 
904	 1.43476644232279E-02 
905	 1.42696042381047E-02 
906	 1.38834983712172E-02 
907	 1.32478585926312E-02 
908	 1.29857764032298E-02 
909	 1.25345673690585E-02 
910	 1.20410990506305E-02 
911	 1.14669752082296E-02 
912	 0.010666266407945 
913	 1.04973443818809E-02 
914	 1.03520975256891E-02 
915	 9.70568582459197E-03 
916	 8.50560088102836E-03 
917	 8.30361097094728E-03 
918	 7.90369736903357E-03 
919	 7.1386802733694E-03 
920	 7.73673042185671E-03 
921	 6.99499901646865E-03 
922	 5.98270156580595E-03 
923	 5.6649021747078E-03 
924	 5.21307582037855E-03 
925	 4.54101289556498E-03 
926	 3.35129490605509E-03 
927	 1.93317529796221E-03 
928	 2.68154136096503E-03 
929	 1.60821109806261E-03 
930	 1.13770908671788E-04 
931	 1.03606952529019E-03 
932	-5.44398215401577E-04 
933	-9.89975243407663E-04 
934	-1.0032867737465E-03 
935	-2.12293995695189E-03 
936	-9.57249431076977E-05 
937	-1.71713431880014E-03 
938	-3.68582083940938E-03 
939	-1.61422525614315E-03 
940	-1.07903476380408E-03 
941	-1.59460141330832E-03 
942	-2.65044902468224E-03 
943	-3.52166131226088E-03 
944	-2.71924621775986E-03 
945	-2.84383150180922E-03 
946	-3.36174089436427E-03 
947	-2.56375627795566E-03 
948	-4.89465616629032E-03 
949	-5.97189116918469E-03 
950	-4.77623888144622E-03 
951	-3.20888836868367E-03 
952	-3.80260512315711E-03 
953	-3.74149018393809E-03 
954	-3.61399548725468E-03 
955	-5.67427406544098E-03 
956	-3.77665970867626E-03 
957	-3.47544290480558E-03 
958	-3.97133127079971E-03 
959	-5.64605379437289E-04 
960	-1.59144016046262E-03 
961	-3.00214874892233E-03 
962	-2.76871145098307E-03 
963	-1.82299348778356E-03 
964	-2.66750469523507E-03 
965	-2.53882687178937E-03 
966	-8.85172720343041E-04 
967	 4.42463474957652E-04 
968	-1.31155295177491E-03 
969	-2.56663517152748E-03 
970	-2.49098536698121E-03 
971	-3.09908237203988E-03 
972	-3.09853167920006E-03 
973	-0.003274937132502 
974	-3.10085405741446E-03 
975	-1.21959843921814E-03 
976	-1.81856832038453E-03 
977	-2.67771444410302E-03 
978	-2.77889897027582E-03 
979	-2.96435282583255E-03 
980	-3.54911780091317E-03 
981	-2.97392134590629E-03 
982	-2.30245189065979E-03 
983	-4.03610848752086E-03 
984	-3.05971914589701E-03 
985	-2.85556341728849E-03 
986	-3.27999774913704E-03 
987	-1.51808936774258E-03 
988	-3.44933033405709E-03 
989	-3.47792688679254E-03 
990	-1.87928548795647E-03 
991	-3.29453885677696E-03 
992	-3.58368890024463E-03 
993	-2.54496012480636E-03 
994	-1.56619066140897E-03 
995	-2.35324457810788E-03 
996	-2.96444280115143E-03 
997	-3.75711737488927E-03 
998	-4.04554561687266E-03 
999	-3.09888744579244E-03 
1000	-3.93799410982537E-03 
1001	 0.001207409809614 
1002	 1.01528046839043E-03 
1003	 9.15187828274886E-04 
1004	 7.02714008384132E-04 
1005	 6.35038597220966E-04 
1006	 6.21350429407479E-04 
1007	 7.40149152291117E-04 
1008	 9.15725539271869E-04 
1009	 1.12876334613364E-03 
1010	 1.27054437614614E-03 
1011	 1.30535686217805E-03 
1012	 1.30850803539326E-03 
1013	 1.23485852357699E-03 
1014	 1.20530174599759E-03 
1015	 1.29671977507865E-03 
1016	 1.18866135953633E-03 
1017	 8.48358766650567E-04 
1018	 7.85996077158058E-04 
1019	 7.01682329984684E-04 
1020	 7.77934667592364E-04 
1021	 1.24441137409754E-03 
1022	 1.38285497921956E-03 
1023	 1.43651881091326E-03 
1024	 1.46189612806839E-03 
1025	 1.02513469879556E-03 
1026	 8.96772982019605E-04 
1027	 9.88673973502006E-04 
1028	 1.19840544264142E-03 
1029	 1.33356352830267E-03 
1030	 1.82428446423273E-03 
1031	 1.96834634146622E-03 
1032	 1.91177442105033E-03 
1033	 1.88976116435273E-03 
1034	 1.71260363957982E-03 
1035	 1.66295079870197E-03 
1036	 1.70843911707034E-03 
1037	 1.55052343911972E-03 
1038	 1.22363663238639E-03 
1039	 1.1929113743645E-03 
1040	 8.42732203331542E-04 
1041	 7.33383064743976E-04 
1042	 7.9411829674454E-04 
1043	 1.10392903798237E-03 
1044	 1.36781015800986E-03 
1045	 1.86831661195637E-03 
1046	 2.0295708251852E-03 
1047	 2.18925648310691E-03 
1048	 2.14731941882403E-03 
1049	 1.61676528732633E-03 
1050	 1.54614526264883E-03 
1051	 1.65625885667706E-03 
1052	 1.69146893833421E-03 
1053	 1.96096279907108E-03 
1054	 2.08918436738751E-03 
1055	 2.00559706054946E-03 
1056	 2.01382778240854E-03 
1057	 2.05185062107489E-03 
1058	 2.13147865936191E-03 
1059	 2.20993540944092E-03 
1060	 2.27844517030962E-03 
1061	 2.44058309342967E-03 
1062	 2.79947058152403E-03 
1063	 0.002826820088132 
1064	 2.70451157409134E-03 
1065	 2.68792390348329E-03 
1066	 2.40932087677054E-03 
1067	 2.38502694471363E-03 
1068	 2.63373048739219E-03 
1069	 2.78666339310652E-03 
1070	 3.18974998818593E-03 
1071	 3.1919215155006E-03 
1072	 2.75712878575841E-03 
1073	 2.61701866283797E-03 
1074	 2.54932164246077E-03 
1075	 2.30113023032532E-03 
1076	 2.28362288156619E-03 
1077	 2.73920442942841E-03 
1078	 2.74641898452279E-03 
1079	 2.48523293660898E-03 
1080	 2.39744051952221E-03 
1081	 2.18089285997487E-03 
1082	 2.13051774619331E-03 
1083	 2.26025083407257E-03 
1084	 2.29058431376711E-03 
1085	 2.52794967479784E-03 
1086	 2.5064174797281E-03 
1087	 2.15591571285869E-03 
1088	 1.98969348528855E-03 
1089	 1.8918761850398E-03 
1090	 1.45738460147559E-03 
1091	 1.42652991060937E-03 
1092	 1.75195934668234E-03 
1093	 1.86257789062048E-03 
1094	 2.03696523747342E-03 
1095	 2.03717383788477E-03 
1096	 1.86141236648601E-03 
1097	 1.73062673241031E-03 
1098	 1.45902914555614E-03 
1099	 1.46433187669702E-03 
1100	 1.78463336932016E-03 
1101	 1.74903893523654E-03 
1102	 1.49945006227878E-03 
1103	 0.001493407540244 
1104	 1.36605788472412E-03 
1105	 1.41503602638436E-03 
1106	 1.60167911519253E-03 
1107	 1.59579099890932E-03 
1108	 1.55274488996463E-03 
1109	 1.71525754565377E-03 
1110	 1.8246597019869E-03 
1111	 2.2759620700743E-03 
1112	 2.42904254882295E-03 
1113	 2.3963680570194E-03 
1114	 1.9873526838406E-03 
1115	 9.83378910182606E-04 
1116	 6.4552955340598E-04 
1117	 1.84457595434863E-05 
1118	-9.63885350948776E-05 
1119	 1.28496763581852E-03 
1120	 1.7713009374699E-03 
1121	 1.97717031293917E-03 
1122	 2.08964112372372E-03 
1123	 1.26513873076832E-03 
1124	 4.5561004811421E-04 
1125	 2.44014392884117E-04 
1126	 6.43626641884409E-04 
1127	 1.69359477025755E-03 
1128	 2.67772967066122E-03 
1129	 2.62710125603523E-03 
1130	 1.36770396798845E-03 
1131	 1.11120023384941E-03 
1132	 7.81237548015673E-04 
1133	 6.54313723844777E-04 
1134	 1.34739578029346E-03 
1135	 1.5743184660829E-03 
1136	 1.17806727924002E-03 
1137	 9.57276320730564E-04 
1138	 7.77690500539531E-04 
1139	 7.67277073033395E-04 
1140	 3.61890086819879E-04 
1141	 8.86796736299769E-04 
1142	 1.01655301334362E-03 
1143	 1.10557357832461E-04 
1144	 5.12555318859992E-05 
1145	 7.70842196652722E-04 
1146	 1.39994167130252E-03 
1147	 1.72184619410838E-03 
1148	 1.45330602727288E-03 
1149	 5.2725007250697E-04 
1150	 3.68646592043065E-04 
1151	 7.02478757646689E-04 
1152	 9.10917793962937E-04 
1153	 1.31451421504053E-03 
1154	 1.43379831058327E-03 
1155	 1.50826795105637E-03 
1156	 1.30936043262783E-03 
1157	 7.57131021504841E-04 
1158	 6.03595091051312E-04 
1159	 5.12191485090336E-04 
1160	 3.44977677538533E-04 
1161	 7.94549911906605E-04 
1162	 1.16206303824712E-03 
1163	 1.11806844772163E-03 
1164	 1.05712004588988E-03 
1165	 8.14783719639169E-04 
1166	 7.54538066536034E-04 
1167	 9.60101732542251E-04 
1168	 9.68150021207695E-04 
1169	 9.93798598680283E-04 
1170	 1.1297167209718E-03 
1171	 1.08423842988918E-03 
1172	 7.97353447876547E-04 
1173	 8.02698519188835E-04 
1174	 9.25760269201635E-04 
1175	 8.81016202695778E-04 
1176	 8.26596493987916E-04 
1177	 1.08295083517011E-03 
1178	 1.15173205743467E-03 
1179	 9.75898965077185E-04 
1180	 9.66981081607325E-04 
1181	 9.2529484559067E-04 
1182	 8.49459113810785E-04 
1183	 9.14716624253031E-04 
1184	 1.06039021950336E-03 
1185	 1.10685841762101E-03 
1186	 9.78744446025415E-04 
1187	 8.82091976313127E-04 
1188	 8.3403742849646E-04 
1189	 1.00771500160283E-03 
1190	 1.12633171028007E-03 
1191	 9.66992020671305E-04 
1192	 9.4258497747833E-04 
1193	 9.08867690759757E-04 
1194	 7.60793830352721E-04 
1195	 7.87575900685035E-04 
1196	 1.07760785796801E-03 
1197	 1.12090201637606E-03 
1198	 1.01240582645813E-03 
1199	 1.05052816888421E-03 
1200	 1.12835447962021E-03 
1201	 1.18626230793824E-03 
1202	 1.28912874367369E-03 
1203	 1.20817508503551E-03 
1204	 1.03446802839067E-03 
1205	 1.00526975689419E-03 
1206	 1.02924897588113E-03 
1207	 1.04889165571753E-03 
1208	 1.06899682786068E-03 
1209	 1.03659030044347E-03 
1210	 1.12964058022509E-03 
1211	 1.1341520345139E-03 
1212	 9.31402901401475E-04 
1213	 0.00102145471286 
1214	 9.86945840007308E-04 
1215	 8.12630253446707E-04 
1216	 6.9167495238689E-04 
1217	 9.52598453370947E-04 
1218	 6.89390079436412E-04 
1219	 4.82434236163728E-04 
1220	 8.2991657069266E-04 
1221	 8.80878601676311E-04 
1222	 8.82782943914439E-04 
1223	 1.00268761855703E-03 
1224	 8.53597967533935E-04 
1225	 6.84423303815436E-04 
1226	 7.13088258244851E-04 
1227	 8.4589940969826E-04 
1228	 8.98272460441868E-04 
1229	 8.34331172834429E-04 
1230	 8.60748234183889E-04 
1231	 9.71097139011802E-04 
1232	 9.3375828905534E-04 
1233	 8.79990545979734E-04 
1234	 9.92070976763878E-04 
1235	 1.04083973519225E-03 
1236	 9.7131156036775E-04 
1237	 1.01371964838412E-03 
1238	 1.18748627896483E-03 
1239	 1.27288209226687E-03 
1240	 1.05097358626433E-03 
1241	 9.68673451098032E-04 
1242	 1.05643621851382E-03 
1243	 0.000818597528894 
1244	 6.99314407579252E-04 
1245	 9.11881321773587E-04 
1246	 9.35073962888888E-04 
1247	 9.76631099844714E-04 
1248	 1.15263646566863E-03 
1249	 1.17573411253688E-03 
1250	 9.6982439850671E-04 
1251	 8.21289851903513E-04 
1252	 9.75261180152822E-04 
1253	 1.14719635548084E-03 
1254	 1.15611911113051E-03 
1255	 1.0942583620036E-03 
1256	 1.12196792173015E-03 
1257	 1.05032554745154E-03 
1258	 9.46769762137056E-04 
1259	 8.91694580983803E-04 
1260	 9.38989995132688E-04 
1261	 9.48988671158711E-04 
1262	 9.469644542431E-04 
1263	 1.04084706678716E-03 
1264	 1.24678493622883E-03 
1265	 1.31875433816452E-03 
1266	 1.0274974223932E-03 
1267	 1.00988033672576E-03 
1268	 1.20738998438004E-03 
1269	 1.1912721095596E-03 
1270	 1.12840279692923E-03 
1271	 1.07536850443656E-03 
1272	 1.03776789985884E-03 
1273	 1.01815718779986E-03 
1274	 1.05229560846727E-03 
1275	 1.17424712511113E-03 
1276	 1.14487854874385E-03 
1277	 9.04207807378497E-04 
1278	 7.26869561482769E-04 
1279	 7.15873529147913E-04 
1280	 8.56393451804339E-04 
1281	 9.36394694091931E-04 
1282	 1.23281835766318E-03 
1283	 1.29723659529436E-03 
1284	 1.1353418169294E-03 
1285	 1.09269378036475E-03 
1286	 1.06821740924417E-03 
1287	 1.11222439594294E-03 
1288	 1.26385714471502E-03 
1289	 1.18470612106228E-03 
1290	 9.52251104376833E-04 
1291	 8.92427435864477E-04 
1292	 8.4266366105052E-04 
1293	 8.29467033894136E-04 
1294	 8.28121332950491E-04 
1295	 9.388422856913E-04 
1296	 1.07448594827926E-03 
1297	 1.05068387590079E-03 
1298	 1.11236432734248E-03 
1299	 1.15095393136334E-03 
1300	 9.60137098168938E-04 
1301	 1.05496527020142E-03 
1302	 1.29806568523403E-03 
1303	 1.29629656861648E-03 
1304	 1.43367721598873E-03 
1305	 1.39127264357908E-03 
1306	 1.15887653117644E-03 
1307	 6.90588376801047E-04 
1308	 6.66103633274119E-04 
1309	 6.69825012401654E-04 
1310	 5.77354452678811E-04 
1311	 6.84114638743332E-04 
1312	 9.30305039489893E-04 
1313	 1.22578971213904E-03 
1314	 1.14604008751519E-03 
1315	 1.12774047934469E-03 
1316	 1.21847850653632E-03 
1317	 8.59183016502942E-04 
1318	 6.30827160000635E-04 
1319	 7.64291053790311E-04 
1320	 9.18775374206699E-04 
1321	 9.83295732415872E-04 
1322	 9.28208986822232E-04 
1323	 1.05114729459313E-03 
1324	 1.04640927054133E-03 
1325	 8.45219959979625E-04 
1326	 7.22604752399502E-04 
1327	 7.9870021532661E-04 
1328	 9.34372898066528E-04 
1329	 9.78420863809366E-04 
1330	 8.11550400953527E-04 
1331	 5.99376959206208E-04 
1332	 7.53530907294674E-04 
1333	 7.69900882951014E-04 
1334	 4.41068784951744E-04 
1335	 6.04901857784508E-04 
1336	 1.41883197815903E-03 
1337	 1.4536164673805E-03 
1338	 1.00010708921779E-03 
1339	 1.23603601805961E-03 
1340	 1.59740941006781E-03 
1341	 1.4375594970733E-03 
1342	 1.43471531619731E-03 
1343	 1.81635829091586E-03 
1344	 1.91552437942166E-03 
1345	 1.82420969267582E-03 
1346	 2.28261867622481E-03 
1347	 2.68982149251154E-03 
1348	 2.44368554862239E-03 
1349	 2.12092768832105E-03 
1350	 1.94887555308112E-03 
1351	 2.92650517809712E-03 
1352	 3.2294307688114E-03 
1353	 3.87129977554551E-03 
1354	 8.50083341296485E-03 
1355	 0.021394747062612 
1356	 0.022237971099638 
1357	 1.48777749149669E-02 
1358	-3.65699108051095E-02 
1359	-7.99748578762981E-02 
1360	-4.91339364282725E-02 
1361	-6.10703058832569E-02 
1362	-5.51443571388216E-03 
1363	 5.70746683528281E-02 
1364	 2.40005891117474E-03 
1365	 2.06842870410071E-02 
1366	 5.54121243777223E-02 
1367	-2.63516974464488E-02 
1368	-3.56229398342863E-02 
1369	-4.17976852207569E-02 
1370	-0.024130843497168 
1371	 2.83096321840921E-02 
1372	 6.90957531779525E-02 
1373	 0.133907102884319 
1374	 0.121876066661004 
1375	 6.54943276388505E-02 
1376	 5.40885324458966E-02 
1377	 1.79394849741712E-02 
1378	-1.21159075978742E-02 
1379	-9.38458109857249E-03 
1380	-2.40308625333086E-02 
1381	-8.09715997187094E-02 
1382	-9.14481890124672E-02 
1383	-9.91039480395374E-02 
1384	-5.95582807159709E-02 
1385	 5.38448972600126E-02 
1386	 6.89728504690595E-02 
1387	 0.03893136636301 
1388	 4.46772789560478E-02 
1389	 5.56428299454437E-02 
1390	 5.51909351376069E-02 
1391	 0.118286558753084 
1392	 0.050810545123392 
1393	-6.00832465736718E-02 
1394	-0.145602503626143 
1395	-0.069697261227615 
1396	 2.41180065621694E-02 
1397	 5.37833655596373E-02 
1398	 0.102523003412979 
1399	 5.10493081371422E-02 
1400	-2.16639675473379E-02 
1401	 2.34688372434717E-02 
1402	 0.058218260789218 
1403	 3.51977224077085E-02 
1404	 3.89494297071977E-03 
1405	 1.46577189698878E-02 
1406	 3.75342578921877E-02 
1407	 2.38120221033813E-02 
1408	 1.36230043477147E-02 
1409	 1.36971199113348E-02 
1410	-9.33507357997937E-04 
1411	-6.02115775207766E-03 
1412	 2.91581736534133E-03 
1413	 7.00853266904056E-03 
1414	 6.37108585162484E-03 
1415	 2.16127617218693E-03 
1416	-2.43703827807958E-03 
1417	 1.38156911147268E-03 
1418	 6.1806314736616E-03 
1419	 3.43437141082826E-03 
1420	 2.58774728636462E-03 
1421	 3.65428268992851E-03 
1422	 3.94402619489058E-04 
1423	-1.4349608419377E-03 
1424	 7.90226135010012E-04 
1425	 1.48865816778509E-03 
1426	-1.39542284887337E-03 
1427	-1.83856894212795E-03 
1428	 1.88117657533554E-03 
1429	 1.79164718228058E-03 
1430	-2.15462275689426E-03 
1431	-2.17626606380592E-03 
1432	-1.17824009455829E-03 
1433	-8.94629096808632E-04 
1434	 1.94975295253728E-03 
1435	 3.3523961363997E-03 
1436	 3.70156134721799E-03 
1437	 2.95151907841835E-03 
1438	 1.94055851961686E-03 
1439	 1.70363046319664E-03 
1440	 2.36660762225955E-03 
1441	 1.79146463666217E-03 
1442	 7.06464092686895E-04 
1443	 1.32266061472031E-04 
1444	 5.48139488366945E-04 
1445	 5.57767349105478E-04 
1446	 3.20381880161673E-05 
1447	 1.07886785862214E-03 
1448	 2.18679205354274E-03 
1449	 1.74841980063436E-03 
1450	 0.001325000052057 
1451	 1.16147951408996E-03 
1452	 8.80641854731691E-04 
1453	 1.17766750822263E-03 
1454	 7.66711688318737E-04 
1455	 7.1697649063637E-04 
1456	 6.47977068851307E-04 
1457	-1.36496406920604E-04 
1458	-1.74081822026887E-04 
1459	 6.49577106400915E-04 
1460	 8.62194492738846E-04 
1461	 6.88022532339191E-04 
1462	 8.18200364113349E-04 
1463	 1.38098587297174E-03 
1464	 1.24032808166548E-03 
1465	 5.22005336747763E-04 
1466	 5.77182032419002E-04 
1467	 5.2824682041829E-04 
1468	 4.94037619287088E-04 
1469	 1.17060037673852E-03 
1470	 1.49332673331126E-03 
1471	 1.40099102077091E-03 
1472	 1.32406212998069E-03 
1473	 1.66728134722177E-03 
1474	 1.62266188507446E-03 
1475	 7.04772355139671E-04 
1476	 4.85918175488485E-04 
1477	 8.7109833849389E-04 
1478	 7.85279113910336E-04 
1479	 4.55922390184664E-04 
1480	 5.05962250478665E-04 
1481	 6.97650350767839E-04 
1482	 6.55113868834937E-04 
1483	 6.18024664511533E-04 
1484	 6.21569987528976E-04 
1485	 5.37644848603697E-04 
1486	 5.57744419143964E-04 
1487	 6.82681414780034E-04 
1488	 6.9409416161001E-04 
1489	 7.50650943432121E-04 
1490	 6.77112692816303E-04 
1491	 2.65519225220924E-04 
1492	 3.12087957512091E-04 
1493	 7.94300586577969E-04 
1494	 8.42869335594435E-04 
1495	 7.15086429121201E-04 
1496	 7.62157784475253E-04 
1497	 7.29493044269569E-04 
1498	 6.57396346643422E-04 
1499	 6.20295103581007E-04 
1500	 8.1483800681656E-04 
1501	 1.28372300948203E-03 
1502	 1.22624783833746E-03 
1503	 8.19695564107309E-04 
1504	 9.00779754765832E-04 
1505	 1.20033317307916E-03 
1506	 9.12213506660153E-04 
1507	 7.91715206927192E-04 
1508	 9.51777123814781E-04 
1509	 7.1365354068315E-04 
1510	 5.44824100409079E-04 
1511	 8.48001400491432E-04 
1512	 9.62059801143626E-04 
1513	 8.42271581304987E-04 
1514	 8.98209600429113E-04 
1515	 9.16440348881869E-04 
1516	 8.82507035724295E-04 
1517	 9.80742792423025E-04 
1518	 1.02861660732352E-03 
1519	 1.10248802124599E-03 
1520	 1.09427876082071E-03 
1521	 8.42916984698532E-04 
1522	 7.89734852725934E-04 
1523	 9.32871140649308E-04 
1524	 8.90232181891967E-04 
1525	 8.59956874901526E-04 
1526	 9.51772579409131E-04 
1527	 9.90519138199414E-04 
1528	 1.0502519300705E-03 
1529	 1.08262184322458E-03 
1530	 1.06298166481586E-03 
1531	 9.55745246055674E-04 
1532	 7.97505003644513E-04 
1533	 8.68311174147106E-04 
1534	 9.9498720982206E-04 
1535	 8.60845284995296E-04 
1536	 7.53394551558444E-04 
1537	 9.78543329978031E-04 
1538	 1.08726909188212E-03 
1539	 7.31523731653591E-04 
1540	 5.33327331426212E-04 
1541	 6.42235558903897E-04 
1542	 5.50053613455875E-04 
1543	 5.45645499904995E-04 
1544	 8.54643335802591E-04 
1545	 9.95943728538537E-04 
1546	 7.44207202584079E-04 
1547	 6.31691811623044E-04 
1548	 8.4909334087983E-04 
1549	 8.36809778434105E-04 
1550	 7.76100527349946E-04 
1551	 9.22594827485743E-04 
1552	 9.58104978707417E-04 
1553	 9.60393734334055E-04 
1554	 9.36496432959207E-04 
1555	 9.64167039709847E-04 
1556	 8.65472872681592E-04 
1557	 4.01841039349228E-04 
1558	 2.53010545647514E-04 
1559	 3.09806074866255E-04 
1560	 2.75621985236668E-04 
1561	 5.87771567459566E-04 
1562	 8.73958779670719E-04 
1563	 8.23781986980644E-04 
1564	 8.54719172501672E-04 
1565	 9.82448822881962E-04 
1566	 1.01097496025248E-03 
1567	 8.38051639090284E-04 
1568	 6.1952332405693E-04 
1569	 7.1198023923661E-04 
1570	 8.02245415899388E-04 
1571	 7.92293300016029E-04 
1572	 9.53759138528252E-04 
1573	 8.91587134443805E-04 
1574	 6.81267217906265E-04 
1575	 6.94303542830357E-04 
1576	 6.51509419730963E-04 
1577	 6.47066004223258E-04 
1578	 8.11797876407023E-04 
1579	 9.03358821010806E-04 
1580	 8.28987177040704E-04 
1581	 6.87638955111073E-04 
1582	 5.92055761085078E-04 
1583	 4.32631881163364E-04 
1584	 5.41241297502345E-04 
1585	 8.93094651973739E-04 
1586	 8.37486505082278E-04 
1587	 6.44351343187959E-04 
1588	 7.45980202267917E-04 
1589	 8.92165734075532E-04 
1590	 8.02015874017071E-04 
1591	 6.85716099051431E-04 
1592	 7.81428045008531E-04 
1593	 6.76465930934987E-04 
1594	 4.76839975278162E-04 
1595	 7.7396897100886E-04 
1596	 1.02204146718848E-03 
1597	 8.69241782657571E-04 
1598	 8.59781776999386E-04 
1599	 7.90172573394254E-04 
1600	 4.95048218074657E-04 
1601	 5.37271579912113E-04 
1602	 7.27768499826843E-04 
1603	 6.27996301386311E-04 
1604	 7.27747553086232E-04 
1605	 9.27788547310885E-04 
1606	 8.05314309943044E-04 
1607	 5.25209769438922E-04 
1608	 1.90237341893031E-04 
1609	 4.15204051456341E-04 
1610	 7.4346616033702E-04 
1611	 6.50102358815602E-04 
1612	 9.190877209628E-04 
1613	 1.07089113423476E-03 
1614	 7.46286366762768E-04 
1615	 6.26532755138145E-04 
1616	 7.64304058050894E-04 
1617	 5.85650531895784E-04 
1618	 4.12233855812476E-04 
1619	 8.45401646976327E-04 
1620	 9.88572585874236E-04 
1621	 7.28148173024627E-04 
1622	 7.52426478462205E-04 
1623	 7.13329844685294E-04 
1624	 5.29565950674454E-04 
1625	 5.9032771927481E-04 
1626	 7.71209528543931E-04 
1627	 6.66505372360114E-04 
1628	 6.16093573132301E-04 
1629	 7.20811896975859E-04 
1630	 4.50899538699366E-04 
1631	 2.85678696439525E-04 
1632	 5.46902754566339E-04 
1633	 6.33154430053918E-04 
1634	 5.47730366718949E-04 
1635	 6.97897540317206E-04 
1636	 9.10695677398589E-04 
1637	 8.6268836742747E-04 
1638	 7.24757121060841E-04 
1639	 8.13188367454139E-04 
1640	 1.04312553292965E-03 
1641	 1.04705128092183E-03 
1642	 8.51024323167945E-04 
1643	 8.7234172024021E-04 
1644	 8.89321350252084E-04 
1645	 6.49839189503588E-04 
1646	 8.05975641587003E-04 
1647	 1.03066801716892E-03 
1648	 4.76435047205606E-04 
1649	 5.2685538870322E-05 
1650	 3.11327905723178E-04 
1651	 5.71703615930436E-04 
1652	 7.31746501989093E-04 
1653	 8.28966046156694E-04 
1654	 1.05474046462841E-03 
1655	 9.9569833509117E-04 
1656	 8.71320731650153E-04 
1657	 1.15090897637854E-03 
1658	 1.23685774920985E-03 
1659	 8.04874960725145E-04 
1660	 6.90722584352705E-04 
1661	 9.32750694288595E-04 
1662	 8.98701375376859E-04 
1663	 6.2632233813142E-04 
1664	 5.72674179781343E-04 
1665	 5.15195485200601E-04 
1666	 5.67601177216369E-04 
1667	 9.8057896828477E-04 
1668	 8.53557080055739E-04 
1669	 6.09154976779738E-04 
1670	 3.92920943167613E-04 
1671	 4.34288254069257E-04 
1672	 4.06661396036378E-04 
1673	 4.23471823741134E-04 
1674	 1.07468060911762E-03 
1675	 1.20580083716971E-03 
1676	 8.14088315516896E-04 
1677	 8.28167579831793E-04 
1678	 7.34201996500493E-04 
1679	 7.23969312377303E-04 
1680	 1.05956263392626E-03 
1681	 1.24528117069812E-03 
1682	 1.16727968545576E-03 
1683	 1.12692918280619E-03 
1684	 1.27625297515189E-03 
1685	 1.17470563032224E-03 
1686	 7.7057358576591E-04 
1687	 4.27908855228211E-04 
1688	 3.71596492429518E-04 
1689	 6.79431045734025E-04 
1690	 9.41360415935646E-04 
1691	 8.0034763314352E-04 
1692	 6.28762466238295E-04 
1693	 7.43267403821619E-04 
1694	 5.28955020980645E-04 
1695	 1.13605593923871E-04 
1696	 2.45673777724498E-04 
1697	 4.36734507332419E-04 
1698	 6.45969005342445E-04 
1699	 1.1890594327519E-03 
1700	 1.40466416881997E-03 
1701	 1.11584592703767E-03 
1702	 7.00305884814941E-04 
1703	 6.36326056315102E-04 
1704	 8.06002634794501E-04 
1705	 7.06483174612743E-04 
1706	 9.20934011753652E-04 
1707	 1.31400201793679E-03 
1708	 1.22097388379728E-03 
1709	 9.85221373791347E-04 
1710	 8.62861549451576E-04 
1711	 6.15370644199952E-04 
1712	 8.33760233504005E-05 
1713	 8.62929155132894E-05 
1714	 1.80818055621954E-04 
1715	 7.14231984225256E-04 
1716	 8.74998072900824E-04 
1717	 6.30753660901676E-04 
1718	 6.65648220415652E-04 
1719	 6.33980171928942E-04 
1720	 5.74084258735243E-04 
1721	 1.00333366609258E-03 
1722	 8.92902812641448E-04 
1723	 4.13819287190917E-04 
1724	 4.69670617177099E-04 
1725	 2.70645302303442E-04 
1726	 2.26946236287386E-04 
1727	 7.42168661634994E-04 
1728	 6.45738533632356E-04 
1729	 1.44269585016799E-04 
1730	 5.15505157756415E-04 
1731	 1.10423559143304E-03 
1732	 1.31656469396879E-03 
1733	 1.76138032740018E-03 
1734	 1.4646101797903E-03 
1735	 7.32592812877974E-04 
1736	 1.12303575267078E-03 
1737	 1.67969296189076E-03 
1738	 1.48738062334013E-03 
1739	 1.07374929321793E-03 
1740	 7.25666400754212E-04 
1741	 5.37485716542332E-04 
1742	 6.47626202396275E-04 
1743	 7.23361128545558E-04 
1744	 2.60210489380113E-04 
1745	-6.28608810816894E-05 
1746	 1.26700224224242E-03 
1747	 1.58043727553091E-03 
1748	 1.54890932961835E-03 
1749	 1.49539100488718E-03 
1750	 6.09465996346891E-04 
1751	 4.57904897000014E-04 
1752	 1.20500283075997E-03 
1753	 1.3691011237881E-03 
1754	 1.30520060889959E-03 
1755	 1.21892141304434E-03 
1756	 6.6497040560153E-04 
1757	 7.91171674491557E-04 
1758	 1.16696743547867E-03 
1759	 4.6448234701663E-04 
1760	 2.18272535632711E-04 
1761	 5.56660542528436E-04 
1762	 5.38523221749081E-04 
1763	 8.52311386705255E-04 
1764	 1.36359963613089E-03 
1765	 1.30226069028192E-03 
1766	 1.02759141152062E-03 
1767	 1.2279127642662E-03 
1768	 1.36588887391317E-03 
1769	 9.35673486742462E-04 
1770	 8.12821457118905E-04 
1771	 4.14591125952233E-04 
1772	-6.40661601880576E-05 
1773	 6.32381226120454E-04 
1774	 2.47302126244727E-04 
1775	-4.40948421763682E-04 
1776	-0.000135627436442 
1777	 4.65314609526946E-04 
1778	 4.64529881525421E-04 
1779	 1.05392904475625E-03 
1780	 1.30743645267363E-03 
1781	 3.81646967520801E-05 
1782	 1.11980204040411E-04 
1783	 1.79066266432318E-03 
1784	 1.78654649136292E-03 
1785	 1.1631054552124E-03 
1786	 1.31829854770743E-03 
1787	 1.10461453749656E-03 
1788	 8.36461281123231E-04 
1789	 9.97549932085069E-04 
1790	 3.63796693852469E-04 
1791	-1.99756905996706E-04 
1792	 4.28020921853693E-04 
1793	 1.29449968298425E-03 
1794	 1.72813265102578E-03 
1795	 2.98694873965563E-03 
1796	 2.23101026344384E-03 
1797	 6.44618134322661E-04 
1798	-8.84201024499905E-05 
1799	-1.90393126510608E-03 
1800	-1.00990851892525E-03 
1801	-5.68075170092006E-04 
1802	-8.91584148580651E-05 
1803	-7.5232736093059E-04 
1804	-3.56009852625631E-03 
1805	-3.17518267804742E-03 
1806	 1.90395494990958E-04 
1807	 7.84786686449982E-04 
1808	 2.5582108622273E-03 
1809	 3.83969245055196E-03 
1810	-0.001367870156842 
1811	-7.28831111863541E-04 
1812	 1.13139014146795E-02 
1813	 9.79508972369123E-03 
1814	 1.71316921999781E-04 
1815	-1.37643507169209E-02 
1816	-5.52865781519448E-02 
1817	-0.041714867743157 
1818	-3.37511229039977E-02 
1819	 2.04167969731395E-02 
1820	 0.079929545816542 
1821	 5.77042968300953E-02 
1822	 5.72446858735313E-02 
1823	 1.94136063051465E-02 
1824	-1.64059131063517E-02 
1825	-5.10852641776686E-02 
1826	-5.55477298612512E-02 
1827	-5.09373319930809E-02 
1828	-1.41687591778537E-02 
1829	 0.202128452376475 
1830	 0.303446235440833 
1831	-4.11186005404757E-02 
1832	-6.66954782580416E-03 
1833	-0.102704698371101 
1834	-0.166256729119882 
1835	-0.180554719495776 
1836	-0.626424894664836 
1837	-1.79339191345084 
1838	-2.42391976280066 
1839	-1.98106336208878 
1840	-1.91512626375361 
1841	-1.18937055976136 
1842	-0.440925052586227 
1843	 0.412100904184407 
1844	 3.01386928935685E-02 
1845	 0.261028895757204 
1846	 0.966540670643327 
1847	 11.4735227415974 
1848	-1.39563899038856 
1849	-1.76400938450324 
1850	-0.784066948401349 
1851	-0.349827690783719 
1852	-0.167779964218708 
1853	-0.801427251393182 
1854	-0.836668786840528 
1855	-0.895615016006058 
1856	-1.38369548354365 
1857	-0.769392348463421 
1858	-0.819042556552615 
1859	-1.3974057467783 
1860	 7.2353248569426 
1861	 6.31050591754861 
1862	 3.80719267358757 
1863	 0.948042398056403 
1864	 1.18864680866119 
1865	 2.08895278984197 
1866	 15.7361570931326 
1867	-2.11002864690613 
1868	-0.688649445300975 
1869	-0.620661898580076 
1870	-0.635053447011636 
1871	-1.67030488286611 
1872	 9.72056995428254E-02 
1873	-0.232683146800398 
1874	-0.83494982937992 
1875	-2.46871934503257 
1876	 3.22175740602348 
1877	 1.61515342179225E-02 
1878	-0.114460868164837 
1879	-0.539817025037201 
1880	-0.629483082413649 
1881	-0.604096164501779 
1882	-0.392198027070357 
1883	-0.214260962008874 
1884	-0.367375321220317 
1885	-0.456216851100264 
1886	-0.493567480889205 
1887	-0.501429601762969 
1888	-0.207835943383813 
1889	-0.180565484564088 
1890	-0.324279538291597 
1891	-0.334406800191684 
1892	-0.3124590168595 
1893	-0.192430339665592 
1894	-0.273073688097326 
1895	-0.130928163500658 
1896	-4.82571882127626E-02 
1897	-0.77751666354906 
1898	-1.34378327880407 
1899	-4.11678542966968 
1900	-15.1137068312576 
1901	 0.499324071176329 
1902	 0.340716323640576 
1903	-8.65345251356938E-02 
1904	-0.781143580808625 
1905	-1.31062944745912 
1906	-1.48148188732672 
1907	-2.20252430381101 
1908	-0.418498497204784 
1909	 0.202665958625675 
1910	 0.530966410266521 
1911	 1.3019841435712 
1912	 5.73534791177247 
1913	 4.32107590195514 
1914	 9.85095931958031E-02 
1915	-0.278568161807667 
1916	-0.349984619482759 
1917	-0.190932790291518 
1918	-0.189605456782669 
1919	-0.141311763426628 
1920	-4.22553515165532E-03 
1921	 2.30032793323024E-02 
1922	-2.96103193078438E-02 
1923	 4.15294655157687E-02 
1924	 0.100680174393232 
1925	 3.42076505216556E-02 
1926	 9.73885474663537E-03 
1927	-2.96263594525327E-03 
1928	-3.03239417414711E-02 
1929	-8.76179304330914E-02 
1930	-8.36436429928793E-02 
1931	-6.17834314562853E-02 
1932	-9.18097762878861E-02 
1933	-9.00909802665971E-02 
1934	-6.28136914984305E-02 
1935	-5.89814135256898E-02 
1936	-4.14017609166802E-02 
1937	-3.04673220589417E-02 
1938	-3.58841796857945E-02 
1939	-3.34957867020439E-02 
1940	-3.37203461934295E-02 
1941	-2.54882207915895E-02 
1942	-1.75601722212564E-02 
1943	-1.28900741147882E-02 
1944	-7.46249205284614E-03 
1945	-8.19971837488018E-03 
1946	-7.37149324502126E-03 
1947	-1.01171482912297E-02 
1948	-1.65675246150666E-02 
1949	-1.33322487244093E-02 
1950	-1.02275627348566E-02 
1951	-1.12205328387438E-02 
1952	-9.58219378829174E-03 
1953	-3.03090100838732E-03 
1954	-2.90956121259781E-03 
1955	-9.52106867506273E-03 
1956	-9.13356735095724E-03 
1957	-8.52540218210993E-03 
1958	-8.51749218918649E-03 
1959	-4.7702416728475E-03 
1960	-2.60604928120117E-03 
1961	-1.78298683561569E-04 
1962	-2.49465834717686E-04 
1963	-1.41013931585791E-03 
1964	-1.32018996292061E-03 
1965	-2.80906627125163E-03 
1966	-2.52695336447037E-03 
1967	-1.74135120607297E-03 
1968	-1.51928699502366E-04 
1969	 5.3424139326005E-05 
1970	 1.17103675039711E-04 
1971	-5.23841925798428E-04 
1972	-1.83473111823417E-03 
1973	-2.26054339124846E-03 
1974	-1.26488018281973E-03 
1975	-2.95072051259857E-04 
1976	-2.97067209432839E-04 
1977	 4.78898834245238E-04 
1978	 8.255328918526E-04 
1979	 4.97200227895113E-04 
1980	-3.18899935630079E-04 
1981	-6.83901712528022E-04 
1982	-1.60473248561439E-03 
1983	-1.74135415246759E-03 
1984	-1.15324180035611E-03 
1985	-5.07036518412175E-04 
1986	 2.8784270637243E-04 
1987	 3.175126247478E-04 
1988	-3.22965891131934E-04 
1989	-5.03745385151095E-04 
1990	-6.04014107706155E-05 
1991	-2.06138490686571E-04 
1992	 8.0043561044932E-05 
1993	 3.74649389525771E-04 
1994	 4.06005462178612E-04 
1995	-4.61011814142955E-04 
1996	-1.51103173432201E-04 
1997	 1.08399201593126E-03 
1998	 1.17720097286019E-03 
1999	 2.97803025707288E-04 
2000	 9.47591347760965E-04 
2001	 1.03890354099307E-03 
2002	-1.20712795863749E-04 
2003	 1.56641796186933E-04 
2004	-2.09248269876271E-03 
2005	-5.21865654354425E-03 
2006	-4.63761556197375E-03 
2007	-1.72051412162111E-03 
2008	 1.24284412928895E-03 
2009	 2.78986026735571E-03 
2010	 3.55240793671833E-03 
2011	 4.09118463823078E-03 
2012	 3.39062336251755E-03 
2013	 2.56186071792135E-03 
2014	 4.69013018629657E-03 
2015	 5.08398136404687E-03 
2016	 3.69741430554152E-03 
2017	 1.40875608377478E-03 
2018	-3.24188433149049E-04 
2019	-8.35577486261627E-04 
2020	-6.10729856893687E-04 
2021	 1.79468850501055E-04 
2022	 2.27166704247647E-04 
2023	-6.4656157614519E-04 
2024	-8.39059443453536E-04 
2025	-7.41968728148242E-04 
2026	-4.62319158258083E-04 
2027	 3.21495671352671E-04 
2028	 3.49428989681974E-04 
2029	-3.82468834535463E-04 
2030	-4.96052851158642E-04 
2031	-5.02851199370369E-04 
2032	-9.0527053686733E-04 
2033	-2.34443453431255E-04 
2034	-4.31728851686693E-05 
2035	-8.99702073631752E-04 
2036	-7.47401914143372E-04 
2037	-1.10200832374256E-03 
2038	-1.89897172354627E-03 
2039	-1.78359589010782E-03 
2040	-4.98655090869552E-04 
2041	-6.26230123409026E-04 
2042	-1.06639344909511E-03 
2043	-1.09126003599656E-03 
2044	-1.40565919522775E-03 
2045	-2.72787280504975E-03 
2046	-2.48056947750961E-03 
2047	-1.73115248633281E-03 
2048	-2.13661294246002E-03 
2049	-1.84663652076116E-03 
2050	-1.77828689640601E-03 
2051	-3.18611776323286E-03 
2052	-3.62774734592492E-03 
2053	-2.33862240612946E-03 
2054	-1.61260981730395E-03 
2055	-1.16246018928286E-03 
2056	-9.57443218293413E-04 
2057	-1.95187781705023E-03 
2058	-2.13607002407568E-03 
2059	-1.89817694795148E-03 
2060	-1.70059063022109E-03 
2061	-9.80541980106548E-04 
2062	-6.81122700279355E-04 
2063	-1.21197205433069E-03 
2064	-1.75109233356048E-03 
2065	-2.07362806733392E-03 
2066	-1.92419234887959E-03 
2067	-1.55175635772597E-03 
2068	-6.75733810693083E-04 
2069	 1.14831789033758E-04 
2070	 5.21593259456114E-04 
2071	 1.18994377780986E-03 
2072	 2.00210177438847E-03 
2073	 1.77859833773418E-03 
2074	 7.85437240657504E-04 
2075	 4.55778138181586E-04 
2076	-3.65037937700752E-04 
2077	-1.07944135141474E-03 
2078	-1.48199613392825E-03 
2079	-1.47586278703473E-03 
2080	-1.27634274821292E-03 
2081	-1.81486421755551E-03 
2082	-1.74787098531714E-03 
2083	-7.26235881518297E-04 
2084	-3.44018942064801E-04 
2085	 1.92007939152164E-04 
2086	 9.85040251624928E-04 
2087	 9.29516396443787E-04 
2088	-5.66002104757155E-04 
2089	-1.3236300425783E-03 
2090	-5.56536795151012E-04 
2091	-8.10414000076707E-04 
2092	-8.52225063691205E-04 
2093	 2.08129566151709E-05 
2094	 2.72593482108951E-04 
2095	-6.01349684100203E-04 
2096	-5.7345030703936E-04 
2097	 4.51383887367757E-04 
2098	 4.57750484993828E-04 
2099	-1.79312576801195E-04 
2100	-1.69699560296534E-04 
2101	 1.37671711611795E-04 
2102	-7.30198690134218E-04 
2103	-7.25217736839083E-04 
2104	 3.78641309987225E-05 
2105	 3.42901732734528E-04 
2106	 6.21976749968975E-04 
2107	 3.80731918306613E-04 
2108	 2.33599044927312E-04 
2109	 2.3663885153966E-04 
2110	-2.10758260815195E-04 
2111	-1.01386872448938E-04 
2112	-8.32152209435303E-05 
2113	-2.50021310970039E-04 
2114	-5.03840840873251E-04 
2115	-7.25719428738665E-04 
2116	-1.36429459391726E-03 
2117	-1.34822220112032E-03 
2118	-8.74580525147536E-04 
2119	-8.01304667619688E-04 
2120	-4.99203242408702E-04 
2121	-6.68759601193263E-04 
2122	-2.13371275555489E-04 
2123	 5.59161516441107E-04 
2124	 3.13016607588045E-04 
2125	 6.43181961296195E-04 
2126	 1.06094842720328E-03 
2127	 1.4750670320351E-04 
2128	-2.86407076097527E-04 
2129	-9.45220990450168E-05 
2130	-9.50811068466704E-04 
2131	-1.08346731372675E-03 
2132	-1.79652500797334E-04 
2133	 4.54133324874693E-04 
2134	 6.53564784875119E-04 
2135	 5.16824892692979E-04 
2136	 6.53072361132145E-04 
2137	 5.17078614399532E-04 
2138	 5.13494019372563E-04 
2139	 1.26137289530089E-03 
2140	 1.06473954768615E-03 
2141	-2.27562990963567E-04 
2142	-5.3891950225862E-04 
2143	-5.76003452602885E-04 
2144	-8.884958089963E-04 
2145	-1.11751421972055E-03 
2146	-6.27095682755522E-04 
2147	-7.27417978274652E-04 
2148	-7.84998831027141E-04 
2149	 8.02304722886229E-05 
2150	-2.48531528763345E-04 
2151	 1.41268266570961E-05 
2152	 5.10183541530978E-04 
2153	-2.77538196958274E-04 
2154	-2.83987998292206E-04 
2155	 8.70038728393686E-06 
2156	-4.00387187147406E-04 
2157	-5.82683462483508E-04 
2158	-1.26968542256215E-04 
2159	 1.37289472713006E-04 
2160	 1.74425065474306E-04 
2161	 6.29012748102707E-05 
2162	-2.65010521352314E-05 
2163	-3.7095805707812E-04 
2164	-1.29050331759845E-03 
2165	-1.58648863385029E-03 
2166	-1.86029503082484E-03 
2167	-1.19575897070595E-03 
2168	 7.71942917219061E-04 
2169	 1.13986969715943E-03 
2170	 1.05020789487286E-03 
2171	 1.77346097340925E-03 
2172	 6.53017185368789E-04 
2173	-4.74619069446963E-04 
2174	-4.17045370359478E-04 
2175	-9.97811668207118E-04 
2176	 2.65035657827468E-04 
2177	 6.0900023194992E-04 
2178	-3.80852840967585E-04 
2179	 1.82244824403062E-04 
2180	 1.0727660153677E-04 
2181	 3.17646259565815E-05 
2182	 1.1803869310262E-03 
2183	 2.2840041126192E-03 
2184	 1.48731347356794E-03 
2185	-3.54924995626027E-04 
2186	-1.38567036931924E-03 
2187	-3.70117785278905E-03 
2188	-3.59700646771114E-03 
2189	-7.70758967893887E-04 
2190	-3.22065222253924E-04 
2191	-2.70339560646642E-05 
2192	 6.82491257399511E-05 
2193	-1.59211772475857E-03 
2194	-1.70174348871577E-03 
2195	-5.1057263350143E-04 
2196	-1.59101489077652E-04 
2197	 1.06409068746383E-04 
2198	 5.70008014656009E-04 
2199	 3.51065828770049E-04 
2200	 1.87207557012092E-03 
2201	 3.94757991018182E-03 
2202	 3.76154316969315E-03 
2203	 3.09600970521056E-03 
2204	 2.45171963294427E-03 
2205	 4.30280548533602E-04 
2206	-1.20721827710224E-03 
2207	-2.37873051420999E-03 
2208	-2.45046959881309E-03 
2209	-9.18815083983669E-04 
2210	-4.62095864565884E-04 
2211	 3.27870969166364E-05 
2212	 1.64554156548861E-04 
2213	 3.53254096788224E-04 
2214	 2.55417498763182E-03 
2215	 2.59146070190217E-03 
2216	 2.0169704547413E-03 
2217	 2.46376210543606E-03 
2218	 2.14230724252454E-03 
2219	 1.02334701636175E-03 
2220	 4.54044803657493E-04 
2221	 8.88921747902959E-04 
2222	 9.33741922798831E-04 
2223	 2.68378316291667E-04 
2224	 9.73867138102203E-04 
2225	 6.50661610715357E-04 
2226	-3.31881362078124E-03 
2227	-3.1960023164525E-03 
2228	 8.80271689658021E-04 
2229	 2.18677531943635E-03 
2230	 4.20272555656285E-03 
2231	 4.60018990881062E-03 
2232	 1.42103813069962E-03 
2233	 1.22249319634409E-03 
2234	 2.68877882535061E-03 
2235	 2.83210442772303E-03 
2236	 2.99069008385389E-03 
2237	 0.003922389242404 
2238	 2.32562419738066E-03 
2239	 1.1174461892339E-04 
2240	-3.77459154595431E-04 
2241	-5.64339600660236E-04 
2242	 3.39662339000926E-04 
2243	 1.47626903037566E-03 
2244	 8.81612344254247E-04 
2245	 2.3877238141073E-04 
2246	-1.6268141461734E-03 
2247	-3.13015589310501E-03 
2248	-2.18587054013376E-03 
2249	-1.36356415745139E-03 
2250	-4.32201634555723E-04 
2251	-5.38329284780571E-04 
2252	-1.01797678301742E-03 
2253	-1.40995008084657E-03 
2254	-1.78764191866656E-03 
2255	 6.23356129240074E-04 
2256	 2.70723902679496E-03 
2257	 2.56633805760999E-03 
2258	 1.98252511972275E-03 
2259	 2.77525093907909E-04 
2260	-3.85466562633535E-05 
2261	 1.16034052446854E-03 
2262	 9.75331955536229E-04 
2263	 8.12177847291286E-04 
2264	 7.02179753637889E-04 
2265	-8.45950600086651E-04 
2266	-9.19335981216267E-04 
2267	 1.05878203213574E-03 
2268	 3.71371726621866E-04 
2269	-2.40240801250929E-03 
2270	-3.05064585933614E-03 
2271	-4.06885598059597E-03 
2272	-4.12178866766588E-03 
2273	-9.26941244357251E-04 
2274	-1.39308303748704E-04 
2275	-1.43497167227489E-03 
2276	-1.48709962733008E-03 
2277	-2.13706554458405E-03 
2278	-1.83811775940651E-03 
2279	-2.08165492149474E-04 
2280	 1.19608959791513E-03 
2281	 2.82441689529908E-03 
2282	 4.90105743940092E-03 
2283	 5.96136680658997E-03 
2284	 3.89354577224581E-03 
2285	 2.17865443708445E-03 
2286	 4.62840105644364E-04 
2287	-3.35577766503983E-03 
2288	-6.0131954081315E-03 
2289	-7.19534330289782E-03 
2290	-7.86628533369939E-03 
2291	-6.14396416751517E-03 
2292	-2.11775497026984E-03 
2293	-1.17802293600075E-03 
2294	-2.56615571684526E-03 
2295	-2.26055737350496E-03 
2296	-2.57242869997611E-03 
2297	-1.07540335017713E-03 
2298	 6.26027286932796E-04 
2299	-1.70515290439232E-03 
2300	-3.08051760050991E-03 
2301	-6.46376171587142E-03 
2302	-9.92070787073472E-03 
2303	-8.50956030600046E-03 
2304	-7.27202856701927E-03 
2305	-3.04941314104428E-03 
2306	 1.51149936540796E-03 
2307	 4.30459687162676E-04 
2308	 9.31945548484823E-04 
2309	 1.41719081388348E-03 
2310	-1.70620320682274E-03 
2311	-1.69801009531873E-05 
2312	 1.86227369398411E-03 
2313	-2.89145085949785E-03 
2314	-6.84225802968524E-03 
2315	-9.34162667786487E-03 
2316	-1.26771988218233E-02 
2317	-1.27332408094617E-02 
2318	-6.7254053608344E-03 
2319	 1.0235457682447E-04 
2320	 1.37029862628981E-03 
2321	 8.64718267369688E-04 
2322	 1.10192523872869E-03 
2323	 1.83676464293225E-03 
2324	 6.91155320563099E-04 
2325	-4.47899198606033E-03 
2326	-9.31398154137861E-03 
2327	-1.24691960775907E-02 
2328	-1.16178544608188E-02 
2329	-7.25585354400704E-03 
2330	-4.85745244768048E-03 
2331	-4.83014098802749E-03 
2332	-8.07775678488413E-03 
2333	-8.67314059646128E-03 
2334	-1.14846448969916E-03 
2335	 2.07010768801515E-03 
2336	 2.49395093982785E-03 
2337	 4.70346347390675E-03 
2338	-4.95743331869267E-04 
2339	-6.34815648125246E-03 
2340	-8.93425900842501E-03 
2341	-8.00320026726736E-03 
2342	-5.01554566364552E-03 
2343	-8.17000573541781E-03 
2344	-9.91219566822706E-03 
2345	-1.14749502573144E-02 
2346	-1.50222699329729E-02 
2347	-1.14558123362887E-02 
2348	-5.22405662558351E-03 
2349	-3.63484484928877E-03 
2350	-6.20341700944453E-03 
2351	-3.21287195428804E-03 
2352	-1.52240060661321E-03 
2353	-7.55957609272649E-03 
2354	-0.01152165889319 
2355	-1.39632086553426E-02 
2356	-1.62831839986222E-02 
2357	-0.01390437053277 
2358	-7.41285461270356E-03 
2359	-7.74436530434478E-03 
2360	-1.05435066718026E-02 
2361	-9.47457636110479E-03 
2362	-1.30793957454314E-02 
2363	-1.16506127768828E-02 
2364	-6.81419424038808E-03 
2365	-8.41324216352527E-03 
2366	-2.75022954124699E-03 
2367	 3.08821027158273E-03 
2368	 2.26799812742562E-03 
2369	 5.84526678665564E-03 
2370	 3.25410576345076E-03 
2371	-9.47605271741325E-03 
2372	-1.68924999276101E-02 
2373	-2.14392404060215E-02 
2374	-2.11260079960531E-02 
2375	-1.47902372085748E-02 
2376	-1.52991214369772E-02 
2377	-1.71155793698828E-02 
2378	-1.54409958645932E-02 
2379	-1.81202416028217E-02 
2380	-1.82495266529858E-02 
2381	-6.52455409347181E-03 
2382	 2.84787665796204E-04 
2383	 3.81260388433569E-03 
2384	 3.78285579876404E-03 
2385	-4.7605350820029E-03 
2386	-1.00417177092681E-02 
2387	-0.01649485207869 
2388	-2.38545138263217E-02 
2389	-2.51259671725537E-02 
2390	-2.92089204625665E-02 
2391	-4.06493855878125E-02 
2392	-4.32130900890625E-02 
2393	-3.90117996281508E-02 
2394	-4.45350854358769E-02 
2395	-5.25672385679364E-02 
2396	-0.043452810989998 
2397	-3.62003088443399E-02 
2398	-2.79626260333609E-02 
2399	 1.18870392324779E-03 
2400	 1.45231167680043E-02 
2401	 1.72935944378544E-03 
2402	-2.01452904518137E-02 
2403	-0.031775851480147 
2404	-2.70419188749708E-02 
2405	-2.07081948011036E-02 
2406	-1.55703551573441E-02 
2407	-2.40728429758628E-02 
2408	-0.035674898904987 
2409	-4.44689585781403E-02 
2410	-3.90791025080896E-02 
2411	-2.37273931639723E-02 
2412	-2.99102498370343E-02 
2413	-2.08589801182057E-02 
2414	 9.02492293276226E-03 
2415	 2.42034884565717E-02 
2416	 5.23879143047022E-02 
2417	 6.76798658430725E-02 
2418	 4.60372961745692E-02 
2419	 2.76025566844969E-02 
2420	-1.51680116863301E-02 
2421	-5.12079272762036E-02 
2422	-3.62352859356923E-02 
2423	-9.45241461111014E-03 
2424	-2.76103977974862E-03 
2425	-6.06330605954013E-02 
2426	-0.100563743399416 
2427	-0.116875941701382 
2428	-0.128804787314771 
2429	-6.30755117597859E-02 
2430	-2.60088678864768E-02 
2431	-3.44454258435056E-02 
2432	-4.86745859496095E-02 
2433	-0.07980954128741 
2434	-5.86412400590499E-02 
2435	-4.92653437508221E-02 
2436	-8.04450775113839E-02 
2437	-5.90237375306849E-02 
2438	-7.38188880100251E-02 
2439	-0.103722413080727 
2440	-7.40200497243671E-02 
2441	-6.48806783739186E-02 
2442	-4.37542737555414E-02 
2443	 3.95744277613924E-02 
2444	 8.88910235981207E-02 
2445	 7.63358292623332E-02 
2446	 0.057327028378687 
2447	-5.47634115212707E-02 
2448	-0.104009587577711 
2449	-5.40354583759727E-02 
2450	-8.44254929518415E-02 
2451	-0.164164734087697 
2452	-0.159581727458921 
2453	-0.127460970557204 
2454	 4.19555386987205E-03 
2455	 4.67419259695545E-02 
2456	 6.39249574496096E-02 
2457	 6.34444501709802E-02 
2458	 8.03209183002424E-02 
2459	 0.114060182780088 
2460	 6.14826421733138E-02 
2461	 0.033783973177267 
2462	-2.93662827994081E-02 
2463	-0.134020082487786 
2464	-0.160954238483779 
2465	-0.130946929858729 
2466	-7.49363386616805E-02 
2467	 0.152231329370293 
2468	 0.453563022646093 
2469	 0.268234253508566 
2470	 0.134940645232701 
2471	-1.62810204179885E-02 
2472	-9.12749452749385E-02 
2473	-1.56592974925347E-02 
2474	 5.30137719574715E-02 
2475	-4.55595437776215E-03 
2476	-0.184164965194488 
2477	 0.117394144334944 
2478	 0.141383731240646 
2479	 1.80663632454239E-03 
2480	-3.44118863450426E-03 
2481	 4.11421448773636E-03 
2482	-0.379026184666108 
2483	-1.31796234089205 
2484	 0.204157566263233 
2485	-3.57690436738655 
2486	-3.4242956035984 
2487	-2.92612823931452 
2488	-2.04543611390795 
2489	-1.78656469915294 
2490	-1.40633845934685 
2491	-2.23804266739635 
2492	 0.554183272262045 
2493	-3.77482271807404 
2494	-0.850516466910136 
2495	-1.860597539162 
2496	 9.06254969802586 
2497	-9.78902828884322 
2498	 4.73211633823771 
2499	 0.693099152866293 
2500	 0.17525966099818 
