Wavelength	rt0624close00005.asd
350	 1.87032942762756E-02 
351	 1.89176034584347E-02 
352	 1.89949004300158E-02 
353	 1.91234585727212E-02 
354	 1.92770699321063E-02 
355	 1.86710071855321E-02 
356	 1.92098119960706E-02 
357	 2.00309602523019E-02 
358	 1.99480382901783E-02 
359	 2.03802584063138E-02 
360	 2.04683179944246E-02 
361	 0.020054078579545 
362	 1.95942241638378E-02 
363	 2.01677252213456E-02 
364	 2.07452599611662E-02 
365	 2.07773658023561E-02 
366	 2.08258590774278E-02 
367	 0.020890041038999 
368	 2.10440914133068E-02 
369	 2.12640035333502E-02 
370	 2.11354380667371E-02 
371	 2.14050106844123E-02 
372	 2.19706999665683E-02 
373	 2.22542372453949E-02 
374	 2.23818592077746E-02 
375	 2.25487530459117E-02 
376	 2.26073874187348E-02 
377	 2.19647078209162E-02 
378	 2.24005005596149E-02 
379	 2.31458785867099E-02 
380	 2.32558035062636E-02 
381	 2.32380676563377E-02 
382	 2.34124789079001E-02 
383	 2.37475727856013E-02 
384	 2.40949798365958E-02 
385	 2.50099508182491E-02 
386	 2.53842079856626E-02 
387	 2.50578883370668E-02 
388	 2.50365607396834E-02 
389	 2.54470883654721E-02 
390	 2.58429755712384E-02 
391	 2.59205959113885E-02 
392	 0.02598716546193 
393	 2.62372600290966E-02 
394	 2.65727989590705E-02 
395	 2.68447890524795E-02 
396	 2.73426101296487E-02 
397	 2.76535992723018E-02 
398	 2.78460959734028E-02 
399	 2.83711498125119E-02 
400	 0.028260549485124 
401	 2.83560085496007E-02 
402	 2.90312854191591E-02 
403	 2.90274179834899E-02 
404	 2.90737509619077E-02 
405	 2.92868261582698E-02 
406	 2.95484011544474E-02 
407	 0.029748489196018 
408	 2.98802230915355E-02 
409	 3.00119415113715E-02 
410	 3.02681235289736E-02 
411	 3.06386203190819E-02 
412	 3.10297210318342E-02 
413	 3.13433817253539E-02 
414	 3.14989523074033E-02 
415	 0.031589016517691 
416	 3.17428568490618E-02 
417	 3.20620753078563E-02 
418	 3.24140063897654E-02 
419	 3.26890806915456E-02 
420	 3.29640370534672E-02 
421	 3.34911197288308E-02 
422	 3.36925901963018E-02 
423	 3.38780703022786E-02 
424	 3.43181565622988E-02 
425	 0.034639797975684 
426	 3.50649452515536E-02 
427	 3.54712584276168E-02 
428	 3.56520723105971E-02 
429	 3.60350634236371E-02 
430	 3.64479143155362E-02 
431	 3.68248505155848E-02 
432	 3.72919013925492E-02 
433	 3.76748893595614E-02 
434	 0.038068307579186 
435	 3.85531254675757E-02 
436	 3.90042110832675E-02 
437	 3.93824665459395E-02 
438	 3.97195886532982E-02 
439	 4.00878143373897E-02 
440	 4.05290111858096E-02 
441	 4.09651862596445E-02 
442	 4.13687902642217E-02 
443	 4.18084682958176E-02 
444	 4.21811366352649E-02 
445	 4.25067804824124E-02 
446	 4.28405998578019E-02 
447	 4.32428609688552E-02 
448	 4.35672161014485E-02 
449	 4.38283795827959E-02 
450	 4.41538942264473E-02 
451	 4.44458342418927E-02 
452	 4.46878563659738E-02 
453	 4.49137346595876E-02 
454	 4.52444017564065E-02 
455	 4.54531525093115E-02 
456	 4.56074038346396E-02 
457	 0.045840905843792 
458	 4.60118369204998E-02 
459	 4.61845177598389E-02 
460	 4.63934396423856E-02 
461	 4.66280904456748E-02 
462	 4.67897934826744E-02 
463	 4.69623017721862E-02 
464	 4.71959090556214E-02 
465	 0.047337987161898 
466	 4.75368177083306E-02 
467	 4.76919641442294E-02 
468	 4.76696312806147E-02 
469	 4.80310579741359E-02 
470	 4.83672403770849E-02 
471	 0.048497447007444 
472	 4.86624166097362E-02 
473	 4.88062831980074E-02 
474	 4.89964175990897E-02 
475	 4.92889181673656E-02 
476	 4.96257827076527E-02 
477	 4.98645799851182E-02 
478	 5.00115985885157E-02 
479	 5.01925243830138E-02 
480	 5.05996295232387E-02 
481	 0.050974043246307 
482	 5.11766744921382E-02 
483	 5.14193992245715E-02 
484	 5.17855339065093E-02 
485	 5.22264550202929E-02 
486	 5.26343847302132E-02 
487	 5.29416249330465E-02 
488	 5.33533206424665E-02 
489	 5.38003653217981E-02 
490	 5.39659468397995E-02 
491	 5.42866021397917E-02 
492	 5.47926369219053E-02 
493	 5.53971858459178E-02 
494	 5.59650777016359E-02 
495	 0.056387581805129 
496	 5.67693709795538E-02 
497	 5.72962806526355E-02 
498	 5.77595207529497E-02 
499	 0.058249129545343 
500	 5.88071949680202E-02 
501	 5.93564341539878E-02 
502	 5.99764369780358E-02 
503	 6.05677582308285E-02 
504	 6.10517928089297E-02 
505	 6.16266257358362E-02 
506	 6.21906032814352E-02 
507	 6.27509027952749E-02 
508	 6.33945345907757E-02 
509	 6.39778916537813E-02 
510	 6.45547767527065E-02 
511	 6.51580572851449E-02 
512	 6.56890023156261E-02 
513	 6.62822946685572E-02 
514	 6.69871269987499E-02 
515	 0.067768012702069 
516	 6.83371535446035E-02 
517	 6.90136154576911E-02 
518	 6.98470112652044E-02 
519	 7.04978538480912E-02 
520	 7.11899107869843E-02 
521	 7.18838593331596E-02 
522	 7.25240447855921E-02 
523	 7.31749414219335E-02 
524	 7.39130157984023E-02 
525	 7.47187734969168E-02 
526	 7.55091158035102E-02 
527	 7.63115798689615E-02 
528	 7.70133312544972E-02 
529	 7.76079403618761E-02 
530	 7.83193647323671E-02 
531	 7.91459337214323E-02 
532	 7.99602797469592E-02 
533	 8.06449149967647E-02 
534	 8.15229673123916E-02 
535	 8.23496607274245E-02 
536	 8.30598385921361E-02 
537	 8.38243865383258E-02 
538	 8.47360408066295E-02 
539	 8.56308639500761E-02 
540	 0.08638187939931 
541	 8.71982016511719E-02 
542	 8.80490482734163E-02 
543	 8.88955256116817E-02 
544	 8.97033974506326E-02 
545	 9.05113457795541E-02 
546	 9.13356450201011E-02 
547	 9.21825066379132E-02 
548	 9.30581432483814E-02 
549	 0.093829465428088 
550	 9.45939602000321E-02 
551	 9.54739994849358E-02 
552	 9.61875805501894E-02 
553	 9.69852180075737E-02 
554	 9.79014156707781E-02 
555	 9.86939975176681E-02 
556	 9.94862705047579E-02 
557	 0.100318812385112 
558	 0.101172869903332 
559	 0.101931045475418 
560	 0.102655198989044 
561	 0.103351121491077 
562	 0.104007887059865 
563	 0.104780729315403 
564	 0.105479303140472 
565	 0.106037802335391 
566	 0.106721366976356 
567	 0.107369371341568 
568	 0.107942334491357 
569	 0.108461313911898 
570	 0.109054748457726 
571	 0.109576748490726 
572	 0.110017421402429 
573	 0.110528979065755 
574	 0.111125498222207 
575	 0.111616392079871 
576	 0.111898472938628 
577	 0.112320636523959 
578	 0.112685248188384 
579	 0.113030175853499 
580	 0.113499511601728 
581	 0.113778799328462 
582	 0.114000730888025 
583	 0.114251846286305 
584	 0.114420601189859 
585	 0.114679567505139 
586	 0.114932104173643 
587	 0.115037063840189 
588	 0.115178627144143 
589	 0.115310705315258 
590	 0.115407845761495 
591	 0.115486456258078 
592	 0.115521237530529 
593	 0.115484124310562 
594	 0.115371792621493 
595	 0.115267064985637 
596	 0.115021398826624 
597	 0.114711898481795 
598	 0.114527522036577 
599	 0.114320855519692 
600	 0.114087640658569 
601	 0.113872693997686 
602	 0.113772443623708 
603	 0.113749289981652 
604	 0.11375910907381 
605	 0.113779588921805 
606	 0.113922378467564 
607	 0.114057978764441 
608	 0.114164444934269 
609	 0.114334903409035 
610	 0.114377298390244 
611	 0.114431891297251 
612	 0.11459699601311 
613	 0.114631542628332 
614	 0.114695425274974 
615	 0.114800168089315 
616	 0.114879724379309 
617	 0.114984360227508 
618	 0.115054688666187 
619	 0.115082871935747 
620	 0.115158070211898 
621	 0.115237303227729 
622	 0.115283508629465 
623	 0.115291855153474 
624	 0.115411863119146 
625	 0.115486054816728 
626	 0.115470077864229 
627	 0.115441575510792 
628	 0.115491711528918 
629	 0.115582770642809 
630	 0.11567197881417 
631	 0.115786310952892 
632	 0.115891435193646 
633	 0.115940581928781 
634	 0.115901554959396 
635	 0.115885296175444 
636	 0.115889160480364 
637	 0.115894153999305 
638	 0.11587532617084 
639	 0.115883090614616 
640	 0.11587505591216 
641	 0.115800539700826 
642	 0.115681237014132 
643	 0.115599637905654 
644	 0.115571056162095 
645	 0.115553107566375 
646	 0.115527568415218 
647	 0.11539608079961 
648	 0.115186740632647 
649	 0.115263417780862 
650	 0.115235874779707 
651	 0.115078950380846 
652	 0.114905825638903 
653	 0.114700042789571 
654	 0.114468424071584 
655	 0.114246023538452 
656	 0.114126633351296 
657	 0.113839895922867 
658	 0.113563559167726 
659	 0.113454599746706 
660	 0.113360924593834 
661	 0.113220298029377 
662	 0.112981010059272 
663	 0.112649456186683 
664	 0.112661934146993 
665	 0.112673667915334 
666	 0.112519204045658 
667	 0.11253434178807 
668	 0.112619634611296 
669	 0.112662783887617 
670	 0.112575515809966 
671	 0.112435413225508 
672	 0.112388605402303 
673	 0.112445590624312 
674	 0.112489311010683 
675	 0.11251285919454 
676	 0.112633869235338 
677	 0.112858298196933 
678	 0.112818235032222 
679	 0.113025155947695 
680	 0.113328567427739 
681	 0.113384617913667 
682	 0.113805217612889 
683	 0.114260724048307 
684	 0.114540228204048 
685	 0.114709930282415 
686	 0.115131875959701 
687	 0.115674891301695 
688	 0.116049849538335 
689	 0.116239157597935 
690	 0.116451336662118 
691	 0.11662729166444 
692	 0.116591110485768 
693	 0.116685760776623 
694	 0.116694270876407 
695	 0.116492796346564 
696	 0.116205980383845 
697	 0.116068374304426 
698	 0.115870832413223 
699	 0.115387541898512 
700	 0.115029249041268 
701	 0.114633962949743 
702	 0.114170098174666 
703	 0.113710409954302 
704	 0.113071678985918 
705	 0.112446802322349 
706	 0.111888462098377 
707	 0.110975377296382 
708	 0.110108854137146 
709	 0.109253491672035 
710	 0.108230952557992 
711	 0.107090062878513 
712	 0.105813769141063 
713	 0.104485631194795 
714	 0.103254970717142 
715	 0.101872161654428 
716	 0.100326769850745 
717	 9.87173282319247E-02 
718	 9.71228173490862E-02 
719	 9.54893514261613E-02 
720	 9.39061671028498E-02 
721	 9.22940587957198E-02 
722	 9.06924846149977E-02 
723	 8.89350777857993E-02 
724	 8.70709728837785E-02 
725	 8.51172954398042E-02 
726	 8.29993912952971E-02 
727	 8.06481966528414E-02 
728	 7.80981774651811E-02 
729	 7.55416460992203E-02 
730	 7.28816209797788E-02 
731	 7.02723568370551E-02 
732	 0.067899450079764 
733	 6.56370462499312E-02 
734	 6.37628720992379E-02 
735	 6.23126170768743E-02 
736	 6.09473585512646E-02 
737	 5.99921196327377E-02 
738	 5.93411552545986E-02 
739	 5.88296780787652E-02 
740	 5.84353911053434E-02 
741	 0.058010098301195 
742	 5.76737651542977E-02 
743	 5.76370736765695E-02 
744	 5.76482760938552E-02 
745	 5.75170835721215E-02 
746	 5.73025117557268E-02 
747	 5.73787962345702E-02 
748	 5.73752101699426E-02 
749	 0.057313638799491 
750	 5.72853395895347E-02 
751	 5.72589754053826E-02 
752	 5.72669485885136E-02 
753	 5.72808603512666E-02 
754	 5.72535505920511E-02 
755	 5.72900489823339E-02 
756	 0.057251305136452 
757	 5.70924969177009E-02 
758	 5.68926376810722E-02 
759	 5.67002354738712E-02 
760	 5.65838186629536E-02 
761	 5.66646031230423E-02 
762	 5.71424781207803E-02 
763	 0.057355658308282 
764	 5.74172577783945E-02 
765	 5.76524633914941E-02 
766	 5.80076155636817E-02 
767	 5.81903353878366E-02 
768	 5.82563481588132E-02 
769	 5.85665210511488E-02 
770	 5.87933126220301E-02 
771	 5.90618858855046E-02 
772	 5.94505108707125E-02 
773	 5.96642617898097E-02 
774	 5.98830703554466E-02 
775	 6.01471634014617E-02 
776	 6.04399976043859E-02 
777	 6.07596663220486E-02 
778	 6.11442728543307E-02 
779	 6.15746243722324E-02 
780	 6.19799998370283E-02 
781	 6.24329894428493E-02 
782	 6.29128194719872E-02 
783	 6.33865817849646E-02 
784	 6.38420696307537E-02 
785	 6.42017362600161E-02 
786	 6.46271090239108E-02 
787	 6.52723587781571E-02 
788	 6.58193491866712E-02 
789	 6.63298197131907E-02 
790	 6.68669617791823E-02 
791	 6.74549186319381E-02 
792	 6.77388590143353E-02 
793	 6.82025738439712E-02 
794	 6.89892267963179E-02 
795	 6.95058932006261E-02 
796	 6.99151565533011E-02 
797	 7.03888233273526E-02 
798	 7.10042291911913E-02 
799	 0.071459356457387 
800	 7.18598732700158E-02 
801	 7.22213767022007E-02 
802	 7.25232221749385E-02 
803	 7.28355821977569E-02 
804	 7.30080267989699E-02 
805	 7.31136965436159E-02 
806	 7.34624316286731E-02 
807	 7.34441178377811E-02 
808	 7.32299760145491E-02 
809	 7.30810813497268E-02 
810	 7.30810858817367E-02 
811	 0.072933515775118 
812	 7.27187691226475E-02 
813	 7.25612635276329E-02 
814	 7.19270444270119E-02 
815	 7.14135658210778E-02 
816	 7.10644940504759E-02 
817	 7.04542632067171E-02 
818	 6.97675417127246E-02 
819	 6.88389802029952E-02 
820	 6.77064033189271E-02 
821	 6.67412255535172E-02 
822	 6.54101233683749E-02 
823	 6.37484973860232E-02 
824	 0.06196964800884 
825	 6.01803504706759E-02 
826	 5.82587942559069E-02 
827	 5.59983528713692E-02 
828	 5.34192190840624E-02 
829	 5.13115490474965E-02 
830	 4.94572182616665E-02 
831	 4.77814204556619E-02 
832	 4.63542401274184E-02 
833	 4.47617277583949E-02 
834	 4.36056049334913E-02 
835	 4.29722225566804E-02 
836	 4.21351870701999E-02 
837	 4.14424818797486E-02 
838	 4.09749538593767E-02 
839	 4.06181943424799E-02 
840	 3.98728790024436E-02 
841	 3.93411684763817E-02 
842	 3.89046430076807E-02 
843	 3.82910093194377E-02 
844	 3.78610101738466E-02 
845	 3.76249070879753E-02 
846	 3.73263044833257E-02 
847	 3.66134193088032E-02 
848	 3.59219726923473E-02 
849	 3.55146685126226E-02 
850	 0.035320626943509 
851	 3.49023743479712E-02 
852	 3.46748219590908E-02 
853	 3.44323432631698E-02 
854	 3.40229538696179E-02 
855	 0.03367933104043 
856	 0.033171572442898 
857	 3.27284702721271E-02 
858	 3.25456379387588E-02 
859	 3.22578878545869E-02 
860	 3.19529026246233E-02 
861	 3.17166095490942E-02 
862	 3.15440093298888E-02 
863	 3.08920481494761E-02 
864	 3.05511714478586E-02 
865	 3.03871077821542E-02 
866	 2.95033983496323E-02 
867	 0.029156237476763 
868	 2.89459295731435E-02 
869	 2.85484494842471E-02 
870	 2.80614649598229E-02 
871	 2.79125858042864E-02 
872	 0.027586861536206 
873	 2.68205291376161E-02 
874	 0.026361102735989 
875	 2.60440888505035E-02 
876	 0.02571225889571 
877	 2.52489719074085E-02 
878	 2.47089998662075E-02 
879	 0.024406491221918 
880	 2.40494226760488E-02 
881	 2.32294374635962E-02 
882	 2.25937633833936E-02 
883	 0.022134193237861 
884	 2.18821637101003E-02 
885	 2.18326385769837E-02 
886	 2.13490816919854E-02 
887	 2.06098629944841E-02 
888	 1.99929850207495E-02 
889	 1.99096783783867E-02 
890	 1.98014306573676E-02 
891	 1.95089584218689E-02 
892	 1.90029950790492E-02 
893	 1.83564936092042E-02 
894	 1.80444203685436E-02 
895	 1.78380310071879E-02 
896	 1.74267845236679E-02 
897	 1.69102827797932E-02 
898	 1.65418741991875E-02 
899	 1.62424750704185E-02 
900	 0.015914953335131 
901	 1.59072003234478E-02 
902	 1.55302636192506E-02 
903	 1.49192336579504E-02 
904	 1.44986009836445E-02 
905	 1.42824824542212E-02 
906	 1.41207262137482E-02 
907	 1.37148723947207E-02 
908	 0.012845556735838 
909	 1.24192254614094E-02 
910	 1.20297865499203E-02 
911	 1.14163226997925E-02 
912	 0.010621485060931 
913	 1.00323817192399E-02 
914	 1.01024362255126E-02 
915	 1.01914386483448E-02 
916	 8.7522883034954E-03 
917	 8.11833195454852E-03 
918	 7.6205458119849E-03 
919	 6.94321695675153E-03 
920	 6.8868387010564E-03 
921	 6.45228130864658E-03 
922	 5.93262385761499E-03 
923	 5.53183109448833E-03 
924	 4.73455128775088E-03 
925	 4.08752789046604E-03 
926	 3.2325860228556E-03 
927	 2.00127041323444E-03 
928	 1.79069567308092E-03 
929	 4.46341632805533E-04 
930	-4.34635357568309E-04 
931	 1.18847197396667E-03 
932	-5.89517056103106E-04 
933	-2.28547044340924E-03 
934	-3.85977397079824E-03 
935	-5.56119934272048E-03 
936	-2.00533276862014E-03 
937	-1.90176884579292E-03 
938	-3.24314771209966E-03 
939	-2.02100750898483E-03 
940	-2.42895286223548E-03 
941	-3.08539124141131E-03 
942	-3.40776598170232E-03 
943	-3.49542445344249E-03 
944	-4.8092286714278E-03 
945	-4.51829967777038E-03 
946	-4.20939153319588E-03 
947	-6.89868118564682E-03 
948	-6.9912577992708E-03 
949	-5.30748564375986E-03 
950	-4.22736199793161E-03 
951	-5.86756813050233E-03 
952	-6.35579216500985E-03 
953	-6.44728909001686E-03 
954	-6.48364189674078E-03 
955	-6.18567731385336E-03 
956	-4.71449783808374E-03 
957	-5.25202966529813E-03 
958	-5.65015645751003E-03 
959	-1.37913000291715E-03 
960	-1.3957464689907E-03 
961	-2.78535739855835E-03 
962	-2.91065669285905E-03 
963	-1.23989553608511E-03 
964	-3.00473114256055E-03 
965	-3.06432918151453E-03 
966	-1.36798789142965E-03 
967	-1.9779795836791E-03 
968	-1.53079408902317E-03 
969	-1.2257283789858E-03 
970	-1.90087695810219E-03 
971	-3.40800061556543E-03 
972	-3.66613984072048E-03 
973	-4.55924544749118E-03 
974	-5.18652805594582E-03 
975	-2.57866870247615E-03 
976	-3.26929057331873E-03 
977	-4.14395197029874E-03 
978	-4.0159518259609E-03 
979	-4.40534540314383E-03 
980	-4.81941569287413E-03 
981	-3.79876061005841E-03 
982	-2.39759577968005E-03 
983	-3.12231005955405E-03 
984	-2.23997680057235E-03 
985	-2.61917398393927E-03 
986	-3.93341262638562E-03 
987	-3.3509966164378E-03 
988	-3.89926443062516E-03 
989	-4.40837881330138E-03 
990	-4.43749480007495E-03 
991	-4.27801811737026E-03 
992	-2.75356650684625E-03 
993	-2.72765449898447E-03 
994	-3.55642523090712E-03 
995	-2.51947348734347E-03 
996	-1.56974227410571E-03 
997	-3.17107157338779E-03 
998	-5.85545141965804E-03 
999	-6.18258006645474E-03 
1000	-5.18544071763444E-03 
1001	 1.90392103257547E-03 
1002	 1.96502187167692E-03 
1003	 1.88070013075862E-03 
1004	 0.001971241297307 
1005	 1.93337191524929E-03 
1006	 1.66263884452796E-03 
1007	 1.38413476088208E-03 
1008	 1.40122444640391E-03 
1009	 1.26057201706254E-03 
1010	 1.42371553943625E-03 
1011	 1.65891653687819E-03 
1012	 1.38604609122178E-03 
1013	 1.28235527284632E-03 
1014	 9.97331119759855E-04 
1015	 9.44565883668363E-07 
1016	-6.38872321287392E-05 
1017	 3.35512923139697E-04 
1018	 6.46591131102297E-04 
1019	 1.81741091707162E-03 
1020	 2.23806943025747E-03 
1021	 2.29498709105092E-03 
1022	 2.16566173986635E-03 
1023	 1.88829505838845E-03 
1024	 1.44007292088743E-03 
1025	 1.53098841587726E-03 
1026	 1.66225978176642E-03 
1027	 1.60468603818997E-03 
1028	 1.77598119937681E-03 
1029	 1.50330335407086E-03 
1030	 5.85524785441269E-04 
1031	 2.98963113776069E-04 
1032	-1.48599489417937E-04 
1033	 8.28314647676434E-05 
1034	 1.36484258641735E-03 
1035	 1.84723295556317E-03 
1036	 2.42737824035571E-03 
1037	 2.66074732875637E-03 
1038	 2.43486436717171E-03 
1039	 1.93761938785485E-03 
1040	 1.4751800546531E-03 
1041	 1.21555891864789E-03 
1042	 1.01316929614773E-03 
1043	 5.9951801553989E-04 
1044	 7.15982044583921E-04 
1045	 1.33201180767894E-03 
1046	 1.63374038092259E-03 
1047	 2.07563770499055E-03 
1048	 2.46191805130361E-03 
1049	 2.90654153851279E-03 
1050	 2.99387184989838E-03 
1051	 2.94376951215224E-03 
1052	 2.86908665319838E-03 
1053	 2.3777035531058E-03 
1054	 2.0898170766602E-03 
1055	 1.77604443710504E-03 
1056	 1.72444534180388E-03 
1057	 1.81527858831802E-03 
1058	 2.04748624769093E-03 
1059	 2.20922387967624E-03 
1060	 2.75504034041171E-03 
1061	 2.74608418229592E-03 
1062	 2.40245403104203E-03 
1063	 2.13389210890284E-03 
1064	 1.17744744795531E-03 
1065	 1.30973149392712E-03 
1066	 2.22616297601773E-03 
1067	 2.62951448677587E-03 
1068	 3.92078139597704E-03 
1069	 4.20061521575728E-03 
1070	 0.003141773520254 
1071	 2.82501473053833E-03 
1072	 2.49728950863116E-03 
1073	 2.16255568292131E-03 
1074	 2.22481545670407E-03 
1075	 2.9954037308685E-03 
1076	 3.03731941410126E-03 
1077	 2.84062058874222E-03 
1078	 2.75510060294457E-03 
1079	 2.34186765805742E-03 
1080	 2.32161760320414E-03 
1081	 2.76108020548115E-03 
1082	 2.80353992376081E-03 
1083	 2.64162215080746E-03 
1084	 2.6686446473183E-03 
1085	 2.65562941132853E-03 
1086	 2.56829634615034E-03 
1087	 2.78523749017675E-03 
1088	 2.75963476637168E-03 
1089	 2.07508289965261E-03 
1090	 1.9128519199887E-03 
1091	 2.12252173915151E-03 
1092	 2.74601375481595E-03 
1093	 2.58497454335509E-03 
1094	 2.53946678562661E-03 
1095	 2.35639784510877E-03 
1096	 1.25630838301045E-03 
1097	 1.15452472728838E-03 
1098	 1.98771356912409E-03 
1099	 2.1251710313273E-03 
1100	 2.09843786426942E-03 
1101	 2.1307366943041E-03 
1102	 1.90539420938099E-03 
1103	 1.86588084825937E-03 
1104	 1.8990617350555E-03 
1105	 2.36084622971666E-03 
1106	 2.13999784406125E-03 
1107	 1.61878044748573E-03 
1108	 1.79562814039656E-03 
1109	 1.53434400038998E-03 
1110	 1.76294397539981E-03 
1111	 3.21652251534984E-03 
1112	 3.25247565814109E-03 
1113	 2.12068659503683E-03 
1114	 2.11625534046853E-03 
1115	 1.87444837612693E-03 
1116	 1.91209825787873E-03 
1117	 3.62329095266621E-03 
1118	 3.88993114286607E-03 
1119	 2.37048713965226E-03 
1120	 1.93653347282218E-03 
1121	 6.42584740556284E-04 
1122	 1.92057827622828E-03 
1123	 3.6721397694422E-03 
1124	 3.3659172957628E-03 
1125	 2.90960478290199E-03 
1126	 0.001658595086843 
1127	 6.91072851028994E-04 
1128	 2.34047937230678E-03 
1129	 1.9276860071296E-03 
1130	 2.41094638711965E-04 
1131	 5.04180588500658E-04 
1132	 1.54543205831831E-03 
1133	 1.30908517575321E-03 
1134	 2.02568617606567E-03 
1135	 2.36549731083927E-03 
1136	 2.28118698714491E-04 
1137	 1.23766836224583E-04 
1138	 1.50733157356878E-03 
1139	 2.9971752227244E-03 
1140	 2.68787990815911E-03 
1141	 2.63247642050948E-03 
1142	 2.41643892482093E-03 
1143	 1.71164826623246E-03 
1144	 1.26557489966218E-03 
1145	 1.93888053340541E-03 
1146	 2.24309570415915E-03 
1147	 1.91687820895401E-03 
1148	 2.24988566151121E-03 
1149	 2.41129929198891E-03 
1150	 2.32642325734706E-03 
1151	 1.73177598290467E-03 
1152	 1.57300209884152E-03 
1153	 1.52238841406471E-03 
1154	 1.53472405627545E-03 
1155	 1.67637296285625E-03 
1156	 1.73570449576314E-03 
1157	 1.71664804950738E-03 
1158	 1.51159964545211E-03 
1159	 1.35915600817359E-03 
1160	 1.48194583092645E-03 
1161	 1.41501184030378E-03 
1162	 1.22992427031797E-03 
1163	 1.06355997168892E-03 
1164	 8.01112129423431E-04 
1165	 6.68692745248245E-04 
1166	 9.62396708086932E-04 
1167	 1.26770333656295E-03 
1168	 1.09705884723935E-03 
1169	 1.01573778991807E-03 
1170	 1.09177031737862E-03 
1171	 1.03794042267592E-03 
1172	 9.29360200237747E-04 
1173	 1.00067569630038E-03 
1174	 1.21813040800453E-03 
1175	 9.98503267962278E-04 
1176	 9.46271383035844E-04 
1177	 1.05377583051629E-03 
1178	 8.85412702369067E-04 
1179	 7.56324186846685E-04 
1180	 7.88548335237417E-04 
1181	 7.51708547504238E-04 
1182	 6.97304936186622E-04 
1183	 7.6055417830087E-04 
1184	 8.68391831604165E-04 
1185	 8.62027806287341E-04 
1186	 9.04933406013099E-04 
1187	 1.05654556233258E-03 
1188	 1.06754962021774E-03 
1189	 9.59383158776439E-04 
1190	 8.73000271266064E-04 
1191	 9.66468936582244E-04 
1192	 9.8660674981413E-04 
1193	 1.03128703126651E-03 
1194	 9.73820373646595E-04 
1195	 1.08270854012259E-03 
1196	 1.09712399274808E-03 
1197	 9.48756022914658E-04 
1198	 8.71951877335782E-04 
1199	 7.18947669631162E-04 
1200	 6.63328252491105E-04 
1201	 7.88589958826702E-04 
1202	 9.77938900116213E-04 
1203	 1.10253049970566E-03 
1204	 1.01187954417611E-03 
1205	 9.10652790579339E-04 
1206	 8.51060654618134E-04 
1207	 8.72110034040111E-04 
1208	 9.36736970919655E-04 
1209	 9.15657459588461E-04 
1210	 9.18584347808606E-04 
1211	 9.87668237901103E-04 
1212	 1.04955239273079E-03 
1213	 8.78706699354108E-04 
1214	 8.17522814903612E-04 
1215	 7.7395439075665E-04 
1216	 8.87918783916969E-04 
1217	 8.1687520542931E-04 
1218	 8.4540114269128E-04 
1219	 9.42737254833754E-04 
1220	 9.63089145259056E-04 
1221	 1.11907510371183E-03 
1222	 1.12188107988581E-03 
1223	 9.30216208897627E-04 
1224	 9.37669285622791E-04 
1225	 1.0314338828903E-03 
1226	 1.1349762194268E-03 
1227	 1.28959910414012E-03 
1228	 1.17863121335936E-03 
1229	 7.73051212644284E-04 
1230	 5.53729251778638E-04 
1231	 7.38037499052177E-04 
1232	 8.40209431394526E-04 
1233	 7.40829055843942E-04 
1234	 8.64933462279983E-04 
1235	 9.0995784054926E-04 
1236	 6.66928643482589E-04 
1237	 7.30866651854599E-04 
1238	 1.13584617091903E-03 
1239	 1.14479130652582E-03 
1240	 9.81762318811244E-04 
1241	 1.14591069510327E-03 
1242	 1.0003221696402E-03 
1243	 7.72167308267948E-04 
1244	 9.05205823654333E-04 
1245	 8.21488871000432E-04 
1246	 6.23280648285666E-04 
1247	 7.78122781351226E-04 
1248	 9.98555877765917E-04 
1249	 1.08960875694151E-03 
1250	 1.15766283681154E-03 
1251	 1.16664866963123E-03 
1252	 1.11101453620251E-03 
1253	 1.00974975007425E-03 
1254	 9.61383989047089E-04 
1255	 1.13725521843414E-03 
1256	 1.20096788546917E-03 
1257	 1.21053387199113E-03 
1258	 1.12241973072976E-03 
1259	 9.46505215436298E-04 
1260	 8.67847659790455E-04 
1261	 7.07124280479591E-04 
1262	 6.97137566045813E-04 
1263	 8.99712872025751E-04 
1264	 9.26529355271312E-04 
1265	 1.00496284832735E-03 
1266	 1.2511942294599E-03 
1267	 1.17556681403036E-03 
1268	 1.02339400754919E-03 
1269	 9.79864544655408E-04 
1270	 8.85238043130935E-04 
1271	 9.28885777137633E-04 
1272	 1.16182466161948E-03 
1273	 1.24752565093418E-03 
1274	 1.00641104514884E-03 
1275	 9.19008207667741E-04 
1276	 9.62417113591866E-04 
1277	 8.96827306926369E-04 
1278	 8.81479691411189E-04 
1279	 9.33866085682621E-04 
1280	 1.0694892790646E-03 
1281	 1.11787732148565E-03 
1282	 1.24805841677772E-03 
1283	 1.25651313052794E-03 
1284	 1.10212387454755E-03 
1285	 9.81077621226789E-04 
1286	 7.92213279181343E-04 
1287	 6.72828303862499E-04 
1288	 5.27505097965872E-04 
1289	 5.09693116375573E-04 
1290	 5.70679951679047E-04 
1291	 7.5865781733079E-04 
1292	 7.97714339069208E-04 
1293	 8.7498901041726E-04 
1294	 8.72112041980948E-04 
1295	 9.51499277166101E-04 
1296	 1.18251721807143E-03 
1297	 1.14342607156771E-03 
1298	 9.51314231200131E-04 
1299	 7.48675916042256E-04 
1300	 6.81286188774682E-04 
1301	 8.80822810609174E-04 
1302	 1.15469369394936E-03 
1303	 1.30612678811018E-03 
1304	 1.2560799211281E-03 
1305	 1.07310013429583E-03 
1306	 1.00223118632589E-03 
1307	 9.71595194685551E-04 
1308	 8.99052215208603E-04 
1309	 7.68387228929191E-04 
1310	 8.76089440184195E-04 
1311	 1.19872284204442E-03 
1312	 1.20387243136697E-03 
1313	 1.18321633324546E-03 
1314	 1.14834192644314E-03 
1315	 7.72897715656655E-04 
1316	 6.94782161862987E-04 
1317	 8.99434372869738E-04 
1318	 1.0382699990274E-03 
1319	 1.24667023801347E-03 
1320	 1.34006883341205E-03 
1321	 1.40989880043046E-03 
1322	 1.5396301224884E-03 
1323	 1.39175499477227E-03 
1324	 1.16331066880666E-03 
1325	 1.10421013522357E-03 
1326	 1.03613064503949E-03 
1327	 9.82288472987395E-04 
1328	 1.03410719936735E-03 
1329	 1.34252145990014E-03 
1330	 1.2592991105894E-03 
1331	 9.58673894541617E-04 
1332	 1.39844659068275E-03 
1333	 1.95037671183526E-03 
1334	 2.04619497226177E-03 
1335	 1.96933496023445E-03 
1336	 1.72811062099926E-03 
1337	 1.93184126512548E-03 
1338	 2.17105047264163E-03 
1339	 1.86065559683197E-03 
1340	 1.56095774066874E-03 
1341	 1.69362563131792E-03 
1342	 1.23662563292353E-03 
1343	 9.54110148750892E-04 
1344	 1.89895143446931E-03 
1345	 2.47070991749469E-03 
1346	 1.83158557522311E-03 
1347	 1.61694023477927E-03 
1348	 2.8205323175196E-03 
1349	 3.4792395967107E-03 
1350	 3.06165778518769E-03 
1351	 3.32098021083221E-03 
1352	 3.59997221061403E-03 
1353	 5.47102046940966E-03 
1354	 8.70416935502601E-03 
1355	 1.63527819435071E-02 
1356	 2.60570032286974E-02 
1357	 3.40158562767706E-02 
1358	 3.92287498596576E-02 
1359	 4.56025986511389E-02 
1360	 7.08660458115406E-02 
1361	 9.72592044042896E-02 
1362	 8.63703720785692E-02 
1363	 7.24388629647328E-02 
1364	 9.23473274888503E-02 
1365	 0.133332991213889 
1366	 9.23188646385448E-02 
1367	 5.29746538404003E-02 
1368	 8.16471362931492E-02 
1369	 0.144378139998703 
1370	 0.164378197315181 
1371	 0.29287415457114 
1372	 0.315605408277915 
1373	 0.171310697274808 
1374	 0.113629110656189 
1375	 1.39309613417752E-02 
1376	 5.82943405014518E-02 
1377	 0.269965557413862 
1378	 0.303589880607816 
1379	 0.365418893254914 
1380	 0.361528144021432 
1381	 0.107054879921111 
1382	 4.91709122631268E-02 
1383	 0.117841178416306 
1384	 0.173087316811531 
1385	 0.303206790772772 
1386	 0.327384511262942 
1387	 0.334087391495411 
1388	 0.294438111599957 
1389	 0.13555937127908 
1390	 0.105965458046841 
1391	 0.132320221756674 
1392	 0.172711562546134 
1393	 0.249129517882972 
1394	 0.183308111345051 
1395	 2.83705587277177E-02 
1396	 1.24144774430068E-02 
1397	 5.10122725029338E-02 
1398	 6.14934563972026E-02 
1399	 5.58292759868775E-02 
1400	 4.60762148549058E-02 
1401	 3.52515678257051E-02 
1402	 4.32568005166555E-02 
1403	 7.95040305429276E-02 
1404	 9.05376565183362E-02 
1405	 7.28722313905553E-02 
1406	 0.018066699838355 
1407	 0.009302382518201 
1408	 4.90597354311878E-03 
1409	 6.96122892414658E-03 
1410	 2.34285752769918E-02 
1411	 2.26418207482265E-02 
1412	 1.50381971204387E-02 
1413	 1.34313103549756E-02 
1414	 1.10365730946667E-02 
1415	 1.05835578966962E-02 
1416	 1.45196054832723E-02 
1417	 1.26303138461804E-02 
1418	 7.92039506061324E-03 
1419	 5.67208344362212E-03 
1420	 3.75396619329225E-04 
1421	 1.13462769100752E-03 
1422	 7.23450258674965E-03 
1423	 7.37229827858309E-03 
1424	 6.50237053501082E-03 
1425	 6.90576387390872E-03 
1426	 4.86441593901621E-03 
1427	 4.6117806475758E-03 
1428	 8.52051537862153E-03 
1429	 0.007943347642308 
1430	 2.55183390181378E-03 
1431	 2.41243867632369E-03 
1432	 4.49471912947327E-03 
1433	 3.83011194233231E-03 
1434	 3.90627509568119E-03 
1435	 5.38674985292846E-03 
1436	 6.31378201629885E-03 
1437	 5.70975756841561E-03 
1438	 5.35960656779555E-03 
1439	 5.74150302073473E-03 
1440	 4.46990943711912E-03 
1441	 1.69813377466181E-03 
1442	 1.55265883702716E-03 
1443	 2.21035147892637E-03 
1444	 1.57361717086079E-03 
1445	 1.48690040051516E-03 
1446	 1.60568487099407E-03 
1447	 1.44457280064527E-03 
1448	 1.44216795340355E-03 
1449	 7.61741698115422E-04 
1450	-5.49497375875482E-04 
1451	-1.82915318757086E-04 
1452	 1.59967070268617E-03 
1453	 1.91256630235248E-03 
1454	 1.64407686434604E-03 
1455	 1.36586515307544E-03 
1456	 1.6127586899287E-03 
1457	 1.00581502213746E-03 
1458	 1.02849451438905E-03 
1459	 2.36662793204587E-03 
1460	 2.31265271191162E-03 
1461	 1.17451544644252E-03 
1462	 9.24473251470303E-04 
1463	 7.64439027897153E-04 
1464	 5.38756579739621E-04 
1465	 3.35960210717411E-04 
1466	 5.38351313103002E-04 
1467	 1.25316605806206E-03 
1468	 1.29582707597158E-03 
1469	 1.16505297604199E-03 
1470	 1.40670828806469E-03 
1471	 1.48781496060764E-03 
1472	 1.30236793401913E-03 
1473	 1.20711071566903E-03 
1474	 1.4883688900079E-03 
1475	 1.69438712626361E-03 
1476	 1.42128749940337E-03 
1477	 1.55799281122717E-03 
1478	 1.50535425047678E-03 
1479	 3.4261965836187E-04 
1480	 1.99984276983962E-04 
1481	 1.07080765920156E-03 
1482	 1.24217070741087E-03 
1483	 1.12326660783736E-03 
1484	 1.25023093717795E-03 
1485	 1.54180467233003E-03 
1486	 1.41155005480992E-03 
1487	 1.15797669344055E-03 
1488	 1.15157975645573E-03 
1489	 9.99583883532596E-04 
1490	 7.48901461701171E-04 
1491	 4.99911832505007E-04 
1492	 4.80628248203608E-04 
1493	 5.71642824705516E-04 
1494	 4.855413727034E-04 
1495	 4.07453779730174E-04 
1496	 5.127884479238E-04 
1497	 6.00062569251982E-04 
1498	 5.15840874966482E-04 
1499	 4.73072663174059E-04 
1500	 5.48323619847033E-04 
1501	 5.67016422720668E-04 
1502	 4.89614628652281E-04 
1503	 4.18915640352264E-04 
1504	 5.41824034295539E-04 
1505	 6.62798268205036E-04 
1506	 7.25519669202938E-04 
1507	 6.73507760408471E-04 
1508	 8.04477462149121E-04 
1509	 7.83887204784054E-04 
1510	 5.02609393449207E-04 
1511	 6.1683063438437E-04 
1512	 8.15730275163678E-04 
1513	 5.42402970188397E-04 
1514	 3.01229310410255E-04 
1515	 4.18157669691915E-04 
1516	 4.19405666403393E-04 
1517	 3.99375666795673E-04 
1518	 6.36031678246922E-04 
1519	 7.10462383720352E-04 
1520	 4.70817207125137E-04 
1521	 3.93545974686226E-04 
1522	 5.67917005278232E-04 
1523	 6.32451323991742E-04 
1524	 7.34826934893074E-04 
1525	 8.04739974491434E-04 
1526	 5.88925157607762E-04 
1527	 3.96736274384499E-04 
1528	 5.05866195983672E-04 
1529	 7.17577389040237E-04 
1530	 7.45879822907337E-04 
1531	 8.14419273699038E-04 
1532	 7.72142889719632E-04 
1533	 5.76844150376716E-04 
1534	 6.85389566632862E-04 
1535	 8.20494534074631E-04 
1536	 7.16767712072803E-04 
1537	 6.29169053232747E-04 
1538	 6.01603347233015E-04 
1539	 5.00385137893239E-04 
1540	 4.16303377245012E-04 
1541	 5.6066125645464E-04 
1542	 8.05935210364951E-04 
1543	 7.69685267870748E-04 
1544	 6.41447612520926E-04 
1545	 6.80322862120039E-04 
1546	 5.86987747363522E-04 
1547	 4.5994191071583E-04 
1548	 5.86268538482195E-04 
1549	 6.71575220034746E-04 
1550	 5.3854871644622E-04 
1551	 5.60119085783448E-04 
1552	 6.69481599481687E-04 
1553	 6.03392631912563E-04 
1554	 6.0415026298998E-04 
1555	 5.81765302901039E-04 
1556	 5.80987260371261E-04 
1557	 6.217371595018E-04 
1558	 4.39509756058843E-04 
1559	 4.83066201904609E-04 
1560	 7.01716847655602E-04 
1561	 6.36764909027557E-04 
1562	 5.68744258705983E-04 
1563	 6.41869417586323E-04 
1564	 5.93958321140111E-04 
1565	 5.03641324123677E-04 
1566	 4.60661052072218E-04 
1567	 5.12496135155189E-04 
1568	 6.3873647507226E-04 
1569	 4.71777360236175E-04 
1570	 4.74268786319839E-04 
1571	 6.50027234265386E-04 
1572	 4.85671418479932E-04 
1573	 3.608749075538E-04 
1574	 4.14273314335282E-04 
1575	 4.61629751317779E-04 
1576	 3.79508765363014E-04 
1577	 4.11107400125407E-04 
1578	 7.50248212122562E-04 
1579	 7.20470252434677E-04 
1580	 4.03584520992892E-04 
1581	 7.90476751267982E-04 
1582	 9.73444074865492E-04 
1583	 4.98638777385947E-04 
1584	 5.77860580500097E-04 
1585	 7.3610279499163E-04 
1586	 5.10204962879481E-04 
1587	 6.57894715534343E-04 
1588	 9.17416045640875E-04 
1589	 6.96389309985208E-04 
1590	 4.60544280761202E-04 
1591	 6.2032507120651E-04 
1592	 7.69976458079902E-04 
1593	 6.25022583422678E-04 
1594	 7.19619269211843E-04 
1595	 1.10844384584235E-03 
1596	 8.75226354226201E-04 
1597	 3.94670264615569E-04 
1598	 6.20649369614928E-04 
1599	 7.55897425969925E-04 
1600	 4.77801385084167E-04 
1601	 4.42048192399207E-04 
1602	 4.23417031945362E-04 
1603	 3.36494922190423E-04 
1604	 2.3169930969401E-04 
1605	 3.60280281210962E-04 
1606	 6.94394133401585E-04 
1607	 4.68780552930457E-04 
1608	 3.83655124497093E-04 
1609	 9.50158178900767E-04 
1610	 1.0265651298968E-03 
1611	 5.63322273721745E-04 
1612	 5.87905583380365E-04 
1613	 8.44419966536437E-04 
1614	 6.553544252504E-04 
1615	 4.4059868277378E-04 
1616	 5.30613042837692E-04 
1617	 6.3417098944513E-04 
1618	 6.9073051789558E-04 
1619	 8.67518399888547E-04 
1620	 7.50494727841762E-04 
1621	 3.18920658990654E-04 
1622	 2.0020789610229E-04 
1623	 4.13909263011128E-04 
1624	 7.68784481075663E-04 
1625	 9.79496146554625E-04 
1626	 9.51882731739373E-04 
1627	 8.41184056765977E-04 
1628	 6.83306567466519E-04 
1629	 6.71612645555625E-04 
1630	 6.50910423980136E-04 
1631	 4.80518644390729E-04 
1632	 6.19760373079473E-04 
1633	 8.65040396377992E-04 
1634	 6.48679481878291E-04 
1635	 4.1291293080898E-04 
1636	 3.98832297898672E-04 
1637	 4.66134173314547E-04 
1638	 6.01091591347288E-04 
1639	 6.05119050439561E-04 
1640	 6.97953132188852E-04 
1641	 7.22147497173405E-04 
1642	 3.9990719125868E-04 
1643	 2.26416569008984E-04 
1644	 4.35590442743951E-04 
1645	 6.79451023642162E-04 
1646	 7.15252046240124E-04 
1647	 6.84422125009662E-04 
1648	 5.89375792783646E-04 
1649	 5.5902443658134E-04 
1650	 6.98498915881254E-04 
1651	 8.68617243873056E-04 
1652	 9.74659733950167E-04 
1653	 4.09072552064839E-04 
1654	 2.95946778983104E-04 
1655	 6.46737289943586E-04 
1656	 6.36600104055715E-04 
1657	 5.45033588740711E-04 
1658	 6.00095661834932E-04 
1659	 5.68828780996272E-04 
1660	 4.60394379223387E-04 
1661	 3.70012653575359E-04 
1662	 3.37050491169229E-04 
1663	 2.22903521616767E-04 
1664	 2.68504024917243E-04 
1665	 5.20108656589099E-04 
1666	 6.08535234318648E-04 
1667	 6.61348722813963E-04 
1668	 3.79432247102504E-04 
1669	 3.02653855574445E-04 
1670	 6.34399339469635E-04 
1671	 9.11634656309952E-04 
1672	 9.29514833113196E-04 
1673	 8.0156316369325E-04 
1674	 8.00144086110994E-04 
1675	 8.37440545690638E-04 
1676	 7.63987137879614E-04 
1677	 9.20352576355209E-04 
1678	 9.5707962674398E-04 
1679	 6.78112539295594E-04 
1680	 7.51443344180007E-04 
1681	 7.06795775590387E-04 
1682	 2.34702656557722E-04 
1683	 6.04359544332763E-05 
1684	 8.94474767437539E-05 
1685	 1.64926969038077E-04 
1686	 4.23210079838196E-04 
1687	 4.42776877492572E-04 
1688	 2.77598163951435E-04 
1689	 5.77873018878881E-04 
1690	 9.12809550037442E-04 
1691	 6.90095694748458E-04 
1692	 5.07094069455961E-04 
1693	 3.65621925395066E-04 
1694	 1.46372297190247E-04 
1695	 3.54273806378515E-04 
1696	 4.45309094739924E-04 
1697	 3.36411775747806E-04 
1698	 5.59030035578308E-04 
1699	 6.57326954032014E-04 
1700	 5.55601395242007E-04 
1701	 3.8480329684792E-04 
1702	 1.46336318373387E-04 
1703	 3.58534415644948E-04 
1704	 7.99728019000829E-04 
1705	 7.63565997139743E-04 
1706	 7.38560219265659E-04 
1707	 9.14254983123348E-04 
1708	 6.69265329879922E-04 
1709	 6.83472080806974E-04 
1710	 1.33682806727105E-03 
1711	 1.34785036000182E-03 
1712	 8.22767539734838E-04 
1713	 7.2360795881061E-04 
1714	 7.21314432087278E-04 
1715	 6.8048859273828E-04 
1716	 1.29747196061104E-03 
1717	 1.18230166710751E-03 
1718	 5.50878344334994E-04 
1719	 3.7488426674706E-04 
1720	 4.54121023524465E-04 
1721	 8.29352364109322E-04 
1722	 1.23848283163714E-03 
1723	 1.02453376322717E-03 
1724	 7.30375261540182E-04 
1725	 6.38262554252821E-04 
1726	 6.24488049717935E-04 
1727	 1.00720322537283E-03 
1728	 1.16872577084969E-03 
1729	 7.4621300852619E-04 
1730	 5.49449044761543E-04 
1731	 6.04460445759082E-04 
1732	 6.98405851518692E-04 
1733	 6.42549584241583E-04 
1734	 4.81479845735735E-04 
1735	 4.53693299157495E-04 
1736	 4.82671101482178E-04 
1737	 9.75856984356569E-04 
1738	 1.35840067493055E-03 
1739	 1.11998051704687E-03 
1740	 8.91542545159808E-04 
1741	 6.339052978631E-04 
1742	 4.65367749162487E-04 
1743	 5.03009593040689E-04 
1744	 4.68006583067299E-04 
1745	 4.83151281193166E-04 
1746	 7.06668931590693E-04 
1747	 8.83726895057928E-04 
1748	 1.0918726669376E-03 
1749	 9.88586099083414E-04 
1750	 6.13974113639622E-04 
1751	 5.75439368571579E-04 
1752	 4.51583332461594E-04 
1753	 5.7819258064404E-04 
1754	 1.28592993455117E-03 
1755	 1.36390988047594E-03 
1756	 1.11997466076425E-03 
1757	 1.38098707338995E-03 
1758	 1.05941987625438E-03 
1759	 1.00541605170543E-03 
1760	 9.53895580425443E-04 
1761	 6.74072308757272E-04 
1762	 6.78123828724756E-04 
1763	 7.41754043025434E-04 
1764	 7.75281269640562E-04 
1765	 6.86244785174689E-04 
1766	 7.77950647878768E-04 
1767	 1.37767286987434E-03 
1768	 1.48969913181436E-03 
1769	 1.08194228716329E-03 
1770	 1.15693551096856E-03 
1771	 1.08772008370313E-03 
1772	 1.32006938684099E-03 
1773	 1.8976179635685E-03 
1774	 1.49818362459105E-03 
1775	 1.1783283025547E-03 
1776	 9.24620124384272E-04 
1777	 1.11970792789595E-03 
1778	 1.12175080753646E-03 
1779	 6.44374883070145E-05 
1780	 3.63409854936401E-04 
1781	 2.28973955084052E-03 
1782	 2.38091347113775E-03 
1783	 2.29637365929485E-03 
1784	 2.28605948679924E-03 
1785	 3.93201515554439E-04 
1786	 3.17840506078403E-04 
1787	 2.13822836145296E-03 
1788	 2.42114309395291E-03 
1789	 2.32710190723192E-03 
1790	 8.35405278293502E-04 
1791	 6.70254801136664E-04 
1792	 1.83507375036249E-03 
1793	 2.62129685968803E-03 
1794	 3.4104040333068E-03 
1795	 3.89384520826155E-03 
1796	 2.14618497515861E-03 
1797	 1.29424751153556E-03 
1798	 3.3511249101993E-03 
1799	 3.72782587351898E-03 
1800	 3.62654759399357E-03 
1801	 4.03391128726427E-03 
1802	 3.85649150358088E-03 
1803	 3.13269509013719E-03 
1804	 2.84923116839438E-03 
1805	 2.59360500073105E-03 
1806	-1.0173677082827E-03 
1807	-1.72718276121688E-03 
1808	 2.66626660334248E-03 
1809	 3.45770006981276E-03 
1810	 3.33165186790057E-03 
1811	 4.1472246954452E-03 
1812	 1.95378003157958E-03 
1813	 3.24358440256221E-03 
1814	 7.97472329819679E-03 
1815	 1.29371213492837E-02 
1816	 1.81911486046247E-02 
1817	 0.045751584855581 
1818	 7.61282346510842E-02 
1819	 0.111921625328056 
1820	 0.11449118421995 
1821	 1.91738597778064E-02 
1822	-1.48112245958041E-02 
1823	 2.09885418245271E-04 
1824	-1.29538073280799E-03 
1825	 8.88615907280499E-02 
1826	 0.142636642428731 
1827	 0.145761747083201 
1828	 0.140269710655523 
1829	 8.80973519220866E-02 
1830	 9.65695959301617E-02 
1831	 1.28973960904428E-02 
1832	-2.36626906119465E-02 
1833	-0.300967735179523 
1834	-0.435551126812775 
1835	-0.616909546625245 
1836	-0.639037777807078 
1837	 0.534934318229623 
1838	 0.998337827572641 
1839	 0.878207728905577 
1840	 0.459647326230641 
1841	-0.261302477641368 
1842	-0.766365744122312 
1843	 2.50482655803511E-03 
1844	 2.91579372467308 
1845	 3.39813828123049 
1846	 8.59633112839712 
1847	 74.6611814415142 
1848	-2.69951789202406 
1849	 1.61729714105458 
1850	-1.73033264682478 
1851	-0.490332772785971 
1852	-1.40352770260444 
1853	-1.47708434973676 
1854	-1.3975789656787 
1855	-2.57972421257427 
1856	-3.74595842960332 
1857	-1.59078175883248E-03 
1858	 0.828635735171479 
1859	 2.24851598593925 
1860	 3.88478529865061 
1861	 10.0313297763762 
1862	 6.64326467285094 
1863	 2.72978976215822 
1864	 3.29328255058655 
1865	 5.48062545947751 
1866	 48.943506197578 
1867	-5.03409484169655 
1868	-0.261861709691358 
1869	-9.36058901827166E-02 
1870	-9.26983248154201E-02 
1871	 0.4641713890909 
1872	 0.208667282113793 
1873	 0.477667158692514 
1874	-0.043704937366075 
1875	 0.276742254622125 
1876	-9.09171749868636E-02 
1877	 0.201608295130226 
1878	 0.171691556689955 
1879	-9.64607451966853E-02 
1880	-0.151485965259068 
1881	-0.246829983589464 
1882	-0.69327083751824 
1883	-0.277634651920971 
1884	 0.21853077210369 
1885	 8.33457344237585E-02 
1886	 8.06646336431131E-02 
1887	-0.088049820588248 
1888	-0.397878035334702 
1889	-0.27114464422814 
1890	 0.221820768645461 
1891	 0.150481125207407 
1892	-0.14372625188383 
1893	-0.202501481354883 
1894	-0.429738584475194 
1895	-0.673590350261425 
1896	-0.718249872343935 
1897	-0.855820737928194 
1898	-1.52998805700988 
1899	-8.11152911536892 
1900	-33.497145036109 
1901	-0.485178923653815 
1902	 0.812198551156432 
1903	 2.14554655840404 
1904	 1.60664038192903 
1905	 1.21317923865575 
1906	 0.435836207549084 
1907	-0.80515058756108 
1908	-1.02795287926836 
1909	-0.846414355702895 
1910	-1.42385362337975 
1911	-2.21366622497744 
1912	-7.16497727052955 
1913	-6.51380908045744 
1914	-2.8504519722785 
1915	-1.69090444524809 
1916	-1.02173192537758 
1917	-0.590845740324333 
1918	-0.367017974085473 
1919	-0.382034966691822 
1920	-0.35098137610475 
1921	-0.240060077128662 
1922	-0.148525901162117 
1923	-5.76240516458895E-02 
1924	-6.82169761420887E-02 
1925	-0.115715221969615 
1926	-8.34395975952967E-02 
1927	-2.44942536469601E-02 
1928	 7.18048652606325E-02 
1929	 0.137415717659215 
1930	 0.109327643488488 
1931	 0.013313949288443 
1932	-3.27421442507711E-02 
1933	-5.21953469018742E-02 
1934	-5.02367973125981E-02 
1935	-8.35886898185272E-03 
1936	 1.33370925206339E-02 
1937	-2.49955082041618E-04 
1938	-1.67784090325871E-02 
1939	-2.11823564384926E-02 
1940	-2.69467761533216E-02 
1941	-3.44363379761111E-02 
1942	-3.04035044577913E-02 
1943	-1.18867081509358E-02 
1944	-8.47183946825998E-03 
1945	-1.04100340481985E-02 
1946	-4.38843947796529E-03 
1947	-8.04397007146659E-03 
1948	-9.86286441508607E-03 
1949	-6.28875931036357E-03 
1950	-1.07576538139248E-02 
1951	-1.18710213026891E-02 
1952	-1.02844665086883E-02 
1953	-7.49056572026564E-03 
1954	-6.37009404215847E-03 
1955	 1.27511841981359E-03 
1956	 5.71109937316511E-03 
1957	-6.96414030799007E-04 
1958	-1.7848999608297E-03 
1959	-9.64008064014998E-04 
1960	-6.69555902547488E-03 
1961	-5.84763475299489E-03 
1962	-2.37565707643474E-03 
1963	-2.94136107872533E-03 
1964	-2.1017313795661E-03 
1965	-1.63195340493576E-03 
1966	-2.05095230595588E-03 
1967	-4.37712229027189E-03 
1968	-4.84142442492202E-03 
1969	-2.84955426458036E-03 
1970	-1.19681981918342E-03 
1971	-2.07823765888803E-04 
1972	 1.36953528740806E-04 
1973	-1.03239103552779E-03 
1974	-2.16060252741515E-03 
1975	-1.46166042967005E-03 
1976	-5.42176521784209E-04 
1977	-2.05854586520061E-04 
1978	-3.20989700570188E-04 
1979	-4.12131305667057E-04 
1980	-9.80756566017387E-04 
1981	-1.0903535832857E-03 
1982	-1.26274641044359E-03 
1983	-1.5137521247043E-03 
1984	-2.17890746278091E-04 
1985	 9.20574158532157E-04 
1986	 1.1591364257366E-03 
1987	 2.14948746760316E-03 
1988	 1.48278794091623E-03 
1989	-2.03485538527968E-04 
1990	-5.26022214391317E-04 
1991	-7.07679177803053E-04 
1992	-1.02907913659841E-03 
1993	-1.71040714814162E-03 
1994	-1.97874804086952E-03 
1995	-2.59891649357307E-03 
1996	-2.3171472146506E-03 
1997	-1.81673562196431E-03 
1998	-3.17247419365399E-04 
1999	 1.8270709436969E-03 
2000	 2.14581292268516E-03 
2001	 2.61173699402446E-03 
2002	 2.47180939317459E-03 
2003	 1.45058484365222E-03 
2004	 7.28934163135156E-04 
2005	-1.29087060913652E-03 
2006	-1.57788577138557E-03 
2007	-1.40848102811696E-03 
2008	-1.76488645406498E-03 
2009	-1.44766967027095E-03 
2010	 1.62062882853195E-03 
2011	 1.84890663410146E-03 
2012	 4.22502964823109E-04 
2013	-9.18885925542586E-04 
2014	 2.6000449100524E-06 
2015	-1.02527110583699E-03 
2016	-1.7575659247853E-03 
2017	-1.11330322510795E-03 
2018	-3.90976833092011E-04 
2019	-4.84815965062407E-04 
2020	-1.38882383180411E-03 
2021	-1.08255374640727E-03 
2022	-6.28527247280653E-04 
2023	 3.19328110311982E-04 
2024	 7.67646446801214E-04 
2025	 2.49070197446923E-03 
2026	 2.56420983896006E-03 
2027	 2.01372761716686E-03 
2028	-1.86440166443444E-04 
2029	-1.38319534949267E-03 
2030	-1.24509484458147E-03 
2031	-1.52427953071401E-03 
2032	-9.00545660134438E-04 
2033	-1.75728228776824E-05 
2034	-4.19166597376735E-04 
2035	-6.60600799989214E-04 
2036	-5.12150610593326E-04 
2037	-7.50652469036852E-04 
2038	-4.55714646796308E-04 
2039	-2.79346973892715E-04 
2040	-2.09230103855612E-04 
2041	-1.56158580022688E-04 
2042	 1.93261939205637E-05 
2043	-5.88712596031047E-05 
2044	-2.69924722823153E-04 
2045	-6.13447009751603E-04 
2046	-1.28668085536918E-03 
2047	-1.21685492883855E-03 
2048	-8.22571017483959E-04 
2049	-3.3480106024358E-04 
2050	-8.4539856680098E-04 
2051	-2.06727799255151E-03 
2052	-3.44558710546571E-03 
2053	-4.82414449905882E-03 
2054	-4.52651181388012E-03 
2055	-3.31000088224688E-03 
2056	-2.57572950797537E-03 
2057	-1.93355083851522E-03 
2058	-1.34152539345466E-03 
2059	-7.13736816157678E-04 
2060	-7.31203771826523E-05 
2061	 4.49459915166212E-04 
2062	 1.50953838699892E-03 
2063	 1.64241039635377E-03 
2064	 1.54320231608252E-03 
2065	 1.08325465390459E-03 
2066	-5.75142073655788E-04 
2067	-2.48229931565357E-04 
2068	-9.25693187868347E-05 
2069	-1.12953030221923E-03 
2070	-4.29529735844803E-04 
2071	 6.4217141624512E-04 
2072	 6.92012701096434E-04 
2073	 3.96007902140775E-04 
2074	 7.2306001864389E-04 
2075	 2.61851081169952E-04 
2076	-2.43814155070758E-03 
2077	-2.72638721013139E-03 
2078	-1.33404780305161E-03 
2079	-9.48270264147165E-04 
2080	-3.90683464684758E-04 
2081	 3.62695238046492E-04 
2082	 1.27821610673318E-03 
2083	 1.1477519317694E-03 
2084	 3.30639697983353E-04 
2085	 1.34356151127536E-04 
2086	 4.42953660804403E-04 
2087	 1.71787817391223E-04 
2088	-6.28156239040853E-04 
2089	-6.92838543807228E-04 
2090	-5.27611296919422E-04 
2091	-1.11112333897712E-03 
2092	-1.50321723399265E-03 
2093	-6.31776907714093E-04 
2094	-5.44206229297538E-04 
2095	-1.84733096644912E-03 
2096	-2.11503923153705E-03 
2097	-1.28769525964424E-03 
2098	-1.26253743015953E-03 
2099	-1.74905174327955E-03 
2100	-1.91887268170578E-03 
2101	-1.25614730543677E-03 
2102	-1.01254390259264E-03 
2103	-2.29860630074044E-04 
2104	 7.35271383380511E-04 
2105	 8.17109673202333E-04 
2106	 2.7487683991731E-04 
2107	-1.13722503767872E-04 
2108	-5.59867158825792E-04 
2109	-7.88049176115621E-04 
2110	-4.07921113640415E-04 
2111	-8.39894618733809E-04 
2112	-1.22963037841211E-03 
2113	-1.12163650279859E-03 
2114	-6.98333134855617E-04 
2115	-7.55560251884695E-04 
2116	-5.86827773161924E-04 
2117	-3.48264274885309E-04 
2118	-8.42396493346991E-04 
2119	-9.11035313380319E-04 
2120	-6.12072803729563E-04 
2121	 2.55318353561028E-04 
2122	 8.72849703481585E-04 
2123	 1.21828394159753E-03 
2124	 8.79187493373877E-04 
2125	 7.63257425499905E-05 
2126	-6.71914208579417E-04 
2127	-3.77537104883756E-04 
2128	 7.99785753192013E-04 
2129	 1.1511585154552E-03 
2130	 7.53646180315146E-04 
2131	 9.32464624503495E-04 
2132	 1.00808386963837E-03 
2133	 8.48134533934798E-04 
2134	 4.83487290188392E-04 
2135	-3.06474531835264E-04 
2136	-6.35462668815206E-04 
2137	-1.04438515754106E-03 
2138	-1.05671310475479E-03 
2139	-2.89245660941715E-04 
2140	-1.26641403392369E-04 
2141	-5.12420074090207E-04 
2142	-5.54302833984768E-04 
2143	-6.51344903553304E-04 
2144	-7.02709823176903E-05 
2145	-3.45471588281242E-05 
2146	 2.77946966949117E-04 
2147	-1.66905438612763E-05 
2148	-1.19934417072614E-03 
2149	-1.57454840732801E-03 
2150	-1.4223287724696E-03 
2151	-6.06775441593692E-04 
2152	 3.57762286811149E-04 
2153	 8.62359929362648E-04 
2154	 8.78187225926343E-04 
2155	 9.44997251480701E-04 
2156	 1.18848550580714E-03 
2157	 6.07024888656477E-04 
2158	-5.96727565330002E-04 
2159	-1.44423996337597E-03 
2160	-3.61040974563029E-03 
2161	-3.62868836936424E-03 
2162	-1.50236885996016E-03 
2163	-1.10478391037045E-03 
2164	-9.11025520835263E-04 
2165	-2.62421322771195E-04 
2166	 2.6781775593169E-04 
2167	 1.2853470544109E-04 
2168	 1.81943725511062E-04 
2169	 3.30315306339234E-04 
2170	-4.0243815130592E-04 
2171	-1.34362292482422E-03 
2172	-5.13291518575679E-04 
2173	 2.65725956108516E-04 
2174	 5.88703612121273E-04 
2175	 6.92548427212823E-04 
2176	 6.61485880131155E-04 
2177	 1.4102030526212E-03 
2178	 1.73036776132587E-03 
2179	 7.82223764831597E-04 
2180	-3.68251500877439E-04 
2181	-6.18775374782272E-04 
2182	-6.71280107686945E-04 
2183	-5.91981779293406E-04 
2184	 1.95760166082629E-04 
2185	-1.63826029196896E-05 
2186	 3.66538153248484E-04 
2187	 1.7730578168258E-03 
2188	 1.78970893036926E-03 
2189	 9.42603192028757E-04 
2190	 9.59392559950959E-04 
2191	 6.34480111528678E-04 
2192	-3.18116929918045E-05 
2193	-3.26937001762965E-04 
2194	-8.656484988739E-04 
2195	-2.85992661236253E-03 
2196	-3.28695554787328E-03 
2197	-2.12776755086456E-03 
2198	-1.63522057605954E-03 
2199	-1.10879839590929E-03 
2200	 5.59575554778356E-04 
2201	-5.67061852329653E-04 
2202	-2.35254598196521E-03 
2203	-1.01100724231698E-03 
2204	-1.13890538053427E-03 
2205	-1.99331256160213E-03 
2206	-9.52842732575095E-04 
2207	-0.001187258598939 
2208	-3.02571851071016E-03 
2209	-3.10296543927168E-03 
2210	-7.47738989103632E-04 
2211	 1.10181662834645E-03 
2212	 1.0523589469638E-03 
2213	 8.56247163943727E-04 
2214	 3.32702533438164E-04 
2215	-6.90553354578645E-04 
2216	-9.03311861609968E-04 
2217	-8.13538535718267E-04 
2218	 9.84017543286546E-04 
2219	 9.17613215426882E-04 
2220	-4.66835015825788E-04 
2221	-4.04006237568251E-04 
2222	-3.30841256569774E-04 
2223	-1.51820726807053E-04 
2224	 7.98776139410795E-04 
2225	 1.30366888576698E-03 
2226	 1.75883780463472E-03 
2227	 1.79144606493366E-03 
2228	 1.66427206504463E-03 
2229	 2.05334228632569E-03 
2230	 2.37656185726474E-03 
2231	 2.25229318786071E-03 
2232	 2.22276765087026E-03 
2233	 2.17172291938392E-03 
2234	 1.78921645760854E-03 
2235	 7.5642557987161E-04 
2236	 1.4061734998237E-03 
2237	 1.45657020299044E-03 
2238	 8.39554263556768E-05 
2239	 3.7032052415386E-04 
2240	-1.83651536533123E-04 
2241	-3.25948693415592E-04 
2242	-1.64255749614396E-04 
2243	-1.23194872332881E-03 
2244	-1.98764924268829E-03 
2245	-2.16685400186738E-03 
2246	-1.2618992937431E-03 
2247	-3.34213002240682E-04 
2248	 1.14840359146299E-03 
2249	 2.05195885935957E-03 
2250	 1.88883870138607E-03 
2251	 3.46305066310917E-03 
2252	 4.38604169934287E-03 
2253	 4.52691211038941E-03 
2254	 3.86925301186893E-03 
2255	 1.70308503769156E-03 
2256	-2.86347261660959E-04 
2257	-3.55885786499237E-03 
2258	-5.66292464614413E-03 
2259	-4.86367188552672E-03 
2260	-3.86335354249169E-03 
2261	-1.33425741213617E-04 
2262	 4.90510036675873E-04 
2263	-4.94104916650326E-05 
2264	-1.50610968081631E-04 
2265	-1.80343911116151E-03 
2266	-2.34144966759578E-03 
2267	-1.33253793670171E-03 
2268	-1.37683153865654E-03 
2269	-3.86246796592758E-03 
2270	-2.65325596213902E-03 
2271	 2.86209680303263E-03 
2272	 3.53415676562758E-03 
2273	 2.96471566527678E-03 
2274	 3.2482849762101E-03 
2275	 6.4638609357208E-04 
2276	-7.35053177287796E-04 
2277	-4.18563136438549E-04 
2278	 7.38277785845194E-04 
2279	 0.001940153032799 
2280	 1.9039232897765E-03 
2281	 2.14603561170749E-03 
2282	 4.3926468826904E-03 
2283	 4.45852971596681E-03 
2284	 2.41264171641434E-03 
2285	 9.12938055080713E-04 
2286	-2.50267405650369E-03 
2287	-6.18361815237346E-03 
2288	-8.36288528829646E-03 
2289	-7.09531612795747E-03 
2290	-4.02642602514885E-03 
2291	-3.60487917594525E-03 
2292	-3.7161743645983E-03 
2293	-4.37184176801375E-03 
2294	-5.45545395403476E-03 
2295	-6.70455834497476E-03 
2296	-5.54428857291794E-03 
2297	-3.06258277044836E-03 
2298	-1.57926931806505E-03 
2299	-6.86978868746373E-04 
2300	-2.44760848943662E-03 
2301	-3.67726339483669E-03 
2302	-3.00760595973469E-03 
2303	-2.70598154569926E-03 
2304	-2.17109516760357E-03 
2305	-1.83411994830494E-03 
2306	-2.47590623786533E-03 
2307	-1.61735640151426E-03 
2308	-9.62768078415315E-04 
2309	-1.55182147624003E-03 
2310	-6.38777583407609E-04 
2311	-3.89415031394328E-03 
2312	-6.30858763312869E-03 
2313	-2.65312478385741E-03 
2314	-1.96012405033882E-03 
2315	-1.65861127291009E-03 
2316	 6.7097666213009E-04 
2317	-6.46056339749589E-04 
2318	-4.40478806839683E-03 
2319	-5.18380399759668E-03 
2320	-4.18537188171472E-03 
2321	-3.44010745476936E-03 
2322	-3.02109761906746E-03 
2323	-6.32021682805788E-03 
2324	-6.83459115743405E-03 
2325	-1.9038804931525E-03 
2326	 5.01378860524085E-04 
2327	 1.24829547568731E-03 
2328	-1.20940463995123E-03 
2329	-6.5246173252742E-03 
2330	-9.54039093560681E-03 
2331	-8.12570713126875E-03 
2332	-3.03682119605254E-03 
2333	-1.94747614958451E-03 
2334	-4.09181754102658E-03 
2335	-6.72554137844701E-03 
2336	-1.05179813379786E-02 
2337	-0.010595512708544 
2338	-8.74992190730883E-03 
2339	-8.14019005140212E-03 
2340	-6.13667516674351E-03 
2341	-8.28859833055306E-03 
2342	-1.39196598775444E-02 
2343	-1.01263789810801E-02 
2344	-6.05126242350034E-03 
2345	-5.37668648859409E-03 
2346	-2.75409233430758E-03 
2347	-3.52438682210089E-03 
2348	-3.57574536187854E-03 
2349	-3.53091465011032E-04 
2350	 6.61658720692122E-03 
2351	 9.5521951439216E-03 
2352	 0.004305611121924 
2353	-6.21221148479956E-03 
2354	-1.32326918560107E-02 
2355	-1.57104456777688E-02 
2356	-2.19229278138182E-02 
2357	-1.91503024836928E-02 
2358	-1.32849800839317E-02 
2359	-1.98370631761834E-02 
2360	-2.00214440699704E-02 
2361	-1.42179425631373E-02 
2362	-1.77977684891164E-02 
2363	-1.90293122458793E-02 
2364	-1.68072999034514E-02 
2365	-1.85756684445929E-02 
2366	-2.59032757163556E-02 
2367	-2.58434925291944E-02 
2368	-2.04238223224612E-02 
2369	-2.42534618131162E-02 
2370	-2.05645717358541E-02 
2371	-5.47174840905702E-03 
2372	-3.8642960060955E-03 
2373	-1.54546587942035E-02 
2374	-1.41682635094891E-02 
2375	-1.01708232360367E-02 
2376	-1.12099624141649E-02 
2377	-1.59170700665427E-04 
2378	-1.85840392951555E-03 
2379	-2.47419521743442E-02 
2380	-3.46604199085827E-02 
2381	-3.82301284281337E-02 
2382	-4.38272866571695E-02 
2383	-4.94613531887284E-02 
2384	-6.36120413204778E-02 
2385	-6.48752574749193E-02 
2386	-4.94313581548845E-02 
2387	-2.69233400107922E-02 
2388	-1.54555336171681E-02 
2389	-0.03165085228838 
2390	-4.48624088743326E-02 
2391	-4.54920124869652E-02 
2392	-3.36581617973872E-02 
2393	-2.27007892311083E-02 
2394	-0.021019771703591 
2395	-1.59920020353977E-02 
2396	-1.55677434921445E-02 
2397	-7.77645128546095E-03 
2398	-2.80986847332071E-03 
2399	-9.73544436334791E-04 
2400	 1.89731319548716E-02 
2401	 1.94998619284883E-02 
2402	 2.28077795756336E-03 
2403	 3.41793737099516E-03 
2404	-1.34013700390646E-02 
2405	-3.43323654864052E-02 
2406	-1.32829552444297E-02 
2407	-1.59716061541337E-02 
2408	-3.88364935967263E-02 
2409	-3.36822231767225E-02 
2410	-3.72751891581005E-02 
2411	-3.38388962392603E-02 
2412	-1.85501458573588E-02 
2413	-0.016278261893586 
2414	-1.73684279339882E-02 
2415	-5.42292580208423E-02 
2416	-7.73901845951361E-02 
2417	-6.93895715198805E-02 
2418	-8.07874673079401E-02 
2419	-3.90269783930434E-02 
2420	 4.63700703377398E-03 
2421	-4.20365039630128E-03 
2422	-4.69311750183871E-03 
2423	 8.90220224723991E-03 
2424	 1.69318280315237E-02 
2425	 1.45167967526618E-02 
2426	 6.96799039920441E-04 
2427	-3.54932467957562E-02 
2428	-8.22664231266208E-02 
2429	-0.125340682249531 
2430	-0.134608152201534 
2431	-0.127126545485516 
2432	-0.135318975810565 
2433	-0.131068666420182 
2434	-9.41374624098157E-02 
2435	-5.85013728664769E-02 
2436	-6.97817750595095E-02 
2437	-0.119378877770764 
2438	-0.152046173324709 
2439	-0.147175814073816 
2440	-9.76060092460841E-02 
2441	-1.84239235823778E-02 
2442	 1.57103725796954E-02 
2443	 1.56249817700766E-02 
2444	-1.27009231786971E-02 
2445	-4.85159618222742E-02 
2446	-5.82460600767758E-02 
2447	-0.107488505649177 
2448	-0.11586589768763 
2449	-0.079522768470609 
2450	-0.118882835924694 
2451	-0.236003316083523 
2452	-7.55639169047684E-02 
2453	 0.032662928520392 
2454	 6.83899476575623E-02 
2455	 0.140163579048357 
2456	 0.103201988357544 
2457	 9.34650628676814E-02 
2458	 0.180814524439077 
2459	 0.128866371904507 
2460	 1.35729338478357E-02 
2461	-0.119314193286177 
2462	-0.212651224966903 
2463	-0.131203490024324 
2464	-1.48905338036702E-02 
2465	 7.26568941149549E-02 
2466	 4.19694632917013E-02 
2467	-0.215840737806765 
2468	-0.558211515997504 
2469	-0.581972396094443 
2470	-0.273402385436776 
2471	 0.264209153300693 
2472	 0.272801365953005 
2473	 0.11423770799217 
2474	-9.94518029689046E-03 
2475	-0.201999159425282 
2476	-0.449055834730932 
2477	-0.334567937096856 
2478	 0.151247325312542 
2479	 0.309245595742895 
2480	 0.396713672101443 
2481	 0.573219377598126 
2482	 0.512778174270587 
2483	-1.7234656067101 
2484	-12.8964537462816 
2485	-7.02172630912953 
2486	-2.90659560181634 
2487	-3.21030388473467 
2488	-3.82393304895296 
2489	-11.8677285188462 
2490	 14.8452863022841 
2491	 48.2925710988779 
2492	 5.11172838452691 
2493	-2.6677443308845 
2494	-1.33197907242977 
2495	-3.40047803267479 
2496	 60.7118765905961 
2497	 17.6941548543037 
2498	-6.21935871574805 
2499	-1.78061226917762 
2500	-0.86885535820618 
