Wavelength	rt0624close00009.asd
350	 1.76228810447079E-02 
351	 1.79900280605774E-02 
352	 0.018401214588305 
353	 1.84945734355865E-02 
354	 1.82840519709209E-02 
355	 0.018395029574392 
356	 1.85938483314606E-02 
357	 1.85783438935372E-02 
358	 1.83588549538694E-02 
359	 0.019435088255671 
360	 1.96083896160108E-02 
361	 1.90101079412466E-02 
362	 1.92894740313363E-02 
363	 0.019680138808143 
364	 1.99376764475216E-02 
365	 2.00523536483417E-02 
366	 2.02779079376303E-02 
367	 2.02573004533336E-02 
368	 2.02014485467892E-02 
369	 0.020360203581089 
370	 2.05870298344355E-02 
371	 2.07037768036038E-02 
372	 2.09120707147577E-02 
373	 2.15004850670478E-02 
374	 0.021498273263299 
375	 2.14172849300404E-02 
376	 2.14271354754136E-02 
377	 0.021033081187167 
378	 0.021680540244948 
379	 2.23670530387641E-02 
380	 2.22544560623146E-02 
381	 2.29313409025368E-02 
382	 2.31517806652243E-02 
383	 0.02310476193528 
384	 2.35564789390645E-02 
385	 2.40420883441065E-02 
386	 2.44879252843557E-02 
387	 2.47580020687122E-02 
388	 2.46544265920946E-02 
389	 2.50307657990202E-02 
390	 2.53034405565013E-02 
391	 2.51445598547601E-02 
392	 2.55217674549715E-02 
393	 2.59300039154902E-02 
394	 2.62055834217828E-02 
395	 2.63816306507795E-02 
396	 2.67593521179398E-02 
397	 2.71583043774912E-02 
398	 2.74885892855271E-02 
399	 2.77608330394076E-02 
400	 2.77244515096428E-02 
401	 2.78827935310828E-02 
402	 2.84261582710281E-02 
403	 2.86491640207734E-02 
404	 0.028727848512449 
405	 2.88691754048302E-02 
406	 2.92102467268251E-02 
407	 2.93567543351798E-02 
408	 0.029466635813692 
409	 2.96784180876341E-02 
410	 3.00611577575775E-02 
411	 3.04388062631213E-02 
412	 3.06937459445365E-02 
413	 3.08324206120122E-02 
414	 3.11020466034441E-02 
415	 3.14092624531261E-02 
416	 3.16504021765114E-02 
417	 3.17722853283668E-02 
418	 3.20438738163457E-02 
419	 3.24317889932774E-02 
420	 3.28308558112531E-02 
421	 3.30947614538665E-02 
422	 3.33322994108246E-02 
423	 3.36514651419411E-02 
424	 3.40656696224087E-02 
425	 3.43176424606439E-02 
426	 3.47306677909144E-02 
427	 3.52310290974183E-02 
428	 3.55905013254033E-02 
429	 3.60070034635068E-02 
430	 3.63659266459636E-02 
431	 3.66733370561469E-02 
432	 3.71037139998015E-02 
433	 0.037417182954609 
434	 3.77876822310932E-02 
435	 3.83397568183709E-02 
436	 3.88012243135151E-02 
437	 3.91734003350409E-02 
438	 3.95466929575589E-02 
439	 4.00376223393081E-02 
440	 4.05240285118765E-02 
441	 4.09706133015154E-02 
442	 4.13750027691831E-02 
443	 4.17671426292236E-02 
444	 4.21434797510066E-02 
445	 0.04249771177495 
446	 4.28380895936283E-02 
447	 4.32532651366225E-02 
448	 4.35420913999652E-02 
449	 4.37713222133375E-02 
450	 4.41822968311636E-02 
451	 4.45213139307276E-02 
452	 4.47706612631072E-02 
453	 4.49777127854677E-02 
454	 4.52467768816154E-02 
455	 4.54933738422731E-02 
456	 4.57264918184001E-02 
457	 4.59710315285784E-02 
458	 4.61571225566716E-02 
459	 4.63314090774018E-02 
460	 4.65165225880398E-02 
461	 4.67044829494707E-02 
462	 4.69217555476953E-02 
463	 4.71130919169552E-02 
464	 4.72502106964368E-02 
465	 0.047412885780839 
466	 4.76394424299993E-02 
467	 4.78336206174366E-02 
468	 4.78971149121101E-02 
469	 4.82657515482558E-02 
470	 4.85170092337009E-02 
471	 4.85705335285122E-02 
472	 0.048898552898674 
473	 0.049077530621212 
474	 4.91949461743684E-02 
475	 4.94330029087432E-02 
476	 4.98467637917534E-02 
477	 5.00645472157147E-02 
478	 5.01780910800921E-02 
479	 5.05634060145297E-02 
480	 5.09052472616855E-02 
481	 5.12062791658883E-02 
482	 5.14850231096822E-02 
483	 5.16893060308882E-02 
484	 5.20166236596451E-02 
485	 5.24484869970331E-02 
486	 5.28834860083959E-02 
487	 5.33013623781104E-02 
488	 0.053670007454751 
489	 0.053974233751591 
490	 5.42257607690146E-02 
491	 0.054712501220612 
492	 5.52697901503478E-02 
493	 5.57421188105602E-02 
494	 5.62830957400016E-02 
495	 5.66812297751789E-02 
496	 5.70390869252788E-02 
497	 5.75881314263649E-02 
498	 5.81586094569532E-02 
499	 5.87069875003859E-02 
500	 5.92188908049967E-02 
501	 5.97007466685274E-02 
502	 6.03112463627414E-02 
503	 6.09288493461613E-02 
504	 6.14279468068702E-02 
505	 6.20061370573362E-02 
506	 6.25927667039358E-02 
507	 6.32017718680152E-02 
508	 0.063902881199154 
509	 6.44970275055534E-02 
510	 6.50483682130781E-02 
511	 6.56186915697115E-02 
512	 6.61500815775965E-02 
513	 6.67671155261181E-02 
514	 0.067483577195117 
515	 6.82407462009808E-02 
516	 6.89211381034985E-02 
517	 6.96063059258854E-02 
518	 7.03193704312901E-02 
519	 7.09914986137287E-02 
520	 7.16801942258576E-02 
521	 0.072353025571397 
522	 7.29931989746867E-02 
523	 7.36805100491212E-02 
524	 7.44450612483495E-02 
525	 0.075272893853209 
526	 7.61112572402062E-02 
527	 7.68243950327177E-02 
528	 7.74988370944252E-02 
529	 7.82190865740507E-02 
530	 0.079010122596875 
531	 7.97604816448638E-02 
532	 8.04945429485595E-02 
533	 8.12748739961223E-02 
534	 8.20635755093431E-02 
535	 8.28711655014726E-02 
536	 8.36862376533819E-02 
537	 8.44655999706022E-02 
538	 8.52717370071886E-02 
539	 8.60983526703914E-02 
540	 8.69338646278362E-02 
541	 8.78145992518825E-02 
542	 0.088654924174171 
543	 8.94593553502784E-02 
544	 9.02884101229848E-02 
545	 0.091092572394736 
546	 9.19340137344335E-02 
547	 9.28328791475512E-02 
548	 9.37182696387749E-02 
549	 9.44700908621903E-02 
550	 9.52043871894469E-02 
551	 9.60764080033292E-02 
552	 9.68963657870796E-02 
553	 9.77252004865414E-02 
554	 9.85585104899415E-02 
555	 9.93018319403597E-02 
556	 0.100102739002471 
557	 0.100964449113569 
558	 0.101825725396709 
559	 0.10257742522981 
560	 0.103315554906056 
561	 0.104023408455899 
562	 0.104639536887503 
563	 0.105362825173574 
564	 0.106119429709517 
565	 0.106812889321269 
566	 0.107367107023001 
567	 0.107998252402076 
568	 0.108612770325897 
569	 0.109076815477984 
570	 0.109740713407747 
571	 0.110346814490954 
572	 0.110819207550199 
573	 0.111316424014775 
574	 0.111856123748628 
575	 0.112359920624441 
576	 0.112760248970894 
577	 0.113117672985263 
578	 0.113456459259313 
579	 0.113829432806142 
580	 0.114275779344677 
581	 0.114569332546359 
582	 0.114756284330239 
583	 0.114913760933599 
584	 0.115103888552843 
585	 0.115317997684117 
586	 0.115538570227978 
587	 0.115733805936244 
588	 0.115818168941105 
589	 0.115935375575415 
590	 0.116085697181153 
591	 0.116120273176661 
592	 0.116184752113825 
593	 0.116195055993767 
594	 0.116072850818182 
595	 0.115904291938969 
596	 0.115682317589303 
597	 0.115413198773069 
598	 0.115114865429863 
599	 0.114830100642756 
600	 0.114586338230349 
601	 0.114391947258358 
602	 0.114220584899939 
603	 0.11418990675651 
604	 0.114260525108479 
605	 0.114343171433747 
606	 0.114386456664375 
607	 0.114502178074546 
608	 0.114672070569484 
609	 0.114742407481092 
610	 0.114878655449905 
611	 0.114978512675375 
612	 0.114977589085793 
613	 0.115083002959252 
614	 0.115209026817389 
615	 0.115292316692279 
616	 0.115306110465437 
617	 0.115465997297089 
618	 0.115572636971616 
619	 0.11553148734903 
620	 0.115470290574869 
621	 0.115620528562003 
622	 0.115790472880563 
623	 0.115739523949675 
624	 0.115745941346105 
625	 0.115866821716864 
626	 0.11599694121335 
627	 0.115910016830308 
628	 0.11595272870782 
629	 0.116051602509158 
630	 0.116118274248549 
631	 0.116269247468124 
632	 0.116297803669809 
633	 0.116233085159636 
634	 0.116215863274341 
635	 0.116268590233214 
636	 0.116243497374463 
637	 0.116140780736492 
638	 0.116194178552686 
639	 0.116197235330487 
640	 0.116157392712531 
641	 0.116120889098872 
642	 0.116013685326582 
643	 0.115989891389909 
644	 0.115996200583968 
645	 0.11583099104736 
646	 0.115772896999903 
647	 0.115751725263508 
648	 0.115677274714156 
649	 0.115556666005171 
650	 0.115410301321859 
651	 0.115271553139901 
652	 0.1151559735663 
653	 0.114932681864919 
654	 0.114661400527912 
655	 0.114413539700932 
656	 0.11428178321272 
657	 0.114018216630207 
658	 0.113761342743531 
659	 0.113627491316803 
660	 0.113438791361927 
661	 0.113255388960442 
662	 0.113074657984175 
663	 0.112875134788857 
664	 0.112830238760564 
665	 0.112760626625458 
666	 0.112608443823269 
667	 0.112615725927651 
668	 0.112647171187675 
669	 0.112635233482873 
670	 0.112560326297149 
671	 0.112527441413782 
672	 0.112562078019006 
673	 0.112586643473882 
674	 0.112452100199239 
675	 0.112451549728279 
676	 0.11259664158976 
677	 0.112800378359729 
678	 0.112865964184239 
679	 0.113046788128895 
680	 0.113325051491303 
681	 0.113576583185387 
682	 0.113873185691605 
683	 0.114298284737609 
684	 0.114726189917126 
685	 0.114766704811809 
686	 0.115173286669871 
687	 0.115815698162569 
688	 0.116263813507995 
689	 0.116413011000409 
690	 0.116532350312288 
691	 0.116673126384452 
692	 0.116760658518095 
693	 0.116837684971147 
694	 0.116804814192018 
695	 0.116630419439007 
696	 0.116400712937094 
697	 0.116235111162101 
698	 0.115990074188282 
699	 0.115519158180191 
700	 0.115059073498666 
701	 0.114647121997025 
702	 0.114267700811314 
703	 0.11384820082664 
704	 0.113209444527687 
705	 0.112487311804608 
706	 0.111770658940127 
707	 0.110899987533642 
708	 0.10998186219635 
709	 0.109052832748845 
710	 0.10809593125104 
711	 0.107012990480944 
712	 0.105686039164545 
713	 0.104217955125646 
714	 0.102895202479604 
715	 0.101461346923758 
716	 0.099922687336185 
717	 9.83314358939408E-02 
718	 9.64775435003534E-02 
719	 9.47795832360236E-02 
720	 9.32656933560285E-02 
721	 9.16073417116469E-02 
722	 0.089968953214951 
723	 8.81527025739163E-02 
724	 8.62079754442845E-02 
725	 8.41974873105998E-02 
726	 8.20637860075744E-02 
727	 7.96914098119202E-02 
728	 7.70749978147946E-02 
729	 7.44312405623351E-02 
730	 0.071654324826592 
731	 6.89382818623725E-02 
732	 6.65233761792987E-02 
733	 6.43186082704529E-02 
734	 6.24303994077845E-02 
735	 6.08805034251194E-02 
736	 5.95393542194904E-02 
737	 5.85875056235323E-02 
738	 5.78699404510649E-02 
739	 5.72336496257113E-02 
740	 5.67572432119924E-02 
741	 5.64324963934369E-02 
742	 5.62640650073649E-02 
743	 5.62312734718693E-02 
744	 0.056137380768587 
745	 5.60217984802734E-02 
746	 5.59380008973844E-02 
747	 5.59193198553771E-02 
748	 5.58380328919991E-02 
749	 5.57711617606942E-02 
750	 5.57736454909747E-02 
751	 5.56292470945234E-02 
752	 5.56111501267742E-02 
753	 5.57180839116586E-02 
754	 5.57893478289515E-02 
755	 5.57618832946926E-02 
756	 0.055722397683379 
757	 5.56843502781416E-02 
758	 0.055490743118172 
759	 5.52812942474666E-02 
760	 5.51160488545551E-02 
761	 5.51251290775382E-02 
762	 5.55429298812286E-02 
763	 5.56635375880407E-02 
764	 5.57416796531919E-02 
765	 5.61573864670068E-02 
766	 5.63671452874479E-02 
767	 5.65566583238111E-02 
768	 5.67807846374806E-02 
769	 5.69478404042722E-02 
770	 5.71819775933854E-02 
771	 5.74574811405257E-02 
772	 5.77222390805346E-02 
773	 5.79301106669522E-02 
774	 5.82400690849735E-02 
775	 5.85907190776058E-02 
776	 5.88642013294695E-02 
777	 5.92352224347803E-02 
778	 5.95861817518643E-02 
779	 5.99242671435249E-02 
780	 6.03920458607374E-02 
781	 6.08180686937993E-02 
782	 6.13241621163525E-02 
783	 6.19356995678841E-02 
784	 6.23496940804287E-02 
785	 6.27247075772788E-02 
786	 6.31674944897333E-02 
787	 6.37193672455222E-02 
788	 6.41677565211194E-02 
789	 6.47982223819083E-02 
790	 6.55343145559705E-02 
791	 6.60232912695252E-02 
792	 6.63963689727886E-02 
793	 0.066846101210499 
794	 6.74312096213858E-02 
795	 6.79796270287049E-02 
796	 6.85461704137684E-02 
797	 6.90516642159929E-02 
798	 6.94682924407997E-02 
799	 0.070035883743696 
800	 7.04755976474561E-02 
801	 7.07947103730497E-02 
802	 7.11502680889085E-02 
803	 7.14513604694912E-02 
804	 7.16316048689335E-02 
805	 0.071727704349092 
806	 7.18821184877925E-02 
807	 7.20745616006166E-02 
808	 7.20128872167511E-02 
809	 7.16408438342919E-02 
810	 7.15994324734719E-02 
811	 7.15488629169474E-02 
812	 7.14150554062498E-02 
813	 7.11793486458235E-02 
814	 7.06456133394962E-02 
815	 7.00772149385235E-02 
816	 6.95728660614895E-02 
817	 6.90397463891148E-02 
818	 6.83080299768153E-02 
819	 6.74848804932682E-02 
820	 6.65204524894459E-02 
821	 6.51503583837551E-02 
822	 6.38533244304414E-02 
823	 6.23325164600127E-02 
824	 6.04254487239402E-02 
825	 5.86494053499519E-02 
826	 5.66594609064136E-02 
827	 5.44067530238978E-02 
828	 0.052087680178814 
829	 4.99652204778182E-02 
830	 4.79701616569039E-02 
831	 0.046128460436971 
832	 4.45611233515988E-02 
833	 4.30400692275834E-02 
834	 4.19839330664816E-02 
835	 4.14084369849583E-02 
836	 4.07277549713897E-02 
837	 3.99139847552635E-02 
838	 3.92389539506002E-02 
839	 3.88353863277762E-02 
840	 3.82611715770385E-02 
841	 3.78231952277906E-02 
842	 0.037420927344588 
843	 3.68569562648958E-02 
844	 3.61806167719347E-02 
845	 3.58351090857064E-02 
846	 3.57320453961635E-02 
847	 3.53970773715961E-02 
848	 3.46235006629286E-02 
849	 3.40110780442906E-02 
850	 3.37809099430559E-02 
851	 0.033537408136072 
852	 3.31712908152647E-02 
853	 0.032761332990975 
854	 3.24251621511096E-02 
855	 3.22398501345944E-02 
856	 3.17311087046959E-02 
857	 3.11747470195374E-02 
858	 3.09198303265491E-02 
859	 3.08086169161979E-02 
860	 0.030412096895888 
861	 3.00440658495513E-02 
862	 3.01560094346971E-02 
863	 2.95302968693979E-02 
864	 0.028984298394149 
865	 0.028700860705831 
866	 2.82076382991916E-02 
867	 2.80047176089696E-02 
868	 2.77458350440443E-02 
869	 2.72907075429902E-02 
870	 2.69101104729799E-02 
871	 2.66744170820251E-02 
872	 2.62343488617716E-02 
873	 2.55341342844991E-02 
874	 2.54052472217253E-02 
875	 2.46491237084944E-02 
876	 2.38814555064284E-02 
877	 2.38512502346208E-02 
878	 2.36919393605478E-02 
879	 2.31317591352514E-02 
880	 2.25645576105215E-02 
881	 2.24690216019035E-02 
882	 2.18459341436854E-02 
883	 2.11901350577541E-02 
884	 2.07799343889852E-02 
885	 2.05852544604398E-02 
886	 2.00535675793901E-02 
887	 1.94919342682137E-02 
888	 1.90984862234869E-02 
889	 1.88229795170533E-02 
890	 1.86619313728664E-02 
891	 1.84275631891565E-02 
892	 1.79932999793861E-02 
893	 1.73998444923809E-02 
894	 1.68235951259703E-02 
895	 1.64599232668723E-02 
896	 1.63518965961285E-02 
897	 1.61543352804998E-02 
898	 1.57112786725532E-02 
899	 1.53723421141632E-02 
900	 1.53752484839832E-02 
901	 1.49980476111089E-02 
902	 1.42970147040501E-02 
903	 1.37000107241788E-02 
904	 1.35702901490343E-02 
905	 1.32333342642892E-02 
906	 0.012777062026768 
907	 1.25145986662408E-02 
908	 1.26938875983567E-02 
909	 1.21697114479531E-02 
910	 1.12628708974256E-02 
911	 1.04573998499445E-02 
912	 1.01381518970893E-02 
913	 9.79842260070303E-03 
914	 9.72627326230957E-03 
915	 9.51255494735234E-03 
916	 8.11688680761413E-03 
917	 7.70866621732446E-03 
918	 7.06878577667977E-03 
919	 6.07689692740315E-03 
920	 6.72095015534913E-03 
921	 6.22550780661709E-03 
922	 5.45814111529007E-03 
923	 5.16053584020388E-03 
924	 4.29774722998408E-03 
925	 3.39664569307881E-03 
926	 2.6535908040123E-03 
927	 2.20089791887114E-03 
928	 2.32964759874971E-03 
929	 9.75281966779992E-04 
930	-6.91615838402426E-04 
931	-5.9042692494031E-04 
932	-1.70034463027243E-03 
933	-2.08658785502208E-03 
934	-2.1022706992115E-03 
935	-2.72904902210195E-03 
936	-2.68267609706304E-03 
937	-2.6442105249027E-03 
938	-2.47943177047113E-03 
939	-2.07094173342046E-03 
940	-2.6045891075722E-03 
941	-2.95215991787562E-03 
942	-2.67943577477734E-03 
943	-2.05672983171541E-03 
944	-2.96775632732845E-03 
945	-2.5476071999708E-03 
946	-1.38409605845179E-03 
947	-2.02096850183777E-03 
948	-3.95703166882548E-03 
949	-5.05373720931253E-03 
950	-5.24661604640282E-03 
951	-5.56738435394828E-03 
952	-4.00254428698529E-03 
953	-4.08097845143183E-03 
954	-5.64526408213976E-03 
955	-5.74839422847633E-03 
956	-4.25179379424588E-03 
957	-3.68070528453473E-03 
958	-3.49889384614405E-03 
959	-1.48865719963857E-03 
960	-1.79660387295776E-03 
961	-2.66209770760068E-03 
962	-2.7137910738057E-03 
963	-1.86739543103297E-03 
964	-3.13534978659734E-03 
965	-3.11805733321304E-03 
966	-1.46205548365214E-03 
967	-6.01593102516545E-04 
968	-7.8618211063863E-04 
969	-1.03990652972874E-03 
970	-1.23019584045264E-03 
971	-2.11459002289418E-03 
972	-4.36573687890648E-03 
973	-4.81081600210977E-03 
974	-2.83895534993294E-03 
975	-9.75469111751494E-04 
976	-1.40992282712879E-03 
977	-2.65242039193188E-03 
978	-3.40834238422604E-03 
979	-3.29938824927425E-03 
980	-3.0506482716047E-03 
981	-2.52935907244135E-03 
982	-2.73829822724892E-03 
983	-4.72844299629423E-03 
984	-2.04097274482167E-03 
985	-1.47342958527354E-03 
986	-3.21217852513175E-03 
987	-2.01525307551698E-03 
988	-3.7022631734541E-03 
989	-3.13172073813197E-03 
990	-1.42091960987067E-03 
991	-3.67774875841183E-03 
992	-2.47999924971542E-03 
993	-1.30641478370986E-03 
994	-1.41746889598864E-03 
995	-1.8236202271889E-03 
996	-2.56237961326528E-03 
997	-3.33387533230167E-03 
998	-4.03687440880214E-03 
999	-4.50982386911699E-03 
1000	-3.40051850551571E-03 
1001	 1.64428320866749E-03 
1002	 1.94145717348254E-03 
1003	 2.05343307231999E-03 
1004	 2.05595705508425E-03 
1005	 2.01191757099022E-03 
1006	 1.94360651949903E-03 
1007	 1.59356459828657E-03 
1008	 1.36835088262614E-03 
1009	 1.42630535970782E-03 
1010	 1.58694989903287E-03 
1011	 1.91321462531632E-03 
1012	 2.1515499285883E-03 
1013	 2.09977479381515E-03 
1014	 2.04008727826353E-03 
1015	 1.71886255277847E-03 
1016	 1.56878542501686E-03 
1017	 1.44487415392251E-03 
1018	 1.33960627135476E-03 
1019	 1.30462841672908E-03 
1020	 1.2646454595364E-03 
1021	 9.88866527052142E-04 
1022	 1.21661201482616E-03 
1023	 1.67661527673089E-03 
1024	 1.79684723953335E-03 
1025	 2.42044296806831E-03 
1026	 2.34196741167549E-03 
1027	 2.27211212604925E-03 
1028	 1.85788362916579E-03 
1029	 1.73639416319346E-03 
1030	 1.54984581804211E-03 
1031	 1.58689082468636E-03 
1032	 2.07156675799469E-03 
1033	 1.97328844446904E-03 
1034	 1.42318939520609E-03 
1035	 1.3108636508057E-03 
1036	 1.06045030193474E-03 
1037	 9.11902280982756E-04 
1038	 1.08616259479225E-03 
1039	 1.38164872434841E-03 
1040	 1.37349581339616E-03 
1041	 1.32832472191393E-03 
1042	 1.55156875435236E-03 
1043	 2.08802984940073E-03 
1044	 2.2608420358634E-03 
1045	 2.48196370870945E-03 
1046	 2.50371167932957E-03 
1047	 2.11824899444968E-03 
1048	 2.07858897364373E-03 
1049	 2.16407926444799E-03 
1050	 2.14807976774025E-03 
1051	 2.21591756247442E-03 
1052	 2.26369843307772E-03 
1053	 2.17985004560032E-03 
1054	 2.21282628146641E-03 
1055	 2.47603423659763E-03 
1056	 2.51776649046429E-03 
1057	 2.48144733004824E-03 
1058	 2.29262786781914E-03 
1059	 2.36992122623494E-03 
1060	 2.38840540361036E-03 
1061	 2.57990689787782E-03 
1062	 3.17950353267309E-03 
1063	 3.3609802295236E-03 
1064	 3.45823244015243E-03 
1065	 3.40300661387935E-03 
1066	 3.06642085959929E-03 
1067	 2.84137151731274E-03 
1068	 2.44883970724057E-03 
1069	 2.25837378282205E-03 
1070	 2.04258275128931E-03 
1071	 2.08018135759238E-03 
1072	 2.45138845511321E-03 
1073	 2.80717021773542E-03 
1074	 2.87118376719795E-03 
1075	 2.91250329956016E-03 
1076	 2.94043213260294E-03 
1077	 2.65138486258334E-03 
1078	 2.60834600008387E-03 
1079	 2.90299491650627E-03 
1080	 2.87032841485224E-03 
1081	 2.55698075375775E-03 
1082	 2.49860444099529E-03 
1083	 2.39803064009139E-03 
1084	 2.40075384678647E-03 
1085	 2.7854947908649E-03 
1086	 2.82001646325806E-03 
1087	 2.54010623225528E-03 
1088	 2.49185746749543E-03 
1089	 2.4612868070675E-03 
1090	 2.38883868009594E-03 
1091	 2.25291088032367E-03 
1092	 2.21462379810532E-03 
1093	 2.17998668849232E-03 
1094	 1.8988275919125E-03 
1095	 1.94148583776352E-03 
1096	 2.4778503203199E-03 
1097	 2.48230593848037E-03 
1098	 2.08908196470635E-03 
1099	 2.13333875349403E-03 
1100	 2.25729660278707E-03 
1101	 2.28684422498545E-03 
1102	 2.80002262124919E-03 
1103	 2.77687844011633E-03 
1104	 2.11172539340051E-03 
1105	 1.6375189552119E-03 
1106	 1.40223861560378E-03 
1107	 1.63032503425334E-03 
1108	 2.09602331721658E-03 
1109	 1.98412036677812E-03 
1110	 1.94874654359897E-03 
1111	 1.52376654494006E-03 
1112	 1.48387473982909E-03 
1113	 1.74821787336546E-03 
1114	 1.75892571197351E-03 
1115	 1.6564541819052E-03 
1116	 1.46369115343268E-03 
1117	 1.04619988841578E-03 
1118	 7.77203596524523E-04 
1119	 3.13015290429621E-04 
1120	 3.80220635607848E-04 
1121	 1.07643486729522E-03 
1122	 1.32623027177463E-03 
1123	 2.53369393031408E-03 
1124	 2.99556972150188E-03 
1125	 1.45706869042777E-03 
1126	 8.07020805777803E-04 
1127	 1.41761726560746E-03 
1128	 1.59404094684954E-03 
1129	 1.3229708912301E-03 
1130	 1.97644098753599E-03 
1131	 1.85552244756479E-03 
1132	-3.26893184618422E-04 
1133	-2.99525910442464E-04 
1134	 1.74526029783382E-03 
1135	 1.77103399130538E-03 
1136	 1.20788904515354E-03 
1137	 1.38561234524911E-03 
1138	 1.41609196312714E-03 
1139	 7.05370189013868E-04 
1140	 9.22182827779184E-04 
1141	 1.47620255109579E-03 
1142	 1.39366494127323E-03 
1143	 1.02725579203692E-03 
1144	 1.12057026853565E-03 
1145	 1.79354357833293E-03 
1146	 2.50462738977094E-03 
1147	 2.61963325841919E-03 
1148	 0.002294325914768 
1149	 2.00224621262673E-03 
1150	 1.98037741361844E-03 
1151	 2.08006088223525E-03 
1152	 2.02546606711334E-03 
1153	 2.11692720430563E-03 
1154	 2.01671862146252E-03 
1155	 1.59592816144766E-03 
1156	 1.47370765057113E-03 
1157	 1.4051987928005E-03 
1158	 1.37008907643512E-03 
1159	 1.73772475257689E-03 
1160	 1.56834022655376E-03 
1161	 1.36493288672805E-03 
1162	 1.61761241889268E-03 
1163	 1.23194473545073E-03 
1164	 1.03764079913256E-03 
1165	 1.52661927001195E-03 
1166	 1.49214494941398E-03 
1167	 1.30832750236353E-03 
1168	 1.52366375044095E-03 
1169	 1.29630376413333E-03 
1170	 1.03413708056527E-03 
1171	 1.08805369997439E-03 
1172	 1.54560223901628E-03 
1173	 1.55221077835653E-03 
1174	 1.51196122141594E-03 
1175	 1.50044184309326E-03 
1176	 1.01444868032398E-03 
1177	 8.0959845531844E-04 
1178	 9.56813545281126E-04 
1179	 1.05956139994017E-03 
1180	 1.37100434588809E-03 
1181	 1.48063714545957E-03 
1182	 1.32779830134739E-03 
1183	 1.15138821213553E-03 
1184	 1.04907915477372E-03 
1185	 1.1263060176248E-03 
1186	 1.08268746792834E-03 
1187	 1.24680316654787E-03 
1188	 1.60049395672528E-03 
1189	 1.42994520157734E-03 
1190	 1.36434515110167E-03 
1191	 1.44484335429686E-03 
1192	 1.37765967963169E-03 
1193	 1.08428072345342E-03 
1194	 1.29075866281762E-03 
1195	 1.3534770040536E-03 
1196	 1.0842948772618E-03 
1197	 1.04065110945015E-03 
1198	 9.44145128366557E-04 
1199	 1.05211964664007E-03 
1200	 1.21262615161225E-03 
1201	 1.25725363933977E-03 
1202	 1.21164729609049E-03 
1203	 9.59314022066844E-04 
1204	 9.65534699982391E-04 
1205	 1.15705318543768E-03 
1206	 1.35013178921201E-03 
1207	 1.50923054808035E-03 
1208	 1.35727954236357E-03 
1209	 1.14504940203131E-03 
1210	 1.15463205393237E-03 
1211	 1.21851647963119E-03 
1212	 1.28238549574439E-03 
1213	 1.29242027336238E-03 
1214	 1.29385001970018E-03 
1215	 1.12925488976497E-03 
1216	 1.12714035870789E-03 
1217	 1.32213164397686E-03 
1218	 1.45916193336087E-03 
1219	 1.49634402689911E-03 
1220	 1.4488978267889E-03 
1221	 1.42407303229971E-03 
1222	 1.40027516924566E-03 
1223	 1.44422705231676E-03 
1224	 1.48163616963112E-03 
1225	 1.36226510766214E-03 
1226	 1.29608007275716E-03 
1227	 1.35908778248401E-03 
1228	 1.43827700969567E-03 
1229	 1.34692541993367E-03 
1230	 1.20506890135882E-03 
1231	 1.09334574754801E-03 
1232	 9.57252640286046E-04 
1233	 1.07226463972558E-03 
1234	 1.28331598682911E-03 
1235	 1.33703360585126E-03 
1236	 1.34554488077429E-03 
1237	 1.3844752091814E-03 
1238	 1.35540930866853E-03 
1239	 1.23753267062168E-03 
1240	 1.25000250252986E-03 
1241	 1.28769122503962E-03 
1242	 1.18108715082653E-03 
1243	 1.21299697868274E-03 
1244	 1.35638244741633E-03 
1245	 1.28616114466341E-03 
1246	 1.16186941392961E-03 
1247	 1.13292453058628E-03 
1248	 1.18470548953822E-03 
1249	 1.35893024204365E-03 
1250	 1.47010224066528E-03 
1251	 1.26226960076701E-03 
1252	 1.03988654521277E-03 
1253	 0.001132088726584 
1254	 1.28892581710293E-03 
1255	 1.3862922262422E-03 
1256	 1.42769110713162E-03 
1257	 1.33893246467358E-03 
1258	 1.25204771439025E-03 
1259	 1.04677325618362E-03 
1260	 1.0936476315102E-03 
1261	 1.40473038118612E-03 
1262	 1.4366533524599E-03 
1263	 1.42461009427377E-03 
1264	 1.39263885994927E-03 
1265	 1.26954415752738E-03 
1266	 1.11035519009672E-03 
1267	 1.14418348665577E-03 
1268	 1.21913870171073E-03 
1269	 1.18101737304479E-03 
1270	 1.09482419361299E-03 
1271	 1.11194112210949E-03 
1272	 1.19835209571628E-03 
1273	 1.31300001479092E-03 
1274	 1.34336259764485E-03 
1275	 1.26963980200311E-03 
1276	 1.2776118978911E-03 
1277	 1.38492690645827E-03 
1278	 1.42252901591335E-03 
1279	 1.2369410827752E-03 
1280	 1.3022044813116E-03 
1281	 1.32937347523326E-03 
1282	 1.31540733508156E-03 
1283	 1.23330249637935E-03 
1284	 1.15282594426484E-03 
1285	 1.14179200220979E-03 
1286	 1.15588955329685E-03 
1287	 1.16937379606966E-03 
1288	 1.26519084180413E-03 
1289	 1.29667042060209E-03 
1290	 1.20417289542175E-03 
1291	 1.16643132887864E-03 
1292	 1.32204902111182E-03 
1293	 1.45377575991989E-03 
1294	 1.41264657885212E-03 
1295	 1.27541842629632E-03 
1296	 1.10552877067278E-03 
1297	 1.0676545374993E-03 
1298	 1.12271027852036E-03 
1299	 1.11841518306786E-03 
1300	 1.35173192862065E-03 
1301	 1.55233040416531E-03 
1302	 1.4217411772641E-03 
1303	 1.32495320941212E-03 
1304	 1.12013634043921E-03 
1305	 8.87955109776562E-04 
1306	 8.42421241015516E-04 
1307	 1.10420656128761E-03 
1308	 1.09378504452275E-03 
1309	 9.25679289373499E-04 
1310	 1.0492993726838E-03 
1311	 1.38836849098877E-03 
1312	 1.44078561414548E-03 
1313	 1.53690163575893E-03 
1314	 1.53280028868985E-03 
1315	 1.11929038647435E-03 
1316	 9.31250817376671E-04 
1317	 9.03667246626892E-04 
1318	 9.68958836839452E-04 
1319	 1.14855113722022E-03 
1320	 1.21665336980011E-03 
1321	 1.35102216020557E-03 
1322	 1.58273651850187E-03 
1323	 1.51044119386198E-03 
1324	 1.07774290931187E-03 
1325	 1.16791091537025E-03 
1326	 1.3928391885798E-03 
1327	 1.30468339927632E-03 
1328	 1.45362471476187E-03 
1329	 1.4921903300765E-03 
1330	 1.19931726861042E-03 
1331	 1.10349217472897E-03 
1332	 1.19905129192363E-03 
1333	 1.18879780260748E-03 
1334	 0.001160757883825 
1335	 1.13401762145242E-03 
1336	 1.01310387231301E-03 
1337	 1.18501215502445E-03 
1338	 1.65664011038858E-03 
1339	 1.73400790719661E-03 
1340	 1.89760369953852E-03 
1341	 2.06751261575107E-03 
1342	 1.81431600570532E-03 
1343	 1.64343763878012E-03 
1344	 1.61778917487997E-03 
1345	 1.74774284758777E-03 
1346	 2.08105973340825E-03 
1347	 1.81665393911055E-03 
1348	 0.000824619304267 
1349	 7.17069005637248E-04 
1350	 1.13507163067226E-03 
1351	 6.32675489518536E-04 
1352	 1.06167954552073E-03 
1353	 1.66729833803486E-03 
1354	-2.26533393689369E-03 
1355	-5.83545919411627E-03 
1356	 3.27436732180746E-04 
1357	 0.008869665609791 
1358	 0.015988411728266 
1359	 6.69690560746593E-03 
1360	-2.52129973760156E-02 
1361	-7.49441751624153E-03 
1362	 3.48197234594319E-02 
1363	 3.12668250063982E-02 
1364	 3.82964907332308E-02 
1365	-7.49975372900995E-03 
1366	-7.55013387581092E-02 
1367	-7.00617257514966E-03 
1368	 4.06165358967994E-02 
1369	 0.185874164186063 
1370	 0.212889852933598 
1371	 0.224140692013992 
1372	 0.225528156426718 
1373	 0.126514882577093 
1374	 0.114162208637153 
1375	 0.170326359370616 
1376	 0.124393414527554 
1377	 2.28578750648157E-02 
1378	-9.25691431976333E-03 
1379	-6.08804096527176E-02 
1380	-0.108572979504712 
1381	-0.127592022517401 
1382	-0.111596994899165 
1383	-9.55031791265917E-02 
1384	-8.51595431129385E-02 
1385	-1.11321575470507E-02 
1386	 1.08503866543697E-02 
1387	-2.29605854448463E-02 
1388	-3.24002169252441E-02 
1389	-1.01924970583093E-02 
1390	-1.11428828962565E-02 
1391	-3.78318680384494E-02 
1392	-4.09437372625513E-02 
1393	-1.87954724444721E-02 
1394	 1.27289006441874E-02 
1395	 8.09141717815744E-02 
1396	 6.13744961632689E-02 
1397	 1.77362304945535E-02 
1398	 3.12205429143493E-03 
1399	 9.17309275712226E-03 
1400	 1.56584976358755E-02 
1401	-1.85048341044858E-02 
1402	-1.55974966820286E-02 
1403	 3.21871036357459E-02 
1404	 5.18112964908485E-02 
1405	 3.14672694954718E-02 
1406	 3.32364279788233E-03 
1407	 7.59683307044968E-03 
1408	 1.96196265591531E-03 
1409	-1.45227760539573E-02 
1410	-2.16485643510383E-02 
1411	-8.48401150355155E-03 
1412	-4.21396133119915E-03 
1413	-4.2499123227263E-03 
1414	 1.51500202873618E-02 
1415	 1.84243029800696E-02 
1416	 3.37577873074454E-03 
1417	-6.13072330974028E-04 
1418	 4.35744768762917E-03 
1419	 3.48527983155271E-03 
1420	-2.27012344386906E-03 
1421	-4.28426708067322E-03 
1422	-6.17370607223971E-03 
1423	-4.74410322971898E-03 
1424	 5.67898452652776E-04 
1425	 4.34465520800951E-04 
1426	-0.001962336716328 
1427	-1.20504137461484E-03 
1428	-1.54660180707918E-04 
1429	-1.18607178384207E-03 
1430	-1.89646788104365E-03 
1431	-6.62009820272805E-04 
1432	-1.0916431038646E-03 
1433	-1.55660365160066E-03 
1434	 8.19984174652945E-04 
1435	 2.41136409296081E-03 
1436	 2.12384452281887E-03 
1437	 2.87599931827427E-03 
1438	 3.39723572569072E-03 
1439	 3.44428827585217E-03 
1440	 2.47556191119548E-03 
1441	 1.72353907379396E-03 
1442	 2.61186692173669E-03 
1443	 0.002174160634954 
1444	 2.09256084444091E-04 
1445	-3.52009656187572E-05 
1446	 1.61329405431355E-03 
1447	 2.37962652029735E-03 
1448	 1.77926537919895E-03 
1449	 1.73260348799186E-03 
1450	 1.80940601640068E-03 
1451	 1.61414513714935E-03 
1452	 2.0726063197495E-03 
1453	 2.21661037217847E-03 
1454	 1.97026026349638E-03 
1455	 3.78550005047005E-04 
1456	 3.98407772311246E-04 
1457	 1.53748500154174E-03 
1458	 1.43666078881052E-03 
1459	 8.36511761338061E-04 
1460	 9.73861962338227E-04 
1461	 1.14204578801093E-03 
1462	 9.69323759557475E-04 
1463	 1.1146496807761E-03 
1464	 1.37052205007857E-03 
1465	 1.1510668546482E-03 
1466	 9.51931403902235E-04 
1467	 1.22438960172833E-03 
1468	 1.63840180455772E-03 
1469	 1.84933567018695E-03 
1470	 1.69172609526131E-03 
1471	 1.84846068244106E-03 
1472	 1.93626232080503E-03 
1473	 1.36572446393407E-03 
1474	 9.18881916745405E-04 
1475	 9.22437844622348E-04 
1476	 8.17332390166405E-04 
1477	-8.40160706984603E-05 
1478	 1.51391285618961E-04 
1479	 1.45210629210885E-03 
1480	 1.71788760991735E-03 
1481	 2.11546372129007E-03 
1482	 2.10589268948848E-03 
1483	 1.27569828350241E-03 
1484	 9.7540614445143E-04 
1485	 0.00079220878214 
1486	 7.29843858361045E-04 
1487	 9.40276401656913E-04 
1488	 8.8084072498816E-04 
1489	 7.10555574947032E-04 
1490	 6.47388472387136E-04 
1491	 3.61393426776803E-04 
1492	 4.44201521441124E-04 
1493	 1.02043699742348E-03 
1494	 1.08122812871543E-03 
1495	 9.49863447834738E-04 
1496	 9.33624895557273E-04 
1497	 6.84981902769422E-04 
1498	 6.00833792393772E-04 
1499	 7.47231092556545E-04 
1500	 8.39388804786583E-04 
1501	 8.93095122145188E-04 
1502	 9.11092204930495E-04 
1503	 9.87455752463745E-04 
1504	 9.7675956490998E-04 
1505	 8.05950042614996E-04 
1506	 7.8805083953053E-04 
1507	 9.72518113813405E-04 
1508	 9.8588566138787E-04 
1509	 1.00364858559183E-03 
1510	 1.15390293309552E-03 
1511	 1.08483618099941E-03 
1512	 1.02239119351521E-03 
1513	 1.09526459664967E-03 
1514	 1.19234451060493E-03 
1515	 1.23832823487628E-03 
1516	 1.03967349352897E-03 
1517	 6.65436846774839E-04 
1518	 6.14683161542454E-04 
1519	 1.01775616354508E-03 
1520	 1.16661955420708E-03 
1521	 1.19921544468545E-03 
1522	 1.22728829500837E-03 
1523	 8.92927377933538E-04 
1524	 7.30661959342752E-04 
1525	 8.12836150226504E-04 
1526	 9.44872013872572E-04 
1527	 9.83836102736644E-04 
1528	 8.83021670787872E-04 
1529	 9.57017835463182E-04 
1530	 1.06007498760461E-03 
1531	 1.08845511375031E-03 
1532	 0.001048958058324 
1533	 1.02207918051799E-03 
1534	 9.98959831147967E-04 
1535	 1.04539492495362E-03 
1536	 1.35613304385134E-03 
1537	 1.38897101894688E-03 
1538	 1.10225919038017E-03 
1539	 1.01128762604445E-03 
1540	 1.06068935089303E-03 
1541	 1.06797293549352E-03 
1542	 1.0167252784575E-03 
1543	 1.00160694091036E-03 
1544	 9.52849630937367E-04 
1545	 8.74085217386532E-04 
1546	 9.32697561185435E-04 
1547	 1.05350598220392E-03 
1548	 1.01740969773937E-03 
1549	 8.38678483975438E-04 
1550	 8.6328199855132E-04 
1551	 9.13263554185659E-04 
1552	 7.02845376658264E-04 
1553	 6.45362398992293E-04 
1554	 8.68859068614559E-04 
1555	 1.02219145564646E-03 
1556	 8.88661454001351E-04 
1557	 7.95504363209487E-04 
1558	 7.88294152602371E-04 
1559	 5.93723670643458E-04 
1560	 6.11665788545874E-04 
1561	 8.39590689689262E-04 
1562	 8.48382789365358E-04 
1563	 7.46048002033993E-04 
1564	 7.08181305739053E-04 
1565	 6.49008106379185E-04 
1566	 6.42518155070046E-04 
1567	 6.26556858179907E-04 
1568	 5.80519471855433E-04 
1569	 7.23530615294177E-04 
1570	 7.94993350751554E-04 
1571	 8.45871277101862E-04 
1572	 1.04665422018376E-03 
1573	 1.05569298290507E-03 
1574	 9.56525203015908E-04 
1575	 1.08677970767447E-03 
1576	 1.1135626278359E-03 
1577	 8.89958161885503E-04 
1578	 9.30911737945778E-04 
1579	 9.10355060933207E-04 
1580	 5.92099226386136E-04 
1581	 5.62348515638961E-04 
1582	 7.51366197735162E-04 
1583	 7.2597073442778E-04 
1584	 5.52896798132197E-04 
1585	 6.71221043911745E-04 
1586	 7.23203658109182E-04 
1587	 4.16094846548009E-04 
1588	 5.07882848815747E-04 
1589	 7.80615922610917E-04 
1590	 6.64774744493341E-04 
1591	 5.83144360766679E-04 
1592	 6.92367068944145E-04 
1593	 6.54233201366672E-04 
1594	 5.5260066497578E-04 
1595	 5.89137861554649E-04 
1596	 7.16353066118307E-04 
1597	 7.32752051706411E-04 
1598	 6.01949288404666E-04 
1599	 9.35452841421979E-04 
1600	 1.24444887902735E-03 
1601	 7.91591173652302E-04 
1602	 5.06210086684229E-04 
1603	 7.4871399666994E-04 
1604	 8.18993358490179E-04 
1605	 6.72079667481647E-04 
1606	 7.73265767061989E-04 
1607	 5.66599907229001E-04 
1608	 7.05437991789844E-05 
1609	 4.3481876839466E-04 
1610	 8.3554858970244E-04 
1611	 5.86676639342426E-04 
1612	 7.3060677033239E-04 
1613	 1.04358062556063E-03 
1614	 1.03817008301252E-03 
1615	 9.95706367005275E-04 
1616	 8.54628534322371E-04 
1617	 6.9838817405997E-04 
1618	 7.66941213866346E-04 
1619	 0.001013641744984 
1620	 1.08748391363816E-03 
1621	 9.41522426913844E-04 
1622	 8.35515039709995E-04 
1623	 6.47359647104801E-04 
1624	 4.34241757163356E-04 
1625	 5.01974215958263E-04 
1626	 6.73992166267619E-04 
1627	 7.74952200650575E-04 
1628	 7.77275448863054E-04 
1629	 5.841691135536E-04 
1630	 4.25260606942413E-04 
1631	 5.63589951856299E-04 
1632	 9.02952792342763E-04 
1633	 1.14484592207032E-03 
1634	 9.9663189073169E-04 
1635	 6.87319890923457E-04 
1636	 7.65793667883112E-04 
1637	 0.001043114049978 
1638	 1.04912314816677E-03 
1639	 7.21029681421389E-04 
1640	 4.58975470000711E-04 
1641	 5.5742570649234E-04 
1642	 6.83095970959949E-04 
1643	 8.67515807031568E-04 
1644	 1.0245883324051E-03 
1645	 6.82941593812465E-04 
1646	 5.20736489824838E-04 
1647	 9.44309218694044E-04 
1648	 1.02706860335506E-03 
1649	 8.04955356238689E-04 
1650	 7.46215668916961E-04 
1651	 5.90406197388539E-04 
1652	 7.91700362975185E-04 
1653	 1.13612509643541E-03 
1654	 1.11736301848225E-03 
1655	 9.41010198431428E-04 
1656	 9.19388979169652E-04 
1657	 8.29081346341788E-04 
1658	 7.82101840359407E-04 
1659	 9.00062226375957E-04 
1660	 9.67657664077097E-04 
1661	 9.18678694366807E-04 
1662	 8.91765434551014E-04 
1663	 9.30470641253901E-04 
1664	 9.54498204079722E-04 
1665	 9.60859095486401E-04 
1666	 9.88357254979599E-04 
1667	 1.02472944499232E-03 
1668	 1.04991121853899E-03 
1669	 9.87934590397336E-04 
1670	 7.98906403415416E-04 
1671	 8.62955399221527E-04 
1672	 9.25176478334769E-04 
1673	 8.5485444721655E-04 
1674	 1.06752323447501E-03 
1675	 1.0218401027488E-03 
1676	 4.76770033757333E-04 
1677	 5.78758915596195E-04 
1678	 1.0832314600454E-03 
1679	 1.19922701679378E-03 
1680	 1.33644235655132E-03 
1681	 9.94494110035135E-04 
1682	 3.00949043083432E-04 
1683	 6.46046264588982E-04 
1684	 1.23795511851737E-03 
1685	 1.12376388309258E-03 
1686	 9.61644417885013E-04 
1687	 6.49734052459222E-04 
1688	 2.31823752033012E-04 
1689	 6.08661742739451E-04 
1690	 1.25064060956989E-03 
1691	 9.55156594014032E-04 
1692	 5.95620181635396E-04 
1693	 7.53461000438696E-04 
1694	 6.45791425732606E-04 
1695	 6.0475412951904E-04 
1696	 8.87199088258521E-04 
1697	 9.81933970349061E-04 
1698	 7.86228560675391E-04 
1699	 1.03049832843941E-03 
1700	 1.5387377769097E-03 
1701	 1.2808848129215E-03 
1702	 8.68279721827346E-04 
1703	 7.16392170394824E-04 
1704	 4.35280443067322E-04 
1705	 5.51212306671204E-04 
1706	 9.26569164781597E-04 
1707	 8.68264304835183E-04 
1708	 7.91672644407258E-04 
1709	 8.04298215339583E-04 
1710	 7.96225057167261E-04 
1711	 9.47359830462781E-04 
1712	 7.32137661012957E-04 
1713	 3.56120652727211E-04 
1714	 4.85341805617861E-04 
1715	 1.14943011905489E-03 
1716	 1.07447124546497E-03 
1717	 8.48165658794341E-04 
1718	 5.12806617331054E-04 
1719	 4.27690351395985E-04 
1720	 5.88371030525348E-04 
1721	 6.36331645724086E-04 
1722	 2.21468860336198E-04 
1723	-7.00299848741431E-05 
1724	 2.89266383764705E-04 
1725	 4.27221284753088E-04 
1726	 8.00035367141239E-04 
1727	 1.22686430290057E-03 
1728	 7.14466678351886E-04 
1729	 5.19389121478087E-04 
1730	 8.73967664242567E-04 
1731	 8.39386693199118E-04 
1732	 6.57678213012615E-04 
1733	 9.37190997236213E-04 
1734	 1.2489993034048E-03 
1735	 8.01873902569494E-04 
1736	 6.04206950876243E-04 
1737	 8.60678571052908E-04 
1738	 7.47208687175914E-04 
1739	 9.64971451668353E-04 
1740	 1.14736907986644E-03 
1741	 7.21343611167258E-04 
1742	 4.16822486460744E-04 
1743	 3.22677450970961E-04 
1744	 4.49826116602437E-04 
1745	 1.08934972597762E-03 
1746	 8.94644188075198E-04 
1747	 8.11399314403647E-04 
1748	 1.14698587460013E-03 
1749	 1.33743258067087E-03 
1750	 1.47258783829887E-03 
1751	 1.57381319721223E-03 
1752	 1.63871546056067E-03 
1753	 1.41441167183819E-03 
1754	 7.1059537093617E-04 
1755	 6.28664834666537E-04 
1756	 1.03931907831108E-03 
1757	 6.97306293787767E-04 
1758	 4.77361353931194E-04 
1759	 5.77794235384587E-04 
1760	 3.27893331610354E-04 
1761	 3.5115614694004E-04 
1762	 9.79803538341018E-04 
1763	 1.11012937938895E-03 
1764	 9.19088933853547E-04 
1765	 1.40201723843774E-03 
1766	 1.27318752119503E-03 
1767	 6.7260765066672E-04 
1768	 1.0362772958405E-03 
1769	 1.0192954222413E-03 
1770	 9.16613781975167E-04 
1771	 1.11104795722926E-03 
1772	 4.7636599286997E-04 
1773	 4.25487043786997E-04 
1774	 9.61569355167995E-04 
1775	 1.31055715201324E-03 
1776	 1.42426444695355E-03 
1777	 8.0351919114268E-04 
1778	 2.31486359639092E-04 
1779	-9.56870968382225E-04 
1780	-8.81026301766862E-04 
1781	 1.35814819098933E-04 
1782	 8.46129365345069E-04 
1783	 3.2968087571778E-03 
1784	 3.72052065561082E-03 
1785	 2.01956655237406E-03 
1786	 1.73691262848316E-03 
1787	 9.45015751098658E-04 
1788	 4.10020302591476E-04 
1789	 9.32591057945065E-04 
1790	 4.7297721969198E-04 
1791	 1.09305119149316E-03 
1792	 3.27127374776897E-03 
1793	 3.96360328751989E-03 
1794	 3.24442386793395E-03 
1795	 3.46467334311821E-03 
1796	 2.1551868529857E-03 
1797	 6.54777797104973E-05 
1798	 1.93508254648205E-03 
1799	 2.5761695887413E-03 
1800	 4.81702639406228E-03 
1801	 7.53644254544948E-03 
1802	 0.010896096826619 
1803	 1.15992485598326E-02 
1804	 9.75125489130284E-03 
1805	 9.08998908170734E-03 
1806	 3.22607256109759E-03 
1807	 2.66176451239941E-03 
1808	 8.16521233094657E-03 
1809	 1.48157535226245E-02 
1810	 3.06148312957882E-02 
1811	 3.61170533779182E-02 
1812	 3.89942228235211E-02 
1813	 3.68227882314413E-02 
1814	 1.21622208249471E-02 
1815	 3.95254504864734E-03 
1816	 3.60748346227925E-03 
1817	 3.93831388462121E-03 
1818	 7.96014141205091E-03 
1819	 3.31189470283436E-02 
1820	 5.04679405295742E-02 
1821	 6.61076656134054E-02 
1822	 8.75156844609171E-02 
1823	 9.56229714288649E-02 
1824	 9.85403948288601E-02 
1825	 0.10763722612468 
1826	 0.105838078137159 
1827	 3.59553900725574E-02 
1828	 6.11226995275327E-03 
1829	 1.49752157729382E-02 
1830	 2.52910948391939E-02 
1831	 2.59799104438291E-02 
1832	 0.110693540415048 
1833	 0.536262746387437 
1834	 0.750595518170682 
1835	 0.600376811996001 
1836	 0.762251896701228 
1837	 0.89626350965619 
1838	 0.975633262839735 
1839	 0.964451121633985 
1840	 1.30283899576788 
1841	 0.900788350238199 
1842	-1.9870142815192 
1843	-4.00434468271221 
1844	-2.19359033041635 
1845	-2.05458738957522 
1846	-1.6424077106147 
1847	-0.374532765911113 
1848	-0.465853607409772 
1849	-1.22041265535368 
1850	 0.779615162123079 
1851	 0.563229650925803 
1852	 1.25741740032512 
1853	 0.804217632571234 
1854	 0.760612216010319 
1855	 2.05426047162451 
1856	 3.05982148525412 
1857	 0.143570286152516 
1858	-0.317266266408365 
1859	 0.349825670099276 
1860	 1.82666853093425 
1861	 3.2904605929002 
1862	 1.45471873168068 
1863	 0.819513041075911 
1864	 0.530659399355558 
1865	 0.702564916347321 
1866	-4.74895168036185 
1867	-1.80846730167358E-02 
1868	-0.682535036723727 
1869	-0.700982913626271 
1870	-0.873894468463936 
1871	-1.948414418275 
1872	 0.380503122376523 
1873	-0.594686782409061 
1874	-0.253295290619532 
1875	 1.82540895908323 
1876	-2.89762889034357 
1877	-0.252520478191493 
1878	-0.132763665695813 
1879	 0.674672887394188 
1880	 0.757220265160144 
1881	 0.478472924768505 
1882	-0.228184336571281 
1883	-0.257915639643523 
1884	 0.157764924201621 
1885	 0.520517149321592 
1886	 0.457080512215891 
1887	 0.201038522116615 
1888	 0.128103573381133 
1889	 0.102990802471708 
1890	 0.337536843593681 
1891	 0.323050609585878 
1892	 0.192414300917324 
1893	-6.39654385525244E-02 
1894	-3.43479680488874E-02 
1895	 0.117009882967859 
1896	 0.393346003785919 
1897	 0.577548849007802 
1898	 3.11676933567515E-02 
1899	-2.95906034198934 
1900	-21.0769557583573 
1901	-2.55193614850776 
1902	-1.34585847649034 
1903	-0.178301794046563 
1904	 0.212068290047724 
1905	 1.0255513434971 
1906	 1.16419861298888 
1907	 0.83052743630126 
1908	-0.229292230475105 
1909	-0.739234530958296 
1910	-0.897714663754181 
1911	-1.11482657440139 
1912	-9.53240105667385 
1913	-7.43121372021736 
1914	-1.06320895793287 
1915	-0.51992295290716 
1916	-0.252415542019284 
1917	-0.151388614047097 
1918	-2.43473473883279E-02 
1919	-4.73903341474123E-02 
1920	-0.191983155220125 
1921	-1.02572669850064E-02 
1922	 0.159617159709475 
1923	 0.103050282708351 
1924	 0.120081513040342 
1925	 0.123763223627738 
1926	 9.40910128707073E-02 
1927	 5.23878806239435E-03 
1928	 8.68540688590439E-03 
1929	 6.03922666541822E-03 
1930	-2.11755070724248E-02 
1931	 1.77930499718159E-02 
1932	 1.08861116948292E-02 
1933	-7.30166160296731E-03 
1934	 3.65789210425868E-02 
1935	 4.29016682631397E-02 
1936	 3.23406963305519E-02 
1937	 0.040706165905053 
1938	 2.97566036732076E-02 
1939	 2.08020341712127E-02 
1940	 8.73083782412068E-03 
1941	 1.10407931903217E-02 
1942	 8.27240025268884E-03 
1943	 8.8972918945311E-03 
1944	 1.64474233159407E-02 
1945	 1.75815813590861E-02 
1946	 1.85014768092885E-02 
1947	 1.84179964386475E-02 
1948	 1.58085202511652E-02 
1949	 0.012786328184384 
1950	 5.89828573339856E-03 
1951	-5.00228860404691E-04 
1952	-3.63002132689569E-04 
1953	 3.44101240748095E-03 
1954	 8.26501356558289E-03 
1955	 1.11711712205628E-02 
1956	 1.71031119623334E-02 
1957	 1.60910855109452E-02 
1958	 1.24932080934195E-02 
1959	 1.24885294938994E-02 
1960	 9.9330009135331E-03 
1961	 5.93671574049883E-03 
1962	 8.77768237941346E-04 
1963	-3.78205707534993E-04 
1964	 1.61539154415824E-03 
1965	 1.82041363586363E-03 
1966	 1.60337009013963E-03 
1967	 2.24721760940142E-03 
1968	 2.36225947660329E-03 
1969	 9.62430233930928E-04 
1970	 4.82743302373892E-04 
1971	 1.05601369224523E-03 
1972	 1.2666784032542E-03 
1973	 1.06829673740281E-03 
1974	 7.87169383413263E-04 
1975	 9.88835458465758E-04 
1976	 1.5499361635769E-03 
1977	 1.95721102180665E-03 
1978	 1.90811159363182E-03 
1979	 1.48898442607402E-03 
1980	 7.68164910728102E-04 
1981	-1.030138529766E-04 
1982	-3.14386062247359E-04 
1983	-5.96267273865631E-04 
1984	-5.53492976225553E-04 
1985	 1.66710603364908E-04 
1986	 5.06102311366348E-04 
1987	 6.08851330391964E-04 
1988	 8.78344577869352E-04 
1989	 1.72161613911817E-03 
1990	 1.65608117434858E-03 
1991	 8.78595057964297E-04 
1992	 1.19329285425407E-03 
1993	 8.32768200691686E-04 
1994	 2.99756324354429E-04 
1995	-1.00414090529595E-03 
1996	-7.77910426118075E-04 
1997	-4.79755899997615E-04 
1998	-4.11441532482286E-04 
1999	 1.12780362005925E-03 
2000	 3.56708755549109E-03 
2001	 3.57855801116968E-03 
2002	 3.28125941093351E-03 
2003	 3.79975821784707E-03 
2004	 0.001700064315303 
2005	 3.49055036139078E-03 
2006	 7.08164712904619E-03 
2007	 4.42550360100861E-03 
2008	 3.41226740276615E-03 
2009	 2.7239955315636E-03 
2010	-1.06255473176782E-03 
2011	-2.43355729870525E-03 
2012	-1.74491702721429E-03 
2013	 7.1056213560288E-04 
2014	 1.64367383872771E-03 
2015	 2.95837333784939E-03 
2016	 2.38984427493392E-03 
2017	 4.37026699050767E-04 
2018	-1.10141253786856E-03 
2019	-1.4224938788533E-03 
2020	 1.05198889340031E-03 
2021	 1.86396194621222E-03 
2022	 9.11830918725032E-04 
2023	 1.52610285811848E-03 
2024	 1.57689786719236E-03 
2025	 7.29945403792361E-04 
2026	 7.42562749442669E-04 
2027	 1.41609894934162E-03 
2028	 0.001694319154819 
2029	 1.77785385030478E-03 
2030	 1.24592199990971E-03 
2031	 1.09347918581694E-03 
2032	 1.34307218547445E-03 
2033	 1.02575659404791E-03 
2034	 8.13718246775237E-04 
2035	 1.29569679260104E-03 
2036	 1.32107646250731E-03 
2037	 7.0720012858739E-04 
2038	 7.29390119571816E-04 
2039	 8.22468944412518E-04 
2040	 6.66515407212813E-04 
2041	 4.82604318193462E-04 
2042	 8.45904608536518E-04 
2043	 8.78478993020437E-04 
2044	 4.12224607221346E-04 
2045	 3.97100474573195E-04 
2046	 5.20548405674539E-04 
2047	 5.13976301856433E-04 
2048	 1.37157027912827E-03 
2049	 1.85799555636795E-03 
2050	 2.05171725939933E-03 
2051	 2.54272803770114E-03 
2052	 2.84053852952674E-03 
2053	 3.82876966148914E-03 
2054	 4.00647445914063E-03 
2055	 2.10508764357495E-03 
2056	 1.66896578199187E-03 
2057	 1.10989574252698E-03 
2058	 3.53474688535299E-04 
2059	 8.05436859455683E-04 
2060	 1.18758597611473E-03 
2061	 1.38604444851402E-03 
2062	 6.64871420613761E-05 
2063	 7.79057645709032E-04 
2064	 4.68386356331743E-04 
2065	-3.98916903213717E-04 
2066	 4.32583524802038E-05 
2067	 5.80418219906804E-05 
2068	 1.63022478059379E-04 
2069	 3.73144681271186E-04 
2070	-2.40424319963655E-04 
2071	-1.21291539966586E-04 
2072	 2.22534328375485E-04 
2073	 9.44935443927026E-05 
2074	 2.77287571712721E-04 
2075	 1.47764709514148E-04 
2076	-1.10917639485444E-03 
2077	-0.001207545054917 
2078	-3.43032504792841E-04 
2079	 5.56567094034063E-05 
2080	 6.39625971534628E-04 
2081	 1.02617959537596E-03 
2082	 9.87893145585288E-04 
2083	 3.90258395823089E-04 
2084	 1.28136464544414E-03 
2085	 1.52017620861759E-03 
2086	 7.52357885596096E-04 
2087	 7.05738959273057E-04 
2088	 7.80435641036455E-05 
2089	 1.59906409680541E-04 
2090	 1.16800144128373E-03 
2091	 1.94225982879026E-03 
2092	 2.01107486200343E-03 
2093	 8.87819610022993E-04 
2094	 6.99232250386693E-04 
2095	 5.34979678629742E-04 
2096	 5.2289059905052E-04 
2097	 1.0856394579683E-03 
2098	 1.08564172823125E-03 
2099	 7.92440164572937E-04 
2100	 7.6852662450186E-04 
2101	 8.7131318763489E-05 
2102	 4.30549552089202E-04 
2103	 1.16458299683804E-03 
2104	 1.15198004312552E-03 
2105	 1.37205059918326E-03 
2106	 1.6939779584514E-03 
2107	 1.90266543785854E-03 
2108	 1.90002623671135E-03 
2109	 1.87458324668521E-03 
2110	 1.40508316798884E-03 
2111	 8.25600051372177E-04 
2112	 7.43922913072209E-04 
2113	 7.58687046037997E-04 
2114	 1.45696582444597E-03 
2115	 1.75191216588242E-03 
2116	 1.54314066088598E-03 
2117	 1.91042194453403E-03 
2118	 2.95281246336522E-03 
2119	 3.13439815932143E-03 
2120	 3.21115599729854E-03 
2121	 3.28040985406399E-03 
2122	 2.47105256679053E-03 
2123	 1.07017813567395E-03 
2124	-2.30997692069809E-05 
2125	 8.37087566163479E-04 
2126	 2.0224432381867E-03 
2127	 2.61031113889298E-03 
2128	 3.18829819074548E-03 
2129	 2.2243062020385E-03 
2130	 1.49239954004131E-03 
2131	 1.29602801788358E-03 
2132	 6.5541300797526E-04 
2133	 3.6157115486189E-04 
2134	 5.32713595672892E-05 
2135	-8.28087737721855E-04 
2136	-8.42778622661738E-04 
2137	-1.13888798936271E-04 
2138	-2.90701726477796E-05 
2139	 2.49639276061209E-04 
2140	 4.01442353797683E-04 
2141	 1.6473489150867E-04 
2142	 4.27810056015841E-04 
2143	 1.80868991477629E-03 
2144	 7.25577562273439E-04 
2145	-3.94262030629688E-04 
2146	-4.66433870667128E-04 
2147	-1.2845492267789E-04 
2148	 8.29736461913208E-04 
2149	 8.17387897927551E-04 
2150	 6.52268477541908E-04 
2151	 6.18114925974775E-04 
2152	 7.02175870997788E-05 
2153	-2.26709781019073E-07 
2154	 8.39479887240921E-04 
2155	 9.17270518138893E-04 
2156	 3.640978692833E-04 
2157	 5.42824205808948E-04 
2158	 1.89364758801976E-03 
2159	 2.10715945114681E-03 
2160	 1.89172999076089E-03 
2161	 1.49687144964538E-03 
2162	 3.69640213079143E-04 
2163	-3.67829943694417E-05 
2164	-2.36650744951239E-04 
2165	-1.35636912313949E-04 
2166	 4.01111687901931E-04 
2167	 9.92413552137605E-04 
2168	 1.65398561101867E-03 
2169	 2.07530279561569E-03 
2170	 3.15964693824161E-03 
2171	 0.003141905732317 
2172	 1.84986378409414E-03 
2173	 9.18174914905122E-04 
2174	 1.98551197532572E-04 
2175	 1.98212416055617E-04 
2176	-1.24606835414186E-05 
2177	 7.72530839001981E-04 
2178	 8.96637961478247E-04 
2179	-3.39780129703929E-04 
2180	 2.01920763905994E-04 
2181	 1.00474854548458E-03 
2182	 1.32506541961705E-03 
2183	 2.24386736919566E-03 
2184	 3.22089937017699E-03 
2185	 3.08127581588005E-03 
2186	 2.64588037656736E-03 
2187	 1.32457939941775E-03 
2188	 9.80137654378394E-04 
2189	 3.54644468317036E-04 
2190	 2.5980059379354E-04 
2191	 1.1161218747541E-03 
2192	 1.6192823310126E-03 
2193	 2.42560992942534E-03 
2194	 2.78426822285283E-03 
2195	 2.69911368044673E-03 
2196	 2.28840730345874E-03 
2197	 1.36730571104843E-03 
2198	 9.4535387101106E-04 
2199	 7.13191335727456E-05 
2200	 8.80566272211694E-04 
2201	 1.50416775183686E-03 
2202	 3.76155660743424E-04 
2203	-9.52669860502153E-05 
2204	 4.87626597805624E-06 
2205	-6.82555151146924E-04 
2206	-1.69216850451245E-03 
2207	-2.95023045711352E-04 
2208	 3.67722657359159E-04 
2209	 4.44390669223262E-04 
2210	 2.81138113337341E-03 
2211	 3.76687684210618E-03 
2212	 3.80699503756942E-03 
2213	 4.20849712152757E-03 
2214	 3.36910906520018E-03 
2215	 8.09330581945858E-04 
2216	-2.4761248610147E-03 
2217	-3.55342008567481E-03 
2218	-2.87699758839119E-03 
2219	-2.10254817490175E-03 
2220	-6.90405882695938E-05 
2221	 5.84126781457394E-04 
2222	 7.29990118091843E-04 
2223	 6.70286348764771E-04 
2224	 1.41631371321959E-04 
2225	 5.49277013798338E-04 
2226	 1.96103860050895E-03 
2227	 2.07916502508289E-03 
2228	 1.07697545380582E-03 
2229	 1.1048643694518E-03 
2230	 1.1994204032702E-03 
2231	 9.9869650811479E-04 
2232	 1.02653905327948E-03 
2233	 1.63492916970481E-03 
2234	 2.37604651229431E-03 
2235	 2.88849402632309E-03 
2236	 3.35716813375553E-03 
2237	 4.47688656441299E-03 
2238	 4.20305265202867E-03 
2239	 2.73016720549226E-03 
2240	 3.06047675499402E-03 
2241	 0.003123698036613 
2242	 1.30369773306894E-03 
2243	 5.012121858783E-04 
2244	 2.13107290187213E-04 
2245	-2.21191678240871E-03 
2246	-3.02845047815689E-03 
2247	-3.25876175549994E-04 
2248	 5.49134059058375E-04 
2249	 1.56785717334157E-03 
2250	 4.91208343659077E-03 
2251	 4.72379478169899E-03 
2252	 3.48541542191933E-03 
2253	 4.73521263349721E-03 
2254	 3.4537756678042E-03 
2255	 1.17135361940794E-03 
2256	 1.11083450851063E-03 
2257	 2.03254046954401E-04 
2258	-4.02205798916072E-04 
2259	 1.19703411775732E-03 
2260	 1.54166937817813E-03 
2261	 7.10606808073576E-04 
2262	 1.15880487821796E-03 
2263	 2.12108806890975E-03 
2264	 2.30060934338314E-03 
2265	 3.17034316578454E-03 
2266	 2.73742604642527E-03 
2267	 1.46230945922024E-03 
2268	 1.19621355187703E-03 
2269	-3.13890849537408E-05 
2270	-3.51591128928512E-04 
2271	 8.08065424817772E-04 
2272	 3.18680906112261E-05 
2273	-2.55561227747434E-03 
2274	-1.68490314710096E-03 
2275	 1.13775749156084E-03 
2276	 1.76704526438476E-03 
2277	 2.41728091710987E-03 
2278	 4.0864729322845E-03 
2279	 6.06562594997418E-03 
2280	 6.27895279170749E-03 
2281	 6.96581169433567E-03 
2282	 7.42591176703145E-03 
2283	 6.60622398124271E-03 
2284	 3.60095070977475E-03 
2285	-4.13182965217986E-04 
2286	-9.62151107699205E-04 
2287	 4.26773486982413E-04 
2288	-2.84225656855315E-04 
2289	 7.65873513368524E-04 
2290	 4.36031508901042E-03 
2291	 6.19266454498515E-03 
2292	 6.15188919739898E-03 
2293	 5.86472300834824E-03 
2294	 4.45545707514832E-03 
2295	 3.67056542697808E-04 
2296	-9.72068732197679E-04 
2297	-1.6098266463483E-03 
2298	-3.07975667228757E-03 
2299	-3.35955506318397E-04 
2300	-1.36311699867394E-03 
2301	-2.03905239725746E-03 
2302	 2.56911702109952E-03 
2303	 4.0538888992285E-03 
2304	 3.62316240450759E-03 
2305	 3.30589384664534E-03 
2306	 2.54522344294304E-03 
2307	 2.39514394999113E-03 
2308	 3.73948961772733E-03 
2309	 4.86092336172584E-03 
2310	 3.35568499669136E-03 
2311	 7.05846443065231E-04 
2312	-3.91783701889076E-03 
2313	-5.46290152580819E-03 
2314	-1.99220801690435E-03 
2315	-7.38711260272287E-04 
2316	 3.42715521942508E-03 
2317	 6.58631340894127E-03 
2318	 4.95699057358791E-03 
2319	 8.78251257744977E-03 
2320	 8.17115561280452E-03 
2321	 3.05454688058596E-03 
2322	 5.28407942765086E-03 
2323	 8.85837262505649E-03 
2324	 7.94857633611815E-03 
2325	 4.73642081176415E-03 
2326	 2.34508762976488E-03 
2327	-5.13074826053834E-03 
2328	-9.34708597103053E-03 
2329	-4.60219743928861E-03 
2330	-4.96546276716473E-03 
2331	-1.42296413056956E-03 
2332	 5.36569021522389E-03 
2333	 2.3055187778712E-03 
2334	 3.75461676958913E-03 
2335	 7.72504733040758E-03 
2336	 1.20249459093112E-03 
2337	-4.93202071913428E-03 
2338	-6.05885031882346E-03 
2339	-7.59065038173891E-03 
2340	-4.22474236211321E-03 
2341	 1.16762630185021E-03 
2342	-9.12622550250771E-06 
2343	-4.06731133315261E-03 
2344	-3.68018230764243E-03 
2345	-4.82525029931237E-04 
2346	 1.74203983848549E-04 
2347	 3.39061769773864E-03 
2348	 2.91874257879516E-03 
2349	 1.5379390428158E-03 
2350	 6.00364637353692E-03 
2351	 3.70099618714142E-03 
2352	-1.34467140029618E-03 
2353	-4.44556641628586E-03 
2354	-8.66496959272016E-03 
2355	-3.28754225556754E-03 
2356	 7.75673377959675E-03 
2357	 7.88726335069403E-03 
2358	 9.85977012577584E-03 
2359	 5.24037367747409E-03 
2360	-9.28453798980683E-03 
2361	-9.48871532842562E-03 
2362	-4.68423034777647E-03 
2363	 4.68274669111712E-03 
2364	 1.25998158529751E-02 
2365	 7.32985489863004E-03 
2366	 5.73085076734949E-03 
2367	 1.4863954558608E-03 
2368	-5.57297489101505E-03 
2369	 2.77125233062974E-03 
2370	 8.99527745512148E-03 
2371	 7.60269473402636E-03 
2372	 1.20098290068506E-02 
2373	 2.02529538201857E-03 
2374	-1.43101945215779E-02 
2375	-1.95502802139998E-02 
2376	-1.83333646739597E-02 
2377	 6.25777211846307E-04 
2378	 1.80310314166933E-02 
2379	 2.18717629532487E-02 
2380	 2.54043864074838E-02 
2381	 2.55132356936596E-02 
2382	 1.02116199368794E-02 
2383	 2.74166026161954E-03 
2384	 1.19494657936242E-02 
2385	-1.60935736370885E-03 
2386	-3.98704744298768E-04 
2387	 1.60295984854685E-02 
2388	 1.3873247417331E-03 
2389	-3.30284607558313E-03 
2390	 2.70731059439173E-03 
2391	-1.71974275931111E-02 
2392	-3.36963232602554E-02 
2393	-1.79194864239575E-02 
2394	-8.08256933643655E-04 
2395	 1.29362720976277E-02 
2396	 3.17889292434445E-02 
2397	 2.19677541222628E-02 
2398	 1.29134192317762E-02 
2399	 1.18207796687634E-02 
2400	-3.56914897430968E-03 
2401	 9.77744650409072E-03 
2402	 1.75763705437001E-02 
2403	 1.13217207942484E-03 
2404	 9.06762877897481E-03 
2405	-1.95840390009593E-03 
2406	-2.95220064438466E-02 
2407	-1.89122960381121E-02 
2408	-1.84101798732769E-02 
2409	-3.50224357205383E-02 
2410	-2.30825021272156E-02 
2411	-1.78694197190323E-02 
2412	-2.55679670472729E-02 
2413	 8.09870468693409E-03 
2414	 0.028389333639185 
2415	 8.11556986214994E-03 
2416	 5.08302535132726E-04 
2417	-1.90793155997846E-02 
2418	-4.55621316822292E-02 
2419	-0.02880958157751 
2420	-8.62004164843376E-03 
2421	 1.71560176942342E-03 
2422	 1.31137581649998E-02 
2423	 9.7137474451145E-04 
2424	-1.23545430461034E-02 
2425	 1.35593497939502E-03 
2426	-2.01332990826816E-02 
2427	-6.07821398570354E-02 
2428	-4.57220364595409E-02 
2429	-0.030644787554765 
2430	 1.23782771887138E-02 
2431	 8.35056739870875E-02 
2432	 8.94415197531344E-02 
2433	 0.118052910260863 
2434	 0.166666082015318 
2435	 0.106945739778155 
2436	 9.54357501057888E-03 
2437	-5.62940724970159E-03 
2438	 3.08348043626419E-06 
2439	 2.55128703748166E-02 
2440	 6.66189401866763E-02 
2441	 3.62279797224032E-02 
2442	-1.02050027689611E-02 
2443	-4.46421735184682E-02 
2444	-2.17045846688431E-02 
2445	 2.74279750655575E-02 
2446	-3.92539369302432E-02 
2447	-6.54963647307088E-02 
2448	-2.84299303668669E-02 
2449	 7.07309313943421E-02 
2450	 7.08788646178618E-02 
2451	 7.43824607540612E-02 
2452	-3.29537362928272E-02 
2453	-0.121702951221086 
2454	-9.63397377446137E-02 
2455	-8.16792071707461E-02 
2456	-2.16177806124867E-02 
2457	 1.58901051523029E-02 
2458	 3.30259082864726E-02 
2459	 3.89988542539442E-02 
2460	 2.48855090544252E-02 
2461	-3.10365003622798E-02 
2462	-9.17928769441377E-02 
2463	-0.105830710414923 
2464	-0.112189915900894 
2465	-5.96445672886101E-02 
2466	-2.77565725087547E-02 
2467	-0.031194432973709 
2468	-5.55889344552662E-03 
2469	 0.053693834020191 
2470	 0.290866965437215 
2471	 0.608841006793772 
2472	 0.410423979810123 
2473	 0.165349268389323 
2474	 1.88660930013338E-02 
2475	-0.200088247652089 
2476	-0.119310739011523 
2477	 0.207789134904865 
2478	 1.91179176289133E-02 
2479	-2.36955620328817E-02 
2480	-0.223302366316302 
2481	-0.447273242746658 
2482	-0.810415526680811 
2483	-2.02400439443382 
2484	 1.64655468145464 
2485	 3.46781192340813 
2486	 0.467315725725014 
2487	-0.765893184421896 
2488	-1.71038866503898 
2489	-4.28950129174749 
2490	-2.70727301551645 
2491	-15.999092571347 
2492	-1.10483834563694 
2493	-1.20129112841201 
2494	-0.130287755162949 
2495	 0.78826499107681 
2496	-24.2598311565412 
2497	-9.306314900681 
2498	 3.42503015489357 
2499	 1.75481139352502 
2500	 0.554158147527176 
