Wavelength	rt0624close00001.asd
350	 1.50177639289725E-02 
351	 1.54683550906426E-02 
352	 1.60974768460971E-02 
353	 1.62229649281732E-02 
354	 1.55915536999955E-02 
355	 1.49466388217798E-02 
356	 1.58069389104807E-02 
357	 1.65397357213681E-02 
358	 0.015659141665043 
359	 1.68022129190552E-02 
360	 1.72995414941543E-02 
361	 1.68637457396994E-02 
362	 1.69012110050211E-02 
363	 1.71853612696446E-02 
364	 0.01740427383801 
365	 1.74308007317104E-02 
366	 1.74327399488421E-02 
367	 1.77608318446061E-02 
368	 1.81705973480586E-02 
369	 1.82984885405446E-02 
370	 1.78909941389894E-02 
371	 1.82608402793998E-02 
372	 0.019004601610759 
373	 1.88971135556598E-02 
374	 1.92365029554847E-02 
375	 1.95826362693486E-02 
376	 1.96412336062051E-02 
377	 1.95670501854949E-02 
378	 1.98726053424218E-02 
379	 2.00513106994409E-02 
380	 1.98515359253029E-02 
381	 2.06524593544489E-02 
382	 2.08407244275948E-02 
383	 2.07214545498936E-02 
384	 2.13576975317251E-02 
385	 2.20294460908693E-02 
386	 2.22636793521221E-02 
387	 2.20880137437853E-02 
388	 2.20511312971074E-02 
389	 2.25525302280623E-02 
390	 2.29494517282868E-02 
391	 0.022918674485222 
392	 2.34435049548045E-02 
393	 2.35719340031836E-02 
394	 2.35472933473062E-02 
395	 2.39405906740687E-02 
396	 2.45741286638849E-02 
397	 2.48965373052013E-02 
398	 2.49830455314459E-02 
399	 2.53994553930459E-02 
400	 2.53587656773908E-02 
401	 2.54867266346622E-02 
402	 2.60738974099411E-02 
403	 2.62184140983677E-02 
404	 2.63437048192304E-02 
405	 2.65552165787514E-02 
406	 2.68225000557736E-02 
407	 2.69992913755801E-02 
408	 0.027184328658391 
409	 2.74219392719569E-02 
410	 2.76846070048636E-02 
411	 2.78782237962546E-02 
412	 2.81329183642946E-02 
413	 2.85061104802582E-02 
414	 2.88039365034742E-02 
415	 2.89818289890884E-02 
416	 2.91092384838624E-02 
417	 2.92992588781538E-02 
418	 2.95607604383161E-02 
419	 2.98872202795117E-02 
420	 3.02468246038735E-02 
421	 3.05865677621023E-02 
422	 3.08777011065608E-02 
423	 3.12885610035984E-02 
424	 3.18425797477432E-02 
425	 3.20365159574421E-02 
426	 3.23637880671479E-02 
427	 3.27930979531318E-02 
428	 3.30768925367545E-02 
429	 3.34071576510723E-02 
430	 3.37589318331188E-02 
431	 3.41614814735646E-02 
432	 3.47270665381945E-02 
433	 3.50046415666428E-02 
434	 3.53018546031505E-02 
435	 0.035868824932827 
436	 3.62813604241881E-02 
437	 3.66607858584012E-02 
438	 3.70549267900751E-02 
439	 3.74749856447844E-02 
440	 3.79903246724719E-02 
441	 3.83947562380849E-02 
442	 3.86739404440742E-02 
443	 3.91337142142549E-02 
444	 3.95370525438708E-02 
445	 3.98900709090945E-02 
446	 4.02500876498378E-02 
447	 4.06133602653464E-02 
448	 4.09468605289175E-02 
449	 4.12589688947646E-02 
450	 4.15843688936577E-02 
451	 4.18558737748271E-02 
452	 4.21011554468886E-02 
453	 4.23573644645525E-02 
454	 4.26605739509891E-02 
455	 4.28427924676331E-02 
456	 0.043043553599002 
457	 4.34113006269106E-02 
458	 4.35017299793637E-02 
459	 4.36370615916202E-02 
460	 4.38724401636605E-02 
461	 4.39711024524274E-02 
462	 4.42388273870829E-02 
463	 4.44774085870112E-02 
464	 4.45557437440856E-02 
465	 0.044803277844172 
466	 4.50487918389501E-02 
467	 4.51531380901272E-02 
468	 4.50809648736203E-02 
469	 4.54047034710886E-02 
470	 4.58257146408995E-02 
471	 4.61082122597781E-02 
472	 4.62153360066725E-02 
473	 4.63673393576617E-02 
474	 4.65469267604218E-02 
475	 4.67226943448012E-02 
476	 4.70734835710824E-02 
477	 4.73589536187532E-02 
478	 4.75579159334003E-02 
479	 4.78075310782776E-02 
480	 4.81590294732881E-02 
481	 0.048492698023935 
482	 0.048731964873981 
483	 0.048913101246098 
484	 4.93100063992909E-02 
485	 4.98040506967509E-02 
486	 5.01737855434662E-02 
487	 5.05633473429166E-02 
488	 0.05098514008147 
489	 5.13651579202876E-02 
490	 0.051573007554079 
491	 5.19473500910996E-02 
492	 5.24570103174352E-02 
493	 5.30042039412965E-02 
494	 5.35506097185634E-02 
495	 5.40252365295438E-02 
496	 5.44474622707445E-02 
497	 5.48957554078899E-02 
498	 0.055472072509532 
499	 5.60065687481901E-02 
500	 5.64613352391263E-02 
501	 5.70403107981631E-02 
502	 5.76737514214952E-02 
503	 5.82665827057358E-02 
504	 5.87719039025724E-02 
505	 5.93637363695181E-02 
506	 5.99115286373242E-02 
507	 6.04763941627447E-02 
508	 6.12449177871233E-02 
509	 6.18191366634132E-02 
510	 6.23526860536261E-02 
511	 6.29737168087811E-02 
512	 6.35273659838405E-02 
513	 6.41633486119621E-02 
514	 6.48573771349523E-02 
515	 6.55181790738754E-02 
516	 6.61991105114925E-02 
517	 6.69568872925192E-02 
518	 6.77469911542581E-02 
519	 6.84103567396121E-02 
520	 6.90879221573516E-02 
521	 6.97654165659346E-02 
522	 7.04275859077763E-02 
523	 7.11692410890019E-02 
524	 7.19049669433194E-02 
525	 7.26317483069445E-02 
526	 7.34087906857633E-02 
527	 7.42520468358488E-02 
528	 7.50063696459812E-02 
529	 7.56431458502217E-02 
530	 7.64304493348029E-02 
531	 0.077178348687238 
532	 7.79357881885486E-02 
533	 7.87881937295298E-02 
534	 7.95204022614721E-02 
535	 8.02769440519922E-02 
536	 8.11213854183641E-02 
537	 8.19947952224276E-02 
538	 8.28623455968736E-02 
539	 8.36899337142688E-02 
540	 8.44892723359376E-02 
541	 8.54191966977091E-02 
542	 8.62278162833859E-02 
543	 8.69800806656821E-02 
544	 8.79109108242053E-02 
545	 8.87491174104794E-02 
546	 8.95555334412419E-02 
547	 9.04027919189839E-02 
548	 9.13178074406614E-02 
549	 9.21028743288036E-02 
550	 9.28587843583028E-02 
551	 9.37425341445931E-02 
552	 9.45274975960002E-02 
553	 9.53869803156811E-02 
554	 9.62930154947021E-02 
555	 9.69713965418897E-02 
556	 9.77934534006968E-02 
557	 9.87203773146448E-02 
558	 9.96070171857158E-02 
559	 0.100346350174382 
560	 0.10107166507691 
561	 0.101775113124129 
562	 0.102390544398998 
563	 0.103190928882499 
564	 0.103961231788769 
565	 0.104569036779086 
566	 0.105159678276234 
567	 0.105797642568552 
568	 0.106397521045708 
569	 0.106869922853016 
570	 0.107477324074871 
571	 0.10808442676613 
572	 0.108605953874762 
573	 0.109043178047597 
574	 0.109599846713736 
575	 0.110129431205024 
576	 0.110485457275535 
577	 0.11080299256925 
578	 0.111149337894693 
579	 0.111533552430824 
580	 0.111913077168195 
581	 0.112181320255575 
582	 0.112443849061014 
583	 0.112730171964684 
584	 0.112875602959038 
585	 0.113003999069188 
586	 0.113140820143657 
587	 0.113274371024721 
588	 0.113373069971863 
589	 0.113469424031541 
590	 0.113563789773392 
591	 0.113624376452254 
592	 0.113631241461024 
593	 0.113540318779923 
594	 0.113354172168123 
595	 0.113235843326362 
596	 0.112980000320769 
597	 0.112603335516879 
598	 0.112254415758794 
599	 0.111947576487599 
600	 0.111672740905599 
601	 0.11142851335408 
602	 0.111230571216602 
603	 0.111201063243719 
604	 0.111211553888296 
605	 0.111132488174396 
606	 0.111286242254526 
607	 0.111450869900871 
608	 0.111547171995059 
609	 0.111667308592896 
610	 0.111747186952526 
611	 0.111823276381912 
612	 0.111909133001895 
613	 0.11186616229973 
614	 0.111999542459774 
615	 0.112191724917397 
616	 0.112141154138872 
617	 0.112280882092169 
618	 0.11235730821103 
619	 0.112289332089852 
620	 0.112390125499844 
621	 0.112434558350383 
622	 0.112426017691155 
623	 0.112434945570263 
624	 0.112484308853976 
625	 0.112572259448052 
626	 0.112639449303455 
627	 0.112585628480533 
628	 0.112545642768573 
629	 0.112603256028135 
630	 0.112759999236184 
631	 0.112852603330927 
632	 0.112884729670043 
633	 0.112884536109249 
634	 0.112886503452241 
635	 0.112825313497084 
636	 0.112746067136959 
637	 0.112704364834748 
638	 0.112758871088846 
639	 0.112716960700914 
640	 0.112623637381279 
641	 0.112573677940858 
642	 0.112547957972586 
643	 0.112459362423237 
644	 0.112320234365089 
645	 0.112223312851597 
646	 0.11215920076318 
647	 0.112043528077671 
648	 0.111873365602323 
649	 0.111884121413822 
650	 0.1117830747895 
651	 0.11156421421093 
652	 0.111332715628534 
653	 0.111083119889884 
654	 0.11083621844073 
655	 0.110620877510435 
656	 0.11049445340802 
657	 0.110201805377956 
658	 0.109881001422486 
659	 0.109662105371475 
660	 0.109422771537101 
661	 0.10922146112521 
662	 0.109042814681162 
663	 0.108846659027027 
664	 0.108818490639042 
665	 0.108759848638063 
666	 0.108596503218877 
667	 0.108562497532637 
668	 0.108564615568771 
669	 0.108545873299136 
670	 0.108475771344024 
671	 0.108403611625912 
672	 0.108423056608104 
673	 0.108471149467853 
674	 0.108358616420275 
675	 0.108392040824497 
676	 0.108501457230503 
677	 0.108583186915178 
678	 0.10861976310166 
679	 0.108813796481427 
680	 0.109099717178367 
681	 0.109325871286721 
682	 0.109711456568512 
683	 0.11015370184666 
684	 0.110523800474304 
685	 0.110713569433268 
686	 0.111152022505275 
687	 0.111671912164623 
688	 0.11197216187173 
689	 0.112162665887969 
690	 0.112384130886274 
691	 0.112556997300842 
692	 0.112508851486332 
693	 0.112533487841207 
694	 0.112496349365226 
695	 0.11231514754555 
696	 0.112070193728542 
697	 0.111833613151344 
698	 0.111492280496982 
699	 0.110960801792406 
700	 0.110544919959632 
701	 0.110074243193963 
702	 0.109536124331127 
703	 0.109037137233365 
704	 0.10837813825139 
705	 0.107644806288154 
706	 0.106901276322214 
707	 0.106040639708472 
708	 0.105065834762582 
709	 0.10402626710611 
710	 0.102956916090954 
711	 0.101729114443797 
712	 0.100392766003299 
713	 9.90085213561255E-02 
714	 9.76027954937892E-02 
715	 9.61374983931328E-02 
716	 9.45082528147143E-02 
717	 9.26915859618404E-02 
718	 9.07900560521113E-02 
719	 8.91333736557161E-02 
720	 8.76235976254435E-02 
721	 0.085850421960398 
722	 8.41172353071228E-02 
723	 8.21617062281394E-02 
724	 8.00902834011172E-02 
725	 7.81628217699222E-02 
726	 7.60886090551461E-02 
727	 7.36992420827967E-02 
728	 7.10082318900678E-02 
729	 6.83207360608652E-02 
730	 6.55518237884854E-02 
731	 6.28404885295911E-02 
732	 0.060369309324767 
733	 5.82399023444371E-02 
734	 5.64145360044265E-02 
735	 5.48573058959703E-02 
736	 5.35275597507688E-02 
737	 5.26323378970661E-02 
738	 5.19436480471699E-02 
739	 5.12648839224277E-02 
740	 0.050810135718388 
741	 5.04911437106451E-02 
742	 5.03157532336011E-02 
743	 5.03024920880715E-02 
744	 5.01965776740302E-02 
745	 5.00426137694353E-02 
746	 4.99042284570848E-02 
747	 4.98211848975702E-02 
748	 4.97780307794224E-02 
749	 4.97461956427102E-02 
750	 4.97047337525963E-02 
751	 4.96664292197253E-02 
752	 4.96651489898248E-02 
753	 4.97173241772894E-02 
754	 4.98098318348106E-02 
755	 4.98051882731154E-02 
756	 4.97777565177565E-02 
757	 4.97320049303008E-02 
758	 4.94852269074252E-02 
759	 4.92649003249671E-02 
760	 4.92132308106239E-02 
761	 4.93482848835663E-02 
762	 0.04967384445486 
763	 4.97569196537542E-02 
764	 4.97477878230757E-02 
765	 4.99479226825484E-02 
766	 5.04544249896282E-02 
767	 5.07308254135009E-02 
768	 5.07593801242081E-02 
769	 5.09807797812246E-02 
770	 5.12549375102157E-02 
771	 5.15608152089042E-02 
772	 5.18642162503691E-02 
773	 5.20418865548673E-02 
774	 5.22565053578903E-02 
775	 5.25501015043062E-02 
776	 5.28965493787443E-02 
777	 5.32143530195402E-02 
778	 5.35240452630438E-02 
779	 5.38747241943861E-02 
780	 5.43261979477913E-02 
781	 5.46969640984401E-02 
782	 5.51423883796095E-02 
783	 5.57363636373501E-02 
784	 5.62462839946449E-02 
785	 5.66459992564055E-02 
786	 5.70575037127933E-02 
787	 5.76159354170855E-02 
788	 5.81954392144611E-02 
789	 5.88371473040327E-02 
790	 0.059446967001532 
791	 5.98443716305493E-02 
792	 6.00933066414218E-02 
793	 6.05784454886538E-02 
794	 0.061361901785695 
795	 6.19276170480342E-02 
796	 6.24012027559987E-02 
797	 0.062863226930043 
798	 6.33562112586908E-02 
799	 6.37678719689962E-02 
800	 6.41895246392636E-02 
801	 6.45898817288748E-02 
802	 6.48977475300867E-02 
803	 6.52733456226195E-02 
804	 6.54846735966182E-02 
805	 6.55656744839039E-02 
806	 6.58585063246824E-02 
807	 6.59431201401343E-02 
808	 6.58448085915964E-02 
809	 6.56609586267875E-02 
810	 6.54113747679751E-02 
811	 6.53289210920836E-02 
812	 6.52714057734467E-02 
813	 6.49665935988009E-02 
814	 0.064401476478677 
815	 6.39175271006372E-02 
816	 6.35477080646082E-02 
817	 6.30389890324798E-02 
818	 6.22907779475462E-02 
819	 6.13511120313362E-02 
820	 6.02813154720603E-02 
821	 5.91657648852058E-02 
822	 5.78816629946584E-02 
823	 5.62718096903705E-02 
824	 5.43770530009239E-02 
825	 5.25445626507438E-02 
826	 5.06679122463917E-02 
827	 0.048545696501376 
828	 4.61666694455335E-02 
829	 4.42435650075058E-02 
830	 4.24129199747491E-02 
831	 4.05984146916673E-02 
832	 3.90208630429497E-02 
833	 3.77465228907712E-02 
834	 3.67002091592992E-02 
835	 3.58772477040144E-02 
836	 3.54012809198802E-02 
837	 3.47125044640568E-02 
838	 3.40719318533062E-02 
839	 0.033666008908396 
840	 3.29372853174255E-02 
841	 3.25319769858004E-02 
842	 3.23092338420123E-02 
843	 3.18842386324046E-02 
844	 3.12480778207333E-02 
845	 3.08117782037518E-02 
846	 3.05917891576248E-02 
847	 3.02959055396402E-02 
848	 2.97172909547924E-02 
849	 2.91942833809097E-02 
850	 2.89141130127805E-02 
851	 2.87641590843555E-02 
852	 2.85723540019714E-02 
853	 2.80637914205354E-02 
854	 2.73838554023406E-02 
855	 2.75481088152218E-02 
856	 2.71261105563836E-02 
857	 2.65260611218032E-02 
858	 2.63818124064846E-02 
859	 2.61966917904248E-02 
860	 2.57786147716296E-02 
861	 2.54775244333055E-02 
862	 2.56716712618128E-02 
863	 2.51387821936881E-02 
864	 2.45394609870624E-02 
865	 2.41345275572783E-02 
866	 2.37066318625274E-02 
867	 2.34025087507257E-02 
868	 2.31139624853494E-02 
869	 2.27772672463537E-02 
870	 2.24393755324367E-02 
871	 2.23554547910752E-02 
872	 2.19558348535446E-02 
873	 2.11001498747473E-02 
874	 2.10006756814841E-02 
875	 2.05890808557979E-02 
876	 2.00023448084683E-02 
877	 1.96614200921645E-02 
878	 1.95957817782764E-02 
879	 1.93437887621328E-02 
880	 1.88469421086094E-02 
881	 1.82851808954596E-02 
882	 1.78183584668386E-02 
883	 1.74362197834638E-02 
884	 1.71141141357626E-02 
885	 1.68054037087867E-02 
886	 1.63014516798875E-02 
887	 1.60399252124868E-02 
888	 1.58600245291851E-02 
889	 0.014985692466943 
890	 1.49905563327952E-02 
891	 1.52107876335697E-02 
892	 1.49160964005788E-02 
893	 1.40034802900041E-02 
894	 1.35412266667671E-02 
895	 1.36520995829204E-02 
896	 1.38591119065337E-02 
897	 1.28950659948672E-02 
898	 1.26403938532444E-02 
899	 1.26460995330893E-02 
900	 1.21282171966916E-02 
901	 1.22717368804019E-02 
902	 1.17571741951569E-02 
903	 1.10355154390197E-02 
904	 1.09604631227367E-02 
905	 1.05681781888139E-02 
906	 1.04057096871344E-02 
907	 1.03791424706658E-02 
908	 9.92430652574146E-03 
909	 8.74204821244534E-03 
910	 8.30850196343614E-03 
911	 8.47480530527777E-03 
912	 7.73466058951535E-03 
913	 7.14759722432635E-03 
914	 7.16579480175335E-03 
915	 7.29539753305122E-03 
916	 6.30088715998694E-03 
917	 6.1275148877939E-03 
918	 5.36089899434074E-03 
919	 4.13958726479828E-03 
920	 5.22900547396581E-03 
921	 4.78275037429939E-03 
922	 4.05523609876787E-03 
923	 4.11693874830303E-03 
924	 3.54893902369374E-03 
925	 2.71825105616323E-03 
926	 2.05954647230677E-03 
927	 1.80927813892303E-03 
928	 1.47318733498101E-03 
929	-4.75720841999138E-04 
930	-1.24182433583058E-03 
931	 1.84360088638885E-03 
932	-1.54605687841638E-03 
933	-2.05915161487843E-03 
934	-1.47864789394347E-03 
935	-4.45053182057664E-03 
936	-3.54402209985756E-03 
937	-2.92220409803059E-03 
938	-2.55516847081596E-03 
939	-1.43225273652787E-03 
940	-1.02280578717797E-03 
941	-2.15774046313835E-03 
942	-3.67496535347077E-03 
943	-3.69919803813443E-03 
944	-3.08132202840806E-03 
945	-2.43388499561481E-03 
946	-2.67048746154333E-03 
947	-4.22428300109184E-03 
948	-4.87561679273642E-03 
949	-4.55544857163916E-03 
950	-3.82277981339724E-03 
951	-3.42378649979836E-03 
952	-2.95564609352687E-03 
953	-3.91160752844942E-03 
954	-4.9708018810743E-03 
955	-3.52616892793516E-03 
956	-2.96819458618642E-03 
957	-3.6028480839973E-03 
958	-3.68749917656321E-03 
959	-1.21474966926579E-03 
960	-1.3323763153288E-03 
961	-1.9610848905613E-03 
962	-1.53515385979871E-03 
963	-1.21418000016739E-04 
964	-1.78896126884369E-03 
965	-2.33471780900932E-03 
966	-1.14085055175665E-03 
967	-8.88670738729502E-04 
968	-1.4382012788372E-03 
969	-5.8663652320889E-04 
970	-6.18270544323877E-06 
971	-3.67659320222201E-03 
972	-3.59656149999246E-03 
973	-2.94481179829887E-03 
974	-0.002334183262378 
975	 4.70094728583874E-04 
976	-9.56300532408766E-04 
977	-2.5879898853165E-03 
978	-2.62311152238579E-03 
979	-2.58127227190715E-03 
980	-3.11975675234805E-03 
981	-2.6014110346964E-03 
982	-2.26791158057815E-03 
983	-4.75889252659448E-03 
984	-2.70490485709551E-03 
985	-2.31776197991015E-03 
986	-3.79813969291944E-03 
987	-2.27550034611673E-03 
988	-2.59653704332932E-03 
989	-2.18033553665873E-03 
990	-1.4747027930422E-03 
991	-2.96214058621852E-03 
992	-3.00682998101863E-03 
993	-2.45337579801921E-03 
994	-1.87342526412368E-03 
995	-1.42490998186537E-03 
996	-1.52740502260426E-03 
997	-2.90811383836005E-03 
998	-3.97135167519921E-03 
999	-2.68595525190945E-03 
1000	-2.70855871582269E-03 
1001	 1.5984407838178E-03 
1002	 1.56533554968803E-03 
1003	 1.42458282961219E-03 
1004	 9.01631678185362E-04 
1005	 7.98891214252568E-04 
1006	 7.54764424567739E-04 
1007	 9.30594264230282E-04 
1008	 1.56716445585696E-03 
1009	 1.81578948701575E-03 
1010	 1.79104460953922E-03 
1011	 1.34548369415034E-03 
1012	 9.468725619593E-04 
1013	 8.237251478967E-04 
1014	 6.35882405983947E-04 
1015	 6.88564538624208E-04 
1016	 8.36108760648216E-04 
1017	 8.05458921867829E-04 
1018	 9.73043510054951E-04 
1019	 1.61749010747117E-03 
1020	 1.82379822873239E-03 
1021	 1.77015887821257E-03 
1022	 1.97746188869512E-03 
1023	 1.87747190436699E-03 
1024	 1.74433988819239E-03 
1025	 1.71864742667048E-03 
1026	 1.4538563946431E-03 
1027	 1.28053108941813E-03 
1028	 1.09715811155273E-03 
1029	 9.94301011645314E-04 
1030	 8.20347972436492E-04 
1031	 8.75795215838365E-04 
1032	 1.08176432466269E-03 
1033	 1.21739234865471E-03 
1034	 1.5733580308667E-03 
1035	 1.70880568952442E-03 
1036	 1.75122335325603E-03 
1037	 1.76422724493897E-03 
1038	 1.69000825032062E-03 
1039	 1.56002206661505E-03 
1040	 1.30692995109042E-03 
1041	 1.01926504910602E-03 
1042	 1.16374999375207E-03 
1043	 1.48194660085537E-03 
1044	 1.78441843052085E-03 
1045	 2.65658005275377E-03 
1046	 2.79164963351954E-03 
1047	 2.57081523648619E-03 
1048	 2.36574634572062E-03 
1049	 1.69535356060307E-03 
1050	 1.39922605989799E-03 
1051	 9.86563522363641E-04 
1052	 9.93839837941931E-04 
1053	 1.66227163009804E-03 
1054	 1.85479291668026E-03 
1055	 2.00017601131079E-03 
1056	 2.22072761128613E-03 
1057	 2.36279102535252E-03 
1058	 2.20646910833414E-03 
1059	 2.18293398218065E-03 
1060	 2.37868150747156E-03 
1061	 2.33880737161255E-03 
1062	 1.95202188522603E-03 
1063	 1.90015648764109E-03 
1064	 1.96774485256956E-03 
1065	 2.06056557812363E-03 
1066	 2.3961429410132E-03 
1067	 2.49012525585577E-03 
1068	 2.41526546017111E-03 
1069	 2.48508031401011E-03 
1070	 2.59617598079123E-03 
1071	 2.57790520815357E-03 
1072	 2.55765257085538E-03 
1073	 2.60610632445675E-03 
1074	 2.51059305887243E-03 
1075	 2.18787536390295E-03 
1076	 2.09833041226912E-03 
1077	 2.02979632802763E-03 
1078	 2.09300034384016E-03 
1079	 2.36818471068563E-03 
1080	 2.40915937813247E-03 
1081	 2.38658895187019E-03 
1082	 2.45210477968888E-03 
1083	 2.54846830566347E-03 
1084	 2.43097837592647E-03 
1085	 2.30620484872788E-03 
1086	 2.19054787992606E-03 
1087	 1.62963873246798E-03 
1088	 1.45008398947941E-03 
1089	 1.56118916398766E-03 
1090	 1.73497451652548E-03 
1091	 1.84308217231938E-03 
1092	 2.11775326026828E-03 
1093	 2.13875509420824E-03 
1094	 1.99733419564248E-03 
1095	 1.90853906716876E-03 
1096	 1.81299312563725E-03 
1097	 1.68399995306224E-03 
1098	 1.21183432964558E-03 
1099	 1.27909559507834E-03 
1100	 1.87531313411392E-03 
1101	 1.95235298095186E-03 
1102	 2.19493609623955E-03 
1103	 2.31251561947767E-03 
1104	 2.11477232884574E-03 
1105	 1.43080748054266E-03 
1106	 1.33332714461158E-03 
1107	 1.9441780555278E-03 
1108	 2.21707853660909E-03 
1109	 1.94394801324402E-03 
1110	 1.92352375934843E-03 
1111	 1.76325785342189E-03 
1112	 1.58877465918665E-03 
1113	 1.4807408276623E-03 
1114	 1.49871189566892E-03 
1115	 1.48152798791978E-03 
1116	 1.09257423003082E-03 
1117	 2.65111105979067E-04 
1118	 4.97071741979484E-04 
1119	 2.09099721436838E-03 
1120	 1.86486402202336E-03 
1121	 1.7903347397035E-03 
1122	-8.99974566270069E-05 
1123	-2.73706553649007E-03 
1124	-2.26344061409696E-03 
1125	 1.66947803077011E-04 
1126	 2.35262641254883E-03 
1127	 4.39682158228682E-03 
1128	 3.52747082056274E-03 
1129	 2.57400821056771E-03 
1130	 7.28170217219269E-04 
1131	 5.25339730538414E-04 
1132	-3.48987477124026E-04 
1133	-1.70812951801638E-04 
1134	 1.94309246208117E-03 
1135	 2.14393302808924E-03 
1136	 1.30163498008616E-03 
1137	 0.001242030093112 
1138	 1.21342641502982E-03 
1139	 6.04280534003856E-04 
1140	 8.4393073587789E-04 
1141	 2.03572619264642E-03 
1142	 2.13807723957458E-03 
1143	 2.0686859987467E-03 
1144	 1.95943094868468E-03 
1145	 1.17079897682422E-03 
1146	 1.3306765285544E-03 
1147	 2.3110544260434E-03 
1148	 2.33298583693102E-03 
1149	 1.83409903871588E-03 
1150	 1.85089517123981E-03 
1151	 1.61137772862595E-03 
1152	 1.49006916583676E-03 
1153	 1.93741658223319E-03 
1154	 1.9942297543408E-03 
1155	 1.98505096957693E-03 
1156	 1.31462291256857E-03 
1157	 6.75389375790925E-04 
1158	 6.58846253841701E-04 
1159	 6.96101249455873E-04 
1160	 8.07070522375434E-04 
1161	 1.32152938761277E-03 
1162	 1.43242861593082E-03 
1163	 1.13966019200058E-03 
1164	 1.21791913549152E-03 
1165	 1.21679681465399E-03 
1166	 9.7798239535201E-04 
1167	 1.0719072118965E-03 
1168	 1.20934267528686E-03 
1169	 1.21521487690967E-03 
1170	 1.36483712022243E-03 
1171	 1.44585191192928E-03 
1172	 1.5193196278922E-03 
1173	 1.47298257463029E-03 
1174	 1.31698996439026E-03 
1175	 1.21024617798987E-03 
1176	 1.17024942027006E-03 
1177	 1.41353141160743E-03 
1178	 1.31247445191442E-03 
1179	 8.39484221035409E-04 
1180	 7.95633952133039E-04 
1181	 7.02906245995313E-04 
1182	 8.26155108032749E-04 
1183	 1.35628727210857E-03 
1184	 1.41918995030906E-03 
1185	 1.12316399292706E-03 
1186	 7.56493994610119E-04 
1187	 7.90287637377625E-04 
1188	 1.3765107494274E-03 
1189	 1.52288563644243E-03 
1190	 1.26883333585849E-03 
1191	 1.23374766460233E-03 
1192	 1.27268764306374E-03 
1193	 1.14429559260297E-03 
1194	 1.19261089061701E-03 
1195	 0.001398537232917 
1196	 1.22347512724957E-03 
1197	 9.60228837595685E-04 
1198	 1.11987737455052E-03 
1199	 1.26013644493803E-03 
1200	 1.21316462399227E-03 
1201	 1.18200713806263E-03 
1202	 1.07773481769758E-03 
1203	 9.82322335440596E-04 
1204	 1.02130013584759E-03 
1205	 1.22554437293893E-03 
1206	 1.32824066763183E-03 
1207	 1.28234918249711E-03 
1208	 1.42238081125212E-03 
1209	 1.50751199062191E-03 
1210	 1.37862939086295E-03 
1211	 1.36679783945783E-03 
1212	 1.40855921091458E-03 
1213	 1.32093177000315E-03 
1214	 1.26398664782038E-03 
1215	 1.10465561344412E-03 
1216	 1.07166950551631E-03 
1217	 1.24211900813516E-03 
1218	 1.44665134344424E-03 
1219	 1.45246522177446E-03 
1220	 1.28258971734761E-03 
1221	 1.11647557174898E-03 
1222	 9.74884758096387E-04 
1223	 1.09032044758996E-03 
1224	 1.33139965828223E-03 
1225	 1.23987139846064E-03 
1226	 1.07841409714901E-03 
1227	 1.11670509651316E-03 
1228	 1.16393059031938E-03 
1229	 1.23707735323311E-03 
1230	 1.29530428264396E-03 
1231	 1.20383972581468E-03 
1232	 1.14563768348072E-03 
1233	 1.11997416335288E-03 
1234	 1.1995471869165E-03 
1235	 1.21632463558463E-03 
1236	 1.0595940142044E-03 
1237	 1.04356422168353E-03 
1238	 1.09646833740758E-03 
1239	 1.25442709952709E-03 
1240	 1.19604234532168E-03 
1241	 1.34058433360629E-03 
1242	 1.41221878586341E-03 
1243	 1.24885253894505E-03 
1244	 1.35819524203407E-03 
1245	 1.55988515467762E-03 
1246	 1.45183127693781E-03 
1247	 1.23862613834683E-03 
1248	 1.20192190089947E-03 
1249	 1.25339860384067E-03 
1250	 1.3239218095781E-03 
1251	 1.42207270399607E-03 
1252	 1.46531326614399E-03 
1253	 1.45380998410553E-03 
1254	 1.33765379591316E-03 
1255	 1.23009002352416E-03 
1256	 1.26049036752448E-03 
1257	 1.40277079761012E-03 
1258	 1.30214478723657E-03 
1259	 1.16414745357394E-03 
1260	 1.17381175096271E-03 
1261	 8.94786512520132E-04 
1262	 8.06191929873962E-04 
1263	 9.28440753523717E-04 
1264	 1.40711075320631E-03 
1265	 1.18974141851869E-03 
1266	 9.668150079499E-04 
1267	 1.11587851146904E-03 
1268	 8.22267182167044E-04 
1269	 6.19389711171932E-04 
1270	 1.11220338597244E-03 
1271	 1.49938521390058E-03 
1272	 1.38613278444017E-03 
1273	 1.35005101471693E-03 
1274	 1.39203728073036E-03 
1275	 1.12232988168258E-03 
1276	 8.83163230618501E-04 
1277	 9.48858484007288E-04 
1278	 1.13646482665496E-03 
1279	 1.21599770783124E-03 
1280	 1.1566900447958E-03 
1281	 1.16325265197088E-03 
1282	 1.15005166824749E-03 
1283	 1.14541031370543E-03 
1284	 1.16155805479624E-03 
1285	 1.19105433709711E-03 
1286	 1.1906177450833E-03 
1287	 1.13652697208626E-03 
1288	 1.15486450818958E-03 
1289	 1.15113693899398E-03 
1290	 1.09141374699935E-03 
1291	 1.00119105367243E-03 
1292	 1.19127991313762E-03 
1293	 1.17392574936292E-03 
1294	 1.25446410468135E-03 
1295	 1.49507796883142E-03 
1296	 1.51152047349726E-03 
1297	 1.31823026408807E-03 
1298	 1.07358358043885E-03 
1299	 1.20236646846531E-03 
1300	 1.27211933905969E-03 
1301	 1.09233427505577E-03 
1302	 1.42982227147465E-03 
1303	 1.5676864757597E-03 
1304	 1.2679824998338E-03 
1305	 1.31481719741676E-03 
1306	 1.38503182669868E-03 
1307	 1.38329315209567E-03 
1308	 1.22678694196069E-03 
1309	 1.12406146053648E-03 
1310	 1.18308058839463E-03 
1311	 1.04137264863736E-03 
1312	 9.636365830505E-04 
1313	 1.31383814820969E-03 
1314	 1.39080435149319E-03 
1315	 1.11398072484612E-03 
1316	 9.80764027933428E-04 
1317	 9.07627074362226E-04 
1318	 9.57508293704262E-04 
1319	 1.07690839989104E-03 
1320	 1.02899084591891E-03 
1321	 9.90647017386194E-04 
1322	 1.04683306474111E-03 
1323	 8.10995186440038E-04 
1324	 9.81109158950091E-04 
1325	 1.46336162454821E-03 
1326	 1.31534674548313E-03 
1327	 1.15675770145267E-03 
1328	 1.31833326790285E-03 
1329	 1.34019229542018E-03 
1330	 1.56408466503071E-03 
1331	 0.001647075629971 
1332	 1.47904859120842E-03 
1333	 1.70837319385381E-03 
1334	 1.70260973747911E-03 
1335	 1.56091133592828E-03 
1336	 1.39295734366999E-03 
1337	 1.44378554987819E-03 
1338	 1.32467012541009E-03 
1339	 1.23878841656653E-03 
1340	 1.60591892324072E-03 
1341	 1.55544988711717E-03 
1342	 5.49371398810467E-04 
1343	 5.21665883528446E-04 
1344	 1.88638233567781E-03 
1345	 0.001713308167447 
1346	 1.5905783578217E-04 
1347	 2.60001789715444E-04 
1348	 8.51807861224625E-04 
1349	 2.99535899635222E-04 
1350	 0.001089687980684 
1351	 1.95922284312775E-03 
1352	-5.98884228370492E-04 
1353	-3.99244697707151E-03 
1354	-9.89106887666223E-03 
1355	-5.91710713861187E-03 
1356	 1.05548964528224E-03 
1357	-6.77112403914954E-03 
1358	-5.78895501029803E-03 
1359	 7.08868463064077E-03 
1360	-1.94138613801524E-03 
1361	-2.20842138708904E-02 
1362	-4.87986808413741E-02 
1363	-6.13346174029319E-02 
1364	-1.20982160988105E-02 
1365	 3.42510057412656E-02 
1366	-3.75317213136439E-02 
1367	-1.88947303690823E-02 
1368	 2.87592623010973E-02 
1369	 4.72154603829202E-02 
1370	 2.65169503726624E-02 
1371	 0.119894764414571 
1372	 0.12488890309351 
1373	-6.02418091476476E-02 
1374	-7.35392880670154E-02 
1375	 4.82331699708772E-02 
1376	 2.19992579538758E-02 
1377	-0.10890617430314 
1378	-7.21093277351798E-02 
1379	 4.76065856780947E-02 
1380	 5.33160991157152E-02 
1381	 8.83674386273173E-02 
1382	 0.124396521849037 
1383	 2.25578536187914E-02 
1384	-3.11870832872858E-02 
1385	 6.86833792471538E-02 
1386	 8.81288816609661E-02 
1387	-0.020987435938168 
1388	-4.38662032136484E-02 
1389	-2.14456172675668E-04 
1390	 1.10392754564989E-02 
1391	 3.19144200805428E-02 
1392	 4.81755841387728E-02 
1393	 5.6508230011455E-03 
1394	 3.01944946381105E-02 
1395	 4.27959602070668E-02 
1396	 2.95433519659871E-02 
1397	 4.04235822285067E-02 
1398	-9.42921760654779E-03 
1399	-1.37042429965703E-02 
1400	 1.61844516885957E-02 
1401	-8.63244833892086E-03 
1402	 1.11158053861149E-02 
1403	 6.15012764841382E-02 
1404	 3.70483521196393E-02 
1405	 1.43582552162849E-02 
1406	 6.10572257083725E-03 
1407	 4.53581701162284E-03 
1408	-2.70281569750683E-02 
1409	-2.33596668327291E-02 
1410	 0.01294725782926 
1411	 1.54645512335903E-02 
1412	 4.72200541041905E-03 
1413	 2.61397053659247E-03 
1414	 2.02923226108774E-04 
1415	-1.49454646575114E-03 
1416	-2.96737243977332E-03 
1417	-1.81850525028928E-03 
1418	 1.28763365823764E-03 
1419	 1.83522506382752E-04 
1420	-1.60129903243463E-03 
1421	-1.35045491680297E-03 
1422	-3.19434553102057E-03 
1423	-3.02829300234391E-03 
1424	-5.1276074304752E-04 
1425	 4.85039499266914E-04 
1426	 0.001814549730238 
1427	 2.86531349972112E-03 
1428	 4.28058415821209E-03 
1429	 3.38158777646216E-03 
1430	-9.37868714154683E-04 
1431	-1.36897348950342E-03 
1432	 4.37026247548684E-04 
1433	 4.82478909255941E-04 
1434	 1.84466904892434E-03 
1435	 2.76243173660533E-03 
1436	 2.41583956276097E-03 
1437	 2.60821372800657E-04 
1438	 8.32503160148926E-04 
1439	 2.25817942473758E-03 
1440	 1.90402090358109E-03 
1441	 1.62488887584473E-03 
1442	 0.002928713333111 
1443	 3.22107810729618E-03 
1444	 9.22024457357342E-04 
1445	-2.59757320583376E-05 
1446	 1.02550786016588E-03 
1447	 1.02711566434374E-03 
1448	 9.69944363304654E-04 
1449	 2.14467429516618E-03 
1450	 1.92077278524342E-03 
1451	 3.30382721251865E-04 
1452	 2.27205947245615E-04 
1453	 1.33796304212038E-03 
1454	 1.51317132676972E-03 
1455	 1.3042239387566E-03 
1456	 1.12709562555357E-03 
1457	 7.90600931168306E-04 
1458	 1.05648625359031E-03 
1459	 1.67088602600222E-03 
1460	 1.72105229956821E-03 
1461	 1.87058678078046E-03 
1462	 1.82724354992205E-03 
1463	 1.15576317378931E-03 
1464	 1.03739534141512E-03 
1465	 1.25090185223866E-03 
1466	 1.51855193225442E-03 
1467	 2.3473647625071E-03 
1468	 1.94696349278646E-03 
1469	 6.08342611425039E-04 
1470	 6.65297288584327E-04 
1471	 8.49665502475625E-04 
1472	 2.43286535539459E-04 
1473	-1.65224121605749E-05 
1474	 3.12739459165566E-04 
1475	 2.25438156846218E-04 
1476	-2.51862348209682E-05 
1477	 5.91740917727621E-04 
1478	 8.93665731263403E-04 
1479	 3.16026260589805E-04 
1480	 3.16786842131853E-05 
1481	 3.0339955318792E-05 
1482	 4.11740418020956E-04 
1483	 1.10455278932342E-03 
1484	 1.05330117671038E-03 
1485	 8.71843095139805E-04 
1486	 1.08923131726524E-03 
1487	 1.20528166543755E-03 
1488	 8.27602280579417E-04 
1489	 2.70244029001444E-04 
1490	 5.06873746773923E-04 
1491	 9.61971102786285E-04 
1492	 7.26443400725523E-04 
1493	 5.62561567473458E-04 
1494	 7.42886363798321E-04 
1495	 3.75359004091202E-04 
1496	 2.6490319721925E-04 
1497	 1.0364805344701E-03 
1498	 1.34821200498528E-03 
1499	 1.13665409168409E-03 
1500	 1.1173140397724E-03 
1501	 1.3098483151177E-03 
1502	 1.29323531550475E-03 
1503	 9.26037387481429E-04 
1504	 8.77297932257465E-04 
1505	 9.56720589518142E-04 
1506	 1.12472371686664E-03 
1507	 1.02436390152544E-03 
1508	 1.08562803296382E-03 
1509	 1.1946730243377E-03 
1510	 1.08729026571148E-03 
1511	 9.332072602904E-04 
1512	 9.47526543584755E-04 
1513	 1.05723533435072E-03 
1514	 1.07083146552064E-03 
1515	 1.22003605994763E-03 
1516	 1.44430900422004E-03 
1517	 1.34114166702483E-03 
1518	 1.02255973681012E-03 
1519	 7.48941671298604E-04 
1520	 7.00688725124779E-04 
1521	 9.51981274821501E-04 
1522	 1.07536176154189E-03 
1523	 1.07698070534911E-03 
1524	 1.26411685358624E-03 
1525	 1.27624606715728E-03 
1526	 9.50562705367135E-04 
1527	 7.22372119955498E-04 
1528	 7.17331880930017E-04 
1529	 7.38830103774065E-04 
1530	 8.39357419385116E-04 
1531	 8.19151747138797E-04 
1532	 7.13254090467666E-04 
1533	 8.06299670651964E-04 
1534	 8.37031075561829E-04 
1535	 7.58067389115518E-04 
1536	 7.83261624031467E-04 
1537	 6.83335465399557E-04 
1538	 5.63562156086418E-04 
1539	 9.14173490088359E-04 
1540	 1.27254861203131E-03 
1541	 1.20193482570508E-03 
1542	 1.10506576414474E-03 
1543	 1.02436245983373E-03 
1544	 8.18908536543201E-04 
1545	 8.52430583024007E-04 
1546	 1.01071752539106E-03 
1547	 8.99094302335361E-04 
1548	 8.74900310827057E-04 
1549	 1.04916776566639E-03 
1550	 1.10322046138998E-03 
1551	 1.07744081045995E-03 
1552	 1.12059318084438E-03 
1553	 1.14273529438552E-03 
1554	 1.02172231642906E-03 
1555	 9.85430694117824E-04 
1556	 1.17888083634612E-03 
1557	 1.32070396502158E-03 
1558	 1.24783016902944E-03 
1559	 1.01569689628637E-03 
1560	 9.33880827410223E-04 
1561	 1.07320374320426E-03 
1562	 1.02218319594129E-03 
1563	 1.05578579421497E-03 
1564	 1.24940964875532E-03 
1565	 1.16747337027855E-03 
1566	 1.15385052521609E-03 
1567	 1.22708287327227E-03 
1568	 9.99284064656093E-04 
1569	 6.19445996418501E-04 
1570	 4.61200927106267E-04 
1571	 5.04944951374564E-04 
1572	 6.33756727595511E-04 
1573	 1.04927881031897E-03 
1574	 1.15191460685271E-03 
1575	 6.59558510902316E-04 
1576	 5.74655815941203E-04 
1577	 8.30696992846796E-04 
1578	 6.8175483322089E-04 
1579	 6.80213626413796E-04 
1580	 9.80731191812045E-04 
1581	 8.9777543415476E-04 
1582	 7.10898526346649E-04 
1583	 8.57366566193666E-04 
1584	 9.854843692351E-04 
1585	 7.48456750968717E-04 
1586	 5.97883359409089E-04 
1587	 7.44574466544959E-04 
1588	 7.45159962289227E-04 
1589	 7.23255743131502E-04 
1590	 9.54084954441266E-04 
1591	 1.02253892820741E-03 
1592	 6.96096163835675E-04 
1593	 6.45698751112673E-04 
1594	 8.24335096089397E-04 
1595	 8.84280214083644E-04 
1596	 1.10887464007457E-03 
1597	 1.21264066084861E-03 
1598	 1.09311135299524E-03 
1599	 9.3835448954371E-04 
1600	 8.6554657543123E-04 
1601	 9.72915175652109E-04 
1602	 9.85082972159706E-04 
1603	 9.31268408266309E-04 
1604	 9.96449083997593E-04 
1605	 1.11767927107511E-03 
1606	 1.22454782347953E-03 
1607	 1.11754588118628E-03 
1608	 8.91212003340904E-04 
1609	 8.0912806525052E-04 
1610	 7.82190189530471E-04 
1611	 1.01825872844361E-03 
1612	 1.32803185600829E-03 
1613	 1.26147250589159E-03 
1614	 1.07913545352148E-03 
1615	 7.14306566344056E-04 
1616	 5.41229582963035E-04 
1617	 9.4241179394995E-04 
1618	 1.1547610721691E-03 
1619	 1.16926484782433E-03 
1620	 1.30069182689871E-03 
1621	 1.15036996119706E-03 
1622	 8.4731717842769E-04 
1623	 7.40854363825717E-04 
1624	 6.83985158600602E-04 
1625	 7.60166615879409E-04 
1626	 9.45721787763261E-04 
1627	 1.08048586492841E-03 
1628	 1.19191112018201E-03 
1629	 1.13032040791571E-03 
1630	 9.15800432228799E-04 
1631	 6.6090238418718E-04 
1632	 6.41598105419496E-04 
1633	 8.22015761580919E-04 
1634	 8.43125223040527E-04 
1635	 1.03386984487085E-03 
1636	 1.24940953082057E-03 
1637	 9.27366902448428E-04 
1638	 6.8495939008716E-04 
1639	 7.48912248167818E-04 
1640	 6.75442432045643E-04 
1641	 9.48768475287852E-04 
1642	 1.12449833389281E-03 
1643	 6.98558944056646E-04 
1644	 6.77006614821136E-04 
1645	 8.94965490671651E-04 
1646	 9.14835152487424E-04 
1647	 1.00265390723179E-03 
1648	 1.03110061977565E-03 
1649	 8.59260599889266E-04 
1650	 5.60696118530223E-04 
1651	 6.93373282016483E-04 
1652	 9.9581070615749E-04 
1653	 7.35157445430893E-04 
1654	 7.55263512250657E-04 
1655	 7.71376251870099E-04 
1656	 6.68403507704086E-04 
1657	 7.89720512316584E-04 
1658	 7.97795002899851E-04 
1659	 4.49639007461647E-04 
1660	 5.27485854314607E-04 
1661	 9.78202840545702E-04 
1662	 9.14114715890373E-04 
1663	 6.64315296656789E-04 
1664	 7.23933721447211E-04 
1665	 7.95413462480896E-04 
1666	 8.16728242490953E-04 
1667	 9.57931166637369E-04 
1668	 6.5595068121603E-04 
1669	 5.42540556833958E-04 
1670	 6.02369377122007E-04 
1671	 6.80572756110071E-04 
1672	 8.80066126481518E-04 
1673	 1.13584533113186E-03 
1674	 8.80541180194765E-04 
1675	 8.68148020788361E-04 
1676	 1.22249564930474E-03 
1677	 1.16426893504673E-03 
1678	 1.11669954467971E-03 
1679	 9.35390615805812E-04 
1680	 6.3000683442843E-04 
1681	 7.50900587967028E-04 
1682	 9.26339432680232E-04 
1683	 1.17430068008065E-03 
1684	 1.41052699762181E-03 
1685	 1.27295450982376E-03 
1686	 1.21583281946591E-03 
1687	 1.21026632099989E-03 
1688	 1.13676972731792E-03 
1689	 1.19431393577092E-03 
1690	 1.02735876623511E-03 
1691	 6.93430381307081E-04 
1692	 7.58418819131455E-04 
1693	 9.20502314958213E-04 
1694	 6.31701896922484E-04 
1695	 6.25192263797949E-04 
1696	 9.61488517723554E-04 
1697	 9.19162115633168E-04 
1698	 9.27043714189789E-04 
1699	 1.1152820453065E-03 
1700	 1.00814542413742E-03 
1701	 6.42032282967471E-04 
1702	 3.76573882139504E-04 
1703	 3.52996459072678E-04 
1704	 6.31222152796456E-04 
1705	 9.21721330744487E-04 
1706	 1.03296449175874E-03 
1707	 1.26531386936975E-03 
1708	 1.16188427919199E-03 
1709	 7.22789611754452E-04 
1710	 7.06050707948447E-04 
1711	 9.87271054741611E-04 
1712	 1.08449941661566E-03 
1713	 1.28146686637459E-03 
1714	 1.38500895677677E-03 
1715	 1.14223675697276E-03 
1716	 9.18216964301711E-04 
1717	 8.9649700706287E-04 
1718	 9.7205164233134E-04 
1719	 8.89370251226688E-04 
1720	 8.24346523131689E-04 
1721	 1.0490696760412E-03 
1722	 1.3175674864814E-03 
1723	 1.46730053395592E-03 
1724	 1.23423822583221E-03 
1725	 9.36816639369265E-04 
1726	 8.48783046614762E-04 
1727	 5.65159580413614E-04 
1728	 6.1824371182589E-04 
1729	 1.04889845037286E-03 
1730	 9.34937562126576E-04 
1731	 5.93179573035137E-04 
1732	 6.4033585516532E-04 
1733	 4.13986550737804E-04 
1734	 3.40607664168923E-05 
1735	 3.91246353814932E-04 
1736	 7.43500262746551E-04 
1737	 7.65314370009344E-04 
1738	 8.49956520258055E-04 
1739	 5.65868604102879E-04 
1740	 2.48606443446735E-04 
1741	 3.72802859311851E-04 
1742	 4.65128471803219E-04 
1743	 6.11632104657689E-04 
1744	 9.19314663740996E-04 
1745	 7.80254206331504E-04 
1746	 2.7518840902361E-04 
1747	 3.62871142844912E-04 
1748	 5.49481704517991E-04 
1749	 6.95664813649451E-04 
1750	 1.38649253020836E-03 
1751	 1.54361581773898E-03 
1752	 1.33634388742342E-03 
1753	 1.26521088398443E-03 
1754	 1.07044914065912E-03 
1755	 1.01531919560586E-03 
1756	 8.64696750822482E-04 
1757	 7.90247487797856E-04 
1758	 7.9207095240716E-04 
1759	 2.19116817145817E-04 
1760	 2.932694071621E-04 
1761	 4.33347883610511E-04 
1762	 5.07237259834577E-05 
1763	 1.9475644774875E-04 
1764	 1.02351811987982E-04 
1765	-9.26416583877386E-06 
1766	 9.36007345631844E-04 
1767	 1.21380650896106E-03 
1768	 7.7017754016558E-04 
1769	 6.46172414955798E-04 
1770	 6.03578313307338E-05 
1771	-1.25205616747155E-04 
1772	 8.06737962703506E-04 
1773	 1.52948650576258E-03 
1774	 1.34063588240679E-03 
1775	 1.75128428827024E-03 
1776	 1.62333334715714E-03 
1777	 6.66968941815372E-04 
1778	 5.2159020232329E-04 
1779	 2.75776201431202E-04 
1780	 1.64772948479954E-04 
1781	 1.17169980926033E-03 
1782	 1.40614251645838E-03 
1783	 8.23382588999295E-04 
1784	 8.9077512184836E-04 
1785	 1.18997900739387E-03 
1786	 1.04224771726393E-03 
1787	 1.09186973653329E-03 
1788	 1.26555006362936E-03 
1789	 6.78277335881891E-04 
1790	 2.15979965560558E-03 
1791	 2.80477396441279E-03 
1792	 5.0766701135099E-04 
1793	 3.76172265650613E-04 
1794	 1.48565683024074E-03 
1795	 4.32688816307077E-04 
1796	 3.46897649890069E-03 
1797	 6.06949666072991E-03 
1798	 1.78378574756293E-03 
1799	 6.6549961284987E-04 
1800	-1.67394367228822E-03 
1801	-2.51906442823129E-03 
1802	 4.73835997936276E-03 
1803	 5.05632288373625E-03 
1804	-3.76724289524168E-03 
1805	-5.52288078047651E-03 
1806	-7.15310254762324E-03 
1807	-7.90694051195932E-03 
1808	 4.0689211963684E-03 
1809	 9.13008289203248E-03 
1810	 4.40266868405552E-03 
1811	 1.12451234379147E-03 
1812	-6.28668169238536E-03 
1813	-5.82214477864437E-03 
1814	-0.001294530749784 
1815	 5.63038373607374E-03 
1816	 3.50864678219623E-02 
1817	 1.88509279039213E-02 
1818	-8.81193890289577E-03 
1819	-3.96587334848298E-02 
1820	-7.36554286156862E-02 
1821	-8.37477075340751E-02 
1822	-0.08628447445493 
1823	-7.08991599308696E-02 
1824	-5.90139172005028E-02 
1825	-2.66138423941739E-03 
1826	 1.45519576716442E-02 
1827	-4.69989426739192E-02 
1828	-4.41255048892455E-02 
1829	-1.45483525622121E-03 
1830	 3.03150112462871E-03 
1831	-0.353509560822544 
1832	-0.405161028798639 
1833	-0.641999915430924 
1834	-0.787960276806398 
1835	-1.02869486132579 
1836	-1.31016333462891 
1837	-0.593399843907887 
1838	-0.2789242858318 
1839	 0.260821737908552 
1840	-0.212100641303644 
1841	-0.387526061287398 
1842	-0.918162551745353 
1843	-1.66656487290559 
1844	-1.31983239394546 
1845	-1.44302804865082 
1846	-3.32711982441834 
1847	-38.1633171284295 
1848	 5.56872281024286 
1849	 3.89446313023507 
1850	-1.36643915618154 
1851	-0.389845027601974 
1852	-0.931234672941607 
1853	-1.29711206525208 
1854	-1.22064913270044 
1855	-2.58899179845162 
1856	-4.38536112723109 
1857	-0.866408774654477 
1858	 0.157248228149073 
1859	 1.27028422697945 
1860	 0.200529259201566 
1861	 4.27962836213856E-02 
1862	-0.208584187608863 
1863	 0.653682099040804 
1864	 1.29786192160094 
1865	 2.66568840411722 
1866	 19.356566532112 
1867	-2.69963663735401 
1868	-0.754722927633401 
1869	-0.591503229312989 
1870	-0.231594879177164 
1871	-0.522066616881961 
1872	-0.601786453855177 
1873	-0.626969691385124 
1874	 0.534605677335985 
1875	 2.66057084317768 
1876	-5.2506050221251 
1877	-1.00764991115786 
1878	-0.930911127611321 
1879	-0.72104811266593 
1880	-0.336442144721659 
1881	 6.69368446790031E-02 
1882	 0.679669264768172 
1883	 0.737112884253645 
1884	 0.223558709904108 
1885	-0.425505628920979 
1886	-1.55670850656006 
1887	-1.70971900624509 
1888	-0.66499130002518 
1889	-0.420322283358367 
1890	-1.47647304803738E-02 
1891	 2.89405345697569E-02 
1892	-1.89435677190121E-02 
1893	-0.242812291572708 
1894	-0.465942316224683 
1895	-0.36597240718328 
1896	-0.628157809418372 
1897	-1.20946467765116 
1898	-1.63732736068442 
1899	-7.67033145635924 
1900	-41.5325585061311 
1901	-5.32870398331538 
1902	-3.58515363571752 
1903	-2.37156827922631 
1904	-1.65172481117523 
1905	-0.995528422708638 
1906	-0.150306423839418 
1907	-0.468982778434309 
1908	 0.443822445963069 
1909	 0.544737251352908 
1910	 0.351685628901442 
1911	 0.469250814910907 
1912	-2.21784971057584 
1913	-2.9583533144168 
1914	-0.729197849204362 
1915	-0.357344234239575 
1916	-0.10537672791098 
1917	 4.23691532286274E-02 
1918	 0.195656181007139 
1919	 0.16847543606775 
1920	 0.122680360829825 
1921	 8.09213551459969E-02 
1922	-8.31646577325959E-03 
1923	-4.83580236339847E-02 
1924	-3.54079700464446E-02 
1925	 7.03413550235995E-03 
1926	-1.20152073696973E-02 
1927	-5.45216626997988E-02 
1928	-0.121389974009752 
1929	-0.145969254837194 
1930	-0.116823685266737 
1931	-7.08677939002334E-02 
1932	-4.62902058146033E-02 
1933	-3.28195452837139E-02 
1934	-5.10724054924126E-02 
1935	-8.07766594289057E-02 
1936	-7.52005957344343E-02 
1937	-5.49853979888644E-02 
1938	-0.055743356518701 
1939	-5.02679092623743E-02 
1940	-4.45399381059617E-02 
1941	-3.08446790342743E-02 
1942	-2.12873254353138E-02 
1943	-1.27532875126649E-02 
1944	-5.6630434677477E-03 
1945	-9.68931480145025E-03 
1946	-2.02053042139518E-02 
1947	-1.57719375096029E-02 
1948	-1.05423271060872E-02 
1949	-1.38908081534346E-02 
1950	-1.06948656834486E-02 
1951	-9.66890685842332E-03 
1952	-8.87941824856014E-03 
1953	-0.011274968483464 
1954	-2.86777258246808E-03 
1955	 4.41847765754352E-03 
1956	 2.07316390660469E-03 
1957	 2.78468307720178E-03 
1958	 6.36881774672134E-03 
1959	 3.01679814448694E-03 
1960	 1.51088418755122E-03 
1961	 3.14255859847646E-03 
1962	 1.34167658924978E-03 
1963	-3.55677736869533E-04 
1964	-7.9436019093355E-04 
1965	 3.71150232376906E-04 
1966	 2.64203188207942E-04 
1967	-2.09168035924965E-04 
1968	-2.07382280695367E-03 
1969	-7.67609387525393E-04 
1970	 1.2005148884184E-04 
1971	-1.73369359686976E-03 
1972	-1.92987155445035E-03 
1973	-1.82488050573627E-03 
1974	-2.40921677104935E-03 
1975	-1.79994082523479E-03 
1976	 3.05706842767294E-04 
1977	 1.56293085834048E-03 
1978	 5.5646943674344E-04 
1979	 3.58873667360674E-04 
1980	 5.87500609066326E-05 
1981	 2.70347449271484E-04 
1982	-4.56361278508036E-05 
1983	 3.02593178502942E-05 
1984	 6.5561380348461E-04 
1985	 9.26672497950455E-04 
1986	-1.3926001389137E-05 
1987	-1.83914371507652E-04 
1988	 8.43458512290004E-06 
1989	-7.56337099219822E-04 
1990	-6.47034374347202E-04 
1991	-1.98808954559372E-04 
1992	-5.44522931678886E-04 
1993	-1.09623840658792E-03 
1994	-1.51867311066315E-03 
1995	-1.88948874268655E-03 
1996	-2.00221166088201E-03 
1997	-1.99695183092678E-03 
1998	-1.70136815422371E-03 
1999	-1.11311879609586E-03 
2000	-8.69029527230034E-04 
2001	 1.24408910161467E-04 
2002	 6.79673400737574E-04 
2003	 5.12150545241211E-04 
2004	 2.0774478866485E-03 
2005	 2.52686395234557E-03 
2006	 1.3523294540662E-03 
2007	 4.5755737999422E-04 
2008	-4.46528360548451E-04 
2009	-8.69038967274605E-05 
2010	 1.05444656999051E-03 
2011	 1.52448902191112E-03 
2012	 2.46158577342257E-03 
2013	 4.59965573753969E-03 
2014	 5.02843575059894E-03 
2015	 4.33362819272671E-03 
2016	 2.99112258178166E-03 
2017	 1.20167381709204E-03 
2018	-2.17064002425867E-04 
2019	-9.26649103157208E-04 
2020	-5.40908722088068E-04 
2021	-6.59361418885563E-04 
2022	 1.10697001738996E-04 
2023	 1.58427238605523E-03 
2024	 1.80129888487925E-03 
2025	 2.31410125447551E-03 
2026	 2.36038852488559E-03 
2027	 1.77350329418481E-03 
2028	 3.42335570960309E-04 
2029	-6.2719508317658E-05 
2030	-2.34676622689899E-04 
2031	 2.72899083235313E-04 
2032	 9.93276131002735E-04 
2033	 1.20161403894473E-03 
2034	 1.34818373432055E-03 
2035	 1.08154221191379E-03 
2036	 5.39078430531319E-04 
2037	 9.59382369783541E-04 
2038	 1.08601824655372E-03 
2039	 7.19103958223886E-04 
2040	-2.96314138766342E-04 
2041	-4.39925969853233E-04 
2042	-6.1850054142868E-04 
2043	-6.00400610678653E-04 
2044	 1.34679305413979E-04 
2045	 5.73954509407589E-04 
2046	 2.65696849350082E-04 
2047	 2.25469941030815E-04 
2048	 9.43025182528335E-04 
2049	 5.46571809057729E-04 
2050	 1.37325405482846E-05 
2051	-6.13679442620555E-04 
2052	-1.75229295108365E-03 
2053	-1.85971649394218E-03 
2054	-1.77819509394008E-03 
2055	-2.34325741181536E-03 
2056	-2.16680537140903E-03 
2057	-1.43940648326806E-03 
2058	-9.89842193912355E-04 
2059	-2.64716621379932E-04 
2060	 3.56574897098022E-04 
2061	 1.0993932846692E-03 
2062	 8.33079623288299E-04 
2063	 4.6425325836933E-04 
2064	 3.9009322102943E-04 
2065	 8.32410581429632E-04 
2066	 1.96766006263687E-04 
2067	-5.83741156139577E-04 
2068	-2.49058799077078E-04 
2069	-1.38362688595672E-03 
2070	-2.16695369209832E-03 
2071	-1.14107982091033E-03 
2072	 3.16600655391508E-04 
2073	 3.49902695094203E-04 
2074	 5.69344198178077E-06 
2075	-6.23764934102072E-04 
2076	-2.57744537883098E-03 
2077	-3.11273795783504E-03 
2078	-3.06455119291746E-03 
2079	-2.65595019489966E-03 
2080	-1.21307339473657E-03 
2081	-1.19241234677465E-03 
2082	-1.22946397014974E-03 
2083	-8.27264976903018E-04 
2084	-1.55068515308817E-03 
2085	-2.62127826257336E-03 
2086	-2.52183720369576E-03 
2087	-1.50699613476639E-03 
2088	-4.68484032149606E-04 
2089	 2.71650572818946E-04 
2090	 1.62263329519227E-04 
2091	-2.44567892709165E-04 
2092	-8.04886443703729E-05 
2093	 8.78476093349101E-04 
2094	 9.01440445567098E-04 
2095	 2.71905845880279E-04 
2096	 4.02133745223031E-04 
2097	 7.85935528697684E-04 
2098	 6.07612691851847E-04 
2099	 7.28601739493127E-04 
2100	 5.5077364664843E-04 
2101	-4.25973612471441E-04 
2102	-1.59205099399284E-03 
2103	-9.12423337746128E-04 
2104	-2.38815546939853E-04 
2105	-3.9761382693807E-04 
2106	 5.84978976080226E-04 
2107	 5.06139911976392E-04 
2108	-2.18474415129905E-04 
2109	-1.14411901971446E-04 
2110	-5.66137788093283E-04 
2111	-1.20693597203675E-03 
2112	-9.19569820777372E-04 
2113	-6.28315274910807E-04 
2114	 9.50076150731206E-05 
2115	 5.06484641593387E-04 
2116	 1.29072226567557E-03 
2117	 1.2817485061344E-03 
2118	 6.8582101255307E-04 
2119	 6.50340884576184E-04 
2120	 4.53131609525622E-04 
2121	 1.6035370175841E-04 
2122	 1.96425609412603E-04 
2123	-1.3031133081581E-04 
2124	-2.95052361690949E-04 
2125	-3.41141677847751E-04 
2126	-4.67691134602885E-04 
2127	-2.19977308856338E-04 
2128	 1.43084201936255E-04 
2129	 4.41278008367058E-04 
2130	 8.38343859003804E-04 
2131	 1.05839354452846E-03 
2132	 1.20616777967985E-03 
2133	 7.92875190089396E-04 
2134	 6.28910159018165E-04 
2135	 9.99142214040601E-04 
2136	 9.50855149297334E-04 
2137	 3.32572253505577E-04 
2138	 1.39360173539283E-04 
2139	-4.94399906976143E-05 
2140	-1.78077375534906E-04 
2141	 2.04211504390318E-04 
2142	 1.24098002403492E-04 
2143	-2.25428895473925E-04 
2144	-5.06002380685251E-04 
2145	-7.5684840367194E-04 
2146	-1.20874899344182E-03 
2147	-1.28803662093276E-03 
2148	-1.0086765572989E-03 
2149	-3.7281403703788E-04 
2150	 6.20340832094065E-05 
2151	 5.20765284759306E-04 
2152	 1.01458522341386E-03 
2153	 1.02967185824269E-03 
2154	 7.46539803607679E-04 
2155	 3.3615193395447E-04 
2156	-2.59199634010242E-04 
2157	-9.62123673400039E-05 
2158	 6.85024081270926E-04 
2159	 7.32173999505134E-04 
2160	 1.14993436203479E-03 
2161	 1.25655262751486E-03 
2162	 4.59192737756386E-04 
2163	-1.41719777484839E-04 
2164	-8.02778772385559E-04 
2165	-8.50935708525726E-04 
2166	-6.61658122079257E-04 
2167	-3.20337272892184E-04 
2168	 1.10321011713815E-03 
2169	 1.16693564076968E-03 
2170	 4.37948511162757E-04 
2171	-5.68928386825621E-04 
2172	-1.72177424658878E-03 
2173	-9.43935812327119E-04 
2174	 4.92388762883915E-04 
2175	-5.02213465926379E-05 
2176	-7.71304225608493E-04 
2177	-1.37642083187087E-03 
2178	-1.43783622209096E-03 
2179	-5.231248375868E-04 
2180	-1.03244658093543E-03 
2181	-1.86548732561863E-03 
2182	-2.03059267815634E-03 
2183	-2.62564883479122E-03 
2184	-2.97314489808728E-03 
2185	-2.30983656564516E-03 
2186	-2.08114438023637E-03 
2187	-2.80922108132004E-03 
2188	-2.7017700696648E-03 
2189	-1.76164569908329E-03 
2190	-1.77814597618313E-03 
2191	-2.67883480047344E-03 
2192	-2.63481030590953E-03 
2193	-1.3757985889287E-03 
2194	-1.4744806943535E-03 
2195	-2.71846387279684E-03 
2196	-2.59495396549312E-03 
2197	-2.29150340834885E-03 
2198	-2.48305390802993E-03 
2199	-2.14369198693255E-03 
2200	-1.1337263136735E-03 
2201	-1.01787059046963E-04 
2202	-6.24127143316444E-04 
2203	-1.40382923864254E-03 
2204	-1.03452973231093E-03 
2205	-1.83569869720274E-03 
2206	-2.2024651991525E-03 
2207	 3.74027412441246E-04 
2208	 1.07692744497736E-03 
2209	 1.79646439194085E-04 
2210	 2.96711694793792E-07 
2211	 1.77596404874775E-04 
2212	 3.95027491783025E-04 
2213	-3.04475061836761E-04 
2214	-1.17051147979532E-03 
2215	-2.09716286847113E-03 
2216	-1.66320876451744E-03 
2217	-1.33836288507845E-03 
2218	 9.68245917684391E-04 
2219	 1.07802277960819E-03 
2220	-7.52767719040363E-04 
2221	-1.15997901181949E-03 
2222	-1.09158393533316E-03 
2223	-1.31043290225636E-03 
2224	-9.9564375001267E-04 
2225	-1.17073413982557E-03 
2226	-2.1929416574766E-03 
2227	-2.90773805453807E-03 
2228	-3.89553921897364E-03 
2229	-3.79494199633436E-03 
2230	-3.02060361960126E-03 
2231	-2.33556599430297E-03 
2232	-4.36826204651366E-04 
2233	 2.83704299118995E-04 
2234	 3.00143540378811E-04 
2235	 2.29794274869705E-04 
2236	-2.16091781072976E-04 
2237	-7.22067771916863E-04 
2238	-1.0831980902011E-03 
2239	-9.45113540583327E-04 
2240	-8.45893766347185E-04 
2241	-2.44309653719078E-03 
2242	-4.94714794332022E-03 
2243	-4.8119768293315E-03 
2244	-3.08670294600397E-03 
2245	-1.65217148703808E-03 
2246	 7.24455925209957E-04 
2247	 1.02008445592539E-04 
2248	-2.94130267102513E-03 
2249	-3.51007474719341E-03 
2250	-3.83716761797293E-03 
2251	-4.4876481487247E-03 
2252	-2.91023016422615E-03 
2253	-1.1969766234559E-03 
2254	-1.4653310427635E-03 
2255	-1.45987782658665E-03 
2256	-2.73542428529163E-03 
2257	-4.71661580346385E-03 
2258	-1.71571521864675E-03 
2259	-1.2619185432201E-05 
2260	-4.68747782494984E-04 
2261	-1.14015521377284E-03 
2262	-1.10686752348344E-03 
2263	-4.43527264796477E-03 
2264	-4.53210242740864E-03 
2265	-1.98697638251082E-03 
2266	-1.54259915593014E-03 
2267	-6.73580780212393E-04 
2268	-2.2792674159644E-04 
2269	-2.21403766938452E-04 
2270	 3.34061692865815E-04 
2271	 6.15087231242084E-04 
2272	 3.34987897352288E-05 
2273	 3.30937545214165E-04 
2274	-9.12395047103372E-04 
2275	-5.69967581922766E-03 
2276	-7.3230981294765E-03 
2277	-8.0689593932038E-03 
2278	-8.02486176297644E-03 
2279	-4.29258169869237E-03 
2280	-3.22395384781032E-03 
2281	-2.84822586402586E-03 
2282	-4.82438129682657E-03 
2283	-3.7279936077973E-03 
2284	-2.39331664039148E-03 
2285	-3.69131010041448E-03 
2286	-2.01196067165723E-03 
2287	-1.92388132248761E-03 
2288	-3.30462485797396E-03 
2289	-1.82756234193522E-03 
2290	-1.5543019505406E-03 
2291	-4.72798344839977E-03 
2292	-5.17506223385823E-03 
2293	-1.99497638951569E-03 
2294	-1.70953652141065E-03 
2295	-3.1927736787799E-03 
2296	-4.91983412014175E-03 
2297	-6.25989162989624E-03 
2298	-4.18967080808561E-03 
2299	 1.57880715805298E-03 
2300	 4.28950690995186E-03 
2301	 2.76263486811261E-03 
2302	 5.44833371567712E-04 
2303	-2.00581739912555E-03 
2304	-1.6725006031804E-03 
2305	-3.32720631114151E-03 
2306	-5.72027776546969E-03 
2307	-4.81363921267252E-03 
2308	-5.15848544765323E-03 
2309	-5.80876989264468E-03 
2310	-5.29650429826208E-03 
2311	-3.64582110645573E-03 
2312	-3.23389545892561E-03 
2313	-2.60631619233264E-03 
2314	-1.47119310752316E-03 
2315	-3.45563109759315E-03 
2316	-3.42827779643717E-03 
2317	-2.02343823767698E-03 
2318	-2.18194341342824E-03 
2319	-8.65507295735201E-04 
2320	-2.62153097332169E-03 
2321	-5.79027100735889E-03 
2322	-7.39398253941708E-03 
2323	-1.15343306699411E-02 
2324	-1.29238393902771E-02 
2325	-1.16522458893432E-02 
2326	-1.11867842299152E-02 
2327	-1.09880734804343E-02 
2328	-8.46297558425004E-03 
2329	-1.13194313200724E-03 
2330	 4.41124048073208E-04 
2331	-2.15715836625833E-03 
2332	-1.89764437216942E-03 
2333	-4.67655672635304E-03 
2334	-0.00484967403349 
2335	 3.14099081752848E-04 
2336	-5.33282596760898E-04 
2337	-5.61032125440649E-03 
2338	-8.42652079636968E-03 
2339	-7.29308585004375E-03 
2340	 1.3731937905679E-03 
2341	 5.52623713274534E-03 
2342	 4.68810135623591E-03 
2343	 3.78112958747036E-03 
2344	-6.12720615893289E-03 
2345	-0.01201701713607 
2346	-1.47206351324504E-02 
2347	-2.33682140268858E-02 
2348	-2.79681351302285E-02 
2349	-3.05804251849275E-02 
2350	-2.67417501278781E-02 
2351	-1.56816683099359E-02 
2352	-6.68294893734473E-03 
2353	-4.45212524884767E-03 
2354	-9.66079482257437E-03 
2355	-8.37242321471722E-03 
2356	-5.48118136379851E-03 
2357	-5.80327510993067E-03 
2358	-4.35810519885201E-03 
2359	-9.39006530122072E-03 
2360	-1.99222744976566E-02 
2361	-2.29574523191023E-02 
2362	-1.86332656452443E-02 
2363	-2.01314956728375E-02 
2364	-1.87520364632508E-02 
2365	-1.50940533669855E-02 
2366	-0.022909252048748 
2367	-2.71625308594049E-02 
2368	-2.48552415362029E-02 
2369	-2.53214636438676E-02 
2370	-1.77130742309871E-02 
2371	-7.37763049317672E-03 
2372	-5.35959703325104E-03 
2373	-8.89364849053176E-03 
2374	-1.57590844838998E-02 
2375	-1.35903090245343E-02 
2376	-6.89161260306439E-03 
2377	-6.7650605947395E-04 
2378	 4.91286588018351E-03 
2379	 9.75396056249216E-04 
2380	-0.003172775456122 
2381	-1.17101903781247E-02 
2382	-1.89826320391847E-02 
2383	-2.63882112600449E-02 
2384	-4.75220812379131E-02 
2385	-5.28834885830018E-02 
2386	-4.95742947112152E-02 
2387	-4.57855856245517E-02 
2388	-0.034012327658406 
2389	-2.98465302644446E-02 
2390	-3.32315390899956E-02 
2391	-4.13007514984383E-02 
2392	-3.91090051998742E-02 
2393	-2.48366812694545E-02 
2394	-2.32812266314151E-02 
2395	-0.029822565694201 
2396	-0.028683821447441 
2397	-0.036636197792095 
2398	-4.40924919663373E-02 
2399	-3.54219569088238E-02 
2400	-2.99062195691006E-02 
2401	-3.24334503093393E-02 
2402	-3.72062762780786E-02 
2403	-4.46696241207065E-02 
2404	-5.45907920453663E-02 
2405	-6.76366656759343E-02 
2406	-0.072293870869303 
2407	-6.07652487969079E-02 
2408	-4.31123596498601E-02 
2409	-3.13057652385202E-02 
2410	-4.95459167785763E-02 
2411	-6.51203646451856E-02 
2412	-7.85256284764589E-02 
2413	-0.106040933975213 
2414	-7.95807089429969E-02 
2415	-2.72325416797383E-02 
2416	-0.016314740725056 
2417	-2.63579561268311E-02 
2418	-3.42979960600931E-02 
2419	-6.96608029182063E-02 
2420	-9.94620694673851E-02 
2421	-0.111663417302843 
2422	-0.108455454014188 
2423	-9.12873464395234E-02 
2424	-9.55283973532549E-02 
2425	-7.96298024852848E-02 
2426	-5.06930820894976E-02 
2427	-3.76738305776705E-02 
2428	-1.92297208762388E-02 
2429	-1.71447481453387E-02 
2430	-1.76138135861001E-02 
2431	-3.35694640627966E-02 
2432	-9.07852924095117E-02 
2433	-0.118374765303219 
2434	-0.133400005596171 
2435	-0.17157392263571 
2436	-0.177945966276695 
2437	-0.158407562026106 
2438	-0.153993794213726 
2439	-0.150670506844004 
2440	-0.105563189485431 
2441	-0.10166640888828 
2442	-0.139893962346989 
2443	-0.150036256532149 
2444	-0.154036795864771 
2445	-0.118683369707891 
2446	-0.10831518782384 
2447	-0.112387134769269 
2448	-0.131302328182231 
2449	-0.177179904411839 
2450	-0.155397683796306 
2451	-0.11026389465396 
2452	-0.174938019504848 
2453	-0.17097513475723 
2454	-0.179943030972809 
2455	-0.196999472817696 
2456	-0.135167834500362 
2457	-5.82579378351714E-02 
2458	 8.42449699604674E-03 
2459	 1.70941784944328E-03 
2460	-7.61791167948486E-02 
2461	-0.188476687978308 
2462	-0.320409229529819 
2463	-0.308072798684621 
2464	-0.201370403256526 
2465	-0.115192663618631 
2466	-0.103861143189446 
2467	-0.254530984446245 
2468	-0.624888449754901 
2469	-0.693803791985243 
2470	-0.544610690478694 
2471	-0.448996270487541 
2472	-0.369218673173841 
2473	-0.444483099811447 
2474	-0.64064543494063 
2475	-0.919598699051839 
2476	-1.51072308973925 
2477	-1.46545727186501 
2478	-0.716033273492166 
2479	-0.427335180203748 
2480	-0.408170606847475 
2481	-0.508655524798983 
2482	-1.66618985935119 
2483	-6.87974297584522 
2484	-20.5536414991838 
2485	-8.36696423575843 
2486	-2.51831090524035 
2487	-2.06444286293679 
2488	-1.17471458249101 
2489	-0.821323559265622 
2490	 3.02642406505761 
2491	 20.7747233733933 
2492	 2.62470731629204 
2493	-5.16536294839568 
2494	-1.77076157329581 
2495	-3.31202935141815 
2496	 34.1764161633799 
2497	 0.989289154306093 
2498	-1.85664215542959 
2499	-2.53195041190385 
2500	-3.51317137349855 
