Wavelength	rt0624close00002.asd
350	 1.56732498936664E-02 
351	 1.53681873543271E-02 
352	 1.61189268242071E-02 
353	 1.67728974831508E-02 
354	 1.65404023038064E-02 
355	 1.59894493720465E-02 
356	 1.63173627470429E-02 
357	 0.016829407135325 
358	 1.66945716134554E-02 
359	 1.73491673591188E-02 
360	 1.77113416614104E-02 
361	 1.75676021652075E-02 
362	 1.73777789237925E-02 
363	 0.01747535890003 
364	 1.76047644483598E-02 
365	 1.77199921623682E-02 
366	 0.018219317941132 
367	 1.85178013912207E-02 
368	 1.86253325897096E-02 
369	 1.86830961696711E-02 
370	 1.86528146483301E-02 
371	 1.87359916437356E-02 
372	 1.90890861239753E-02 
373	 1.97060430415247E-02 
374	 1.95931443732664E-02 
375	 1.96393425344189E-02 
376	 2.00888066050348E-02 
377	 2.00589433193514E-02 
378	 2.01567950632014E-02 
379	 2.02304024010278E-02 
380	 2.01986133375044E-02 
381	 2.07702263319633E-02 
382	 2.10845947920206E-02 
383	 2.11871412562197E-02 
384	 0.021550263955835 
385	 2.22181243068125E-02 
386	 2.26359333670926E-02 
387	 2.26860968923553E-02 
388	 2.27816592063083E-02 
389	 2.29336594898068E-02 
390	 2.31784297511049E-02 
391	 2.34796807130996E-02 
392	 2.36350176338726E-02 
393	 2.38722563128711E-02 
394	 2.42487016191086E-02 
395	 2.47324252190166E-02 
396	 2.52896391575327E-02 
397	 2.54795064680891E-02 
398	 0.025476882552764 
399	 2.59201337018439E-02 
400	 2.58164018875108E-02 
401	 2.59628022457762E-02 
402	 2.67012628011482E-02 
403	 2.67802636991895E-02 
404	 2.69218933227335E-02 
405	 0.027187711923499 
406	 0.027385342931524 
407	 2.72537275601836E-02 
408	 2.75335448597099E-02 
409	 2.81395380659477E-02 
410	 0.028187744926095 
411	 2.83287631153188E-02 
412	 2.86961898577353E-02 
413	 2.91885339526112E-02 
414	 2.93990490469222E-02 
415	 2.94662272312249E-02 
416	 2.95864016733044E-02 
417	 0.029917851474602 
418	 3.02000018159041E-02 
419	 3.04826054272615E-02 
420	 3.08303727781448E-02 
421	 3.12911041583726E-02 
422	 3.15188715073251E-02 
423	 3.17727659748748E-02 
424	 3.22432219020626E-02 
425	 3.25648228960578E-02 
426	 3.29585861441483E-02 
427	 0.033365411846811 
428	 3.36392753994666E-02 
429	 3.40348143115832E-02 
430	 3.44053943798115E-02 
431	 3.47498507238607E-02 
432	 3.52759789641978E-02 
433	 3.56045245719912E-02 
434	 3.58958277437766E-02 
435	 3.63339299070357E-02 
436	 3.68180168425585E-02 
437	 3.72381360580002E-02 
438	 3.76224524062071E-02 
439	 3.80664974905304E-02 
440	 3.85270505172154E-02 
441	 3.89379705329973E-02 
442	 3.93023074756965E-02 
443	 3.97278344167677E-02 
444	 4.01045610004517E-02 
445	 4.04458245826234E-02 
446	 4.07969551969781E-02 
447	 4.12004460425669E-02 
448	 4.15341284026634E-02 
449	 4.18188726013686E-02 
450	 4.21670208508952E-02 
451	 4.23743076818881E-02 
452	 4.25901801766526E-02 
453	 4.28994363595589E-02 
454	 4.31560997271851E-02 
455	 4.33536613741519E-02 
456	 4.35734602292705E-02 
457	 4.38731732311264E-02 
458	 4.39791358447252E-02 
459	 0.044150541839753 
460	 4.44064579999039E-02 
461	 4.45105587560915E-02 
462	 4.46759699356147E-02 
463	 4.48741539190896E-02 
464	 4.50548908903022E-02 
465	 4.52381521516001E-02 
466	 4.54839424431899E-02 
467	 4.56408222132664E-02 
468	 4.55622996255237E-02 
469	 4.59458559287634E-02 
470	 4.62581515455881E-02 
471	 4.63076753197579E-02 
472	 4.65049169636965E-02 
473	 0.046680675098961 
474	 4.68457960298749E-02 
475	 4.70618609667813E-02 
476	 4.74393545353737E-02 
477	 4.76976814365973E-02 
478	 4.78645896751465E-02 
479	 4.81709782019154E-02 
480	 4.85359658350456E-02 
481	 4.88344263545156E-02 
482	 4.90192774059726E-02 
483	 0.049188794886036 
484	 4.95876376091135E-02 
485	 5.01067546802079E-02 
486	 5.05265422475375E-02 
487	 0.050897503136259 
488	 5.12570085458369E-02 
489	 0.051593943713646 
490	 5.18594851521478E-02 
491	 5.22499969745647E-02 
492	 5.27392445697252E-02 
493	 5.32521058070051E-02 
494	 5.37276232171054E-02 
495	 0.054160513909684 
496	 5.46025813837988E-02 
497	 5.51194411579075E-02 
498	 5.55978214473742E-02 
499	 5.60921571153563E-02 
500	 5.66182111980626E-02 
501	 5.71032168411665E-02 
502	 5.77242309779755E-02 
503	 5.83726444360315E-02 
504	 5.89110395940702E-02 
505	 5.94206373470564E-02 
506	 5.99888743756893E-02 
507	 0.060633530699333 
508	 6.13047982162265E-02 
509	 6.18452844237353E-02 
510	 6.23720372328159E-02 
511	 6.29662528928972E-02 
512	 6.35138883605775E-02 
513	 6.41105274228561E-02 
514	 6.47856240325297E-02 
515	 6.55122092535565E-02 
516	 6.61216659139783E-02 
517	 6.68243955276406E-02 
518	 6.76445238866351E-02 
519	 6.83440566747725E-02 
520	 6.90381392411882E-02 
521	 6.97057700848394E-02 
522	 7.03321380328281E-02 
523	 7.09937445937659E-02 
524	 7.17428670911365E-02 
525	 7.25537967195617E-02 
526	 0.073347254061961 
527	 7.40993509777588E-02 
528	 7.47825483152289E-02 
529	 7.54373456534031E-02 
530	 7.62429828505292E-02 
531	 7.70183168637875E-02 
532	 7.78002030050833E-02 
533	 0.07866227517723 
534	 7.94086994641343E-02 
535	 8.01886057758134E-02 
536	 8.10564759758279E-02 
537	 8.19304240255151E-02 
538	 8.27634912512174E-02 
539	 8.35649957104989E-02 
540	 8.43654163623172E-02 
541	 8.51996243519702E-02 
542	 8.60442013557909E-02 
543	 8.69093540435648E-02 
544	 8.78141718731106E-02 
545	 8.85878814875997E-02 
546	 8.93707286242341E-02 
547	 9.02561952529678E-02 
548	 9.11852194337601E-02 
549	 9.20174611356318E-02 
550	 9.28208691702276E-02 
551	 0.093701979380229 
552	 9.44677697324349E-02 
553	 9.53148494979826E-02 
554	 9.62511310099393E-02 
555	 9.70480274296348E-02 
556	 9.78226090695959E-02 
557	 9.86066823378715E-02 
558	 9.94103342088262E-02 
559	 0.10027562625301 
560	 0.101038836351102 
561	 0.101690509966797 
562	 0.102338604136292 
563	 0.103139077981477 
564	 0.103911600009417 
565	 0.104547643862608 
566	 0.105158491662928 
567	 0.105846641047087 
568	 0.106492042159427 
569	 0.106960127107738 
570	 0.107571713942027 
571	 0.108162001703951 
572	 0.108662254152883 
573	 0.109140755775335 
574	 0.109667118501586 
575	 0.110173846351713 
576	 0.110591732914864 
577	 0.110964061661455 
578	 0.111363338054598 
579	 0.111802558781563 
580	 0.112239335068212 
581	 0.112529034025618 
582	 0.112755661304613 
583	 0.112991149600708 
584	 0.113227707737845 
585	 0.113476899489978 
586	 0.113665522083931 
587	 0.11374277812909 
588	 0.113943005874743 
589	 0.114169709946574 
590	 0.114309438734397 
591	 0.114282268723984 
592	 0.114353462346837 
593	 0.114399198107092 
594	 0.114281321125238 
595	 0.114076368128001 
596	 0.113864072893922 
597	 0.113651392412927 
598	 0.113408326519887 
599	 0.113220432746867 
600	 0.113025422398085 
601	 0.112812955118214 
602	 0.112690101608316 
603	 0.112676387305412 
604	 0.112712109523538 
605	 0.112739564417375 
606	 0.112876400972757 
607	 0.112999714695941 
608	 0.113096738516465 
609	 0.11327164587166 
610	 0.113340502872116 
611	 0.113375960820837 
612	 0.113468171779249 
613	 0.11359149426974 
614	 0.113728035960981 
615	 0.113820046771247 
616	 0.11382001213018 
617	 0.113973796028993 
618	 0.114110999531954 
619	 0.114126031612621 
620	 0.114079592288515 
621	 0.114078839431478 
622	 0.114163727736633 
623	 0.114314834981828 
624	 0.114393305262267 
625	 0.114422861568612 
626	 0.114433311990228 
627	 0.114452188134899 
628	 0.114472064775022 
629	 0.114519015618692 
630	 0.11461058205671 
631	 0.114738851264759 
632	 0.114822894143396 
633	 0.114847406240652 
634	 0.11483883883523 
635	 0.114843962971204 
636	 0.114869432248937 
637	 0.114881056914413 
638	 0.114792413928169 
639	 0.114732689794444 
640	 0.114722358193576 
641	 0.114735558520238 
642	 0.114704900619572 
643	 0.114713568546559 
644	 0.114723020981674 
645	 0.114606179595363 
646	 0.114499468350741 
647	 0.114399284478179 
648	 0.114315370571001 
649	 0.114368901535861 
650	 0.114285704213774 
651	 0.114089851145359 
652	 0.113914238649743 
653	 0.113721796517069 
654	 0.113448427707729 
655	 0.11318371925252 
656	 0.113244227336872 
657	 0.112993726936907 
658	 0.112698523293277 
659	 0.112627724613637 
660	 0.112501650624992 
661	 0.112292111073095 
662	 0.112039821196193 
663	 0.111850746371429 
664	 0.111924088436145 
665	 0.11196654443571 
666	 0.111841217262263 
667	 0.111796885881647 
668	 0.111819030305904 
669	 0.111837922553517 
670	 0.111782800341133 
671	 0.111697809149929 
672	 0.11175943533613 
673	 0.111890265685943 
674	 0.111797602287842 
675	 0.11184661566371 
676	 0.111952956096288 
677	 0.112032434715995 
678	 0.112234131576432 
679	 0.112387576174234 
680	 0.112505932663244 
681	 0.112700370005115 
682	 0.113106146003943 
683	 0.113569197251963 
684	 0.113932985575717 
685	 0.114089765187268 
686	 0.114413696665384 
687	 0.114864474430948 
688	 0.11523237930486 
689	 0.115403403146423 
690	 0.115615273911298 
691	 0.115806751901792 
692	 0.115781479194402 
693	 0.115866919506609 
694	 0.115851805655438 
695	 0.115625410850679 
696	 0.115327918756982 
697	 0.11521142775449 
698	 0.115020598161025 
699	 0.114492168686928 
700	 0.114142959915264 
701	 0.113763114900625 
702	 0.113314282284483 
703	 0.112898312368878 
704	 0.112308499379133 
705	 0.111667435114082 
706	 0.111022730904549 
707	 0.110093981010913 
708	 0.10929133790967 
709	 0.108505084241896 
710	 0.107483985162738 
711	 0.106440378921651 
712	 0.10522387701081 
713	 0.103898229650469 
714	 0.102726893358842 
715	 0.101411959576287 
716	 9.99451888083189E-02 
717	 9.83966678788969E-02 
718	 9.66869405551033E-02 
719	 9.50569745923875E-02 
720	 9.36005990460555E-02 
721	 9.21075698892508E-02 
722	 0.090495981886355 
723	 8.86828002419242E-02 
724	 8.68179504781277E-02 
725	 8.50039960435522E-02 
726	 8.30461173247766E-02 
727	 8.08394675312151E-02 
728	 7.83890359053232E-02 
729	 7.58177768204623E-02 
730	 7.31269334034106E-02 
731	 7.05031909492769E-02 
732	 6.81399925798919E-02 
733	 6.60334941636659E-02 
734	 6.42376628728805E-02 
735	 6.27451284874303E-02 
736	 6.14425983582129E-02 
737	 6.05437166008669E-02 
738	 5.98769856579602E-02 
739	 5.92877430561296E-02 
740	 5.89714397270046E-02 
741	 5.86066558456374E-02 
742	 5.82747597783555E-02 
743	 5.82310858814197E-02 
744	 5.82664884008091E-02 
745	 0.058190375012252 
746	 5.80087220191073E-02 
747	 5.79822880614094E-02 
748	 5.79502624800705E-02 
749	 0.057943135329843 
750	 5.79757391557622E-02 
751	 5.78461058836157E-02 
752	 5.78355945323254E-02 
753	 5.79326513330296E-02 
754	 5.79694916688862E-02 
755	 5.79913267254617E-02 
756	 5.79745658420666E-02 
757	 5.78838765368424E-02 
758	 5.76100156137991E-02 
759	 5.73983326466364E-02 
760	 5.73126730225043E-02 
761	 5.73412268889295E-02 
762	 5.77450018274912E-02 
763	 5.79548567678283E-02 
764	 5.80660773796033E-02 
765	 0.058346562889833 
766	 5.87199205319359E-02 
767	 5.89137749407348E-02 
768	 5.89663687946238E-02 
769	 5.91886863198288E-02 
770	 5.95179961868324E-02 
771	 5.98352825141369E-02 
772	 6.00584953384382E-02 
773	 6.02327921773533E-02 
774	 6.05128553988669E-02 
775	 6.08559727750502E-02 
776	 6.11510380928077E-02 
777	 0.061459525134721 
778	 6.18465994094822E-02 
779	 6.23060037200092E-02 
780	 6.27580826214884E-02 
781	 6.30877042235116E-02 
782	 6.35212748316414E-02 
783	 6.41346968464585E-02 
784	 6.45299063523768E-02 
785	 6.49208129509748E-02 
786	 6.53913701441009E-02 
787	 6.59570824361636E-02 
788	 6.65205775811875E-02 
789	 6.71172603163019E-02 
790	 6.77002745463886E-02 
791	 6.81688150719833E-02 
792	 0.068571090046248 
793	 6.90529534854455E-02 
794	 6.96488925717749E-02 
795	 0.070198389698852 
796	 7.06632394459115E-02 
797	 0.071139660891574 
798	 7.16978491865442E-02 
799	 7.21562563640438E-02 
800	 7.25095783612627E-02 
801	 7.28398844286756E-02 
802	 7.32433182924366E-02 
803	 7.35104839770756E-02 
804	 7.36481390680164E-02 
805	 7.37580546078988E-02 
806	 7.40037403521508E-02 
807	 7.40603571759921E-02 
808	 7.39450295158672E-02 
809	 7.37781553996092E-02 
810	 7.37573972981371E-02 
811	 7.35885281704419E-02 
812	 7.33577994553435E-02 
813	 7.32126561909272E-02 
814	 0.072763445675324 
815	 7.21966778528425E-02 
816	 7.16831547990335E-02 
817	 7.12643094371717E-02 
818	 7.03680753085685E-02 
819	 6.94585807353896E-02 
820	 6.86410106933423E-02 
821	 6.74533141829152E-02 
822	 6.62230781417704E-02 
823	 0.064668813549327 
824	 6.27170434905663E-02 
825	 0.060983400164567 
826	 5.90899576413111E-02 
827	 0.056850099296468 
828	 5.43779516612703E-02 
829	 5.23975589957303E-02 
830	 5.05603798833378E-02 
831	 4.87690231687725E-02 
832	 4.71883336825549E-02 
833	 4.57563939527114E-02 
834	 0.044546094301978 
835	 0.043665112693219 
836	 4.32477099236753E-02 
837	 4.24852733738816E-02 
838	 4.18512592378251E-02 
839	 4.16243636342767E-02 
840	 4.07392361725241E-02 
841	 0.0402123043683 
842	 3.99963384060076E-02 
843	 3.96472308316679E-02 
844	 3.89050052971819E-02 
845	 3.84606141289866E-02 
846	 3.82859825677192E-02 
847	 3.78475064515062E-02 
848	 3.72059393664666E-02 
849	 3.67566828064597E-02 
850	 3.65440786203301E-02 
851	 3.61290333660336E-02 
852	 3.57729921235444E-02 
853	 3.53589461598887E-02 
854	 3.48873229201911E-02 
855	 3.47498380112549E-02 
856	 3.42742560719308E-02 
857	 3.37857406455813E-02 
858	 3.36416767688408E-02 
859	 3.32675005884168E-02 
860	 3.28970427721153E-02 
861	 3.27543979609422E-02 
862	 3.28531668528329E-02 
863	 3.20575552036468E-02 
864	 3.15184898618776E-02 
865	 3.13684023859524E-02 
866	 3.07475820621971E-02 
867	 3.03107556489204E-02 
868	 3.00948162620317E-02 
869	 2.98752278064424E-02 
870	 2.92471034495269E-02 
871	 2.90468106438077E-02 
872	 2.87142397839527E-02 
873	 0.027887686495267 
874	 2.73147077826737E-02 
875	 2.69366396236713E-02 
876	 2.65811810970909E-02 
877	 2.61212216245731E-02 
878	 2.58041015630067E-02 
879	 2.54169101271696E-02 
880	 2.50552785456644E-02 
881	 2.48120174735883E-02 
882	 0.023912633913398 
883	 2.31912880307169E-02 
884	 2.28546476902569E-02 
885	 2.25479840715355E-02 
886	 0.022122939680833 
887	 2.16442171219291E-02 
888	 0.021212502927217 
889	 2.09229689712764E-02 
890	 2.08169830118228E-02 
891	 2.05732740460914E-02 
892	 2.00236757038378E-02 
893	 1.93877786214319E-02 
894	 1.88675145949503E-02 
895	 0.018594148712455 
896	 1.85628157956468E-02 
897	 1.85354965772747E-02 
898	 1.81064351862692E-02 
899	 1.73614315710877E-02 
900	 1.66834107559014E-02 
901	 1.66246143896863E-02 
902	 1.66478468314642E-02 
903	 0.0163890403744 
904	 1.57370103984227E-02 
905	 1.52727396655246E-02 
906	 1.49060746176364E-02 
907	 1.45914887543123E-02 
908	 1.42889907824635E-02 
909	 1.37604242074446E-02 
910	 1.31577739756285E-02 
911	 1.24444124246118E-02 
912	 1.14876170712311E-02 
913	 1.11189531098794E-02 
914	 1.09903942358438E-02 
915	 1.05972205641811E-02 
916	 9.6118649398813E-03 
917	 9.71296200249813E-03 
918	 9.14571224048053E-03 
919	 7.71524716017899E-03 
920	 7.95367578524502E-03 
921	 7.76302226314134E-03 
922	 7.01833105580622E-03 
923	 6.0214549840081E-03 
924	 5.08436266019402E-03 
925	 4.93460868096176E-03 
926	 4.52983662922403E-03 
927	 3.11863667269918E-03 
928	 2.82467335550869E-03 
929	 1.14793337447404E-03 
930	-3.34987606015795E-04 
931	 7.61957411210342E-04 
932	-4.27729490927651E-04 
933	-4.37169132925674E-04 
934	-8.69188620389976E-04 
935	-3.64530018603546E-03 
936	-2.82457093790283E-03 
937	-2.98777988815919E-03 
938	-3.43306833053764E-03 
939	-2.50746801684505E-03 
940	-2.85466529164471E-03 
941	-2.41752918175018E-03 
942	-1.84373690820024E-03 
943	-2.64157568461672E-03 
944	-2.42511092209752E-03 
945	-2.25188293222383E-03 
946	-3.4997473805062E-03 
947	-6.44731375489482E-03 
948	-5.89957924046584E-03 
949	-5.02301460977083E-03 
950	-4.39630317050842E-03 
951	-2.9658665463721E-03 
952	-2.75130277747809E-03 
953	-4.39893487767708E-03 
954	-6.00820589265501E-03 
955	-4.93501775009292E-03 
956	-5.67820769427065E-03 
957	-5.66037543637929E-03 
958	-3.69056260532303E-03 
959	-8.07850668689017E-04 
960	-1.71143734577733E-03 
961	-2.27940269787945E-03 
962	-1.88637786523396E-03 
963	-2.79421702841274E-03 
964	-2.03279194278466E-03 
965	-1.80535208404458E-03 
966	-1.89928971853578E-03 
967	-3.47369962902429E-04 
968	-4.99089166174901E-06 
969	-5.04202206541678E-04 
970	-1.68647507095873E-03 
971	-3.56489421061747E-03 
972	-3.30046495892069E-03 
973	-2.63648189213362E-03 
974	-2.62844619306765E-03 
975	-2.98827180180027E-03 
976	-3.39825998654287E-03 
977	-2.89549891308225E-03 
978	-1.92373771701015E-03 
979	-2.17026007187502E-03 
980	-4.93269082426514E-03 
981	-4.3338249311879E-03 
982	-0.001951006311294 
983	-4.44096378000493E-03 
984	-2.12575375849481E-03 
985	-1.84300222370358E-03 
986	-3.69191520160999E-03 
987	-0.002099478951748 
988	-2.95502852589832E-03 
989	-2.79012372879964E-03 
990	-2.04077381379006E-03 
991	-3.73979015459701E-03 
992	-2.70273289144312E-03 
993	-1.56051702490309E-03 
994	-1.42237005290342E-03 
995	-1.71851374377052E-03 
996	-1.98645500947709E-03 
997	-3.16727431541443E-03 
998	-4.59501241144315E-03 
999	-4.77619035548287E-03 
1000	-3.96301292776311E-03 
1001	 1.82513176644461E-03 
1002	 1.66306840713715E-03 
1003	 1.68247657265585E-03 
1004	 2.18857762900351E-03 
1005	 2.21921797616076E-03 
1006	 1.95916477831557E-03 
1007	 1.7541579065003E-03 
1008	 1.49660021780757E-03 
1009	 1.28867730863617E-03 
1010	 1.12521577054683E-03 
1011	 1.31031735310486E-03 
1012	 1.80201716884548E-03 
1013	 1.98879428962804E-03 
1014	 2.06023941514242E-03 
1015	 2.10679919490983E-03 
1016	 2.20565399176378E-03 
1017	 2.06031300852236E-03 
1018	 2.03469768935469E-03 
1019	 2.31056686414526E-03 
1020	 2.29199805129466E-03 
1021	 1.88037118508728E-03 
1022	 1.88685051198658E-03 
1023	 1.77141881718141E-03 
1024	 1.65588549284543E-03 
1025	 1.69676915716818E-03 
1026	 1.72006404291477E-03 
1027	 1.6487220778182E-03 
1028	 1.47849612479682E-03 
1029	 1.52293915995288E-03 
1030	 1.54643528129085E-03 
1031	 1.61241299234703E-03 
1032	 1.92742286553375E-03 
1033	 2.11413903632933E-03 
1034	 2.35319957693768E-03 
1035	 2.35372345148119E-03 
1036	 2.11034761835348E-03 
1037	 2.04163512125149E-03 
1038	 1.83701249244772E-03 
1039	 1.67852878976962E-03 
1040	 2.01906645154537E-03 
1041	 2.33601932921188E-03 
1042	 2.30178392499101E-03 
1043	 2.07949856294636E-03 
1044	 2.1157663417327E-03 
1045	 1.97645667628186E-03 
1046	 1.99472135109699E-03 
1047	 2.39389517125818E-03 
1048	 2.43270317462672E-03 
1049	 2.05451881103894E-03 
1050	 0.00211093225795 
1051	 2.45228050029036E-03 
1052	 2.56630689606828E-03 
1053	 2.69152056772578E-03 
1054	 2.92061323211314E-03 
1055	 3.14146398616185E-03 
1056	 3.21075703834775E-03 
1057	 3.26584581665183E-03 
1058	 3.51733911757378E-03 
1059	 3.48364662859176E-03 
1060	 3.0129299428567E-03 
1061	 3.03787876460383E-03 
1062	 3.24334562468743E-03 
1063	 3.42144315327781E-03 
1064	 3.88088974553313E-03 
1065	 4.0766041281269E-03 
1066	 4.1529084911676E-03 
1067	 4.21456566135141E-03 
1068	 4.25126814016929E-03 
1069	 4.16085743302205E-03 
1070	 3.83433525517353E-03 
1071	 3.72252375888862E-03 
1072	 3.5975222846988E-03 
1073	 3.53430390904486E-03 
1074	 3.52165910505992E-03 
1075	 3.73060579205034E-03 
1076	 3.7414855467182E-03 
1077	 3.69843974048119E-03 
1078	 3.55806402671617E-03 
1079	 3.18867327457899E-03 
1080	 3.1926371064048E-03 
1081	 3.39402953678732E-03 
1082	 3.39486515170192E-03 
1083	 3.6086726673929E-03 
1084	 3.62145936551222E-03 
1085	 3.25856940418659E-03 
1086	 3.07455889661862E-03 
1087	 2.93615597470362E-03 
1088	 2.86508511754765E-03 
1089	 2.82675889975301E-03 
1090	 2.85483622959385E-03 
1091	 2.83869419255898E-03 
1092	 2.89645647126681E-03 
1093	 2.89175455611397E-03 
1094	 2.8277462770253E-03 
1095	 2.77919686192692E-03 
1096	 2.73137714317161E-03 
1097	 2.72461726221368E-03 
1098	 2.80918344424641E-03 
1099	 2.66568374438566E-03 
1100	 2.40395673497953E-03 
1101	 2.21451316971448E-03 
1102	 1.66538025890191E-03 
1103	 1.52071724084494E-03 
1104	 1.61403063137363E-03 
1105	 1.92629298957857E-03 
1106	 2.35118941408033E-03 
1107	 2.7523295782828E-03 
1108	 3.06899378993415E-03 
1109	 2.87590768073687E-03 
1110	 2.7185722694325E-03 
1111	 2.16509886467173E-03 
1112	 2.06377004893072E-03 
1113	 2.26451162381435E-03 
1114	 2.18609546031297E-03 
1115	 1.73991344967163E-03 
1116	 1.77206135328121E-03 
1117	 2.29626151058857E-03 
1118	 2.37802102412407E-03 
1119	 2.6839274220445E-03 
1120	 3.14780352107406E-03 
1121	 3.92593396896226E-03 
1122	 2.74861650190105E-03 
1123	 1.11613524274066E-03 
1124	 2.14194968014775E-03 
1125	 3.02105725480591E-03 
1126	 2.14031154483381E-03 
1127	 2.54883509270929E-03 
1128	 2.5025479055184E-03 
1129	 2.40980927777071E-03 
1130	 1.72071567118009E-03 
1131	 1.4829613429798E-03 
1132	 1.8053270943405E-03 
1133	 1.57955876587219E-03 
1134	 6.21395286599635E-04 
1135	 8.29589527845596E-04 
1136	 1.34001339631839E-03 
1137	 1.61297802656336E-03 
1138	 2.83776581970003E-03 
1139	 2.82845824569147E-03 
1140	 1.26118950259185E-03 
1141	 1.50368838923226E-03 
1142	 1.32048985488402E-03 
1143	 5.52276925951165E-04 
1144	 1.67141564389387E-03 
1145	 2.61090646328016E-03 
1146	 2.25740420986242E-03 
1147	 1.92543962780478E-03 
1148	 1.75413143304589E-03 
1149	 1.5664188213555E-03 
1150	 1.34118645301514E-03 
1151	 1.51123167145948E-03 
1152	 1.72265387725537E-03 
1153	 1.75425583056008E-03 
1154	 1.56347869124299E-03 
1155	 1.31072769773374E-03 
1156	 1.65989089630121E-03 
1157	 1.73785928881527E-03 
1158	 1.3848834302419E-03 
1159	 1.27510618169783E-03 
1160	 1.31559119507306E-03 
1161	 1.08932871321362E-03 
1162	 1.08785722469695E-03 
1163	 1.26504209941835E-03 
1164	 1.44634226619683E-03 
1165	 1.47035897754066E-03 
1166	 1.29393569071739E-03 
1167	 1.49400437625326E-03 
1168	 1.67578356727197E-03 
1169	 1.42617432258067E-03 
1170	 1.34316136829945E-03 
1171	 1.37312969221906E-03 
1172	 1.22070864779634E-03 
1173	 1.20033289266732E-03 
1174	 1.46698230066794E-03 
1175	 1.64233079334398E-03 
1176	 1.36562770482777E-03 
1177	 1.20822656169639E-03 
1178	 1.05784843496608E-03 
1179	 9.75139356703822E-04 
1180	 1.32969453924601E-03 
1181	 1.60255825223361E-03 
1182	 1.71871118931454E-03 
1183	 1.79214704681167E-03 
1184	 1.62780857073829E-03 
1185	 1.50554864503277E-03 
1186	 1.54463072549811E-03 
1187	 1.73135970241553E-03 
1188	 1.72713210669217E-03 
1189	 1.46522704880308E-03 
1190	 1.35016847682721E-03 
1191	 1.36211114056483E-03 
1192	 1.34486902081461E-03 
1193	 1.45328505506835E-03 
1194	 1.64755038968854E-03 
1195	 1.68368788043004E-03 
1196	 1.61354994651686E-03 
1197	 1.66117163179825E-03 
1198	 1.60822794642278E-03 
1199	 1.48991072495309E-03 
1200	 1.45292676650262E-03 
1201	 1.38584908236697E-03 
1202	 1.53154601734731E-03 
1203	 1.80626923289595E-03 
1204	 1.8357732893247E-03 
1205	 1.69175351616014E-03 
1206	 1.59086506906902E-03 
1207	 1.60928328665426E-03 
1208	 1.65242640069073E-03 
1209	 1.60810936666335E-03 
1210	 1.50842906154275E-03 
1211	 1.45779655848709E-03 
1212	 1.41956565726571E-03 
1213	 1.3542863538049E-03 
1214	 1.28953477195241E-03 
1215	 1.25062562085866E-03 
1216	 1.22701849962085E-03 
1217	 1.38622953764064E-03 
1218	 1.56046831380814E-03 
1219	 1.63088051623176E-03 
1220	 1.62382567678994E-03 
1221	 1.58320965135619E-03 
1222	 1.58629109560456E-03 
1223	 1.60434102566546E-03 
1224	 1.64984920208065E-03 
1225	 1.59923375616231E-03 
1226	 1.37843295875277E-03 
1227	 1.27389824317315E-03 
1228	 1.30465633415769E-03 
1229	 1.35957019319466E-03 
1230	 1.53057242924969E-03 
1231	 1.6356938018074E-03 
1232	 1.68545424125997E-03 
1233	 1.65567764036474E-03 
1234	 1.32984357292652E-03 
1235	 1.21842635782603E-03 
1236	 1.30807692687548E-03 
1237	 1.35490353043334E-03 
1238	 1.36407211437905E-03 
1239	 1.56807049947663E-03 
1240	 1.84444594032231E-03 
1241	 1.77455546467182E-03 
1242	 1.62274188047257E-03 
1243	 1.6719020358076E-03 
1244	 1.68365742119873E-03 
1245	 1.49737602311859E-03 
1246	 1.40287569175656E-03 
1247	 1.47924153413006E-03 
1248	 1.48816767479843E-03 
1249	 1.49973393344473E-03 
1250	 1.48357927024925E-03 
1251	 1.47312597879131E-03 
1252	 1.69249964024146E-03 
1253	 1.8901139060693E-03 
1254	 1.91133315448026E-03 
1255	 1.8210848762362E-03 
1256	 1.76956035380995E-03 
1257	 1.28290017729122E-03 
1258	 1.18283974381972E-03 
1259	 1.49929893614699E-03 
1260	 1.59342602423044E-03 
1261	 1.54756314112258E-03 
1262	 1.58140121690543E-03 
1263	 1.67279173581061E-03 
1264	 1.86545083457875E-03 
1265	 1.72794273118725E-03 
1266	 1.45087200366711E-03 
1267	 1.46338146735703E-03 
1268	 1.27852800466428E-03 
1269	 1.32332663453261E-03 
1270	 1.77516493667416E-03 
1271	 1.82134030255081E-03 
1272	 1.80692763660618E-03 
1273	 1.87721496999785E-03 
1274	 1.68277418855727E-03 
1275	 1.5205719893886E-03 
1276	 1.5691658396604E-03 
1277	 1.52550758273496E-03 
1278	 1.48562622927188E-03 
1279	 1.67701128449643E-03 
1280	 1.78043308660965E-03 
1281	 1.76943809830538E-03 
1282	 1.69546871746234E-03 
1283	 1.67454461630181E-03 
1284	 1.51501590238838E-03 
1285	 1.51311903336724E-03 
1286	 1.72823714436654E-03 
1287	 1.70515320299579E-03 
1288	 1.53634826769265E-03 
1289	 1.5240310850082E-03 
1290	 1.50651295250075E-03 
1291	 1.43242788421134E-03 
1292	 1.5002614553817E-03 
1293	 1.42123262124252E-03 
1294	 1.36660733425744E-03 
1295	 1.52243367518435E-03 
1296	 1.23449939461371E-03 
1297	 1.01731769355131E-03 
1298	 1.40232377589273E-03 
1299	 1.55459256465556E-03 
1300	 1.49251992177643E-03 
1301	 1.63533750193327E-03 
1302	 1.7010368108617E-03 
1303	 1.43329460328489E-03 
1304	 1.16051460567798E-03 
1305	 1.38997541779764E-03 
1306	 1.58661495563097E-03 
1307	 1.43787908708801E-03 
1308	 1.30659009605188E-03 
1309	 1.55530522346372E-03 
1310	 1.75782824946491E-03 
1311	 1.50082903902028E-03 
1312	 1.54324701528803E-03 
1313	 2.45009886392401E-03 
1314	 2.4648306288505E-03 
1315	 1.47088126413213E-03 
1316	 1.37196892036393E-03 
1317	 1.60368652108821E-03 
1318	 0.001433699917486 
1319	 1.59323193314145E-03 
1320	 0.00167068786506 
1321	 1.31523839596575E-03 
1322	 8.73326358757036E-04 
1323	 1.43072872590318E-03 
1324	 1.77326290066419E-03 
1325	 1.6214674834766E-03 
1326	 1.71554606427137E-03 
1327	 1.86808260573156E-03 
1328	 1.7617673423568E-03 
1329	 1.86555637612154E-03 
1330	 2.0902553562922E-03 
1331	 1.80448065106679E-03 
1332	 1.55128262693887E-03 
1333	 1.59256645597332E-03 
1334	 1.59935253516117E-03 
1335	 1.59179009646602E-03 
1336	 1.60243439983035E-03 
1337	 1.69945329316312E-03 
1338	 1.86170797583984E-03 
1339	 2.01320507874103E-03 
1340	 2.31170568646165E-03 
1341	 2.30812375339097E-03 
1342	 2.02242365509724E-03 
1343	 1.95643290246287E-03 
1344	 1.81329159294922E-03 
1345	 1.74919928533093E-03 
1346	 2.36729890344049E-03 
1347	 2.24977803988316E-03 
1348	-5.67981894825336E-05 
1349	-3.75236591058596E-04 
1350	 2.40134459514986E-03 
1351	 2.70124654549827E-03 
1352	 2.76020973407746E-03 
1353	 5.48996525424624E-03 
1354	 1.01381334251679E-02 
1355	 5.1989843242515E-03 
1356	-5.43314248876033E-03 
1357	-1.27566108478203E-02 
1358	 2.59237763652907E-03 
1359	-2.10230931965085E-05 
1360	-0.014628013565002 
1361	 4.86261598958384E-02 
1362	 7.30094418667272E-02 
1363	 3.00667631981498E-03 
1364	-9.42716304403495E-03 
1365	 4.68240515410701E-02 
1366	 4.34579270550715E-02 
1367	-3.51846865436163E-02 
1368	-5.48974603216113E-02 
1369	 4.33578061592698E-02 
1370	 3.99096229570699E-02 
1371	-6.61391534952467E-02 
1372	-7.90660482713118E-02 
1373	-0.058714367275035 
1374	-5.19357533240963E-02 
1375	-1.23491356439242E-02 
1376	 2.62306260453034E-02 
1377	 7.92714296494541E-02 
1378	 7.11596607717855E-02 
1379	-3.14928554682498E-02 
1380	 1.63824980299677E-02 
1381	 0.222053878284642 
1382	 0.221069705196931 
1383	 0.225337559485445 
1384	 0.193447780772013 
1385	-0.104648735990266 
1386	-0.160094567354096 
1387	 4.29584737847214E-02 
1388	 6.96911599441883E-02 
1389	-2.27164816471637E-02 
1390	-9.59862988142726E-03 
1391	-2.18925327985391E-02 
1392	 2.79584883013098E-02 
1393	 1.40262249350147E-02 
1394	-3.06788717955965E-02 
1395	-1.78547966348677E-02 
1396	 2.99092669258025E-02 
1397	 7.93365136522159E-02 
1398	 7.10886290561683E-02 
1399	 1.06344235465838E-02 
1400	-2.70775336965973E-02 
1401	-6.30937199951104E-03 
1402	 3.56698880129176E-02 
1403	 2.58257506260396E-02 
1404	 1.27708693841947E-02 
1405	 0.030358131657921 
1406	 5.45358919134865E-02 
1407	 4.51423128044771E-02 
1408	 4.34845610485658E-02 
1409	 4.10964513315214E-02 
1410	 1.93046836347829E-02 
1411	 1.28257198130926E-02 
1412	 2.20499121217257E-02 
1413	 0.020506774507007 
1414	 9.51256711478152E-03 
1415	 8.39009470920126E-03 
1416	 1.53341700809711E-02 
1417	 1.29872892096166E-02 
1418	 6.66704853981188E-03 
1419	 4.95027361122817E-03 
1420	 2.4350724929459E-03 
1421	 1.38602824397527E-03 
1422	 3.30394530118958E-03 
1423	 2.46664939329511E-03 
1424	-6.75148381624701E-04 
1425	-6.88618974757469E-04 
1426	 3.77439098487664E-04 
1427	 5.05594485550922E-04 
1428	 2.75413037449891E-03 
1429	 2.54424230875064E-03 
1430	-1.76092118867359E-03 
1431	-1.73615996592253E-03 
1432	 1.80514351302536E-03 
1433	 1.32647936480564E-03 
1434	-1.61646468476099E-03 
1435	-7.16928403417943E-04 
1436	 6.16990740544008E-04 
1437	 1.28255188394175E-03 
1438	 2.29275835269046E-03 
1439	 5.04366220455844E-03 
1440	 3.89739069715508E-03 
1441	 9.8764591661277E-04 
1442	-7.29149647697249E-05 
1443	-2.40523702670793E-05 
1444	 1.77893464125171E-03 
1445	 2.82653335891224E-03 
1446	 1.26915635045376E-03 
1447	 5.41644960879095E-04 
1448	 1.62762996466268E-03 
1449	 1.43743692042833E-03 
1450	 2.94260373041216E-04 
1451	 6.52017863741378E-04 
1452	 5.83802761468059E-04 
1453	-7.68536126199016E-04 
1454	-8.59152367542393E-04 
1455	 1.13436093419651E-03 
1456	 1.52566644614666E-03 
1457	 7.48302613462137E-04 
1458	 6.48928112040573E-04 
1459	 9.60836415777824E-04 
1460	 1.20727665296422E-03 
1461	 1.47827917010272E-03 
1462	 1.42659431103313E-03 
1463	 1.32054817922993E-03 
1464	 1.33763854338487E-03 
1465	 9.82726459107081E-04 
1466	 7.52848800618394E-04 
1467	 8.71943292511473E-04 
1468	 1.09583292244776E-03 
1469	 1.17538086030388E-03 
1470	 1.18198805372667E-03 
1471	 1.58257314690362E-03 
1472	 1.62453561785683E-03 
1473	 1.27257782452395E-03 
1474	 1.06032951642912E-03 
1475	 8.45543090943869E-04 
1476	 7.31212136153715E-04 
1477	 3.56117244838205E-04 
1478	 4.07282841353219E-04 
1479	 1.13857768809985E-03 
1480	 1.25512863104592E-03 
1481	 1.16722044833969E-03 
1482	 1.06907241988457E-03 
1483	 5.61630943098133E-04 
1484	 3.99070416390437E-04 
1485	 3.54349294557255E-04 
1486	 5.57416415271485E-04 
1487	 1.14857875994867E-03 
1488	 1.21811727557006E-03 
1489	 1.04395335851748E-03 
1490	 1.22052198599543E-03 
1491	 1.45389636631367E-03 
1492	 1.41667576399286E-03 
1493	 1.51698067495334E-03 
1494	 1.53266078156623E-03 
1495	 1.18313267998995E-03 
1496	 1.0215668539575E-03 
1497	 1.01607854314197E-03 
1498	 9.64530586166549E-04 
1499	 8.22498266289966E-04 
1500	 8.53435823153562E-04 
1501	 1.07619196696184E-03 
1502	 1.18046867062352E-03 
1503	 1.29055781708677E-03 
1504	 1.34698910826889E-03 
1505	 1.27293294796433E-03 
1506	 0.001332336831419 
1507	 1.27497345785058E-03 
1508	 1.30706267255758E-03 
1509	 1.28204475449722E-03 
1510	 1.11661204184289E-03 
1511	 1.16208317459975E-03 
1512	 1.05538863586656E-03 
1513	 8.88297233453216E-04 
1514	 1.01920826499403E-03 
1515	 1.11913095119651E-03 
1516	 1.05177264187695E-03 
1517	 1.04164574700832E-03 
1518	 1.09956631636337E-03 
1519	 1.15626975843605E-03 
1520	 1.23141078892809E-03 
1521	 1.08288241902261E-03 
1522	 8.74041751185149E-04 
1523	 8.59422240519044E-04 
1524	 7.5992991096391E-04 
1525	 7.53721453554823E-04 
1526	 9.59614782952682E-04 
1527	 9.97697579740113E-04 
1528	 9.41536127439557E-04 
1529	 1.10295640089217E-03 
1530	 1.16823528143077E-03 
1531	 9.86195288338702E-04 
1532	 9.34577022453439E-04 
1533	 8.05149725897826E-04 
1534	 6.25637515300574E-04 
1535	 7.77450946210001E-04 
1536	 1.03418155514154E-03 
1537	 0.001260661167931 
1538	 1.29413967985187E-03 
1539	 1.02154661191853E-03 
1540	 9.56250055270735E-04 
1541	 9.8343252487945E-04 
1542	 7.80126295868323E-04 
1543	 7.83315991872699E-04 
1544	 9.15753907739793E-04 
1545	 1.02377394165896E-03 
1546	 1.20056018334983E-03 
1547	 1.1961479388578E-03 
1548	 1.04816850537316E-03 
1549	 8.76900595615596E-04 
1550	 7.45725137727304E-04 
1551	 8.73580889021718E-04 
1552	 9.81702206772592E-04 
1553	 8.7167669258578E-04 
1554	 1.02505255407572E-03 
1555	 1.24472466453649E-03 
1556	 1.15168350579631E-03 
1557	 1.09274148077878E-03 
1558	 1.07893059200603E-03 
1559	 1.02859317525404E-03 
1560	 1.15737239201231E-03 
1561	 1.17994087120248E-03 
1562	 9.99555305677015E-04 
1563	 1.21058555967444E-03 
1564	 1.35394809083624E-03 
1565	 1.06439233374143E-03 
1566	 1.12463912414063E-03 
1567	 1.2703728143332E-03 
1568	 1.15288509847096E-03 
1569	 1.23279353277707E-03 
1570	 1.31776625526771E-03 
1571	 1.23004621718595E-03 
1572	 1.24510161352035E-03 
1573	 1.37128384171053E-03 
1574	 1.41262354047064E-03 
1575	 1.22678905635171E-03 
1576	 1.12335203708317E-03 
1577	 1.11298804355885E-03 
1578	 1.10637969618349E-03 
1579	 1.4194799961815E-03 
1580	 1.46565840190041E-03 
1581	 1.05496262684836E-03 
1582	 1.03040458344796E-03 
1583	 1.21355961532028E-03 
1584	 1.08619037381975E-03 
1585	 8.89165074615311E-04 
1586	 9.43591889656244E-04 
1587	 1.08087035244889E-03 
1588	 9.57762099230086E-04 
1589	 1.03383522465727E-03 
1590	 1.4127765854978E-03 
1591	 1.33900777838442E-03 
1592	 1.22553619227165E-03 
1593	 1.48942735827994E-03 
1594	 1.39665156929083E-03 
1595	 1.1851456116307E-03 
1596	 1.34331891128202E-03 
1597	 1.33480616246261E-03 
1598	 1.18414140339898E-03 
1599	 1.27149942904072E-03 
1600	 1.28397414370365E-03 
1601	 1.24068197252112E-03 
1602	 1.39873250364578E-03 
1603	 1.46575437336579E-03 
1604	 1.35085350754095E-03 
1605	 1.22681953720845E-03 
1606	 1.13130294784392E-03 
1607	 1.04907011894984E-03 
1608	 8.87172694431389E-04 
1609	 7.8801220254044E-04 
1610	 9.3423640480755E-04 
1611	 1.04698703565948E-03 
1612	 8.45995371297026E-04 
1613	 5.62181229589081E-04 
1614	 6.36262739312924E-04 
1615	 7.67182342885873E-04 
1616	 7.99915444334903E-04 
1617	 1.22652932599937E-03 
1618	 1.47894492124267E-03 
1619	 1.37626980761942E-03 
1620	 1.38399252108643E-03 
1621	 1.15001953539344E-03 
1622	 1.01162013393057E-03 
1623	 1.0198960252006E-03 
1624	 8.66863266204436E-04 
1625	 1.00774769736828E-03 
1626	 1.06539946634668E-03 
1627	 9.21371090169617E-04 
1628	 1.09927778189506E-03 
1629	 1.2549822886729E-03 
1630	 1.09075586708129E-03 
1631	 9.83690923977204E-04 
1632	 1.20285163165809E-03 
1633	 1.37381785065519E-03 
1634	 1.09704218635825E-03 
1635	 8.19942357301396E-04 
1636	 9.183196347306E-04 
1637	 9.92646482800068E-04 
1638	 1.01439202514343E-03 
1639	 1.1553120048168E-03 
1640	 1.07730221578621E-03 
1641	 9.29722327526466E-04 
1642	 1.13089015001242E-03 
1643	 1.37376037244529E-03 
1644	 1.32804188029678E-03 
1645	 1.16986215781637E-03 
1646	 1.16608992137172E-03 
1647	 1.36255592242906E-03 
1648	 1.37147686106221E-03 
1649	 1.13120441551465E-03 
1650	 1.24451487003304E-03 
1651	 1.23884953351416E-03 
1652	 8.9968985201183E-04 
1653	 1.20920912435347E-03 
1654	 1.18938684921798E-03 
1655	 7.59950516103805E-04 
1656	 8.36686073185581E-04 
1657	 1.30027735850812E-03 
1658	 1.21409805282902E-03 
1659	 1.00179512869214E-03 
1660	 1.13108543263168E-03 
1661	 1.07843826757721E-03 
1662	 1.03028796496242E-03 
1663	 1.2612344642002E-03 
1664	 1.33397052392142E-03 
1665	 1.19577403535241E-03 
1666	 1.17573886735197E-03 
1667	 1.34598566496395E-03 
1668	 1.40635401818747E-03 
1669	 1.24997343264142E-03 
1670	 1.10732227267738E-03 
1671	 1.19225158923513E-03 
1672	 1.00360083208258E-03 
1673	 8.27203913110213E-04 
1674	 1.16933824098579E-03 
1675	 1.36707446477424E-03 
1676	 1.30960067232997E-03 
1677	 1.25148383036647E-03 
1678	 9.7722655417821E-04 
1679	 7.07671020133377E-04 
1680	 1.02757619774205E-03 
1681	 1.50538627486774E-03 
1682	 1.49847915510057E-03 
1683	 1.2934232011879E-03 
1684	 8.97722431178438E-04 
1685	 6.8858947854978E-04 
1686	 7.93520453006203E-04 
1687	 8.14647914560996E-04 
1688	 1.05846018441144E-03 
1689	 1.12820243654274E-03 
1690	 8.20499208024384E-04 
1691	 7.65745497670758E-04 
1692	 9.40592258137708E-04 
1693	 9.45331580130077E-04 
1694	 9.04211889269619E-04 
1695	 1.13325717230533E-03 
1696	 1.14131732339398E-03 
1697	 8.24931063066069E-04 
1698	 1.01430331688723E-03 
1699	 1.35086095454477E-03 
1700	 1.1966455905346E-03 
1701	 1.19837694258599E-03 
1702	 1.32703163115474E-03 
1703	 9.82724557506381E-04 
1704	 8.51227130441207E-04 
1705	 1.11157908417448E-03 
1706	 9.085857706835E-04 
1707	 7.38832788333276E-04 
1708	 8.24104172963949E-04 
1709	 6.64687507221109E-04 
1710	 6.62151568888776E-04 
1711	 7.30603874313725E-04 
1712	 7.06743761159153E-04 
1713	 7.13729948919231E-04 
1714	 7.37852213933217E-04 
1715	 1.06061266356239E-03 
1716	 0.001273419188305 
1717	 9.74770604595767E-04 
1718	 1.08800337449077E-03 
1719	 1.42867208696603E-03 
1720	 1.33118625225507E-03 
1721	 1.20092094149793E-03 
1722	 1.13764358865178E-03 
1723	 8.27714031662127E-04 
1724	 9.6655653616746E-04 
1725	 1.52490156495635E-03 
1726	 1.38695755226777E-03 
1727	 1.17527978801854E-03 
1728	 9.99482391636123E-04 
1729	 3.57319006815396E-04 
1730	 7.27570841964161E-04 
1731	 1.71431792864029E-03 
1732	 1.49180097604908E-03 
1733	 1.10183067534991E-03 
1734	 1.01061060861164E-03 
1735	 2.12871583508504E-04 
1736	-4.9778597421026E-05 
1737	 9.60166684229203E-04 
1738	 1.34155528894833E-03 
1739	 1.17258847460389E-03 
1740	 1.58487125043628E-03 
1741	 1.09709933360131E-03 
1742	 5.21621252807198E-04 
1743	 1.10972438149433E-03 
1744	 1.33012671207719E-03 
1745	 1.52788946391046E-03 
1746	 1.65310598897119E-03 
1747	 1.62758734742087E-03 
1748	 1.21296589367874E-03 
1749	 1.12406229069483E-03 
1750	 1.63603913441833E-03 
1751	 1.44189679560276E-03 
1752	 5.63110264184871E-04 
1753	 4.21068600486293E-04 
1754	 2.99915619098898E-04 
1755	 2.89039965414165E-04 
1756	 1.05463427437279E-03 
1757	 7.86280607111799E-04 
1758	 8.0178354402169E-05 
1759	 3.94862355391304E-04 
1760	 9.16399207160481E-04 
1761	 9.7674447831042E-04 
1762	 1.78487052332264E-03 
1763	 2.08678426561571E-03 
1764	 1.36922989206708E-03 
1765	 1.19260855513269E-03 
1766	 9.26686480617231E-04 
1767	 3.76156817783885E-04 
1768	 7.04955282638933E-04 
1769	 1.48201483901315E-03 
1770	 1.70775607818022E-03 
1771	 1.54304064867637E-03 
1772	 1.21897200800497E-03 
1773	 9.86310754006737E-04 
1774	 7.92422998904451E-04 
1775	 1.18741118928867E-03 
1776	 1.44334806566859E-03 
1777	 1.72570902694792E-03 
1778	 1.71439332315638E-03 
1779	 1.18604928695006E-03 
1780	 7.46862861264188E-04 
1781	-6.57147412641332E-05 
1782	 7.91795514410836E-05 
1783	 1.16154871067715E-03 
1784	 1.74297428791154E-03 
1785	 2.79360328524363E-03 
1786	 3.00658225359735E-03 
1787	 2.69996578094281E-03 
1788	 2.08058250114796E-03 
1789	 3.23439818228104E-04 
1790	-4.16188702435877E-04 
1791	-3.01738220096967E-04 
1792	 3.01793913044653E-04 
1793	 1.34983208848993E-03 
1794	 1.99635181023263E-03 
1795	 2.56110270420188E-03 
1796	 3.30641455765974E-03 
1797	 0.003669738072428 
1798	 3.82655082156446E-03 
1799	 2.38195697339816E-03 
1800	 8.88160983839413E-04 
1801	 1.00376633174583E-03 
1802	 3.53484351437976E-03 
1803	 4.69942072565144E-03 
1804	 7.16067484499031E-03 
1805	 7.5689837548267E-03 
1806	 3.0927063958561E-03 
1807	 2.6177172634143E-04 
1808	-3.76807988129434E-03 
1809	-4.2251315897106E-03 
1810	-3.87285503495116E-04 
1811	 5.31118172947777E-04 
1812	 4.33626192487555E-03 
1813	 5.8834548491695E-03 
1814	 7.0235165083367E-04 
1815	 5.1785003250449E-03 
1816	 1.96977295019624E-02 
1817	 3.13082095370206E-02 
1818	 3.86057699325513E-02 
1819	 2.49277878150138E-03 
1820	-2.22035067334839E-02 
1821	-1.30714030859365E-02 
1822	 1.41213741882632E-04 
1823	 0.109782373296546 
1824	 0.163559924953941 
1825	 0.136801965028692 
1826	 0.133580926065157 
1827	 7.49785286773856E-02 
1828	 5.03227904163689E-02 
1829	 0.092044832682428 
1830	 8.59080315411368E-02 
1831	-0.222886526311264 
1832	-0.210026936334387 
1833	 7.67361732453047E-02 
1834	 0.240795525740743 
1835	 0.227985956568745 
1836	 0.544469380059993 
1837	 0.707007615624681 
1838	 1.01956779120285 
1839	 1.11818562691431 
1840	 1.89426504565202 
1841	 2.50053072114046 
1842	 2.8286505022481 
1843	 2.50853578005591 
1844	-0.881278776285107 
1845	-1.24856078597699 
1846	-3.27342053235297 
1847	-20.0355012483089 
1848	-3.40966584632362 
1849	-6.25467707974169 
1850	 3.28071989337163 
1851	 0.603750478188545 
1852	-5.36645794104595E-02 
1853	-0.149826589952926 
1854	-0.173390310085881 
1855	 0.934625741090496 
1856	 1.74740794331203 
1857	 0.979312129317641 
1858	 0.421491115098381 
1859	-2.50246842941223 
1860	 9.6690165383251 
1861	 5.21357360889481 
1862	 6.6891482754419 
1863	 1.74968398998229 
1864	-0.242796840551357 
1865	-1.10853715555549 
1866	 1.02144897861441 
1867	 0.525062201682727 
1868	 9.89088229082304E-02 
1869	 0.111812906157629 
1870	 0.434292625346407 
1871	 2.44933257089922 
1872	-1.03138656029443 
1873	-0.411902334354126 
1874	-0.428480320907044 
1875	-0.30323276979238 
1876	-0.308060828005854 
1877	-0.159732259751271 
1878	-8.51723033425905E-02 
1879	 0.070795823422999 
1880	 0.255731188081532 
1881	 1.31526212580955 
1882	 1.39813174916041 
1883	 0.32468670918913 
1884	 0.121989756995515 
1885	-1.61528719686538E-02 
1886	 0.408884645457905 
1887	 1.24073246787319 
1888	 0.694893718271659 
1889	 0.51967768319978 
1890	 0.184849339618446 
1891	 8.16163015438023E-02 
1892	-0.116930240620421 
1893	-0.100617114514074 
1894	 6.13509046587168E-02 
1895	-0.100406091736349 
1896	-0.414460699242741 
1897	-0.808007370403174 
1898	-1.76689727026557 
1899	-5.34143808173404 
1900	-21.0527863214257 
1901	-0.409970365843243 
1902	 0.147916062064574 
1903	 0.213679485905181 
1904	 2.64884030778006E-02 
1905	 0.61395012947311 
1906	 0.831919661992351 
1907	 1.10464889167774 
1908	 0.253900166405651 
1909	-0.346772514897142 
1910	-0.781862134031232 
1911	-2.02773857512538 
1912	-7.79452954349231 
1913	-5.67742018043771 
1914	-1.74671216182917 
1915	-0.988990678131742 
1916	-0.380165628785172 
1917	-0.14472680999581 
1918	-0.103722737242919 
1919	-0.059268182113598 
1920	-8.53004213840928E-02 
1921	-0.126815468484402 
1922	-0.133996025036546 
1923	-0.145126108997128 
1924	-0.114601919666982 
1925	-5.36702828823169E-02 
1926	-2.01421778958734E-02 
1927	 5.38220176940009E-03 
1928	 6.36652242964805E-02 
1929	 9.40182264869391E-02 
1930	 8.03046358149027E-02 
1931	 0.102518557229061 
1932	 0.115607235063056 
1933	 8.14985788271731E-02 
1934	 6.36479432073199E-02 
1935	 4.53252027698057E-02 
1936	 3.12764523414775E-02 
1937	 3.02643809706205E-02 
1938	 2.03843902601627E-02 
1939	 1.53660717531805E-02 
1940	 0.013792389154467 
1941	 6.54769910194085E-03 
1942	-7.71995873835884E-03 
1943	-1.11981488482972E-02 
1944	-9.24700318327989E-03 
1945	-6.76014440993808E-03 
1946	 2.57911164433554E-03 
1947	 7.40345409546133E-03 
1948	 4.75864424489729E-03 
1949	 4.92486366289762E-03 
1950	 4.15905137608855E-04 
1951	-7.71030633946727E-03 
1952	-8.95245956341174E-03 
1953	-6.73911668628207E-03 
1954	-3.74922258053877E-03 
1955	-6.51627999437191E-04 
1956	 4.14079213577164E-03 
1957	 9.60878150894742E-03 
1958	 8.68794758195179E-03 
1959	 3.3864410591325E-03 
1960	 6.21448979429832E-03 
1961	 6.25272167071534E-03 
1962	 1.79547620775086E-03 
1963	 6.66089123058364E-04 
1964	-1.83473788554317E-03 
1965	-2.30486546680844E-03 
1966	-9.46204460712449E-04 
1967	 2.63905369011766E-03 
1968	 4.97720738704566E-03 
1969	 5.45273569914663E-03 
1970	 4.10248135736318E-03 
1971	 2.26565844408734E-03 
1972	 9.27367899197343E-04 
1973	-6.95561795068142E-04 
1974	-9.46784612375659E-04 
1975	-8.94041052439764E-04 
1976	-1.98383693989384E-03 
1977	-1.15625743528413E-03 
1978	 6.80468830527599E-04 
1979	 1.05823262760256E-03 
1980	 7.20872095322981E-04 
1981	 7.3500626656422E-04 
1982	 8.39769579439447E-04 
1983	 8.71746309002485E-05 
1984	 2.51623040926499E-04 
1985	 8.94050311422926E-04 
1986	 1.45602988139051E-03 
1987	 1.94714937438094E-03 
1988	 1.3702697240133E-03 
1989	 1.27194336484912E-03 
1990	 1.94530284766956E-03 
1991	 1.97552124749252E-03 
1992	 2.12079705872959E-03 
1993	 3.03683945701185E-03 
1994	 3.4047704322457E-03 
1995	 2.94340735559558E-03 
1996	 2.0247617208261E-03 
1997	 2.06041794736749E-03 
1998	 1.70791721854489E-03 
1999	 1.56858318827824E-03 
2000	 2.18718627820164E-03 
2001	 2.82471703070791E-03 
2002	 4.05141884831428E-03 
2003	 4.24199145082357E-03 
2004	 2.85791095201786E-03 
2005	 7.89162454901954E-04 
2006	-1.33232966391717E-03 
2007	-1.68425746823744E-03 
2008	-1.78967827982427E-03 
2009	-4.47830589880351E-04 
2010	 6.18194584561326E-03 
2011	 7.9558643809426E-03 
2012	 7.48411116258757E-03 
2013	 7.42119190842063E-03 
2014	 5.7430373052597E-03 
2015	 1.53857882476042E-03 
2016	 1.68728168466775E-03 
2017	 1.15327515680803E-03 
2018	-1.0738824601594E-04 
2019	 1.45225933539663E-04 
2020	-1.09041009359435E-04 
2021	-9.63755897254328E-05 
2022	 7.20295289774214E-04 
2023	 1.28937616786816E-03 
2024	 1.30954668342943E-03 
2025	 1.99696334894409E-04 
2026	 3.13397629249652E-04 
2027	 8.64248375779317E-04 
2028	 1.13968465221333E-03 
2029	 1.64613809653407E-03 
2030	 2.1027723342609E-03 
2031	 1.46715961508115E-03 
2032	 1.21963409154495E-03 
2033	 1.12561444667746E-03 
2034	 7.22879639919003E-04 
2035	 1.05961331169681E-03 
2036	 1.03005180970646E-03 
2037	 0.001103967452723 
2038	 1.84848744994445E-03 
2039	 1.81419856363123E-03 
2040	 1.31440684073637E-03 
2041	 8.36003792886263E-04 
2042	-2.50422076661278E-04 
2043	-7.74741527354446E-04 
2044	-1.4799045697442E-03 
2045	-1.08163760924828E-03 
2046	-1.68963054202592E-05 
2047	 8.77721449632977E-04 
2048	 2.05927323086487E-03 
2049	 1.75654928784931E-03 
2050	 1.4783330409457E-03 
2051	 2.30781404261926E-03 
2052	 2.02996006918997E-03 
2053	 2.28608645032541E-03 
2054	 2.24604753865429E-03 
2055	 7.49758083051455E-04 
2056	 4.16043599196748E-04 
2057	 8.34727487378991E-04 
2058	 8.13556637627781E-04 
2059	 1.35179023075027E-03 
2060	 1.28090400879466E-03 
2061	 3.70076878322134E-04 
2062	-2.99499562513174E-04 
2063	 4.72871402945747E-06 
2064	 2.80059828882888E-04 
2065	 1.04376274390548E-03 
2066	 1.5708560235351E-03 
2067	 1.11137937722223E-03 
2068	 1.05965097310626E-03 
2069	 3.13627958610607E-04 
2070	-1.1863945343294E-03 
2071	-8.69206346094764E-04 
2072	 2.84299689231427E-07 
2073	 5.53776870288724E-04 
2074	 1.95181244709974E-03 
2075	 2.47229389528191E-03 
2076	 2.16162978831927E-03 
2077	 2.16599392930649E-03 
2078	 2.50290268939562E-03 
2079	 2.25973725825864E-03 
2080	 1.60100170875282E-03 
2081	 1.36862603420258E-03 
2082	 1.04047404854996E-03 
2083	-4.43129464406819E-05 
2084	-3.25294967029173E-04 
2085	-7.70827085876872E-04 
2086	-5.69825344946991E-04 
2087	 1.06668835024953E-04 
2088	 3.96345295446264E-04 
2089	 8.9652907832635E-04 
2090	 1.10734223081519E-03 
2091	 1.28121505867119E-03 
2092	 1.05949696162407E-03 
2093	 4.43762352878594E-04 
2094	 6.56878455891558E-04 
2095	 9.68040797270144E-04 
2096	 9.91562015117837E-04 
2097	 1.7572342476694E-03 
2098	 2.18573300373749E-03 
2099	 2.29605579834306E-03 
2100	 1.73824526288303E-03 
2101	 1.09268550006595E-03 
2102	 1.07659846213336E-03 
2103	 1.59177232154232E-03 
2104	 1.49309872586686E-03 
2105	 1.58826310112003E-03 
2106	 1.62869564296595E-03 
2107	 5.79713828208011E-04 
2108	 1.06817043918749E-04 
2109	 7.07141976691394E-04 
2110	 1.03776381003239E-03 
2111	 8.35989429573098E-04 
2112	 6.57081385697588E-04 
2113	 9.82110713273316E-04 
2114	 1.56786104699665E-03 
2115	 0.001802586694415 
2116	 2.55505579070426E-03 
2117	 2.9559443779494E-03 
2118	 2.68362714979623E-03 
2119	 2.59525170147656E-03 
2120	 2.80269311932977E-03 
2121	 2.53045519686791E-03 
2122	 0.002595450638281 
2123	 2.79540424149426E-03 
2124	 3.1463479685863E-03 
2125	 3.39037389488101E-03 
2126	 2.73653844760336E-03 
2127	 1.96669909481721E-03 
2128	 1.46285078758828E-03 
2129	 1.21352194542235E-03 
2130	 1.05797895171105E-03 
2131	 1.12196403448795E-03 
2132	 3.29184931229102E-04 
2133	-5.14004342009364E-04 
2134	-4.39359496920709E-04 
2135	 2.25916249464125E-04 
2136	 1.35572459849964E-04 
2137	 5.82934242463684E-04 
2138	 6.9393591927325E-04 
2139	-3.01670482568715E-04 
2140	-4.43715647786827E-04 
2141	 7.3521978944268E-05 
2142	 4.90309584432466E-04 
2143	 1.29819917822783E-03 
2144	 1.50361142177574E-03 
2145	 1.02908746333702E-03 
2146	 6.7345285924089E-04 
2147	-2.25225750211638E-04 
2148	-5.54068903651562E-04 
2149	 1.04520349978122E-04 
2150	 8.91762266524104E-04 
2151	 7.84832983621826E-04 
2152	-4.80147163532307E-04 
2153	-1.68719390094218E-03 
2154	-2.3813255782996E-03 
2155	-1.95778141354114E-03 
2156	-5.79103599293016E-04 
2157	-2.1976636555879E-04 
2158	-1.65546109328416E-04 
2159	 5.40520435262176E-04 
2160	 8.83748433064864E-04 
2161	 1.40624909933462E-03 
2162	 3.44474205375035E-03 
2163	 3.86866952713908E-03 
2164	 2.76427373775158E-03 
2165	 2.34615566004214E-03 
2166	 1.53063603939991E-03 
2167	 1.64556774072655E-03 
2168	 3.14167381837679E-03 
2169	 2.92785972193357E-03 
2170	 2.53240230765096E-03 
2171	 8.95156977737041E-04 
2172	-5.34835723241931E-04 
2173	-2.70873065229168E-04 
2174	 1.22765965902678E-03 
2175	 2.17132362101258E-03 
2176	 1.3482169783906E-03 
2177	-3.23444489842156E-04 
2178	-1.58310992452214E-03 
2179	-1.30088216366544E-03 
2180	 1.9281037761171E-04 
2181	 1.07544472836027E-03 
2182	 5.15402683662151E-04 
2183	-3.8788831739651E-04 
2184	-4.97707275481453E-04 
2185	 3.5957344888836E-05 
2186	 1.30373544660001E-04 
2187	 1.28589752721489E-03 
2188	 1.32410866843037E-03 
2189	 1.41806336433655E-04 
2190	-4.02141419643358E-04 
2191	-6.62323737639009E-04 
2192	-8.44651059239985E-05 
2193	 7.6781948181856E-04 
2194	 7.63296213459647E-04 
2195	 1.25072837037499E-03 
2196	 1.32466694708701E-03 
2197	 3.61330075699283E-04 
2198	-5.37290079559675E-04 
2199	-1.43235884655433E-03 
2200	-1.75887020946337E-03 
2201	-3.04545052597266E-03 
2202	-3.35365481142163E-03 
2203	-2.94986043709373E-03 
2204	-2.80116468845301E-03 
2205	-2.93126368009427E-03 
2206	-1.97658519071003E-03 
2207	 1.05716413405632E-03 
2208	 3.35790631507883E-03 
2209	 3.25072949597242E-03 
2210	 2.79496920790546E-03 
2211	 2.4406410644677E-03 
2212	 8.42779947137001E-04 
2213	 1.47355405417621E-04 
2214	 5.72182809339379E-04 
2215	 1.36828301559164E-04 
2216	 4.22025247634853E-04 
2217	 4.53663222977673E-04 
2218	 1.11692741634626E-03 
2219	 8.45521270190441E-04 
2220	 3.4933214200337E-06 
2221	-7.8333587125898E-04 
2222	-1.37290189823332E-03 
2223	-2.04260754334392E-03 
2224	-4.21871469593586E-03 
2225	-4.31625354218883E-03 
2226	-3.78820838921844E-03 
2227	-2.7567873605475E-03 
2228	 1.41016729971844E-03 
2229	 2.98840784303869E-03 
2230	 2.60633289364385E-03 
2231	 3.22028899988819E-03 
2232	 4.15701901381334E-03 
2233	 4.08442958004407E-03 
2234	 3.31477018930473E-03 
2235	 3.98753896277356E-03 
2236	 4.00836830204894E-03 
2237	 7.64047898368764E-04 
2238	-1.00529126000696E-03 
2239	 3.00422595561633E-04 
2240	-2.06702445981471E-04 
2241	-9.60607415166752E-04 
2242	-5.81924558915322E-04 
2243	-1.82595665795316E-03 
2244	-2.23572846672583E-03 
2245	-1.54900729129545E-03 
2246	-1.85596755594257E-03 
2247	-3.03502907782879E-03 
2248	-2.71675595706829E-03 
2249	-1.62648814583044E-03 
2250	-7.62032686871133E-04 
2251	 1.30598792817002E-03 
2252	 1.81117028380227E-03 
2253	 6.26831407398553E-04 
2254	 4.19210415654795E-04 
2255	 1.04447762994397E-03 
2256	 2.11648959284722E-03 
2257	 3.53318121207738E-03 
2258	 5.12311946303617E-03 
2259	 5.53830834854824E-03 
2260	 4.2658009311381E-03 
2261	 1.59599753189028E-04 
2262	-7.71384475515254E-04 
2263	-2.62094791206979E-03 
2264	-2.30765968388885E-03 
2265	 2.93893161524188E-03 
2266	 3.37191841350283E-03 
2267	 5.48676839739121E-04 
2268	 9.87018898858334E-04 
2269	 1.70785885001912E-03 
2270	 1.52438284735542E-03 
2271	 3.1024282285912E-03 
2272	 3.60007830224114E-03 
2273	 1.1188501231334E-03 
2274	 4.56856299235103E-04 
2275	 2.93752874834138E-03 
2276	 2.97389092671296E-03 
2277	-6.74375745786727E-05 
2278	-4.14787895259838E-04 
2279	 1.10139876786948E-03 
2280	 1.62138448031428E-03 
2281	 3.45069557591379E-03 
2282	 3.70219008683022E-03 
2283	 3.02289230922574E-03 
2284	-1.90834512256091E-03 
2285	-5.67759408134968E-03 
2286	-3.13675348500382E-03 
2287	-3.61039158952321E-04 
2288	-1.80544275174068E-03 
2289	-1.44169759344492E-03 
2290	 4.24353139044017E-03 
2291	 6.79073104212566E-03 
2292	 7.17056874042184E-03 
2293	 9.57774320088568E-03 
2294	 7.19276797015035E-03 
2295	 4.71588875372006E-03 
2296	 8.65972153030192E-03 
2297	 1.03504589167551E-02 
2298	 7.50849388598605E-03 
2299	 5.82600432776707E-03 
2300	 5.50526347064736E-03 
2301	 5.28709391876482E-03 
2302	 4.90186591023065E-03 
2303	 5.75648525241797E-03 
2304	 4.25283197602207E-03 
2305	 2.89577253535499E-03 
2306	 3.91262726539408E-03 
2307	 1.10946312598273E-04 
2308	-1.91812256139972E-03 
2309	 5.47396547045584E-05 
2310	 3.76648458055809E-04 
2311	 2.56059251262728E-03 
2312	 3.4972111935446E-03 
2313	 7.41901995868945E-04 
2314	-1.24101899277007E-03 
2315	-2.99813111636847E-03 
2316	-2.3204377677848E-03 
2317	 1.42342520919292E-03 
2318	 2.8473718972937E-03 
2319	 2.35636067680118E-03 
2320	 1.26115936216603E-03 
2321	-2.14833621673803E-04 
2322	 1.15425469569971E-03 
2323	 4.12306044999993E-03 
2324	 5.36618338188546E-03 
2325	 4.65904938049502E-03 
2326	 3.13865752619282E-03 
2327	-9.42559783306581E-05 
2328	-3.50019703277704E-03 
2329	-3.52457325223989E-03 
2330	-7.4865974732732E-03 
2331	-9.13558909891533E-03 
2332	-2.07392199607724E-03 
2333	-6.69780132959162E-04 
2334	-2.35549721244164E-03 
2335	-4.95595655548105E-03 
2336	-8.0806683051889E-03 
2337	-5.16819161935586E-03 
2338	-2.13424482332304E-03 
2339	 1.15186301827441E-03 
2340	 9.81851611881764E-04 
2341	-3.74082069439277E-03 
2342	-6.63829289176494E-03 
2343	-4.40936431253916E-03 
2344	 4.57191380985211E-04 
2345	-2.93311472803919E-03 
2346	-6.53336533895459E-04 
2347	 3.05100889285288E-03 
2348	-4.51340592493893E-03 
2349	-3.48879326680705E-03 
2350	 6.26283152729661E-06 
2351	-5.21395086502568E-03 
2352	-6.12346764663637E-03 
2353	-5.28003663760429E-03 
2354	-9.20495728748744E-03 
2355	-3.90053799340052E-03 
2356	 5.43676708633164E-03 
2357	 1.28254491494757E-02 
2358	 1.88699142007951E-02 
2359	 0.015628108985501 
2360	 1.20451239672525E-02 
2361	 5.00013660631249E-03 
2362	-6.3533443458569E-03 
2363	-9.80762153178191E-03 
2364	-6.98402302514721E-03 
2365	 4.03739173221819E-04 
2366	 7.64058998841352E-03 
2367	 1.23273272251806E-02 
2368	 1.72922165876222E-02 
2369	 1.46775919117424E-02 
2370	 1.27066072927847E-02 
2371	 1.26191781680363E-02 
2372	 5.30713603082242E-03 
2373	-2.67505311918499E-03 
2374	-1.31936376226326E-02 
2375	-2.05776805635106E-02 
2376	-2.40742597003673E-02 
2377	-2.22627995532517E-02 
2378	-1.76527678999819E-02 
2379	-2.26243503855056E-03 
2380	 0.011620934383275 
2381	 1.67820361741828E-03 
2382	 1.48306239515253E-02 
2383	 3.11790832691992E-02 
2384	 2.89833295188778E-02 
2385	 3.42088763810752E-02 
2386	 1.60667583982892E-02 
2387	 7.65820800065942E-04 
2388	 7.74340859096414E-03 
2389	 1.14872973247481E-02 
2390	 2.39470584390907E-02 
2391	 2.56980741953368E-02 
2392	 1.17876134715122E-02 
2393	 1.23755376265052E-02 
2394	 1.37302357772643E-02 
2395	 1.62540142683711E-02 
2396	 2.26707486872382E-02 
2397	 5.47918699958646E-03 
2398	 1.10894775499147E-03 
2399	 2.63368386549725E-02 
2400	 3.01659585468461E-02 
2401	 3.55849903250369E-02 
2402	 4.30195190320835E-02 
2403	-0.002448361602436 
2404	-0.04284508259949 
2405	-0.041167441733463 
2406	-4.69270512258846E-02 
2407	-3.27631643076997E-02 
2408	-1.13847709083434E-02 
2409	-4.67638225901378E-02 
2410	-0.072640450371577 
2411	-6.45649339789155E-02 
2412	-4.97695094214697E-02 
2413	-4.11974142591745E-03 
2414	 4.93872849297299E-02 
2415	 7.45505961499666E-02 
2416	 7.03058775862114E-02 
2417	 8.03684267370008E-02 
2418	 6.11778309796524E-02 
2419	 3.13886607545368E-02 
2420	 1.85525304330802E-02 
2421	-4.32268027595135E-02 
2422	-2.40652249069215E-02 
2423	 3.70655070159196E-02 
2424	 3.20928135519215E-02 
2425	 4.76048643371169E-02 
2426	 7.87270433536863E-02 
2427	 3.92998963749747E-02 
2428	 1.93551547021623E-02 
2429	 7.29414876188882E-02 
2430	 5.63868507371449E-02 
2431	 2.90311660364117E-02 
2432	 0.06983649250303 
2433	 6.49362115526484E-02 
2434	 4.31407147037862E-02 
2435	 3.26207012367617E-02 
2436	-2.44849768467378E-02 
2437	-2.28105624061585E-02 
2438	 2.21375709526727E-02 
2439	 3.77414921210032E-02 
2440	 4.10059285256454E-02 
2441	 1.33626157209489E-02 
2442	-2.86567534133896E-02 
2443	-4.75707011303395E-02 
2444	-1.15122353190482E-02 
2445	 1.29323251545598E-02 
2446	 6.06270702392184E-03 
2447	 7.35048835001462E-02 
2448	 8.58706638876587E-02 
2449	 7.43700439460377E-02 
2450	 9.28841333205959E-02 
2451	 9.85358773470322E-02 
2452	 0.134494176997876 
2453	 0.13766221803364 
2454	 0.168020306809007 
2455	 0.118575139837426 
2456	 1.53441322983611E-02 
2457	 3.68744674034086E-03 
2458	-3.01344513000872E-02 
2459	-4.05785195349641E-02 
2460	 7.33811127575922E-02 
2461	 3.59492151870751E-02 
2462	-8.88786576943436E-02 
2463	-8.19825162884925E-02 
2464	-0.123831201217568 
2465	-7.06715852818957E-02 
2466	 0.121162117911377 
2467	 0.14430664008793 
2468	 0.36189064064145 
2469	 0.570367730097439 
2470	 0.556878908571357 
2471	 0.520388375700164 
2472	 0.226072359719275 
2473	-2.52796033726423E-02 
2474	-0.302145560328708 
2475	-0.39586316983933 
2476	-0.546596012099645 
2477	-0.497224619753688 
2478	-3.13796856503467E-02 
2479	 4.61801198640593E-02 
2480	 9.19793765171858E-02 
2481	 0.355326316360415 
2482	 0.790326124407214 
2483	 2.75930938772678 
2484	 7.26382362330664 
2485	-2.84266573499365 
2486	-2.63811452681138 
2487	-1.82571324267092 
2488	-0.511012177907621 
2489	 3.55521695505601 
2490	-7.46093537090605 
2491	-8.32355428290132 
2492	 0.602757883729079 
2493	 0.918130390381211 
2494	 0.580798763848237 
2495	 1.49513608898877 
2496	-9.9346917335961 
2497	 0.917030185550216 
2498	-2.27142378119048 
2499	-2.96570538748334 
2500	-3.40917078197543 
