Wavelength	rt0624close00008.asd
350	 1.73485280207662E-02 
351	 1.75817253537718E-02 
352	 1.81734710084687E-02 
353	 1.85277907486752E-02 
354	 1.83420839376324E-02 
355	 1.80102739918064E-02 
356	 0.018163055525179 
357	 1.83894813017291E-02 
358	 1.82085766296824E-02 
359	 1.83654276280949E-02 
360	 1.87248574430831E-02 
361	 1.90216016317242E-02 
362	 1.89905656107074E-02 
363	 1.90536950330126E-02 
364	 1.92312660273925E-02 
365	 1.94531874856168E-02 
366	 1.96062621201859E-02 
367	 1.95479209166883E-02 
368	 1.95293915979651E-02 
369	 1.97978251205518E-02 
370	 2.02659377384892E-02 
371	 2.02104934017669E-02 
372	 2.00749454238373E-02 
373	 2.07710224684362E-02 
374	 2.08062726290619E-02 
375	 2.09612066445685E-02 
376	 2.14052128077737E-02 
377	 2.11899495749501E-02 
378	 2.13509557189266E-02 
379	 2.16515523589863E-02 
380	 2.17256037402432E-02 
381	 2.17730308967701E-02 
382	 2.18808572220053E-02 
383	 2.22054524532019E-02 
384	 2.28768867946239E-02 
385	 2.38168046802956E-02 
386	 2.40399539907659E-02 
387	 0.023649318005772 
388	 0.023951579913595 
389	 2.43591219697364E-02 
390	 2.46438453245006E-02 
391	 2.47484555989578E-02 
392	 2.48093416503362E-02 
393	 2.51852884406572E-02 
394	 2.55833339457599E-02 
395	 2.56483737279277E-02 
396	 2.60502263509639E-02 
397	 2.65366701900155E-02 
398	 2.69265284862633E-02 
399	 0.027155912698646 
400	 2.70101218195969E-02 
401	 2.72260917369218E-02 
402	 2.79921307400873E-02 
403	 0.028027777532509 
404	 2.78872462103779E-02 
405	 2.79569253045187E-02 
406	 2.84100957803725E-02 
407	 0.02850452536953 
408	 2.87841864046934E-02 
409	 2.92130845850278E-02 
410	 2.91679487722236E-02 
411	 2.94418450311858E-02 
412	 2.98228423993857E-02 
413	 3.00549299520428E-02 
414	 3.02086524870841E-02 
415	 3.04575342561382E-02 
416	 3.07449282054856E-02 
417	 3.09453003734845E-02 
418	 3.11467773559387E-02 
419	 3.14953701209758E-02 
420	 3.19580391261709E-02 
421	 3.23140887064243E-02 
422	 3.24727334691108E-02 
423	 3.26921022235935E-02 
424	 3.31251168426286E-02 
425	 0.033411876449731 
426	 3.38657614892002E-02 
427	 3.43354061771293E-02 
428	 3.45245918679497E-02 
429	 3.48089090872728E-02 
430	 3.52026709692103E-02 
431	 3.56661575044397E-02 
432	 3.61424072689917E-02 
433	 3.64056699917462E-02 
434	 0.03673225109992 
435	 3.73008592111158E-02 
436	 3.76710171568409E-02 
437	 3.80604559686633E-02 
438	 3.84517611166301E-02 
439	 3.87469032502498E-02 
440	 3.93610029505252E-02 
441	 3.97953371993436E-02 
442	 3.99717850575443E-02 
443	 4.05704130798435E-02 
444	 4.09697869067934E-02 
445	 4.12356455827216E-02 
446	 4.15743038658589E-02 
447	 4.19807879513445E-02 
448	 4.23121377562628E-02 
449	 0.042585953011989 
450	 0.042927549659257 
451	 4.31741280123843E-02 
452	 4.34208091689133E-02 
453	 4.37135756270996E-02 
454	 4.39194173057957E-02 
455	 0.044131221409069 
456	 4.43990359998934E-02 
457	 4.47076467238859E-02 
458	 4.47857502149749E-02 
459	 4.49479797532668E-02 
460	 4.52299693151548E-02 
461	 4.53683165331181E-02 
462	 4.55437987401222E-02 
463	 4.57233439578252E-02 
464	 0.04587985289543 
465	 4.61285901551944E-02 
466	 4.62784404873757E-02 
467	 4.63418708834081E-02 
468	 4.64532618668249E-02 
469	 4.67929889689384E-02 
470	 4.71016263623198E-02 
471	 4.72697293049792E-02 
472	 4.74404775947496E-02 
473	 4.76453293031847E-02 
474	 4.78536868947458E-02 
475	 4.80458914334116E-02 
476	 4.83276130448656E-02 
477	 4.85262671776668E-02 
478	 0.04869702825605 
479	 0.049031149241961 
480	 4.93479799987718E-02 
481	 4.96757150688908E-02 
482	 5.00036546316673E-02 
483	 0.050167758751765 
484	 5.04520146675275E-02 
485	 5.08651645903765E-02 
486	 5.13072029103783E-02 
487	 5.17464426385419E-02 
488	 5.21084875565805E-02 
489	 5.23882675566678E-02 
490	 5.26541356264715E-02 
491	 5.30983912972377E-02 
492	 5.36347434834376E-02 
493	 5.41541854533946E-02 
494	 0.05467563764703 
495	 5.50839444209435E-02 
496	 5.54520392808889E-02 
497	 5.59374201126941E-02 
498	 0.056491598192172 
499	 5.70230663933448E-02 
500	 5.75113154536077E-02 
501	 5.80491830470681E-02 
502	 5.86473374622344E-02 
503	 5.92376914670453E-02 
504	 5.97622607779793E-02 
505	 6.02897352406443E-02 
506	 6.08520334426101E-02 
507	 0.061491451088526 
508	 6.22335134362829E-02 
509	 6.27287419684182E-02 
510	 6.32195254628125E-02 
511	 6.38688136316844E-02 
512	 6.44130340194141E-02 
513	 6.50909976214756E-02 
514	 6.58382165237967E-02 
515	 6.64787687367352E-02 
516	 6.71019257760905E-02 
517	 6.78137544770509E-02 
518	 6.85697558393986E-02 
519	 6.91485908012694E-02 
520	 6.98600534984997E-02 
521	 7.05859300545544E-02 
522	 7.12062553002603E-02 
523	 7.19241441994534E-02 
524	 7.27096964354483E-02 
525	 7.35037795176747E-02 
526	 7.42404462251306E-02 
527	 7.50005349460511E-02 
528	 7.56881338589672E-02 
529	 7.63005110617894E-02 
530	 7.70684101338312E-02 
531	 7.78516912611862E-02 
532	 7.86209377312685E-02 
533	 7.93778651052931E-02 
534	 8.00962580327514E-02 
535	 8.08086333052204E-02 
536	 8.15765175570973E-02 
537	 8.24818125111934E-02 
538	 0.083352444806675 
539	 8.41495089846587E-02 
540	 8.49099212022651E-02 
541	 8.58023200784062E-02 
542	 8.65849767521706E-02 
543	 0.087317206889251 
544	 8.82172795252681E-02 
545	 8.89881573534155E-02 
546	 8.97826050183709E-02 
547	 9.06742641181553E-02 
548	 9.14821144409123E-02 
549	 9.22081980073064E-02 
550	 0.092946658700991 
551	 0.093790420760817 
552	 9.45650704377254E-02 
553	 9.54433202137938E-02 
554	 9.63594355474969E-02 
555	 9.69661198783978E-02 
556	 9.77435028119142E-02 
557	 0.09864023476899 
558	 9.94882814993121E-02 
559	 0.100228179252214 
560	 0.100930117741599 
561	 0.101601963186839 
562	 0.102225769262516 
563	 0.102897167192691 
564	 0.10358097354769 
565	 0.104250794237784 
566	 0.104943094531968 
567	 0.10552976185828 
568	 0.106056875702366 
569	 0.106618525559936 
570	 0.107172510777086 
571	 0.107710187547644 
572	 0.108222695370347 
573	 0.108701179716414 
574	 0.109161214896563 
575	 0.109637686924904 
576	 0.110114889023668 
577	 0.110401160798943 
578	 0.110757588114797 
579	 0.111209127343177 
580	 0.111619399074096 
581	 0.111878935915585 
582	 0.112072549154854 
583	 0.112280099089188 
584	 0.112522538708735 
585	 0.112781234077292 
586	 0.112980858658198 
587	 0.113061432873181 
588	 0.113152459001103 
589	 0.113280286828931 
590	 0.113413574830426 
591	 0.113479968918081 
592	 0.113534616683866 
593	 0.113524757845552 
594	 0.113401929690571 
595	 0.113191289887988 
596	 0.112966738832291 
597	 0.112739842791716 
598	 0.112488238703326 
599	 0.112259339702667 
600	 0.112020715230493 
601	 0.111774656545676 
602	 0.111588950327303 
603	 0.111623798188848 
604	 0.111696555161649 
605	 0.11160849154727 
606	 0.111709279858968 
607	 0.111874919167664 
608	 0.112017182968505 
609	 0.112110845409809 
610	 0.11222202052873 
611	 0.112330447634306 
612	 0.11239698112214 
613	 0.112359954113309 
614	 0.112478354806774 
615	 0.112656580526316 
616	 0.11263598735017 
617	 0.112706031160782 
618	 0.11281641328067 
619	 0.112905749920857 
620	 0.1129527049012 
621	 0.112991436153575 
622	 0.11304675568692 
623	 0.113119215020914 
624	 0.113111057903936 
625	 0.113122011922006 
626	 0.113167690284105 
627	 0.113182508564718 
628	 0.113267273069668 
629	 0.113341163091222 
630	 0.113360971513924 
631	 0.113481407297471 
632	 0.113547245419378 
633	 0.113559408521259 
634	 0.113587630101624 
635	 0.113607993713896 
636	 0.113570950029748 
637	 0.113486685205474 
638	 0.113452073922164 
639	 0.113376591623032 
640	 0.113324215245625 
641	 0.113341508189086 
642	 0.113217097239283 
643	 0.113140794533199 
644	 0.113102911890356 
645	 0.112943106184793 
646	 0.112869776969059 
647	 0.11281378230726 
648	 0.112709944721146 
649	 0.112615951615459 
650	 0.112523037452829 
651	 0.112397221069316 
652	 0.112210574620979 
653	 0.112050098206867 
654	 0.111776412721626 
655	 0.111440425719269 
656	 0.111403255300032 
657	 0.111161156545636 
658	 0.110871581526733 
659	 0.110715082613142 
660	 0.110538290499359 
661	 0.110294580708897 
662	 0.110057128317593 
663	 0.109965934210418 
664	 0.109952674168677 
665	 0.109857698979502 
666	 0.109665886553476 
667	 0.109634296466885 
668	 0.109700826141587 
669	 0.109729653431721 
670	 0.109610310342145 
671	 0.109500843261316 
672	 0.109523082647883 
673	 0.109609591627209 
674	 0.109536603523388 
675	 0.109528306249098 
676	 0.109628366763352 
677	 0.109805633782697 
678	 0.109932621338757 
679	 0.110108603860302 
680	 0.110314147622461 
681	 0.110514885684063 
682	 0.110960649770877 
683	 0.111436660774795 
684	 0.111792160629818 
685	 0.112035738013602 
686	 0.112405573028084 
687	 0.112981155929769 
688	 0.113602504598911 
689	 0.113767375161503 
690	 0.114003954262569 
691	 0.11430381341365 
692	 0.114375902629032 
693	 0.114418271763545 
694	 0.1144854129882 
695	 0.114483338456629 
696	 0.114083996719347 
697	 0.114071763500052 
698	 0.114038284942208 
699	 0.113452421955263 
700	 0.113095762741219 
701	 0.112771130741748 
702	 0.112366456802264 
703	 0.111870164336029 
704	 0.11131872695538 
705	 0.110733789759038 
706	 0.110087786860336 
707	 0.109215239519018 
708	 0.108355521583143 
709	 0.107489221965343 
710	 0.106502887945579 
711	 0.105411392291716 
712	 0.104151355136567 
713	 0.102787101452337 
714	 0.101480922259558 
715	 0.100083887252161 
716	 9.85928154996232E-02 
717	 9.70400704100487E-02 
718	 9.52620204991326E-02 
719	 9.35914414704252E-02 
720	 9.20536381761567E-02 
721	 9.03659563290148E-02 
722	 8.87859880403076E-02 
723	 8.69720040302028E-02 
724	 8.49900440678622E-02 
725	 8.31486591908843E-02 
726	 8.11030734814005E-02 
727	 7.87412132312035E-02 
728	 7.61236815994405E-02 
729	 7.35112562685445E-02 
730	 7.07880884312738E-02 
731	 6.81027960002022E-02 
732	 6.56645902107219E-02 
733	 6.35551170841883E-02 
734	 6.17300791271418E-02 
735	 6.01783867491942E-02 
736	 5.89228198847231E-02 
737	 0.058005516849981 
738	 0.057306695993645 
739	 5.67134750580598E-02 
740	 5.62207911190141E-02 
741	 5.59024299665437E-02 
742	 5.57192091631308E-02 
743	 5.55752818284776E-02 
744	 5.55370219460496E-02 
745	 5.54255302096569E-02 
746	 5.52509977239804E-02 
747	 5.53026281876286E-02 
748	 5.52398211090114E-02 
749	 5.51765068533332E-02 
750	 5.52258735504246E-02 
751	 5.50844331695679E-02 
752	 5.51160419701739E-02 
753	 5.52146291660059E-02 
754	 5.50812589258914E-02 
755	 5.51527695375863E-02 
756	 5.52543952350786E-02 
757	 5.52133326378257E-02 
758	 5.48439331424731E-02 
759	 5.45089855925478E-02 
760	 5.44519267583797E-02 
761	 5.46676564807124E-02 
762	 5.49991186589126E-02 
763	 5.50498904721566E-02 
764	 5.51359512327751E-02 
765	 5.55856951104396E-02 
766	 5.58024938091131E-02 
767	 5.59698911939066E-02 
768	 0.056166526421437 
769	 5.63484024664694E-02 
770	 5.66232097417116E-02 
771	 5.69391243373148E-02 
772	 5.72188914428849E-02 
773	 5.74010402095247E-02 
774	 5.76550236045577E-02 
775	 5.79763165944256E-02 
776	 0.058287779029411 
777	 5.85749435943748E-02 
778	 5.89544104475187E-02 
779	 5.94337852851756E-02 
780	 5.98990257621793E-02 
781	 6.02058852004852E-02 
782	 6.05560726369175E-02 
783	 6.10801465525291E-02 
784	 6.16197463138292E-02 
785	 6.20224273767918E-02 
786	 6.24300521919341E-02 
787	 6.30279317903567E-02 
788	 6.36167352800848E-02 
789	 6.41837229114211E-02 
790	 6.47700253609101E-02 
791	 6.54202661472927E-02 
792	 6.57110065738384E-02 
793	 6.60693193753455E-02 
794	 0.066715217671297 
795	 6.73357559047002E-02 
796	 6.78388406338736E-02 
797	 6.83227017501305E-02 
798	 6.88654003024087E-02 
799	 0.069222121235411 
800	 0.069533502724298 
801	 6.98895496181936E-02 
802	 7.03205081222216E-02 
803	 7.06769146426267E-02 
804	 7.08545343316419E-02 
805	 7.09355009917373E-02 
806	 0.071180243814646 
807	 7.12805598633103E-02 
808	 7.12058211162925E-02 
809	 7.10339235426423E-02 
810	 7.09643086908662E-02 
811	 7.08097415755568E-02 
812	 7.05568798870541E-02 
813	 7.02289471754802E-02 
814	 0.06965116199185 
815	 6.92467748006522E-02 
816	 6.89441029930694E-02 
817	 6.83080360671427E-02 
818	 6.77316151581617E-02 
819	 6.68007993919867E-02 
820	 6.54910782133023E-02 
821	 0.064406538434438 
822	 6.31465586164567E-02 
823	 6.15682532706189E-02 
824	 5.97510745722857E-02 
825	 5.80060929417608E-02 
826	 5.60225469638945E-02 
827	 5.37932325023701E-02 
828	 5.15483189244441E-02 
829	 4.95001751276908E-02 
830	 4.75464858863229E-02 
831	 0.045667806740921 
832	 4.39725391886701E-02 
833	 4.26300408303789E-02 
834	 4.16096663097589E-02 
835	 4.08403152441675E-02 
836	 4.02549484308852E-02 
837	 3.94218673361217E-02 
838	 3.87324653821836E-02 
839	 3.84366376133108E-02 
840	 3.79080225894427E-02 
841	 0.037463937145696 
842	 3.70602289768063E-02 
843	 3.65631281432728E-02 
844	 0.036027001862611 
845	 3.56364414508505E-02 
846	 3.52965364789261E-02 
847	 0.03475000990229 
848	 3.41861479993902E-02 
849	 3.38605571149683E-02 
850	 3.36848247087791E-02 
851	 3.31597414112003E-02 
852	 0.032661635481376 
853	 3.22965474374379E-02 
854	 3.21035489358596E-02 
855	 3.21053294653335E-02 
856	 0.031720370755944 
857	 3.11519541758058E-02 
858	 3.07382757571855E-02 
859	 3.04250553754015E-02 
860	 3.00873044937307E-02 
861	 2.98491556429043E-02 
862	 2.98145337780747E-02 
863	 2.91602451576481E-02 
864	 2.87321740782275E-02 
865	 0.028576566785735 
866	 2.79954666694685E-02 
867	 2.77447057966144E-02 
868	 2.74433473618971E-02 
869	 2.69237252884198E-02 
870	 2.64932749238253E-02 
871	 2.63851915723104E-02 
872	 2.59951541556797E-02 
873	 2.50972058864826E-02 
874	 0.024706660613652 
875	 0.024323769780332 
876	 2.40103973202263E-02 
877	 2.38468916959275E-02 
878	 2.34014002539378E-02 
879	 2.29915175797895E-02 
880	 2.25375183868877E-02 
881	 2.18537224464631E-02 
882	 2.12720763283252E-02 
883	 2.07912113091987E-02 
884	 2.04849124959799E-02 
885	 2.04082370603219E-02 
886	 1.99590511044416E-02 
887	 1.94333691364789E-02 
888	 1.89822327315191E-02 
889	 1.84919619272854E-02 
890	 1.83363729353626E-02 
891	 1.82071497254704E-02 
892	 1.77741360855518E-02 
893	 1.69043942364962E-02 
894	 1.67689458127621E-02 
895	 1.68290940210719E-02 
896	 1.64836442948517E-02 
897	 1.65141790436855E-02 
898	 1.57526725560043E-02 
899	 1.48608927813503E-02 
900	 1.47365173684838E-02 
901	 1.47900665083658E-02 
902	 1.43753688616909E-02 
903	 1.37032003897084E-02 
904	 1.32800085652624E-02 
905	 1.31066496360888E-02 
906	 1.28962203915601E-02 
907	 1.24670299326113E-02 
908	 0.011789632864355 
909	 1.11038925477182E-02 
910	 1.08546402949134E-02 
911	 1.07046311127661E-02 
912	 9.8414671490145E-03 
913	 9.62678961644416E-03 
914	 9.57746179145587E-03 
915	 9.07978217801485E-03 
916	 7.8485111926349E-03 
917	 7.9436156580588E-03 
918	 7.34311441424453E-03 
919	 5.76026559351077E-03 
920	 6.01463725550758E-03 
921	 5.92613152823513E-03 
922	 5.59237508952963E-03 
923	 5.1555074656665E-03 
924	 3.93033055724236E-03 
925	 3.11127102089913E-03 
926	 2.45927592592484E-03 
927	 1.62085574467374E-03 
928	 1.39601266840681E-03 
929	 2.79440370220472E-04 
930	-9.77454204337414E-04 
931	-9.58030612930543E-04 
932	-1.50641108461423E-03 
933	-9.93755486213439E-04 
934	-1.37888504071311E-03 
935	-4.08860007412166E-03 
936	-2.86346418408565E-03 
937	-3.61457521255636E-03 
938	-4.20495746107754E-03 
939	-1.80092493944407E-03 
940	-2.43410972924179E-03 
941	-3.19053529208308E-03 
942	-3.99048890650668E-03 
943	-5.49379276159279E-03 
944	-3.70879573548091E-03 
945	-2.98698654825088E-03 
946	-3.45577657524146E-03 
947	-3.13030321506425E-03 
948	-6.69687611388794E-03 
949	-7.49978778982722E-03 
950	-5.62971330733913E-03 
951	-5.31587824140979E-03 
952	-3.7710444550389E-03 
953	-4.09935286177638E-03 
954	-6.40563729234524E-03 
955	-7.97305201406616E-03 
956	-5.37418604545128E-03 
957	-4.03188341964032E-03 
958	-3.95005678304777E-03 
959	-1.47804208560177E-03 
960	-2.00452973872044E-03 
961	-2.71482350185058E-03 
962	-2.33743338773955E-03 
963	-1.82870307016977E-03 
964	-4.31924315289275E-03 
965	-4.23418256727661E-03 
966	-1.89903173194429E-03 
967	-2.08807613586666E-03 
968	-5.06243675112401E-04 
969	-1.92919660671859E-05 
970	-1.47703531568493E-03 
971	-3.25396215251369E-03 
972	-4.46720430058848E-03 
973	-4.33365317657708E-03 
974	-2.80980164525259E-03 
975	-9.52535985848475E-04 
976	-2.81926816388231E-03 
977	-3.81273891646974E-03 
978	-2.88526698121535E-03 
979	-3.06621089655764E-03 
980	-4.62962659915039E-03 
981	-4.01325277760948E-03 
982	-2.67065819564543E-03 
983	-5.17394549515765E-03 
984	-3.71835226927624E-03 
985	-3.11563187059442E-03 
986	-3.45977590965765E-03 
987	-1.20849499653784E-03 
988	-3.84503903628644E-03 
989	-4.48661171968899E-03 
990	-2.44160270377148E-03 
991	-2.46942938569105E-03 
992	-3.80458332361992E-03 
993	-3.7790870058395E-03 
994	-2.82309509258847E-03 
995	-0.003113182536304 
996	-1.78888111845044E-03 
997	-4.08324672167861E-03 
998	-6.77675671718191E-03 
999	-3.56642179615429E-03 
1000	-3.74826465581118E-03 
1001	 1.19509759440871E-03 
1002	 1.08774323381747E-03 
1003	 9.67497768833953E-04 
1004	 6.97328662419842E-04 
1005	 6.37042553252897E-04 
1006	 6.66826424733924E-04 
1007	 5.65257014664602E-04 
1008	 7.38026750105146E-04 
1009	 1.11743628992317E-03 
1010	 8.7929449754544E-04 
1011	 9.7331359895489E-04 
1012	 1.22951429126184E-03 
1013	 7.6863890977619E-04 
1014	 7.38182048252709E-04 
1015	 9.53821459246162E-04 
1016	 9.95227234877201E-04 
1017	 1.12225550772134E-03 
1018	 1.09484496759045E-03 
1019	 8.44660080625317E-04 
1020	 6.74398488734111E-04 
1021	 2.93931495648564E-04 
1022	 2.51038629981841E-04 
1023	 2.85066829433229E-04 
1024	 5.98679733147304E-04 
1025	 1.02920857299954E-03 
1026	 1.14943237326169E-03 
1027	 1.25592763975866E-03 
1028	 1.33375801950635E-03 
1029	 1.15812180917036E-03 
1030	 6.08799481150782E-04 
1031	 5.57825285610097E-04 
1032	 5.26450231863935E-04 
1033	 5.98410444879593E-04 
1034	 1.14561374190593E-03 
1035	 1.40951906814997E-03 
1036	 1.48815758951006E-03 
1037	 1.57736363885244E-03 
1038	 1.78419154030054E-03 
1039	 1.69093565002201E-03 
1040	 1.50361128496502E-03 
1041	 1.48974462781747E-03 
1042	 1.3442317444689E-03 
1043	 1.07240009710735E-03 
1044	 9.76905164590234E-04 
1045	 9.11202516142027E-04 
1046	 8.69015431485371E-04 
1047	 8.06944061052863E-04 
1048	 9.59407837551887E-04 
1049	 1.29589947705038E-03 
1050	 1.53026549148844E-03 
1051	 2.06334387768515E-03 
1052	 2.26725686990422E-03 
1053	 2.10142576473193E-03 
1054	 2.09749630411426E-03 
1055	 2.07026460381023E-03 
1056	 2.02102742372232E-03 
1057	 1.9842599499553E-03 
1058	 2.02781881346364E-03 
1059	 2.00188683899125E-03 
1060	 1.81812212455427E-03 
1061	 1.90284863957879E-03 
1062	 2.24397556954677E-03 
1063	 2.27683069019237E-03 
1064	 2.17397657241606E-03 
1065	 2.29881355143817E-03 
1066	 2.4966959963151E-03 
1067	 2.47481008686508E-03 
1068	 2.61763109546062E-03 
1069	 2.56841605032565E-03 
1070	 1.84431422574696E-03 
1071	 1.67711600403899E-03 
1072	 1.72974246967977E-03 
1073	 2.08942093601981E-03 
1074	 2.19127770333955E-03 
1075	 2.59495315923017E-03 
1076	 2.49763903814731E-03 
1077	 1.87621479461672E-03 
1078	 1.78657414031429E-03 
1079	 1.80532432229088E-03 
1080	 1.7498990730946E-03 
1081	 1.87103007388916E-03 
1082	 1.93153972591931E-03 
1083	 1.87347689038812E-03 
1084	 1.86315268225874E-03 
1085	 2.06823667885112E-03 
1086	 2.07598104305768E-03 
1087	 1.74181874809516E-03 
1088	 1.66540345239013E-03 
1089	 1.69251307718678E-03 
1090	 1.79443950420259E-03 
1091	 1.66477753063548E-03 
1092	 1.51013095456814E-03 
1093	 1.50615442009399E-03 
1094	 1.41084900961896E-03 
1095	 1.27763766608899E-03 
1096	 1.3285118531515E-03 
1097	 1.30006707178402E-03 
1098	 9.32440238050959E-04 
1099	 8.53642556369067E-04 
1100	 1.16668325031859E-03 
1101	 1.21562687907685E-03 
1102	 1.07146270928893E-03 
1103	 1.16428080025607E-03 
1104	 1.40847724786898E-03 
1105	 1.40560309941846E-03 
1106	 1.72871201713973E-03 
1107	 2.12471196759482E-03 
1108	 1.80921860205283E-03 
1109	 1.22099932060836E-03 
1110	 1.1814615950338E-03 
1111	 0.00124209208186 
1112	 1.07162838581869E-03 
1113	 1.30082298868028E-03 
1114	 1.58820825848995E-03 
1115	 1.31939985034767E-03 
1116	 1.13569332125585E-03 
1117	 1.9487873504365E-03 
1118	 2.11509419716177E-03 
1119	 1.04001141961576E-03 
1120	 1.11155043563314E-03 
1121	 3.08415970556968E-03 
1122	 1.49986399359484E-03 
1123	 1.10983315295196E-03 
1124	 2.04593691908369E-03 
1125	 7.1507198101836E-04 
1126	 9.83101305720802E-04 
1127	 6.55314861271878E-04 
1128	-1.28728049618519E-03 
1129	-1.37100640166326E-03 
1130	-8.1203765232111E-04 
1131	-6.72502637913817E-04 
1132	 5.86670982058768E-04 
1133	 6.83116339249573E-04 
1134	-6.42720125044697E-04 
1135	-3.80505423795415E-04 
1136	 7.74130145756316E-04 
1137	 8.61639459660384E-04 
1138	 1.10840975519265E-03 
1139	 1.19413484275203E-03 
1140	 2.28185829551584E-04 
1141	 1.76479290444313E-04 
1142	 1.43950178514836E-03 
1143	 1.4440933355677E-03 
1144	 5.19318675110775E-04 
1145	 2.16798417609413E-04 
1146	 4.00869380213239E-04 
1147	 1.05810340044607E-03 
1148	 1.43927927083942E-03 
1149	 1.09815262543252E-03 
1150	 1.01942376675019E-03 
1151	-7.38768226590307E-05 
1152	-2.73285585825634E-04 
1153	 4.48032873044176E-04 
1154	 4.95916161996237E-04 
1155	 1.86851726866361E-04 
1156	 1.19757127613003E-04 
1157	 2.37564499058054E-04 
1158	 4.12530389899664E-04 
1159	 2.55282511694426E-04 
1160	 5.11918104746553E-05 
1161	 2.64201559721562E-04 
1162	 4.52744650628753E-04 
1163	 4.8198867651563E-04 
1164	 5.05489104658766E-04 
1165	 3.06739293402907E-04 
1166	 2.25813681947009E-05 
1167	 3.6631094456815E-04 
1168	 8.75157810527244E-04 
1169	 6.67342230517997E-04 
1170	 5.54254998087325E-04 
1171	 6.58059956828339E-04 
1172	 7.62448882768868E-04 
1173	 7.65341487941288E-04 
1174	 9.81898284483212E-04 
1175	 1.03533150819498E-03 
1176	 8.72323704999813E-04 
1177	 7.14685720708269E-04 
1178	 6.48646035338283E-04 
1179	 8.51897632052392E-04 
1180	 9.50638844484027E-04 
1181	 8.37698409307621E-04 
1182	 8.60168520621409E-04 
1183	 7.04641630125791E-04 
1184	 3.65998240696783E-04 
1185	 5.45446921107479E-04 
1186	 8.896092051433E-04 
1187	 8.10355672350823E-04 
1188	 8.22277686583963E-04 
1189	 9.11780792726762E-04 
1190	 5.819578127499E-04 
1191	 3.97840072036766E-04 
1192	 4.08505855355099E-04 
1193	 6.88925870656403E-04 
1194	 6.10873783559708E-04 
1195	 5.61771453388859E-04 
1196	 7.64293371007929E-04 
1197	 7.97726696724707E-04 
1198	 6.18310444100127E-04 
1199	 5.99645675879258E-04 
1200	 7.68067907669755E-04 
1201	 7.25946603461023E-04 
1202	 7.05934028095287E-04 
1203	 8.83022199085696E-04 
1204	 7.69248862285997E-04 
1205	 6.64024665476973E-04 
1206	 8.08135961624558E-04 
1207	 7.39324586823489E-04 
1208	 5.14425119381855E-04 
1209	 5.26000909771123E-04 
1210	 7.69357871491021E-04 
1211	 8.29425305300918E-04 
1212	 7.61490514527202E-04 
1213	 8.54744653390163E-04 
1214	 8.63874510285882E-04 
1215	 6.49592922632266E-04 
1216	 5.19758397659638E-04 
1217	 7.46195235548492E-04 
1218	 7.73373615203213E-04 
1219	 7.24457781839885E-04 
1220	 9.25055081879721E-04 
1221	 9.37313537880066E-04 
1222	 7.10255410012127E-04 
1223	 5.85560793576053E-04 
1224	 6.08519453812341E-04 
1225	 7.86199572816755E-04 
1226	 9.22844832296782E-04 
1227	 8.44863366519402E-04 
1228	 7.03148270197756E-04 
1229	 6.82757162148342E-04 
1230	 8.41541233461958E-04 
1231	 9.00688903545878E-04 
1232	 8.34736392954816E-04 
1233	 7.25230625865148E-04 
1234	 5.47501808260458E-04 
1235	 5.27919816657188E-04 
1236	 9.31168945960677E-04 
1237	 9.63513785833612E-04 
1238	 7.89792583045689E-04 
1239	 7.48600827054018E-04 
1240	 8.75446546406323E-04 
1241	 7.25293053980824E-04 
1242	 5.81016834463127E-04 
1243	 7.09417038132996E-04 
1244	 7.84154750964995E-04 
1245	 6.39590774262249E-04 
1246	 5.34590655252958E-04 
1247	 6.54763296961847E-04 
1248	 5.99574423193928E-04 
1249	 4.89707689560994E-04 
1250	 7.45656825411612E-04 
1251	 7.35338048415318E-04 
1252	 5.06401222918629E-04 
1253	 6.68746465775584E-04 
1254	 7.86313385866407E-04 
1255	 5.96051596824931E-04 
1256	 6.06255006636147E-04 
1257	 6.68278139562366E-04 
1258	 6.81685799950919E-04 
1259	 7.52193813201675E-04 
1260	 7.62457602957067E-04 
1261	 5.83871280820814E-04 
1262	 6.03665302781029E-04 
1263	 6.81324609079325E-04 
1264	 9.75788222151984E-04 
1265	 1.15326493086621E-03 
1266	 9.67625118603576E-04 
1267	 7.08170714711793E-04 
1268	 5.90245913132188E-04 
1269	 6.06837937515023E-04 
1270	 7.36479483376123E-04 
1271	 8.84838578037089E-04 
1272	 8.56396227182262E-04 
1273	 5.98053375183619E-04 
1274	 5.63778947844745E-04 
1275	 7.18237268953208E-04 
1276	 7.13746286660815E-04 
1277	 7.2214576245804E-04 
1278	 6.82787356440128E-04 
1279	 5.56637749435808E-04 
1280	 4.12302209369794E-04 
1281	 3.39682893601528E-04 
1282	 4.96524667259326E-04 
1283	 6.39972490944682E-04 
1284	 7.76974426404491E-04 
1285	 7.1506807350622E-04 
1286	 6.46080067680045E-04 
1287	 7.36482584722679E-04 
1288	 7.27389974773262E-04 
1289	 6.06568174865174E-04 
1290	 6.21233734736789E-04 
1291	 6.09476362153002E-04 
1292	 4.41159955381842E-04 
1293	 4.41734881439524E-04 
1294	 6.89989973884167E-04 
1295	 7.79391468158959E-04 
1296	 5.86044759780289E-04 
1297	 5.5703928521351E-04 
1298	 7.65122946912261E-04 
1299	 8.35634816529259E-04 
1300	 7.80400765309163E-04 
1301	 7.69663366017853E-04 
1302	 7.99080471274699E-04 
1303	 7.28607550807606E-04 
1304	 7.43987781364644E-04 
1305	 8.85467056256123E-04 
1306	 8.60040535279786E-04 
1307	 7.73641778010548E-04 
1308	 6.82547566053611E-04 
1309	 3.97474739749404E-04 
1310	 4.02440578372918E-04 
1311	 6.39538042728143E-04 
1312	 6.21604867975972E-04 
1313	 5.74562033514615E-04 
1314	 7.12359720001109E-04 
1315	 8.3219778809812E-04 
1316	 8.16462576322715E-04 
1317	 8.75993320723794E-04 
1318	 9.51568255805667E-04 
1319	 1.00151936603525E-03 
1320	 8.93863719875927E-04 
1321	 8.64196489007246E-04 
1322	 6.59703218144684E-04 
1323	 5.32222805630209E-04 
1324	 3.31193891216468E-04 
1325	 1.37585038070458E-04 
1326	 2.06321262607445E-04 
1327	 3.36498196427397E-04 
1328	 1.32518782335833E-04 
1329	 1.16565308211286E-04 
1330	 6.40358802739065E-04 
1331	 6.99372824304757E-04 
1332	 9.27363860378898E-05 
1333	-8.12389098336387E-05 
1334	 1.03119299240206E-04 
1335	 2.50855044010622E-04 
1336	 5.56036199627645E-04 
1337	 7.13423885844319E-04 
1338	 1.15940108068974E-03 
1339	 8.74554589258414E-04 
1340	-5.350564725528E-04 
1341	-6.46684460192412E-04 
1342	-2.52412472951003E-04 
1343	-2.7692857057169E-04 
1344	 7.93834780203535E-04 
1345	 1.3283079065608E-03 
1346	 5.55842272497005E-04 
1347	 1.3253070011521E-04 
1348	 9.56753593350775E-05 
1349	 5.78810909111656E-05 
1350	-7.32905954126999E-04 
1351	-1.0521896138796E-03 
1352	 4.58025062102532E-05 
1353	 7.84626593283969E-04 
1354	 9.53157726062328E-05 
1355	 6.26265578633988E-03 
1356	 3.80111855368568E-03 
1357	-2.89894144535069E-03 
1358	 7.96997508015768E-03 
1359	 2.65714019716979E-02 
1360	 5.19005189145519E-02 
1361	 7.64534311032486E-02 
1362	 8.06621654327987E-02 
1363	 7.81598937034556E-02 
1364	 0.103170964538185 
1365	 6.92387383845799E-02 
1366	-6.77249304313444E-02 
1367	-0.129406445470709 
1368	-0.128026977529628 
1369	 3.63789353501878E-02 
1370	 7.31438962273225E-02 
1371	 0.108542003851314 
1372	 9.21233957167152E-02 
1373	-1.75500015572329E-02 
1374	-6.86337427255423E-02 
1375	-9.98699998444457E-02 
1376	-0.149111794226506 
1377	-0.248528838139754 
1378	-0.23172436403146 
1379	-0.144575638413597 
1380	-0.142005089445699 
1381	-9.14257210174982E-02 
1382	-4.30585786629049E-02 
1383	-0.140844177529949 
1384	-0.107454855108496 
1385	 0.164545441140943 
1386	 0.163073604690251 
1387	-0.128692937306437 
1388	-9.85774129281242E-02 
1389	 4.95993953983664E-02 
1390	 2.37111473880084E-02 
1391	 4.21875913691397E-02 
1392	 0.12956812463652 
1393	 2.68335219866349E-02 
1394	-2.82904020733567E-02 
1395	-5.02935419765076E-03 
1396	-1.59434532392838E-02 
1397	-0.021310859184081 
1398	-5.34903524997367E-02 
1399	-7.45628977255172E-02 
1400	-0.045435470117693 
1401	-1.98168441167211E-02 
1402	-2.42765176216982E-02 
1403	-1.51162411317952E-02 
1404	 2.87569592856359E-02 
1405	 2.57574938075139E-02 
1406	 6.79967894559062E-03 
1407	 1.71673535867261E-03 
1408	-1.53120207773968E-02 
1409	-1.68427562197465E-02 
1410	-3.74616413226305E-03 
1411	 5.85280387003459E-04 
1412	 1.53392589947995E-03 
1413	 1.64895497089284E-03 
1414	 6.41556372953146E-04 
1415	 1.36304690435011E-03 
1416	 4.18342878292707E-03 
1417	 1.49041774935153E-03 
1418	-4.50132636016047E-03 
1419	-3.38271572645989E-03 
1420	-1.49771363128375E-03 
1421	-2.30317623043163E-03 
1422	-1.94815439503435E-03 
1423	 3.64208747211379E-04 
1424	 2.77304600050784E-03 
1425	 2.55029600478247E-03 
1426	 3.34560137024734E-03 
1427	 3.98591780090227E-03 
1428	 2.20581822876316E-03 
1429	 2.93429496387779E-04 
1430	-1.84545230940529E-03 
1431	-1.2398117076127E-03 
1432	 6.49149071227486E-04 
1433	 4.3192551557209E-04 
1434	 1.71600053433251E-03 
1435	 2.81021705953562E-03 
1436	 2.46806854006238E-03 
1437	-1.25680310177722E-05 
1438	-1.45798693350526E-03 
1439	-9.91236947182426E-04 
1440	 5.09434368902648E-04 
1441	 1.36549654216893E-04 
1442	 2.49943732866888E-04 
1443	 7.50963214706273E-04 
1444	-3.18069308109616E-04 
1445	-9.44143099708706E-04 
1446	 4.64497354068947E-04 
1447	 1.49844303113952E-03 
1448	 5.87389361046188E-04 
1449	 3.7812271786786E-04 
1450	 4.85069369421025E-04 
1451	 1.09940077409217E-04 
1452	 8.39520311417377E-05 
1453	 2.01913191349533E-04 
1454	 6.80192428979165E-04 
1455	 1.50154270950471E-03 
1456	 1.34042760250394E-03 
1457	 1.09796845436496E-03 
1458	 1.01316668009261E-03 
1459	 2.25794002910253E-04 
1460	 6.006226737556E-06 
1461	 4.68608714514725E-04 
1462	 5.64578184206396E-04 
1463	 2.18133441717393E-04 
1464	 3.7167698146794E-04 
1465	 1.19440175237857E-03 
1466	 1.14988499515709E-03 
1467	 4.75201902019327E-04 
1468	 7.2030407740229E-04 
1469	 1.57839630723863E-03 
1470	 1.12145117786583E-03 
1471	 1.01283090183914E-04 
1472	 8.9081505424076E-05 
1473	-4.51235061747959E-04 
1474	-7.82683610439741E-04 
1475	-5.27366344570584E-05 
1476	 4.04372706636993E-04 
1477	 5.75749407306705E-04 
1478	 3.24750836314814E-04 
1479	-6.81198033235321E-06 
1480	 1.49622625718589E-04 
1481	 2.02282797109736E-05 
1482	-1.13543282487345E-04 
1483	 2.90235822710736E-04 
1484	 5.9818274015828E-04 
1485	 5.67287805841926E-04 
1486	 5.02925309367353E-04 
1487	 7.22685075634487E-04 
1488	 7.86200177397735E-04 
1489	 3.77203029911762E-04 
1490	 3.98994430734605E-04 
1491	 9.93132792397653E-04 
1492	 9.86887714441973E-04 
1493	 6.00084453115399E-04 
1494	 5.27708106208653E-04 
1495	 3.16354238088869E-04 
1496	 2.28224296936575E-04 
1497	 4.79184959413506E-04 
1498	 5.95112228205205E-04 
1499	 6.13401316127593E-04 
1500	 5.67060202657555E-04 
1501	 4.36250826726069E-04 
1502	 4.54886466893242E-04 
1503	 5.34525253010645E-04 
1504	 5.44599958362679E-04 
1505	 7.53933477745622E-04 
1506	 6.60269460080047E-04 
1507	 3.90689747851796E-04 
1508	 2.25483494717792E-04 
1509	-8.79733407686392E-05 
1510	 1.56709548266671E-05 
1511	 4.79066897009493E-04 
1512	 4.6153378413522E-04 
1513	 4.64159477096822E-04 
1514	 6.7672579978373E-04 
1515	 5.36465323825844E-04 
1516	 2.96709684202923E-04 
1517	 3.23995280398841E-04 
1518	 3.08086131514575E-04 
1519	 2.31184459897108E-04 
1520	 3.05461579651266E-04 
1521	 2.85348381019498E-04 
1522	 2.56733421438669E-04 
1523	 3.50639330686991E-04 
1524	 3.00263239704553E-04 
1525	 3.27843808080524E-04 
1526	 4.59222600842037E-04 
1527	 3.14510049869549E-04 
1528	 2.17329507232817E-04 
1529	 3.14732787940273E-04 
1530	 3.71474541107899E-04 
1531	 5.57736361410166E-04 
1532	 7.16947192127843E-04 
1533	 5.91021411534504E-04 
1534	 4.52633552039546E-04 
1535	 5.46946493693917E-04 
1536	 5.67531883699783E-04 
1537	 3.21199906565179E-04 
1538	 2.44037129179291E-04 
1539	 3.73245574174624E-04 
1540	 4.72203713028082E-04 
1541	 5.3117695542229E-04 
1542	 4.28434256164238E-04 
1543	 2.57691090088612E-04 
1544	 2.71461382550951E-04 
1545	 3.9634759216436E-04 
1546	 6.09504462821582E-04 
1547	 8.64389598185661E-04 
1548	 7.01846560964207E-04 
1549	 4.51871427390291E-04 
1550	 4.76756103163897E-04 
1551	 2.88189528057264E-04 
1552	 2.67622910091115E-04 
1553	 5.55212438159761E-04 
1554	 6.76897188276886E-04 
1555	 7.37092810713651E-04 
1556	 6.52282218820237E-04 
1557	 5.02277530429173E-04 
1558	 4.47269513770375E-04 
1559	 3.51410949130376E-04 
1560	 4.11878526570215E-04 
1561	 5.38728463860061E-04 
1562	 4.82134743033584E-04 
1563	 5.57841396016059E-04 
1564	 6.51588486597912E-04 
1565	 5.26096918256679E-04 
1566	 5.43930653101839E-04 
1567	 6.5002088628817E-04 
1568	 4.75628518446092E-04 
1569	 3.64606678254322E-04 
1570	 5.11823345799467E-04 
1571	 5.97359903609424E-04 
1572	 5.91621117549294E-04 
1573	 4.74432733711483E-04 
1574	 3.5193118490116E-04 
1575	 2.0992049540009E-04 
1576	 5.19405395725039E-05 
1577	 1.31551046245183E-04 
1578	 3.89132872225259E-04 
1579	 4.80435521093519E-04 
1580	 3.21719566871235E-04 
1581	 3.30694675247782E-04 
1582	 5.06744156150885E-04 
1583	 4.94488653894348E-04 
1584	 3.44782139997813E-04 
1585	 1.05925648664634E-04 
1586	-3.02185473893046E-05 
1587	 2.83679832841206E-04 
1588	 5.13580152581216E-04 
1589	 5.32415716100272E-04 
1590	 6.32895266840004E-04 
1591	 4.39828422679532E-04 
1592	 2.8932184789179E-04 
1593	 3.71781690526962E-04 
1594	 1.8140878084357E-04 
1595	-1.25938146873899E-04 
1596	-6.40396071424484E-05 
1597	 2.21902829088499E-04 
1598	 4.15304208572901E-04 
1599	 5.72526926287073E-04 
1600	 6.32750818507041E-04 
1601	 4.73101932460826E-04 
1602	 1.41957449894757E-04 
1603	 1.90556981031383E-04 
1604	 6.41219810127367E-04 
1605	 5.96020641580824E-04 
1606	 3.38917076906647E-04 
1607	 4.05503368200539E-04 
1608	 4.1975008104284E-04 
1609	 4.42500656566471E-04 
1610	 6.57553973764761E-04 
1611	 7.18152329079659E-04 
1612	 4.2431445703749E-04 
1613	 3.01199687529604E-04 
1614	 6.52093234079247E-04 
1615	 7.54823727757108E-04 
1616	 5.36640763006181E-04 
1617	 5.06673094349548E-04 
1618	 4.866876731252E-04 
1619	 5.27353194562683E-04 
1620	 5.60825024531466E-04 
1621	 5.11209802634221E-04 
1622	 6.76050900695194E-04 
1623	 6.93845166619787E-04 
1624	 4.84055141294787E-04 
1625	 3.78898492165796E-04 
1626	 3.92977134659805E-04 
1627	 4.24584315870349E-04 
1628	 3.91058443918091E-04 
1629	 5.39333853675775E-04 
1630	 6.34785701044362E-04 
1631	 5.4245196911888E-04 
1632	 5.82278698620159E-04 
1633	 5.25134365943839E-04 
1634	 3.85230072394912E-04 
1635	 2.94557161970184E-04 
1636	 3.40797605274469E-04 
1637	 4.94963022146737E-04 
1638	 3.46628813117986E-04 
1639	 1.18113867585472E-04 
1640	 1.42708318919602E-04 
1641	 1.94086411192278E-04 
1642	 2.46870017086139E-04 
1643	 4.94026232181475E-04 
1644	 6.80902123058485E-04 
1645	 5.37040468296684E-04 
1646	 4.17742957444931E-04 
1647	 5.5344927940962E-04 
1648	 5.18295404147279E-04 
1649	 9.96239243357535E-05 
1650	-7.18390310657221E-05 
1651	 1.52106634050661E-04 
1652	 2.9328374879577E-04 
1653	 5.78908254893646E-04 
1654	 7.44462466953199E-04 
1655	 3.86170429680814E-04 
1656	 3.17848551915096E-04 
1657	 6.535335896056E-04 
1658	 8.00284619752817E-04 
1659	 7.88218403721549E-04 
1660	 7.37410254963628E-04 
1661	 6.77974307546561E-04 
1662	 6.13542909806877E-04 
1663	 4.63096594966387E-04 
1664	 3.53886778199795E-04 
1665	 2.80295022542751E-04 
1666	 3.51596188138589E-04 
1667	 4.92360452777196E-04 
1668	 4.46543419079321E-04 
1669	 2.71482383763824E-04 
1670	-1.21681278727254E-04 
1671	 1.49943486117159E-04 
1672	 4.75183293263898E-04 
1673	 3.55202404001513E-04 
1674	 6.17591020361307E-04 
1675	 6.45978791142071E-04 
1676	 3.31338312531171E-04 
1677	 6.06991279013026E-04 
1678	 7.12489480975773E-04 
1679	 4.26192296081912E-04 
1680	 4.58359343714061E-04 
1681	 3.59817015269431E-04 
1682	 2.15393955327837E-04 
1683	 4.2339619982395E-04 
1684	 3.13643098500861E-04 
1685	 4.90620682334399E-05 
1686	 4.01442363355847E-04 
1687	 5.92196342882107E-04 
1688	 2.60309926784864E-04 
1689	 3.01287580865787E-04 
1690	 3.81199946618134E-04 
1691	 1.30358643016855E-04 
1692	 3.17430032276202E-04 
1693	 7.3023449978067E-04 
1694	 5.37429828599781E-04 
1695	 4.24223354919277E-04 
1696	 7.87294388412774E-04 
1697	 7.62789824826838E-04 
1698	 5.3090293601196E-04 
1699	 5.42840068847984E-04 
1700	 4.95737000720404E-04 
1701	 3.26110819445327E-04 
1702	 3.24300448494565E-04 
1703	 4.53625856262086E-04 
1704	 3.82534848154011E-04 
1705	 3.65144756925573E-04 
1706	 7.17954545170871E-04 
1707	 7.22637179122708E-04 
1708	 2.19181447378298E-04 
1709	 2.42086716654727E-04 
1710	 4.56211962510166E-04 
1711	 3.7475974995559E-04 
1712	 5.8399710304219E-04 
1713	-1.36229265385246E-04 
1714	-1.89369623125497E-04 
1715	 4.45546823440396E-04 
1716	 7.51336433589202E-04 
1717	 8.61055600453725E-04 
1718	 6.58022507293458E-04 
1719	 1.19413742999242E-04 
1720	 1.68001279603467E-04 
1721	 5.61502891903911E-04 
1722	 3.45011429461612E-04 
1723	-6.42187518097184E-05 
1724	-3.83343633879325E-04 
1725	-4.63776180494698E-04 
1726	-6.04553297473611E-05 
1727	 3.2067890211874E-04 
1728	 4.9107248207978E-04 
1729	 3.61747416380904E-04 
1730	 3.31510542252858E-04 
1731	 8.05144629304813E-04 
1732	 7.74516284161744E-04 
1733	 2.61977853180354E-04 
1734	 3.07644989155311E-04 
1735	 1.74086145811354E-04 
1736	-2.38418064084063E-04 
1737	 3.50010939458976E-04 
1738	 9.623697699029E-04 
1739	 5.35238708586343E-04 
1740	 6.21712162047587E-04 
1741	 7.77874705589236E-04 
1742	-3.3613240610773E-04 
1743	-3.50387974646783E-04 
1744	 4.0811347512424E-04 
1745	 2.6282735805058E-04 
1746	 1.09952929573062E-03 
1747	 1.33430028787348E-03 
1748	 1.11311887173738E-03 
1749	 1.00779531801327E-03 
1750	 6.02678969128771E-04 
1751	 3.96152135219462E-04 
1752	 1.30370512962288E-04 
1753	 1.77621542685893E-04 
1754	 6.90813295417002E-04 
1755	 7.59488747072052E-04 
1756	 7.18897387514642E-04 
1757	 9.29559363343135E-04 
1758	 6.08166938782908E-04 
1759	 3.02162826019465E-04 
1760	 3.41537360288541E-04 
1761	 4.20575587537738E-04 
1762	 6.43771663166252E-04 
1763	 6.38336892819418E-04 
1764	-1.69672846428584E-04 
1765	-6.35844657656351E-04 
1766	-5.46152140597352E-04 
1767	-2.3688791934813E-04 
1768	 1.20792474498771E-03 
1769	 1.83075605294886E-03 
1770	 8.64418040104304E-04 
1771	 6.15760624391731E-04 
1772	 4.43901376766426E-04 
1773	-4.69166844366489E-06 
1774	 5.58059498754624E-04 
1775	 5.49395212652075E-04 
1776	 5.7822200732475E-04 
1777	 1.13254163405204E-03 
1778	 9.51499312644803E-04 
1779	-1.69754524055849E-04 
1780	-3.867270618675E-05 
1781	 4.2626273227411E-04 
1782	 1.78465752943176E-04 
1783	 1.11012787788604E-03 
1784	 9.3030268839565E-04 
1785	-1.44898723282918E-03 
1786	-1.92201257616337E-03 
1787	-1.45155753762493E-03 
1788	-1.42861472564679E-03 
1789	-8.90139531168594E-04 
1790	-9.71366849867972E-04 
1791	-6.93508981100024E-04 
1792	-1.60606589663134E-04 
1793	 7.72936573441135E-04 
1794	 1.94937955591005E-03 
1795	 2.3207939308062E-03 
1796	 3.34462175506436E-04 
1797	-7.33947038936426E-04 
1798	-2.02240745097502E-03 
1799	-4.96207704718107E-03 
1800	-6.2385110631864E-03 
1801	-5.8712407173875E-03 
1802	-3.75097711606961E-04 
1803	 6.08480762012322E-04 
1804	-7.76928514698382E-05 
1805	 6.5175635000527E-04 
1806	-5.52701343632681E-03 
1807	-7.20163832736669E-03 
1808	-5.61980715601622E-04 
1809	 9.4380549763057E-04 
1810	-1.77235101038656E-04 
1811	-1.02216244548527E-03 
1812	-5.14524551736593E-03 
1813	-3.58151414649815E-03 
1814	 2.39969708471678E-03 
1815	 5.86674769529813E-03 
1816	 1.98321608314916E-02 
1817	-9.29340605897525E-04 
1818	-3.77817316499524E-02 
1819	-6.65730692222635E-02 
1820	-6.90622468675723E-02 
1821	 1.51440439110327E-02 
1822	 5.24599964345933E-02 
1823	 4.33585225318261E-02 
1824	 4.06014082772943E-02 
1825	-4.01781849067089E-02 
1826	-9.27585777935416E-02 
1827	-0.139655651211438 
1828	-0.16830003115891 
1829	-0.141358839380375 
1830	-0.142093794675012 
1831	-8.05755813819829E-02 
1832	-0.117358134937653 
1833	-0.116620268166403 
1834	-0.217846330822129 
1835	-1.09927766935509 
1836	-1.8779949769675 
1837	-0.999091903029348 
1838	-1.1387116556378 
1839	-0.79291457818526 
1840	-0.917546613963831 
1841	-1.38245418657768 
1842	-3.20508006073742 
1843	-5.18841081090289 
1844	-3.35941086108909 
1845	-2.91775810556244 
1846	-2.69530712404024 
1847	-15.315202919715 
1848	 1.24067131065165 
1849	-3.65712985890374E-02 
1850	 0.560021871349393 
1851	-0.321254781362035 
1852	-0.44936374655227 
1853	-0.19453910694374 
1854	-0.256744726631878 
1855	-1.6081043760028 
1856	-2.79471470404906 
1857	-0.811588349072622 
1858	-0.768496112301841 
1859	-0.770097033247938 
1860	 1.55248157585073 
1861	-0.346245644734288 
1862	-0.411764604156597 
1863	 7.11539978614238E-02 
1864	 0.156475613197502 
1865	 0.329978446538672 
1866	 15.5158074625528 
1867	-1.28456347068723 
1868	 0.292559767123772 
1869	 0.424704558627958 
1870	 0.933574131771794 
1871	 2.8667731193539 
1872	-7.58476302132655E-02 
1873	 0.517283389649077 
1874	 0.538371586365217 
1875	 2.42041658889963 
1876	-4.06188266696372 
1877	-2.76208233238377E-02 
1878	 0.066598356032289 
1879	-0.211340857245214 
1880	-0.272939647231142 
1881	-0.650555700950992 
1882	-0.312799696149642 
1883	-0.216729054592026 
1884	-8.72908799457043E-02 
1885	 9.46138290772465E-02 
1886	-3.11096318007156E-02 
1887	 8.85113458886228E-02 
1888	-1.26535139913615E-02 
1889	 4.22802808337879E-02 
1890	 0.198052603527284 
1891	 0.109419010620368 
1892	-0.200804243495136 
1893	-0.134473954358133 
1894	-5.02686958542784E-02 
1895	-0.259686282856624 
1896	-0.25678018723962 
1897	-0.393283059266363 
1898	-0.842192738611227 
1899	-2.27266918735735 
1900	-15.2084573634308 
1901	-1.86067909486038 
1902	-0.99559214842691 
1903	-0.507925464544426 
1904	-1.45929682266816 
1905	-0.873301272201025 
1906	-0.192987804671764 
1907	-1.43553926580011 
1908	-0.418018629345762 
1909	 0.369461014025285 
1910	 0.31346877854225 
1911	 0.372113975791945 
1912	 4.30426566248436 
1913	 3.9346593333115 
1914	 0.733635407186864 
1915	 0.300097564383568 
1916	 8.68827824146735E-02 
1917	-0.023860021407869 
1918	-6.04177746517028E-02 
1919	-8.66462128888205E-02 
1920	-5.88915911280345E-02 
1921	 2.13233488491959E-02 
1922	 7.70741170584892E-03 
1923	-1.93747196664295E-02 
1924	 1.75452219689772E-02 
1925	 1.63001331021705E-02 
1926	 1.84773828203958E-02 
1927	 2.38621359001991E-02 
1928	 6.91286550809417E-02 
1929	 7.82729479894328E-02 
1930	 6.29816665666155E-02 
1931	 4.53389829466153E-02 
1932	 2.80480560427912E-02 
1933	 3.0593830836136E-03 
1934	-1.45783448842837E-02 
1935	-5.01742989725587E-03 
1936	 6.68136493400401E-05 
1937	-1.27655601774174E-02 
1938	-1.21940483954685E-02 
1939	-1.01345372007915E-02 
1940	-8.88051363312578E-03 
1941	-1.03219570385814E-02 
1942	-6.07819256010854E-03 
1943	-9.3024363111288E-03 
1944	-5.84162917604664E-03 
1945	-4.46532225439379E-03 
1946	-7.88279853849041E-03 
1947	-1.98739453410657E-03 
1948	-2.83554565344691E-03 
1949	-4.80777414938297E-03 
1950	-1.58082736342247E-03 
1951	 3.79104466778695E-03 
1952	 4.38742237167959E-03 
1953	 2.71060669650365E-03 
1954	-3.30444744256071E-03 
1955	-4.47735018095337E-03 
1956	-5.61036979353117E-03 
1957	-5.50527316852217E-03 
1958	 1.99046631902395E-05 
1959	 2.43527079910206E-03 
1960	-2.50425522746308E-03 
1961	-6.73163592504913E-03 
1962	-8.52951182342271E-03 
1963	-9.99556418143906E-03 
1964	-8.85440685435384E-03 
1965	-6.48497169297327E-03 
1966	-4.97602171216041E-03 
1967	-3.63782500395984E-03 
1968	-2.72314997109198E-03 
1969	-1.70881097350646E-03 
1970	-1.24744849301591E-03 
1971	-1.66930504399778E-03 
1972	-1.40063338947294E-03 
1973	-7.13811313306276E-04 
1974	-4.79727342827349E-04 
1975	 1.21308592657438E-04 
1976	 1.13833105450143E-03 
1977	 1.01358426090652E-03 
1978	 7.95618448126974E-04 
1979	 6.28138687792625E-04 
1980	 5.14127309281014E-04 
1981	-6.15884315961268E-04 
1982	-7.26581791068176E-04 
1983	-4.66381764131438E-04 
1984	-1.22605478796183E-03 
1985	-8.79444721437481E-04 
1986	-3.81619257322407E-04 
1987	-8.93778436874373E-04 
1988	-4.82189576950054E-04 
1989	-8.94427758260082E-05 
1990	 2.5646134411245E-04 
1991	 1.19172401548529E-03 
1992	 1.00161797485147E-03 
1993	 6.25700019901698E-05 
1994	-4.74131629992811E-04 
1995	-1.79254947632361E-03 
1996	-2.93576586764735E-03 
1997	-2.61345013716824E-03 
1998	-1.24887806868431E-03 
1999	-1.25323339907193E-03 
2000	-2.33463422573665E-03 
2001	-2.49060863132362E-03 
2002	-2.4716435821369E-03 
2003	-6.55422317361419E-04 
2004	 1.01975476731861E-03 
2005	 1.94305282947541E-03 
2006	 1.23497338950285E-03 
2007	-7.45651053698126E-04 
2008	-3.93107387304017E-04 
2009	-1.18031304561451E-03 
2010	-3.74538608940291E-03 
2011	-3.42263294560647E-03 
2012	-1.58191594906451E-03 
2013	-9.44048949383067E-04 
2014	 8.70939982564909E-04 
2015	 1.31340705670894E-03 
2016	 6.25537938293987E-04 
2017	 1.34556666786098E-03 
2018	 1.23453098528402E-03 
2019	-3.92745812593742E-04 
2020	-1.75005534354963E-03 
2021	-2.96477911253556E-03 
2022	-2.68245553393578E-03 
2023	-9.24119439537477E-04 
2024	-5.31720439851701E-04 
2025	-1.00584738725998E-04 
2026	-8.17937045251551E-05 
2027	-9.36854218511844E-04 
2028	-1.19939988967563E-03 
2029	-8.75981964443719E-04 
2030	-9.95818939459815E-04 
2031	-5.94342423394544E-04 
2032	-1.01254227412327E-03 
2033	-2.7330750788164E-03 
2034	-2.50064266417803E-03 
2035	-1.51734278973102E-03 
2036	-1.58432496905857E-03 
2037	-7.95119050757978E-04 
2038	-2.24605865948431E-04 
2039	-1.99017304855938E-04 
2040	-1.31394136941773E-03 
2041	-1.6119320053437E-03 
2042	-1.91882339197008E-03 
2043	-1.95613277482932E-03 
2044	-1.73188118949143E-03 
2045	-1.64456352539493E-03 
2046	-1.52137881635792E-03 
2047	-9.76352805181493E-04 
2048	-9.46614145430624E-04 
2049	-1.08521816920891E-03 
2050	-1.00360978220246E-03 
2051	-8.87529249747122E-04 
2052	-1.11903197796033E-03 
2053	-1.11924311959245E-03 
2054	-1.33173651071603E-03 
2055	-1.72668457962304E-03 
2056	-1.88169139600964E-03 
2057	-2.31051626044807E-03 
2058	-2.24008890952416E-03 
2059	-1.57514522001163E-03 
2060	-9.71149866738519E-04 
2061	 9.31943615269771E-05 
2062	 3.78431077667328E-04 
2063	 7.0412912807869E-04 
2064	 9.41009811409993E-04 
2065	-5.35311616127845E-04 
2066	-1.53317169666997E-03 
2067	-8.11153365364287E-04 
2068	-6.7093373077626E-04 
2069	-1.08050144201927E-03 
2070	-7.27918079864992E-04 
2071	-1.11537728363286E-03 
2072	-1.34327183600835E-03 
2073	-1.32479454758608E-03 
2074	-8.07748091272346E-04 
2075	-1.20177946092565E-04 
2076	 9.39118664494392E-04 
2077	 8.10923427692381E-04 
2078	 5.95524725875451E-04 
2079	 8.36904022224835E-04 
2080	 3.91373678325322E-04 
2081	 3.5968866442857E-04 
2082	 1.07553011363203E-03 
2083	 1.21733077672373E-03 
2084	 9.19510361465616E-04 
2085	 3.55865256416031E-04 
2086	-6.86514531674311E-05 
2087	 2.443497598447E-04 
2088	 6.44700998435168E-04 
2089	 1.00262767142887E-03 
2090	 1.39745955216137E-03 
2091	 8.28087313610981E-04 
2092	 6.25672106734711E-04 
2093	 3.82062107687481E-04 
2094	-1.38862828615936E-04 
2095	-1.02343251494821E-03 
2096	-1.00564845940843E-03 
2097	-7.46000619569932E-04 
2098	-6.65052450564885E-04 
2099	-1.00700538591544E-04 
2100	 3.30372681921954E-04 
2101	 8.94205691086196E-04 
2102	 3.42921073874201E-04 
2103	-3.83808944726666E-04 
2104	-2.11962718628603E-04 
2105	-6.42101492027545E-04 
2106	-8.53158549438019E-04 
2107	 2.53605644189035E-04 
2108	 9.21565133415758E-04 
2109	 4.46640318338731E-04 
2110	 2.4854122877401E-04 
2111	-2.15666332717238E-04 
2112	-1.57409979408518E-03 
2113	-1.7635950211819E-03 
2114	-8.41836560853969E-04 
2115	-5.09537636985628E-04 
2116	 3.45531964818538E-04 
2117	 5.90840715191624E-04 
2118	-1.47419993004515E-04 
2119	-3.75764176063398E-04 
2120	-7.67992948497893E-04 
2121	-4.20896715696168E-04 
2122	-3.81213435915394E-04 
2123	 6.16789229899131E-05 
2124	 3.72569387106481E-04 
2125	 6.37613567223454E-04 
2126	 5.12750012399728E-04 
2127	 8.70191774574181E-05 
2128	 6.03351701277161E-04 
2129	 1.09144094063162E-04 
2130	 1.34137011118316E-04 
2131	 1.11169516727946E-03 
2132	 4.53772244689506E-04 
2133	 7.87873552109353E-04 
2134	 1.11341538559226E-03 
2135	 1.43420859617995E-03 
2136	 1.58921123048433E-03 
2137	 2.41053935026974E-03 
2138	 2.30403120873228E-03 
2139	 1.06507916174147E-03 
2140	 9.86182612911729E-04 
2141	 1.30186063691163E-03 
2142	 9.10449696292043E-04 
2143	 3.98685999236719E-04 
2144	 8.42740063634878E-04 
2145	-1.70441701894065E-04 
2146	-1.00843020010476E-03 
2147	-4.7211246199169E-05 
2148	 4.68386057869857E-04 
2149	 1.98982338180999E-04 
2150	 4.67764193130866E-04 
2151	-5.44321624483494E-05 
2152	-6.47427131235634E-04 
2153	-1.21463739636924E-04 
2154	 1.00749353802137E-03 
2155	 5.1178145466396E-04 
2156	-9.04034275457034E-04 
2157	-1.15525427547487E-03 
2158	-1.48502615013397E-03 
2159	-1.85485540948299E-03 
2160	-1.28759152239936E-03 
2161	-1.16618955572355E-03 
2162	-2.20351222124298E-03 
2163	-2.15967878059487E-03 
2164	-3.29341996358213E-04 
2165	-1.20321775658152E-04 
2166	-9.93099127879003E-04 
2167	-9.70843787635056E-04 
2168	-1.25552379312535E-03 
2169	-1.88319515331075E-03 
2170	-2.52050826432428E-03 
2171	-1.94793516147687E-03 
2172	-2.15724433415587E-03 
2173	-2.60698402495552E-03 
2174	-1.78177587831582E-03 
2175	-4.98265814352493E-04 
2176	 1.17444832568139E-04 
2177	-8.05284289732068E-05 
2178	-1.5904750801452E-04 
2179	-1.87428498630222E-04 
2180	-1.27054829428048E-03 
2181	-1.37556222620138E-03 
2182	-2.48421926423879E-04 
2183	 7.14920799031706E-04 
2184	 1.32777444439725E-03 
2185	 1.48617126810786E-03 
2186	 1.85284645325718E-03 
2187	 1.0280122614832E-03 
2188	 1.08972471349478E-03 
2189	 2.69065611210426E-03 
2190	 2.6508740198438E-03 
2191	 1.47436446698617E-03 
2192	 8.63514812636413E-04 
2193	-3.49900081890158E-04 
2194	-9.03126262346737E-04 
2195	-4.57352365176607E-04 
2196	-6.65662324489779E-04 
2197	-1.36622906755235E-03 
2198	-1.91285584168195E-03 
2199	-2.86917098726816E-03 
2200	-3.29282779324301E-03 
2201	-2.49174935208425E-03 
2202	-1.26883655485198E-03 
2203	 1.16715200410859E-04 
2204	-1.51525482976377E-04 
2205	-1.46637202837315E-03 
2206	-2.84087592877536E-03 
2207	-2.62781510669593E-03 
2208	-1.04199624317883E-03 
2209	-1.04165163712153E-03 
2210	-1.08153897461252E-04 
2211	-3.83059925287917E-04 
2212	-3.43381549918709E-03 
2213	-2.86464035113177E-03 
2214	-1.26939969715105E-03 
2215	-2.03099748781569E-03 
2216	-9.30400195990938E-04 
2217	-6.72444493854721E-04 
2218	-2.56564905955043E-03 
2219	-2.71784439287012E-03 
2220	-1.62894646848797E-03 
2221	-7.06863517928912E-04 
2222	 1.23748128058735E-03 
2223	 1.77975021329863E-03 
2224	 1.52577545171684E-03 
2225	 1.86235880113701E-03 
2226	 2.10703812424977E-03 
2227	 1.3855488690747E-03 
2228	 4.04684244928141E-04 
2229	 2.95754396751997E-04 
2230	 2.14106482798851E-04 
2231	-8.90653711664013E-04 
2232	-2.80295272751322E-03 
2233	-3.36003178249798E-03 
2234	-4.17473826590969E-03 
2235	-5.29920896621387E-03 
2236	-3.45517521273127E-03 
2237	 1.46251135218929E-04 
2238	 4.73945875502678E-04 
2239	-6.28926598255007E-04 
2240	-2.31354823531838E-03 
2241	-2.27505872848073E-03 
2242	-5.85852974867753E-04 
2243	-6.59024068951155E-04 
2244	 1.59659570215456E-04 
2245	 2.67113972183145E-04 
2246	 1.41441477239549E-04 
2247	 1.71044670291636E-03 
2248	 9.40990384681138E-04 
2249	 4.60508640212085E-04 
2250	-1.30059066122544E-04 
2251	-4.74879869829516E-04 
2252	 2.70137558450887E-03 
2253	 2.57722681901355E-03 
2254	 3.70122658673636E-05 
2255	-1.96917516459334E-03 
2256	-3.26634799283131E-03 
2257	-2.27001138392421E-03 
2258	-3.02490033971246E-03 
2259	-3.43007827947261E-03 
2260	-2.78045395169564E-03 
2261	-3.96965625371735E-03 
2262	-3.39070819463035E-03 
2263	 1.6384993109697E-03 
2264	 3.45742939348952E-03 
2265	 2.81059488915379E-03 
2266	 2.66385318323466E-03 
2267	 2.3086964417349E-03 
2268	 1.14022709826697E-03 
2269	-7.28654588105343E-04 
2270	-1.51650931268013E-03 
2271	-3.2684914273045E-03 
2272	-3.80166960712627E-03 
2273	-1.93388130944272E-03 
2274	-1.63825333397124E-03 
2275	-1.3549261777266E-03 
2276	-0.001187099116738 
2277	-2.22438033293004E-03 
2278	-3.72481996541907E-03 
2279	-7.65838347741926E-03 
2280	-7.53945740598365E-03 
2281	-5.99010101433275E-03 
2282	-2.10175174912561E-03 
2283	 1.66430572589499E-03 
2284	 4.04643646403152E-03 
2285	 2.33598097975972E-03 
2286	-1.68839345846971E-03 
2287	-3.8835464017559E-03 
2288	-1.75288388681633E-03 
2289	-2.9635848894482E-04 
2290	-7.61227613640564E-04 
2291	 1.04409658342626E-03 
2292	 1.12705888249391E-03 
2293	 2.45537162075584E-03 
2294	 5.15692676648263E-03 
2295	 3.6868260942362E-03 
2296	 3.42180315239169E-03 
2297	 2.59372730638779E-03 
2298	 7.60234655904915E-04 
2299	 1.31677678897598E-03 
2300	 1.38841819647956E-03 
2301	 6.66397204642209E-04 
2302	 3.33911078716459E-04 
2303	 6.35120608638329E-04 
2304	 6.18671377838175E-04 
2305	 3.35220685965826E-03 
2306	 7.13389076900972E-03 
2307	 6.35793434125816E-03 
2308	 3.70250508214139E-03 
2309	 7.80164694036493E-04 
2310	-2.20188467718817E-03 
2311	-1.9921129975687E-03 
2312	-1.77920559210173E-03 
2313	-2.66504290509896E-03 
2314	-8.59534199759403E-04 
2315	 1.23487635075359E-03 
2316	 5.7850374723575E-03 
2317	 7.55658737478622E-03 
2318	 2.75643597363845E-03 
2319	 8.13391405217853E-04 
2320	-2.29975209941138E-03 
2321	-8.0261363992023E-03 
2322	-8.5189267001096E-03 
2323	-9.25291479782795E-03 
2324	-1.31576471555928E-02 
2325	-1.18930836633012E-02 
2326	-8.13446051817889E-03 
2327	-5.63228847158905E-03 
2328	-3.71434200476788E-03 
2329	-2.90719593578162E-03 
2330	-1.46688631003324E-03 
2331	-3.43959218237177E-03 
2332	-4.68594234045769E-03 
2333	 1.47848728894989E-03 
2334	 1.11428619218464E-03 
2335	-3.08957362926086E-03 
2336	-1.38292844462853E-03 
2337	-5.54618556276077E-03 
2338	-4.84663441349502E-03 
2339	 3.22757691062436E-03 
2340	 1.96290994298096E-03 
2341	-1.9828295829821E-03 
2342	-5.75112546611583E-03 
2343	-1.17590091976887E-02 
2344	-1.38461387177531E-02 
2345	-1.21583794344105E-02 
2346	-9.54646842659364E-03 
2347	-5.99804017871071E-03 
2348	-3.61918191186598E-03 
2349	-8.49481381892421E-03 
2350	-1.75389655796395E-02 
2351	-1.93539904002613E-02 
2352	-1.98315552350599E-02 
2353	-1.95703910540967E-02 
2354	-1.41052587066413E-02 
2355	-1.52067130081991E-02 
2356	-1.82671102411596E-02 
2357	-1.42267903731045E-02 
2358	-1.18757180317921E-02 
2359	-1.18078267824637E-02 
2360	-8.20664356036831E-03 
2361	-1.36997397098006E-03 
2362	 6.07903847024815E-03 
2363	 1.06074832934653E-02 
2364	 9.57843189975386E-03 
2365	 2.13781437936577E-03 
2366	-3.34709956363279E-03 
2367	-3.78115944347561E-03 
2368	-1.03745462536426E-03 
2369	 6.26923473674088E-03 
2370	 1.26231314307789E-02 
2371	 1.47218503275643E-02 
2372	 0.014162790948472 
2373	 1.65934030903605E-02 
2374	 0.022276891202881 
2375	 1.81409330186456E-02 
2376	 7.90317505351605E-03 
2377	 6.11119758855214E-03 
2378	 7.5213473371489E-04 
2379	 3.6419061958878E-03 
2380	 2.17801408533186E-02 
2381	 2.12425469620188E-02 
2382	 1.12252000345934E-02 
2383	 4.85642808648571E-03 
2384	-4.40479545398238E-03 
2385	-7.41722742929474E-03 
2386	-1.36105743199043E-03 
2387	-2.74910161878478E-03 
2388	-1.50673693145554E-02 
2389	-1.42478711792712E-02 
2390	-1.07742667794895E-02 
2391	-6.51119681837939E-03 
2392	 9.66872839432735E-03 
2393	 5.52556326833815E-03 
2394	-3.17921526794763E-04 
2395	 9.3643641466612E-03 
2396	 7.20771413633051E-03 
2397	 0.004149292853472 
2398	 5.73565494761549E-03 
2399	-7.32755116642278E-03 
2400	-2.45347760073754E-02 
2401	-4.23843774265898E-02 
2402	-5.90729354549234E-02 
2403	-3.72764191569983E-02 
2404	-1.49706359546036E-02 
2405	-2.90570121876669E-03 
2406	 3.31918919286466E-02 
2407	 3.48172143125335E-02 
2408	 8.95440978182893E-03 
2409	-5.63189062158175E-03 
2410	-0.02075891416139 
2411	-4.87389292395239E-02 
2412	-7.84838927618793E-02 
2413	-7.11394677048043E-02 
2414	-5.42332551493691E-02 
2415	-4.16121976290673E-02 
2416	-7.8143156505513E-03 
2417	 4.36381518139951E-02 
2418	 5.70540835254615E-02 
2419	 3.51744854679368E-02 
2420	 2.62775893410077E-02 
2421	-2.41267068242609E-02 
2422	-6.00204207461722E-02 
2423	-5.61680655642111E-02 
2424	-6.88435939458367E-02 
2425	-7.46065901525723E-02 
2426	-5.43372683249298E-02 
2427	-3.59510886581253E-02 
2428	-0.020314613862114 
2429	 7.90134244319436E-03 
2430	 6.79781391706618E-03 
2431	-4.57643316920307E-02 
2432	-8.76481713203658E-02 
2433	-0.106065306813861 
2434	-0.121236258748748 
2435	-0.103223866291176 
2436	-0.11145085331957 
2437	-0.121199775643847 
2438	-0.088752542887079 
2439	-6.57584226879382E-02 
2440	-4.79842252567065E-02 
2441	-5.91634993156706E-02 
2442	-7.64155108542521E-02 
2443	-6.59845007853431E-02 
2444	-6.78108010112423E-02 
2445	-6.16518824977288E-02 
2446	-8.95288017731635E-02 
2447	-0.170832839898865 
2448	-0.153392206368824 
2449	-7.95659983404457E-02 
2450	-3.33016620596759E-03 
2451	 0.160914819161301 
2452	 7.46199188872739E-02 
2453	 8.82685938072431E-02 
2454	 1.47781597150277E-02 
2455	-0.165064595812097 
2456	-0.11336162413327 
2457	 4.25558177457011E-02 
2458	 5.53266781177563E-02 
2459	 0.109105500526747 
2460	 0.142235333300865 
2461	 6.07656992043914E-02 
2462	-2.09794666370646E-02 
2463	 3.64464146056535E-03 
2464	 8.35521661557291E-03 
2465	-0.071463438662102 
2466	-3.19340952070496E-02 
2467	 1.34563654686158E-02 
2468	 7.61488354559329E-02 
2469	 6.66127612765673E-02 
2470	-0.208393311695728 
2471	-0.4779697651707 
2472	-0.499521271809827 
2473	-0.380987154266902 
2474	-0.271490667178869 
2475	-0.254111033541918 
2476	 7.33433259309656E-02 
2477	 0.328721390803808 
2478	 0.260419176103816 
2479	 0.375985130075699 
2480	 0.245011438517444 
2481	-3.63768271600012E-03 
2482	-0.541392134770537 
2483	-1.38638013191682 
2484	 0.523029231596464 
2485	 1.67791712398366 
2486	 2.80617299107401 
2487	 3.57394380592095 
2488	 0.867340201236625 
2489	-2.29260658163022 
2490	 7.12710738283939 
2491	 37.2622396228772 
2492	 3.18691429760785 
2493	-2.45525704481185 
2494	-1.32607845457796 
2495	-5.20916513541534 
2496	 80.0910787216577 
2497	 12.99231351777 
2498	-5.98638630293127 
2499	-1.82382997829255 
2500	-1.29502627697226 
