Wavelength	rt0624close00007.asd
350	 2.05791021366752E-02 
351	 2.05738760505055E-02 
352	 2.13467550256536E-02 
353	 2.14583945008502E-02 
354	 2.04888186135206E-02 
355	 2.07093126090254E-02 
356	 0.021517577690211 
357	 2.19515781725793E-02 
358	 2.14626615488395E-02 
359	 2.17860629632252E-02 
360	 2.17883894977065E-02 
361	 0.021615165084495 
362	 2.21800430524147E-02 
363	 2.23626217814484E-02 
364	 2.22541765880782E-02 
365	 2.22147954873141E-02 
366	 2.27752372319865E-02 
367	 2.29200140053203E-02 
368	 2.27499641039397E-02 
369	 2.26793646891391E-02 
370	 2.30927868307468E-02 
371	 2.32321140901743E-02 
372	 2.33557586294522E-02 
373	 2.41276135772023E-02 
374	 2.41630556543235E-02 
375	 2.40970241681645E-02 
376	 2.42104129201243E-02 
377	 2.40220632751771E-02 
378	 2.46218999960659E-02 
379	 2.50126189321036E-02 
380	 2.45727119527689E-02 
381	 2.54602424317552E-02 
382	 0.025560534692076 
383	 2.52961309250724E-02 
384	 2.60763095161867E-02 
385	 2.69378548011705E-02 
386	 2.71233021184363E-02 
387	 2.68256304603331E-02 
388	 0.02719208973045 
389	 2.72419288257335E-02 
390	 2.73470042668155E-02 
391	 2.78292977850286E-02 
392	 0.028317831225257 
393	 2.85131221200078E-02 
394	 0.028535673744805 
395	 2.86923933986832E-02 
396	 2.93106523310876E-02 
397	 2.94879566422643E-02 
398	 2.93985011869944E-02 
399	 3.00788866419657E-02 
400	 3.01224014230186E-02 
401	 3.01908255202744E-02 
402	 3.07128954957809E-02 
403	 3.09169440046334E-02 
404	 3.09570847904575E-02 
405	 3.10250416634345E-02 
406	 3.12866147075269E-02 
407	 3.15857827750193E-02 
408	 3.18856311059811E-02 
409	 3.21475176118187E-02 
410	 3.23314834308081E-02 
411	 0.032504506498786 
412	 3.27549120821844E-02 
413	 3.31018578431599E-02 
414	 3.34180970616847E-02 
415	 3.36463457667117E-02 
416	 3.38000916632339E-02 
417	 3.39369202812222E-02 
418	 3.41114692579112E-02 
419	 3.44529598290303E-02 
420	 3.49523821010361E-02 
421	 3.54501598257303E-02 
422	 3.56387924439835E-02 
423	 3.57917784895308E-02 
424	 3.61469127146556E-02 
425	 3.64668152272135E-02 
426	 3.69862701151281E-02 
427	 3.74746331561597E-02 
428	 3.75971607041239E-02 
429	 3.79853280187247E-02 
430	 3.83870799264971E-02 
431	 3.87238484005451E-02 
432	 3.92153216095239E-02 
433	 3.94969494656959E-02 
434	 3.98322810882479E-02 
435	 4.04125056983721E-02 
436	 4.08101743170286E-02 
437	 4.11893062330885E-02 
438	 4.15779520272222E-02 
439	 4.19415293155493E-02 
440	 4.23902324209801E-02 
441	 0.042787775816703 
442	 4.31180433375303E-02 
443	 4.35804006127301E-02 
444	 4.39611897838215E-02 
445	 4.43023014930483E-02 
446	 4.46830011053551E-02 
447	 4.50505853182366E-02 
448	 4.53601345835629E-02 
449	 4.56659253474947E-02 
450	 4.60708235390311E-02 
451	 4.63038553109919E-02 
452	 4.64837437089578E-02 
453	 4.67187369521096E-02 
454	 4.69778460477049E-02 
455	 4.72129668689024E-02 
456	 4.74519824453107E-02 
457	 0.047722239801308 
458	 4.78843193814602E-02 
459	 4.80669322394464E-02 
460	 4.82867439772078E-02 
461	 4.84365160688038E-02 
462	 4.85332810209643E-02 
463	 4.86582832084591E-02 
464	 4.88755880578222E-02 
465	 4.91817613245664E-02 
466	 4.94368745322851E-02 
467	 4.95202567714527E-02 
468	 4.94280692440063E-02 
469	 4.98347032967379E-02 
470	 5.01837743164519E-02 
471	 5.02609343372661E-02 
472	 5.04567608156255E-02 
473	 5.06519364851555E-02 
474	 5.08524498607649E-02 
475	 5.10819557816486E-02 
476	 5.13401969611576E-02 
477	 5.15530564397957E-02 
478	 5.17782200110241E-02 
479	 5.21420184300409E-02 
480	 5.24572187966565E-02 
481	 5.27330222791452E-02 
482	 5.29969964425938E-02 
483	 0.053243335303695 
484	 5.36222567844245E-02 
485	 5.40687000966787E-02 
486	 5.44534637588884E-02 
487	 5.48110855283862E-02 
488	 5.51609902641555E-02 
489	 5.54840398921368E-02 
490	 5.57354650681123E-02 
491	 5.61447390781695E-02 
492	 5.66912133584552E-02 
493	 5.72770040708462E-02 
494	 5.77624682240349E-02 
495	 0.058188527010449 
496	 5.85939335682455E-02 
497	 0.05902283840154 
498	 0.059512469794085 
499	 6.00739881630543E-02 
500	 0.060668030706972 
501	 6.11871117078012E-02 
502	 6.17331579504711E-02 
503	 6.22857473828232E-02 
504	 6.28135358882104E-02 
505	 6.33799748585989E-02 
506	 6.39252443267181E-02 
507	 6.44979505299098E-02 
508	 6.52120713395735E-02 
509	 6.57803108636089E-02 
510	 6.63540056421575E-02 
511	 6.70289685414198E-02 
512	 0.06760403460059 
513	 6.81730453129061E-02 
514	 0.068810045762537 
515	 6.95439592800953E-02 
516	 7.01473725896549E-02 
517	 7.08386911246252E-02 
518	 7.16290746936789E-02 
519	 7.22357668924399E-02 
520	 7.29905075531583E-02 
521	 7.37160083359772E-02 
522	 7.42633280225539E-02 
523	 7.49624700411583E-02 
524	 7.57299399698807E-02 
525	 7.65134609634056E-02 
526	 7.72863922051853E-02 
527	 7.80151998586932E-02 
528	 0.078683495427375 
529	 7.93277578567717E-02 
530	 8.00833223972076E-02 
531	 8.08602026193418E-02 
532	 8.16466247122503E-02 
533	 8.24415601824838E-02 
534	 8.31588201845784E-02 
535	 0.083924402013303 
536	 8.47543305260821E-02 
537	 8.55237289556418E-02 
538	 8.64109895323514E-02 
539	 8.72936406267596E-02 
540	 8.80563648629277E-02 
541	 8.88434124719825E-02 
542	 8.96354225846458E-02 
543	 9.04572598621988E-02 
544	 9.13474857812751E-02 
545	 9.21580148124585E-02 
546	 9.29558027533443E-02 
547	 9.37898319666514E-02 
548	 9.46285163165568E-02 
549	 9.53779766288426E-02 
550	 9.61167473475911E-02 
551	 9.69517190409256E-02 
552	 0.097738075857343 
553	 9.85436810526018E-02 
554	 9.93557196750992E-02 
555	 0.100058118381034 
556	 0.100880592484652 
557	 0.101750345567466 
558	 0.102555004272855 
559	 0.103351151678353 
560	 0.10408492968896 
561	 0.104736767364492 
562	 0.105335615544349 
563	 0.10612044369373 
564	 0.106827435447031 
565	 0.107342998339859 
566	 0.10797126019549 
567	 0.108599984727353 
568	 0.109184507683064 
569	 0.109720888617762 
570	 0.110343270609291 
571	 0.110898906359068 
572	 0.111365179416722 
573	 0.111875822594396 
574	 0.112389362364331 
575	 0.112877792203702 
576	 0.113306310975339 
577	 0.113619584373446 
578	 0.113942251837967 
579	 0.114313706247069 
580	 0.114703724679559 
581	 0.11500296318064 
582	 0.115260744769882 
583	 0.115518359909536 
584	 0.115760705901233 
585	 0.116002053121608 
586	 0.116192138817334 
587	 0.116298335077259 
588	 0.116510743770937 
589	 0.116677596576941 
590	 0.116741582923353 
591	 0.116775823805578 
592	 0.116797100749609 
593	 0.116802619940965 
594	 0.116756759196501 
595	 0.116544377370548 
596	 0.116280574430272 
597	 0.116038034690473 
598	 0.115848304713121 
599	 0.115598319108366 
600	 0.115334423754062 
601	 0.115113228189576 
602	 0.114965501056916 
603	 0.114946611080728 
604	 0.114987570297187 
605	 0.115010522146597 
606	 0.115122411459974 
607	 0.115295115802467 
608	 0.115442660267106 
609	 0.115438635274018 
610	 0.115548691916625 
611	 0.115679205270278 
612	 0.11572046371789 
613	 0.115736974635397 
614	 0.115850787428105 
615	 0.115980374729392 
616	 0.115962053316294 
617	 0.116068258258224 
618	 0.116160167228388 
619	 0.116174449489568 
620	 0.116238289842586 
621	 0.116283844954074 
622	 0.116313064927144 
623	 0.116353940689619 
624	 0.116457832401827 
625	 0.116525386488384 
626	 0.116532728443158 
627	 0.116536563680431 
628	 0.116638790909692 
629	 0.116686945665706 
630	 0.116623667186865 
631	 0.116780473598337 
632	 0.116901205355618 
633	 0.116924150815876 
634	 0.116897294391862 
635	 0.116946047059135 
636	 0.116964756630469 
637	 0.116900241268607 
638	 0.116802986375475 
639	 0.116762730388407 
640	 0.116759318147452 
641	 0.116743658299747 
642	 0.116721959815126 
643	 0.11663234893082 
644	 0.116493271507546 
645	 0.116389609143688 
646	 0.116345840980655 
647	 0.116271703646113 
648	 0.116141409751738 
649	 0.116141733778078 
650	 0.116047424745386 
651	 0.115872426928144 
652	 0.115707007786016 
653	 0.11544788150603 
654	 0.115212238876978 
655	 0.115033897302757 
656	 0.114832714503134 
657	 0.114559530426328 
658	 0.114300985566925 
659	 0.114118682396463 
660	 0.113950101291563 
661	 0.113722563426791 
662	 0.113483814431162 
663	 0.113358471641148 
664	 0.113360673091299 
665	 0.113329726636404 
666	 0.113198940974756 
667	 0.113103469140469 
668	 0.113072621093609 
669	 0.113030767172066 
670	 0.11289519336123 
671	 0.112733219366361 
672	 0.112760191979846 
673	 0.112905357068855 
674	 0.112848758666136 
675	 0.112864985287933 
676	 0.112980707511139 
677	 0.113145748372486 
678	 0.113232421895862 
679	 0.113372885313147 
680	 0.113598165949522 
681	 0.113889552354379 
682	 0.114229433287512 
683	 0.114652056694031 
684	 0.11507826368128 
685	 0.1152964657543 
686	 0.115725616068666 
687	 0.116299459394595 
688	 0.11674972880029 
689	 0.116902134423646 
690	 0.117122091962209 
691	 0.117348462626238 
692	 0.117325793272368 
693	 0.117528265016167 
694	 0.117661067877209 
695	 0.117518468082372 
696	 0.117183381969167 
697	 0.117070154003603 
698	 0.116931810559786 
699	 0.116464672102587 
700	 0.116177437004173 
701	 0.115844882096404 
702	 0.115406551060976 
703	 0.114950094183123 
704	 0.114430499471302 
705	 0.113785745982346 
706	 0.113018221100908 
707	 0.112247821067728 
708	 0.111432303341745 
709	 0.110522814345695 
710	 0.10949359896458 
711	 0.10853464087738 
712	 0.107324097539813 
713	 0.105882057229694 
714	 0.104572743257079 
715	 0.103181853751139 
716	 0.101725940633147 
717	 0.100236544704663 
718	 9.84223983766832E-02 
719	 9.67175783432068E-02 
720	 9.52253079058116E-02 
721	 9.36660275316032E-02 
722	 9.20083930948755E-02 
723	 9.01337521158548E-02 
724	 8.81952293004508E-02 
725	 8.63436207971946E-02 
726	 8.42512776653112E-02 
727	 8.19360627059736E-02 
728	 7.94858207946103E-02 
729	 7.68036332838093E-02 
730	 7.40611764110361E-02 
731	 0.071399032484947 
732	 6.89029038975469E-02 
733	 6.68025514510796E-02 
734	 6.49938018245474E-02 
735	 6.34150325038735E-02 
736	 6.20731542398431E-02 
737	 0.06117374886732 
738	 6.04934547348728E-02 
739	 5.98452743227147E-02 
740	 5.94838340634692E-02 
741	 5.91540279661822E-02 
742	 0.058906097448441 
743	 5.89034173129092E-02 
744	 5.88428740578196E-02 
745	 5.86716495407073E-02 
746	 5.84811572031886E-02 
747	 5.85117237084235E-02 
748	 5.84014002103533E-02 
749	 5.82999935188743E-02 
750	 5.83648633457614E-02 
751	 5.83308643454353E-02 
752	 5.82921063642206E-02 
753	 5.83112050021875E-02 
754	 5.84074500230752E-02 
755	 5.84131741064252E-02 
756	 5.83832764577655E-02 
757	 5.83101435211475E-02 
758	 5.79908503619142E-02 
759	 5.77556998096387E-02 
760	 5.77791773034421E-02 
761	 5.79847692715741E-02 
762	 5.84071868339109E-02 
763	 5.85046828091196E-02 
764	 5.85211712411244E-02 
765	 5.88229026102082E-02 
766	 5.91361767491419E-02 
767	 5.92628162913978E-02 
768	 5.92947609019535E-02 
769	 5.95726110534224E-02 
770	 5.98181165225428E-02 
771	 6.00434822399196E-02 
772	 6.02916575014945E-02 
773	 6.05243583777804E-02 
774	 6.07897434020649E-02 
775	 6.11233577154699E-02 
776	 6.15310801915269E-02 
777	 6.18855983085035E-02 
778	 6.21947753867222E-02 
779	 0.062502206602595 
780	 6.28755550580541E-02 
781	 6.32929488324526E-02 
782	 6.37856044906275E-02 
783	 6.43343586453193E-02 
784	 6.47992007270445E-02 
785	 6.51994634688672E-02 
786	 6.56523857133948E-02 
787	 6.62555744099413E-02 
788	 6.68170540482526E-02 
789	 6.74189980269219E-02 
790	 6.80146933578402E-02 
791	 6.84612655720137E-02 
792	 6.87611189239535E-02 
793	 6.92782495764044E-02 
794	 7.00237975515594E-02 
795	 7.03659710646382E-02 
796	 7.08451117421805E-02 
797	 7.14646917067121E-02 
798	 7.20722143872806E-02 
799	 7.24929313536458E-02 
800	 7.28297838608204E-02 
801	 7.31234011248276E-02 
802	 7.33911959086657E-02 
803	 7.37289285097886E-02 
804	 7.39569365434156E-02 
805	 0.074093606069592 
806	 7.43845797934983E-02 
807	 7.44269731615089E-02 
808	 7.42644689939201E-02 
809	 7.40501342133506E-02 
810	 7.39657814092212E-02 
811	 7.38510397228522E-02 
812	 7.36582808521512E-02 
813	 0.07337390411679 
814	 7.29345861232733E-02 
815	 7.25690347210536E-02 
816	 7.21631011040905E-02 
817	 7.13911206235293E-02 
818	 7.07034658148509E-02 
819	 0.069816649379179 
820	 6.86712965066267E-02 
821	 6.76287079310941E-02 
822	 6.62500224807968E-02 
823	 6.45904779525791E-02 
824	 6.28350769099725E-02 
825	 6.10069450438212E-02 
826	 5.91265337849824E-02 
827	 5.69515749690008E-02 
828	 5.43879743229949E-02 
829	 5.21304523539689E-02 
830	 5.03042761600142E-02 
831	 4.87210659165093E-02 
832	 4.70717847109617E-02 
833	 4.57433020716303E-02 
834	 4.46430854069839E-02 
835	 4.37315667125564E-02 
836	 4.31278297104242E-02 
837	 4.24373140404805E-02 
838	 4.17574919162156E-02 
839	 4.12134028756096E-02 
840	 0.040671484168368 
841	 0.040326338355376 
842	 3.99933608442151E-02 
843	 3.94145826713965E-02 
844	 3.86626441327463E-02 
845	 3.83113091000979E-02 
846	 3.82018841188679E-02 
847	 0.037708039326934 
848	 3.70951534130015E-02 
849	 3.66474640443245E-02 
850	 3.64040549293025E-02 
851	 3.60820565923613E-02 
852	 3.55766693103503E-02 
853	 0.035151111237391 
854	 0.034948523210423 
855	 3.46753511545474E-02 
856	 3.41269090375488E-02 
857	 3.36465293334662E-02 
858	 3.35165101324964E-02 
859	 3.32334789135875E-02 
860	 3.29119688164283E-02 
861	 3.26311892705333E-02 
862	 3.23966648796788E-02 
863	 0.031891396016416 
864	 3.15245427300996E-02 
865	 3.11815374776235E-02 
866	 3.03719370968709E-02 
867	 3.03599288827888E-02 
868	 3.02135458004946E-02 
869	 2.95356562154792E-02 
870	 2.90112692531826E-02 
871	 2.90488681724184E-02 
872	 0.028717884566635 
873	 2.76658868160356E-02 
874	 2.75021154017828E-02 
875	 2.70730647602595E-02 
876	 2.65502421800134E-02 
877	 2.62849462621247E-02 
878	 2.57342137193136E-02 
879	 2.54820065323045E-02 
880	 2.52285573075817E-02 
881	 2.44493236319086E-02 
882	 2.38910755141502E-02 
883	 2.33235791090683E-02 
884	 2.28836669422924E-02 
885	 2.28615032996299E-02 
886	 2.21957689133583E-02 
887	 2.15535913515696E-02 
888	 2.12798419886725E-02 
889	 2.11149075554224E-02 
890	 2.09384729957918E-02 
891	 2.04319231089303E-02 
892	 1.96897046593724E-02 
893	 1.95579425651733E-02 
894	 1.91783194715478E-02 
895	 1.88426092911814E-02 
896	 1.88345200928737E-02 
897	 1.85218740543861E-02 
898	 1.78986993199743E-02 
899	 1.72091538424762E-02 
900	 1.68107649496837E-02 
901	 1.70856710437062E-02 
902	 1.68770418554517E-02 
903	 1.63920708723145E-02 
904	 1.61546279029995E-02 
905	 0.015179803922601 
906	 1.46333175911955E-02 
907	 1.46264124527795E-02 
908	 1.44315625349079E-02 
909	 1.35662654519596E-02 
910	 1.31278214665264E-02 
911	 0.012852939091059 
912	 1.15271043783799E-02 
913	 1.18839789461599E-02 
914	 1.17938602100722E-02 
915	 1.06009954123959E-02 
916	 9.95788275936661E-03 
917	 9.87752732326875E-03 
918	 9.09448790706071E-03 
919	 7.8695013471887E-03 
920	 8.64813588540076E-03 
921	 8.22448635574935E-03 
922	 7.40381108611745E-03 
923	 6.93136457929468E-03 
924	 5.74667799322347E-03 
925	 5.02755880272427E-03 
926	 4.49237772759174E-03 
927	 3.66826467714605E-03 
928	 2.98015064192347E-03 
929	 1.24672422368729E-03 
930	 2.18821980165042E-04 
931	 1.8213119412799E-03 
932	 5.84499455268945E-04 
933	-6.45127775843978E-04 
934	-1.6867412367711E-03 
935	-2.79022350765414E-03 
936	-5.68889506069184E-04 
937	-8.43655632852688E-04 
938	-1.85892945950905E-03 
939	-7.40053911492114E-04 
940	-1.49353418709643E-03 
941	-1.54161390038805E-03 
942	-1.11665690165479E-03 
943	-1.64893433331311E-03 
944	-2.24097997199747E-03 
945	-1.95793019222843E-03 
946	-1.9782380140349E-03 
947	-3.78335470275784E-03 
948	-3.00712079131033E-03 
949	-3.55798395066732E-03 
950	-4.42035738391277E-03 
951	-2.31370982113576E-03 
952	-2.77238645810936E-03 
953	-3.84849447554794E-03 
954	-4.4772099852972E-03 
955	-4.6403001766784E-03 
956	-3.53843170135618E-03 
957	-4.00763303268882E-03 
958	-4.63839730560566E-03 
959	-1.76780280240482E-03 
960	-2.05435412413399E-04 
961	-1.41291189555803E-03 
962	-3.07252178580368E-03 
963	-1.45158449813612E-03 
964	-1.88045662869638E-03 
965	-2.13669965799232E-03 
966	-1.10665005771164E-03 
967	 5.02538150807245E-04 
968	-8.51500120041481E-05 
969	 1.64451770191147E-04 
970	 7.74417045460008E-04 
971	-1.49025961537758E-03 
972	-9.69502120564915E-04 
973	-1.61987881142309E-03 
974	-2.82456016225439E-03 
975	 1.09460416316999E-04 
976	-1.53105020113345E-03 
977	-3.02212607348006E-03 
978	-2.28045035076684E-03 
979	-1.40856523195122E-03 
980	-2.93628223158078E-03 
981	-2.44786637219901E-03 
982	-8.67880989985763E-04 
983	-2.86393776257349E-03 
984	-6.37222215643617E-04 
985	-4.72506410912761E-04 
986	-2.46539369073449E-03 
987	-1.54037342414433E-03 
988	-3.17654427875086E-03 
989	-1.96806854760437E-03 
990	 5.97981388929832E-04 
991	-1.51822423672376E-03 
992	-2.30970259460235E-03 
993	-2.18083170283564E-03 
994	-1.75671849672038E-03 
995	-1.41792648240631E-03 
996	-9.96489389768719E-04 
997	-1.12652134439611E-03 
998	-2.39901409555291E-03 
999	-4.4940548543421E-03 
1000	-3.31923204254004E-03 
1001	 2.98310455157894E-03 
1002	 2.83441070412447E-03 
1003	 2.97577203000712E-03 
1004	 3.20429080376681E-03 
1005	 3.29374169045924E-03 
1006	 3.46317084167264E-03 
1007	 3.76244333407688E-03 
1008	 3.56812828674915E-03 
1009	 3.51292265522535E-03 
1010	 3.50629644082939E-03 
1011	 3.31825647785173E-03 
1012	 3.35960102877818E-03 
1013	 3.47073564994419E-03 
1014	 3.55959666661493E-03 
1015	 3.81227406637936E-03 
1016	 3.84842833693071E-03 
1017	 3.86960327902381E-03 
1018	 0.003678762316875 
1019	 3.04365739231891E-03 
1020	 2.84706465477316E-03 
1021	 2.74411588704606E-03 
1022	 2.60907639948208E-03 
1023	 2.82386796121792E-03 
1024	 3.23662415202131E-03 
1025	 3.39955953974032E-03 
1026	 3.57548796791976E-03 
1027	 3.69280177807751E-03 
1028	 3.80786126904496E-03 
1029	 3.77422606941485E-03 
1030	 3.57408517433368E-03 
1031	 3.54311800481814E-03 
1032	 3.44978632061999E-03 
1033	 3.45588632127517E-03 
1034	 3.60234984433499E-03 
1035	 3.75322916542429E-03 
1036	 3.96828841271353E-03 
1037	 4.08344332429332E-03 
1038	 4.34290308283858E-03 
1039	 4.35874737016346E-03 
1040	 3.87211560629775E-03 
1041	 3.78990342120438E-03 
1042	 3.78859293963029E-03 
1043	 3.83875756512406E-03 
1044	 3.7654177342232E-03 
1045	 3.93453676494253E-03 
1046	 3.82121633416015E-03 
1047	 3.07199706400842E-03 
1048	 3.18012104486849E-03 
1049	 3.86120091482764E-03 
1050	 4.1591092393637E-03 
1051	 4.99567539098687E-03 
1052	 5.18297156189051E-03 
1053	 4.48382592377066E-03 
1054	 4.33748541697343E-03 
1055	 4.33066916303312E-03 
1056	 4.22079060822843E-03 
1057	 4.15973445054178E-03 
1058	 4.41968922144434E-03 
1059	 4.25819220619417E-03 
1060	 3.61576537152447E-03 
1061	 3.58722721359336E-03 
1062	 3.61894711427717E-03 
1063	 3.92125185662379E-03 
1064	 4.9201298698109E-03 
1065	 5.2628915053049E-03 
1066	 5.55607465245082E-03 
1067	 5.60062760248323E-03 
1068	 5.05637607148812E-03 
1069	 4.8360525245399E-03 
1070	 4.45115731522065E-03 
1071	 4.41382688496071E-03 
1072	 4.73385979667151E-03 
1073	 5.13543701189146E-03 
1074	 5.10070514537198E-03 
1075	 5.0754548833769E-03 
1076	 4.9286621515939E-03 
1077	 4.17848113450402E-03 
1078	 4.08414973056886E-03 
1079	 4.52225108259962E-03 
1080	 4.51190294423832E-03 
1081	 4.55479570734057E-03 
1082	 4.42465008583085E-03 
1083	 3.79656784308292E-03 
1084	 3.59822663522341E-03 
1085	 0.003523255884796 
1086	 3.57787220679045E-03 
1087	 4.23720340691614E-03 
1088	 4.28830580430776E-03 
1089	 3.95961614175484E-03 
1090	 3.74172111269826E-03 
1091	 3.56945018215862E-03 
1092	 2.97577989934936E-03 
1093	 3.10369834143876E-03 
1094	 3.97463016418519E-03 
1095	 4.03327561428854E-03 
1096	 3.88643227104236E-03 
1097	 3.84135911581541E-03 
1098	 3.30687366684712E-03 
1099	 3.31849598769544E-03 
1100	 4.19209408676748E-03 
1101	 4.18733622525143E-03 
1102	 3.55509951327387E-03 
1103	 3.31538721018634E-03 
1104	 2.64512841584816E-03 
1105	 2.47223124802836E-03 
1106	 2.46075763875736E-03 
1107	 2.82701971649267E-03 
1108	 3.33424539259327E-03 
1109	 2.98285109385576E-03 
1110	 2.91013616781963E-03 
1111	 3.05020089131216E-03 
1112	 3.03187577187198E-03 
1113	 2.57288803069445E-03 
1114	 2.51445220763814E-03 
1115	 2.65357762105699E-03 
1116	 2.79301749215048E-03 
1117	 3.39688177936237E-03 
1118	 3.72672812383011E-03 
1119	 3.84052007676402E-03 
1120	 4.1325824287369E-03 
1121	 4.50718299366084E-03 
1122	 4.22766934031206E-03 
1123	 4.52205896907049E-03 
1124	 4.99607526335841E-03 
1125	 4.59896916391445E-03 
1126	 3.84055494011209E-03 
1127	 2.86229542239938E-03 
1128	 3.56470030911959E-03 
1129	 3.97674014710096E-03 
1130	 5.08201844605291E-03 
1131	 4.74990708539166E-03 
1132	 3.93607070809355E-03 
1133	 3.40026177630596E-03 
1134	 1.83426642210716E-03 
1135	 1.94359603454264E-03 
1136	 3.48586960490607E-03 
1137	 3.59520417013974E-03 
1138	 3.4836765470852E-03 
1139	 3.66609675920895E-03 
1140	 2.76624830322895E-03 
1141	 2.54011366169906E-03 
1142	 3.16249434898899E-03 
1143	 2.99849213089051E-03 
1144	 3.16939858134312E-03 
1145	 3.5932287662347E-03 
1146	 3.03853447470867E-03 
1147	 2.91001110766775E-03 
1148	 3.0630017669305E-03 
1149	 2.39460492129087E-03 
1150	 2.26206042625117E-03 
1151	 2.80685199872164E-03 
1152	 2.66615749516809E-03 
1153	 2.13477866164092E-03 
1154	 1.9139811775324E-03 
1155	 1.56964696768032E-03 
1156	 1.22541882393156E-03 
1157	 1.64604846163277E-03 
1158	 2.35230103922183E-03 
1159	 2.72121302858457E-03 
1160	 2.56272217860104E-03 
1161	 1.94784657476114E-03 
1162	 1.66471227837336E-03 
1163	 1.78711374786864E-03 
1164	 2.14927973115062E-03 
1165	 2.59506429474653E-03 
1166	 2.47349939505217E-03 
1167	 2.05392476236906E-03 
1168	 1.86940500270288E-03 
1169	 1.83782910409427E-03 
1170	 1.82454305253841E-03 
1171	 1.79096462709962E-03 
1172	 1.84078659281809E-03 
1173	 1.82052947262498E-03 
1174	 1.62662157117647E-03 
1175	 1.70226998617487E-03 
1176	 1.98452604576972E-03 
1177	 2.1021177344401E-03 
1178	 2.13441791493307E-03 
1179	 2.06278186662794E-03 
1180	 1.84048120056445E-03 
1181	 1.68249455341578E-03 
1182	 1.80002327685616E-03 
1183	 1.98255111131119E-03 
1184	 2.02843585632291E-03 
1185	 1.90037744438618E-03 
1186	 1.75600818583901E-03 
1187	 1.89302901241179E-03 
1188	 1.88736089862327E-03 
1189	 1.70717530057625E-03 
1190	 1.83013885672156E-03 
1191	 2.07801778988186E-03 
1192	 2.07953275372905E-03 
1193	 2.11153208179123E-03 
1194	 2.09104324034307E-03 
1195	 1.91805034973396E-03 
1196	 1.53986349801204E-03 
1197	 1.24534089939244E-03 
1198	 1.58397635225593E-03 
1199	 1.94355266155045E-03 
1200	 1.86632908844763E-03 
1201	 1.93137589551479E-03 
1202	 1.95011983319577E-03 
1203	 1.71941094747011E-03 
1204	 1.77977344066098E-03 
1205	 1.80817009979148E-03 
1206	 1.46009744614808E-03 
1207	 1.48422982664832E-03 
1208	 1.65491186809732E-03 
1209	 1.4512788522114E-03 
1210	 1.5751546630529E-03 
1211	 1.96094549355992E-03 
1212	 2.07255637251968E-03 
1213	 2.04250063005947E-03 
1214	 2.00850106997542E-03 
1215	 1.96121100256915E-03 
1216	 1.8585121194386E-03 
1217	 1.83751873945586E-03 
1218	 1.97972747290403E-03 
1219	 2.07119407061415E-03 
1220	 1.8665525750808E-03 
1221	 1.67255083225266E-03 
1222	 1.59338952759326E-03 
1223	 1.55454945107892E-03 
1224	 1.63829283139609E-03 
1225	 1.73101290687347E-03 
1226	 1.73025434899317E-03 
1227	 1.76341804802525E-03 
1228	 1.79934684160237E-03 
1229	 1.66519985209635E-03 
1230	 1.44534282272346E-03 
1231	 1.42859687417772E-03 
1232	 1.55075129706996E-03 
1233	 1.44998635211892E-03 
1234	 1.38801407924267E-03 
1235	 1.4646684106149E-03 
1236	 1.62779974074888E-03 
1237	 1.64134110827086E-03 
1238	 1.73480703578382E-03 
1239	 1.79692389711773E-03 
1240	 1.50301598667164E-03 
1241	 1.42232216654713E-03 
1242	 1.70289211717469E-03 
1243	 1.8320937107674E-03 
1244	 1.75978931168573E-03 
1245	 1.69712712994828E-03 
1246	 1.65629950771885E-03 
1247	 1.66278981630441E-03 
1248	 1.74971227627879E-03 
1249	 1.7952443702329E-03 
1250	 1.6326995011622E-03 
1251	 1.34424136934931E-03 
1252	 1.39162630737057E-03 
1253	 1.57855596178362E-03 
1254	 1.5886030163128E-03 
1255	 1.68661159716351E-03 
1256	 1.72236115923824E-03 
1257	 1.73119025741745E-03 
1258	 1.68438456169862E-03 
1259	 1.40561342886435E-03 
1260	 1.39745346291872E-03 
1261	 1.66391062094237E-03 
1262	 1.67085725600954E-03 
1263	 1.64824003585507E-03 
1264	 1.75537074164524E-03 
1265	 1.78147271420771E-03 
1266	 1.38127466865077E-03 
1267	 1.29025733285099E-03 
1268	 1.71723242776082E-03 
1269	 1.71464929224158E-03 
1270	 1.51185381141253E-03 
1271	 1.58957605826601E-03 
1272	 1.60962200019441E-03 
1273	 1.60028733129896E-03 
1274	 1.6344469877623E-03 
1275	 1.55600016674233E-03 
1276	 1.39375519191176E-03 
1277	 1.22987630309651E-03 
1278	 1.24027052634704E-03 
1279	 1.45117987027564E-03 
1280	 1.43808349297526E-03 
1281	 1.41424181346215E-03 
1282	 1.42073166361169E-03 
1283	 1.45715346633198E-03 
1284	 1.33471299820089E-03 
1285	 1.33466089914709E-03 
1286	 1.52453506709176E-03 
1287	 1.56467542736855E-03 
1288	 1.52636312324809E-03 
1289	 1.52794032941162E-03 
1290	 1.58450803922335E-03 
1291	 1.43566067821374E-03 
1292	 1.22789344594357E-03 
1293	 1.30461687315282E-03 
1294	 1.41090408992078E-03 
1295	 1.45425383646968E-03 
1296	 1.50647418577353E-03 
1297	 1.72044107381875E-03 
1298	 1.83378494532462E-03 
1299	 1.38135626018185E-03 
1300	 1.18038826125915E-03 
1301	 1.41604386002413E-03 
1302	 1.43407504290442E-03 
1303	 1.41551702823062E-03 
1304	 1.45956546151954E-03 
1305	 1.41129309369702E-03 
1306	 1.36576183379324E-03 
1307	 1.29420863142702E-03 
1308	 1.34947356345921E-03 
1309	 1.5529339482403E-03 
1310	 1.51592706039631E-03 
1311	 1.29509215689875E-03 
1312	 1.33209329855215E-03 
1313	 1.40586826934425E-03 
1314	 1.3603716539723E-03 
1315	 1.46888959412871E-03 
1316	 1.56929015376958E-03 
1317	 1.5015202241822E-03 
1318	 1.48947245646861E-03 
1319	 1.52193420445738E-03 
1320	 1.62884477555176E-03 
1321	 1.85272387382397E-03 
1322	 1.96280935687351E-03 
1323	 1.84977346301679E-03 
1324	 1.85711343553779E-03 
1325	 1.76069258563038E-03 
1326	 1.45833975423888E-03 
1327	 1.45170291174324E-03 
1328	 1.70764089105967E-03 
1329	 1.72495107058466E-03 
1330	 1.84149641188484E-03 
1331	 2.41562826503844E-03 
1332	 2.51348802420431E-03 
1333	 2.15139618900079E-03 
1334	 2.13267952731121E-03 
1335	 2.05999798248067E-03 
1336	 1.48723941584676E-03 
1337	 1.31697654824058E-03 
1338	 1.75006267441164E-03 
1339	 1.88505867111073E-03 
1340	 0.001954836762135 
1341	 1.8199223239992E-03 
1342	 1.29126747615473E-03 
1343	 1.24148716932083E-03 
1344	 1.21326326875196E-03 
1345	 1.18283201584864E-03 
1346	 1.99003881740756E-03 
1347	 2.53481298123264E-03 
1348	 2.36402771958739E-03 
1349	 2.8012660383912E-03 
1350	 5.27480758408471E-03 
1351	 6.25313326275877E-03 
1352	 2.80274267688701E-03 
1353	 3.27531709415475E-03 
1354	 8.54558176026416E-03 
1355	 1.09366873366191E-02 
1356	 1.35379901454813E-02 
1357	 3.68870684975708E-02 
1358	 6.22243529324986E-02 
1359	 6.91374387173639E-02 
1360	 9.71850878215397E-02 
1361	 0.148541218590025 
1362	 0.183481099525914 
1363	 0.22809007234485 
1364	 0.285256968478541 
1365	 0.249405557558824 
1366	 0.204046009551605 
1367	 0.268370400503845 
1368	 0.244907631116169 
1369	 0.255242131224761 
1370	 0.251486271111413 
1371	 9.77499718287256E-02 
1372	 0.101567349874172 
1373	 0.350291258591986 
1374	 0.333418056690662 
1375	 0.201014168943358 
1376	 0.175479349223289 
1377	 5.80356679948242E-02 
1378	 1.61501194469666E-02 
1379	 0.082634945885295 
1380	 0.144045095936296 
1381	 0.267800415293792 
1382	 0.282673848496759 
1383	 0.227322483999666 
1384	 0.213522482826222 
1385	 0.121395057954368 
1386	 9.69920017898841E-02 
1387	 0.243959064736909 
1388	 0.242560052695668 
1389	 7.05009738647517E-02 
1390	 4.75942891583692E-02 
1391	 8.95143318359306E-02 
1392	 8.05470862039798E-02 
1393	 9.89936661356679E-02 
1394	 0.115451925659469 
1395	 3.65816766687355E-02 
1396	 3.78237979744584E-02 
1397	 0.104083209550189 
1398	 0.10206348875599 
1399	 8.35834289016646E-02 
1400	 6.58693737230186E-02 
1401	 1.87314866174772E-02 
1402	 4.31875512743017E-03 
1403	 9.63185058827764E-03 
1404	 1.09174501653206E-02 
1405	 1.43798047058556E-02 
1406	 1.70327855990661E-02 
1407	 2.34566019724607E-02 
1408	 3.60654180106827E-02 
1409	 0.031894664864372 
1410	 2.36800075209057E-02 
1411	 2.28606082333302E-02 
1412	 2.00949123954197E-02 
1413	 1.49523345889359E-02 
1414	 1.30425749172843E-02 
1415	 1.14427271878332E-02 
1416	 3.67834912624451E-03 
1417	 3.81782839733113E-03 
1418	 1.12911216769261E-02 
1419	 1.19965747948226E-02 
1420	 1.15605292341739E-02 
1421	 1.04855509505098E-02 
1422	 7.41072432937202E-03 
1423	 5.67423059210125E-03 
1424	 3.59570905723345E-03 
1425	 3.21453288625101E-03 
1426	 5.01513517199918E-03 
1427	 4.2021074038167E-03 
1428	 1.53542830244709E-03 
1429	 1.62671865237582E-03 
1430	 1.80143826565105E-03 
1431	 1.7085778106838E-03 
1432	 3.5923930541221E-03 
1433	 4.7148118510434E-03 
1434	 4.91099422488509E-03 
1435	 4.91170588728977E-03 
1436	 5.22406557845282E-03 
1437	 5.35710526909326E-03 
1438	 3.77687728781991E-03 
1439	 2.68037549333502E-03 
1440	 2.36215880947241E-03 
1441	 2.13087912073761E-03 
1442	 3.33552823170713E-03 
1443	 3.48288886230807E-03 
1444	 1.95116113895632E-03 
1445	 1.07917985220688E-03 
1446	 5.39732630794019E-04 
1447	 8.36730204800055E-04 
1448	 1.81402413280422E-03 
1449	 1.93422100861421E-03 
1450	 2.34677506031126E-03 
1451	 2.74006369805863E-03 
1452	 1.87359952268821E-03 
1453	 1.36567772190734E-03 
1454	 1.41647607266437E-03 
1455	 1.17254456728474E-03 
1456	 1.03254498972717E-03 
1457	 1.68315018863847E-03 
1458	 1.79322952124715E-03 
1459	 1.19350877947512E-03 
1460	 1.00952847152996E-03 
1461	 1.09829320981602E-03 
1462	 1.38531146079806E-03 
1463	 1.91476460143732E-03 
1464	 2.00291414491412E-03 
1465	 2.28749936877485E-03 
1466	 2.14612054963645E-03 
1467	 7.40982373904227E-04 
1468	 9.51815499353071E-04 
1469	 2.62192052246016E-03 
1470	 2.62379865742261E-03 
1471	 2.45700091132471E-03 
1472	 2.44938716134143E-03 
1473	 1.45362024617745E-03 
1474	 8.3826049199634E-04 
1475	 6.46787451634533E-04 
1476	 8.12311038698815E-04 
1477	 7.49680256947726E-04 
1478	 9.72163598793948E-04 
1479	 2.28568389458247E-03 
1480	 2.54080248499229E-03 
1481	 2.01636135538388E-03 
1482	 1.83856268540038E-03 
1483	 1.59603775083076E-03 
1484	 1.33494924324497E-03 
1485	 1.22465899206089E-03 
1486	 1.0193151037209E-03 
1487	 3.47863682566419E-04 
1488	 4.41595343342397E-04 
1489	 1.28225233092007E-03 
1490	 1.25392675301161E-03 
1491	 1.00136194047372E-03 
1492	 1.0006709199251E-03 
1493	 6.3750236905274E-04 
1494	 3.95667162200983E-04 
1495	 5.48933788638542E-04 
1496	 6.11449436895692E-04 
1497	 4.01860383688397E-04 
1498	 3.51261028728293E-04 
1499	 5.67372811517745E-04 
1500	 5.71306175271294E-04 
1501	 3.77727880669765E-04 
1502	 3.98169227661219E-04 
1503	 5.84584550735342E-04 
1504	 5.89969531805357E-04 
1505	 6.60470871061155E-04 
1506	 5.01088007516367E-04 
1507	 5.47398250574658E-04 
1508	 6.18865388038542E-04 
1509	 5.38412369655484E-04 
1510	 5.6688073784979E-04 
1511	 6.42775001047358E-04 
1512	 5.82861422141815E-04 
1513	 6.62802323443174E-04 
1514	 8.63208773026799E-04 
1515	 7.97014338659908E-04 
1516	 6.92231019112601E-04 
1517	 6.75928702320312E-04 
1518	 6.73146192667099E-04 
1519	 7.06178496332438E-04 
1520	 6.02829559855526E-04 
1521	 6.80076361914248E-04 
1522	 8.96920920654649E-04 
1523	 7.79431965600124E-04 
1524	 6.40404244906464E-04 
1525	 5.42451920937055E-04 
1526	 4.67682125941084E-04 
1527	 6.87178682683987E-04 
1528	 8.32156130156409E-04 
1529	 8.21976008312096E-04 
1530	 8.59066959017839E-04 
1531	 7.8519179615629E-04 
1532	 7.98859667894368E-04 
1533	 9.61936428583242E-04 
1534	 9.75377305310686E-04 
1535	 9.18257809821707E-04 
1536	 9.60856642494213E-04 
1537	 8.93847871669921E-04 
1538	 6.60806190693653E-04 
1539	 8.02865911671397E-04 
1540	 1.09959824529332E-03 
1541	 0.001066430084187 
1542	 1.02150440580894E-03 
1543	 8.63706165391832E-04 
1544	 6.0152852421737E-04 
1545	 5.14484771570736E-04 
1546	 5.58215184096404E-04 
1547	 7.04230854570121E-04 
1548	 7.60615522898734E-04 
1549	 6.69870618404825E-04 
1550	 7.68944180740568E-04 
1551	 8.91865739934771E-04 
1552	 7.26122240479063E-04 
1553	 6.90348456356438E-04 
1554	 7.55374262320644E-04 
1555	 6.31900973782941E-04 
1556	 6.01822154988191E-04 
1557	 6.43039012799403E-04 
1558	 5.89730684364288E-04 
1559	 4.84013246336164E-04 
1560	 4.99188646789084E-04 
1561	 7.08290984607702E-04 
1562	 7.94078551512797E-04 
1563	 7.93301179727025E-04 
1564	 8.73466426118239E-04 
1565	 9.20297125689928E-04 
1566	 9.58702192406565E-04 
1567	 8.77743586735973E-04 
1568	 6.77647888620018E-04 
1569	 6.2350186887933E-04 
1570	 7.79567429274402E-04 
1571	 1.0033566253755E-03 
1572	 1.03460639620915E-03 
1573	 1.00303987331014E-03 
1574	 8.73754119068286E-04 
1575	 7.72023720591304E-04 
1576	 1.01217969481697E-03 
1577	 9.16846429317861E-04 
1578	 8.68419798625799E-04 
1579	 1.20754332835876E-03 
1580	 1.0855014890556E-03 
1581	 9.68470964047807E-04 
1582	 1.05548473015663E-03 
1583	 8.07488016646729E-04 
1584	 6.61789074475829E-04 
1585	 8.2536090979967E-04 
1586	 8.62461554993621E-04 
1587	 7.04609063528579E-04 
1588	 7.75365061794202E-04 
1589	 1.04735787961853E-03 
1590	 9.43315976980895E-04 
1591	 7.40092759835584E-04 
1592	 8.52315158948489E-04 
1593	 8.33314021093419E-04 
1594	 7.34594127896675E-04 
1595	 9.12847307398475E-04 
1596	 1.00331455436439E-03 
1597	 9.57434883407319E-04 
1598	 9.4290311324365E-04 
1599	 8.3963526850135E-04 
1600	 7.79561075842128E-04 
1601	 8.51482796233689E-04 
1602	 9.01467962196612E-04 
1603	 8.57303438448345E-04 
1604	 9.08728572008293E-04 
1605	 9.87829715092364E-04 
1606	 9.85184460338904E-04 
1607	 9.09919061907281E-04 
1608	 8.23934018725576E-04 
1609	 8.7730514449646E-04 
1610	 9.47648286330627E-04 
1611	 1.11325449680965E-03 
1612	 1.10751597126756E-03 
1613	 9.24199877859379E-04 
1614	 9.50017831626324E-04 
1615	 9.45667041148341E-04 
1616	 1.1265153869593E-03 
1617	 1.30212467519289E-03 
1618	 1.00535647521175E-03 
1619	 8.05912450002716E-04 
1620	 8.74249630646348E-04 
1621	 9.18701821691083E-04 
1622	 8.51376718282296E-04 
1623	 7.99425590468999E-04 
1624	 8.09977071703356E-04 
1625	 6.32348680508339E-04 
1626	 6.4703424062801E-04 
1627	 8.17301865045645E-04 
1628	 8.11877827625182E-04 
1629	 9.43540381872324E-04 
1630	 9.46358587309914E-04 
1631	 5.34387795817804E-04 
1632	 3.01602160274829E-04 
1633	 5.1236837304186E-04 
1634	 6.64741429467329E-04 
1635	 9.88340203648108E-04 
1636	 1.07512821931806E-03 
1637	 4.30822920636556E-04 
1638	 2.44205479334861E-04 
1639	 5.85632963522522E-04 
1640	 9.38963728967591E-04 
1641	 1.18367401888575E-03 
1642	 9.47882003506913E-04 
1643	 6.59692268924381E-04 
1644	 7.03561212561406E-04 
1645	 7.27327987561504E-04 
1646	 7.45703877787029E-04 
1647	 9.11466017400535E-04 
1648	 8.93389242658589E-04 
1649	 7.27850892409046E-04 
1650	 7.44112805692254E-04 
1651	 7.99885653813777E-04 
1652	 7.04491925786631E-04 
1653	 8.13607313259344E-04 
1654	 9.99735062227445E-04 
1655	 1.00722668015777E-03 
1656	 8.94360322757008E-04 
1657	 9.54207132699769E-04 
1658	 9.76134676393034E-04 
1659	 8.48382597521011E-04 
1660	 6.64600269749735E-04 
1661	 0.000374524832358 
1662	 4.58798470361917E-04 
1663	 6.17007383424094E-04 
1664	 5.68773365083378E-04 
1665	 7.58260333939142E-04 
1666	 8.80007537814689E-04 
1667	 8.41642462545562E-04 
1668	 7.62315223708458E-04 
1669	 6.23217082222544E-04 
1670	 6.05967866813844E-04 
1671	 3.31292705244702E-04 
1672	 6.3420771151619E-05 
1673	 4.85594063235804E-04 
1674	 8.09563606573492E-04 
1675	 6.47538459813879E-04 
1676	 9.70511807873701E-04 
1677	 1.14735155667304E-03 
1678	 5.98669838049378E-04 
1679	 5.29366036425232E-04 
1680	 8.2774977615736E-04 
1681	 6.98293036670913E-04 
1682	 6.78281267933403E-04 
1683	 7.65407678174713E-04 
1684	 6.41827737334519E-04 
1685	 5.80049721727805E-04 
1686	 7.65342636965219E-04 
1687	 1.01571298968013E-03 
1688	 8.77143612605021E-04 
1689	 6.41922781974019E-04 
1690	 5.02213694194434E-04 
1691	 4.09548026130428E-04 
1692	 3.92789728853319E-04 
1693	 5.55731094290474E-04 
1694	 9.87898601413523E-04 
1695	 8.36967038323944E-04 
1696	 5.21227964767282E-04 
1697	 7.55252005526772E-04 
1698	 7.16985861320219E-04 
1699	 6.47381278891483E-04 
1700	 1.11036633783087E-03 
1701	 1.15074530588567E-03 
1702	 7.65179377439104E-04 
1703	 1.08013067529813E-03 
1704	 1.38510007585109E-03 
1705	 1.09766809554102E-03 
1706	 9.78200061151859E-04 
1707	 9.6218451919043E-04 
1708	 6.0629999958579E-04 
1709	 4.34018920264802E-04 
1710	 8.54841196166661E-04 
1711	 8.88706031586259E-04 
1712	 5.26972495898276E-04 
1713	 8.51050438288049E-04 
1714	 9.68995536381677E-04 
1715	 9.69064160963111E-04 
1716	 1.21465865996749E-03 
1717	 1.18620668376545E-03 
1718	 1.00638242668101E-03 
1719	 1.0241687801466E-03 
1720	 1.28266364856961E-03 
1721	 1.43325986561058E-03 
1722	 1.1801795572424E-03 
1723	 8.63032015777903E-04 
1724	 1.06576961877704E-03 
1725	 1.45322958667741E-03 
1726	 1.58613368740563E-03 
1727	 1.70853498494667E-03 
1728	 1.33920963116124E-03 
1729	 4.47227585082337E-04 
1730	 4.99209390496493E-04 
1731	 9.32237642546681E-04 
1732	 9.86321472163462E-04 
1733	 1.49005692595608E-03 
1734	 1.5260623150351E-03 
1735	 9.10313489360508E-04 
1736	 5.52345760501474E-04 
1737	 3.9125723595699E-04 
1738	 5.52099856975954E-04 
1739	 8.70564254366213E-04 
1740	 1.02779366284677E-03 
1741	 6.38391509158138E-04 
1742	 1.2097462078852E-04 
1743	 7.89531351240119E-05 
1744	 3.6828064111499E-04 
1745	 1.1588625867865E-03 
1746	 1.20924867289026E-03 
1747	 1.24969480814049E-03 
1748	 1.28527854411744E-03 
1749	 1.1816158873404E-03 
1750	 1.0157264870046E-03 
1751	 1.10469885639225E-03 
1752	 9.82040031930862E-04 
1753	 9.54030438051002E-04 
1754	 1.35969157237697E-03 
1755	 1.34718716719931E-03 
1756	 1.2641185875718E-03 
1757	 6.93388264363729E-04 
1758	 1.64637553597962E-04 
1759	 4.09764623977671E-04 
1760	 5.9677836198143E-04 
1761	 1.00970165787812E-03 
1762	 1.70746169531153E-03 
1763	 1.88832063568942E-03 
1764	 1.49060262727719E-03 
1765	 9.11390986279504E-04 
1766	 7.35672972475896E-04 
1767	 5.16632386744753E-04 
1768	 3.13896423573786E-04 
1769	 1.28450341529791E-03 
1770	 2.06724922647736E-03 
1771	 1.98237789105668E-03 
1772	 1.99785033647159E-03 
1773	 1.43770397539308E-03 
1774	 6.83457537252266E-04 
1775	 1.21227825145655E-03 
1776	 1.4667862178331E-03 
1777	 2.16774906920005E-03 
1778	 2.31484995012181E-03 
1779	 1.68795282049031E-03 
1780	 1.65698933368291E-03 
1781	 1.65462125218645E-03 
1782	 1.66821236716439E-03 
1783	 2.2689729866191E-03 
1784	 2.40325465627557E-03 
1785	 1.97731475232999E-03 
1786	 2.43208241316385E-03 
1787	 3.56693799912683E-03 
1788	 3.20590457229266E-03 
1789	 2.53672368597321E-03 
1790	 1.30882516655455E-03 
1791	 2.49790239447871E-04 
1792	 2.15278531020458E-03 
1793	 3.41788959853182E-03 
1794	 3.08746489366086E-03 
1795	 3.58113873362589E-03 
1796	 3.51404783115939E-03 
1797	 4.31283797377046E-03 
1798	 6.52411666464865E-03 
1799	 8.11970652170388E-03 
1800	 7.21785960218512E-03 
1801	 6.7982868752119E-03 
1802	 5.67908732820472E-03 
1803	 6.08854576686517E-03 
1804	 9.53505167810246E-03 
1805	 1.08195241917427E-02 
1806	 1.33928283916201E-02 
1807	 0.012801774635034 
1808	 7.37241692032341E-04 
1809	-4.86660760182133E-04 
1810	 4.8168208832227E-03 
1811	 9.81488309221613E-03 
1812	 3.20505649556951E-02 
1813	 4.20338545566379E-02 
1814	 4.29624973221163E-02 
1815	 4.11270586248019E-02 
1816	 2.13158994847422E-02 
1817	 0.010878291308247 
1818	 6.87262081410956E-03 
1819	 1.40714861902538E-02 
1820	 6.29909240316087E-02 
1821	 0.105192774092692 
1822	 0.135664966693924 
1823	 0.142777349158009 
1824	 0.153373269801828 
1825	 0.150729276990275 
1826	 0.130000107478761 
1827	 0.025165783392779 
1828	 2.45126606088938E-03 
1829	 7.07348636853918E-02 
1830	 6.19401364958471E-02 
1831	 0.104955665443926 
1832	 6.97221213769821E-02 
1833	-2.63979264822634E-02 
1834	-0.118501409920367 
1835	-0.489941048252261 
1836	-0.551109419178577 
1837	 0.676391014254855 
1838	 1.03115721392635 
1839	 0.819776837205423 
1840	 0.495080412203072 
1841	 0.554649191648406 
1842	 0.516691516096067 
1843	-0.631096786507357 
1844	-0.591627566314931 
1845	-1.28382883316872 
1846	-10.7520464501774 
1847	-117.620399198104 
1848	 7.00866144818708 
1849	 5.20325565058831 
1850	-4.32067345440453 
1851	-1.52096002044662 
1852	-1.10230717182981 
1853	-0.680123189928982 
1854	-0.537784466301652 
1855	-4.54214437011148E-02 
1856	 0.920489009555506 
1857	 3.78708070821019E-02 
1858	 0.357379088720388 
1859	 1.88644775957952 
1860	-9.27979475964603 
1861	-5.4280102921769 
1862	-3.30086749718589 
1863	-0.810218283414524 
1864	-0.553788392858909 
1865	-0.953368904049465 
1866	-27.1451307194056 
1867	 3.71098423476072 
1868	 0.346758320175697 
1869	 0.244822797451842 
1870	 0.138045377301757 
1871	 1.02395319976997 
1872	-0.816052446991739 
1873	-0.995488257829217 
1874	-0.610881608194278 
1875	 4.59829150736089E-02 
1876	 0.4097641222401 
1877	 0.179597012818822 
1878	 0.222490898669075 
1879	 1.0603295745428 
1880	 1.24132572697756 
1881	 1.5540102592917 
1882	 1.15822136287836 
1883	 0.18624069791914 
1884	-0.252081734747459 
1885	-0.674342475191095 
1886	-0.675628412587781 
1887	-0.272781671869697 
1888	-0.211409584769938 
1889	-3.72964497805079E-02 
1890	-4.36926109687837E-03 
1891	 0.025514326374645 
1892	 0.104288278133354 
1893	 0.518532836880936 
1894	 0.582510888867894 
1895	 0.60017002947826 
1896	 0.595701898470714 
1897	-0.06497852157611 
1898	-0.543089499822612 
1899	-4.09197293192046 
1900	-23.6393075229099 
1901	-1.45734509613477 
1902	-0.998057418180071 
1903	-1.56907837781157 
1904	-0.548319476579452 
1905	-0.392531787525811 
1906	-0.170640966328857 
1907	 0.194004642700932 
1908	-0.71050771542213 
1909	-0.408801271193891 
1910	-0.372226035967901 
1911	-0.173288153550127 
1912	 4.38845029935789 
1913	 4.16823168174738 
1914	 9.45144647015516E-02 
1915	 0.214368081261292 
1916	 0.317694491885688 
1917	 0.313449237845075 
1918	 0.29091847397903 
1919	 0.254766808065793 
1920	 0.183477458160298 
1921	 3.00266000845686E-02 
1922	 4.03760358872902E-04 
1923	-7.34639812351986E-02 
1924	-0.203868862551524 
1925	-0.162699555459952 
1926	-0.158499452426811 
1927	-0.15066502776464 
1928	-0.106510340335865 
1929	-0.044260883364633 
1930	-8.71719249735962E-02 
1931	-9.95697150199345E-02 
1932	-7.08109861881284E-02 
1933	-6.01150574647839E-02 
1934	-5.00660365305612E-02 
1935	-2.76431785169821E-02 
1936	-2.77416877258093E-03 
1937	 1.65579169662906E-04 
1938	 9.54888113156305E-03 
1939	 1.67819234728094E-02 
1940	 2.79159495412026E-02 
1941	 1.22073335850003E-02 
1942	 2.22517424269448E-04 
1943	 8.04883280542557E-04 
1944	-6.78155792260238E-03 
1945	-5.6560848615132E-03 
1946	 8.9909936504168E-03 
1947	 1.55135537992557E-02 
1948	 1.13405803991423E-02 
1949	 1.39639526888115E-02 
1950	 1.16540460940372E-02 
1951	 8.43192064232459E-04 
1952	-1.94516846270507E-03 
1953	 1.12199254788947E-03 
1954	-9.81085847805677E-04 
1955	-3.66826329956913E-03 
1956	-7.68145345403726E-04 
1957	-7.31375252802171E-04 
1958	 1.36784582713795E-03 
1959	 1.51982848319016E-03 
1960	-3.92455284276588E-05 
1961	-6.52291074578293E-04 
1962	-0.002672286840236 
1963	-4.35412014112451E-03 
1964	-2.12377330194634E-03 
1965	 2.44270670100357E-04 
1966	 1.12727111821134E-03 
1967	 1.68187713693213E-03 
1968	 3.40164722813385E-03 
1969	 2.36266654266489E-03 
1970	 2.63172791742019E-04 
1971	 6.46661770154418E-04 
1972	 3.30357934888681E-04 
1973	-4.6726651387101E-04 
1974	-1.54975172771815E-04 
1975	 1.10184748296975E-04 
1976	 1.02011712988933E-03 
1977	 2.72013120088666E-03 
1978	 3.33398922801697E-03 
1979	 3.18874880457487E-03 
1980	 2.08500926462081E-03 
1981	 9.36192236375864E-04 
1982	 2.82129967779805E-04 
1983	 3.85924093908975E-04 
1984	 1.0134945286853E-03 
1985	 1.25866328517699E-03 
1986	 8.3081869815398E-04 
1987	 3.5854518704197E-04 
1988	 2.90611850710812E-04 
1989	 5.78585841039808E-05 
1990	 2.68054041268235E-04 
1991	 7.75155048828828E-04 
1992	 6.43922707819991E-04 
1993	 5.35511747164661E-04 
1994	 6.07525857790941E-04 
1995	 5.00581698207617E-04 
1996	 4.78117832271325E-04 
1997	 5.67578194347964E-04 
1998	 1.93848017726071E-03 
1999	 2.51617983409681E-03 
2000	 2.10664974288005E-04 
2001	-3.6335018101127E-06 
2002	-1.8120748806134E-03 
2003	-3.46652392171842E-03 
2004	 1.53507747412298E-03 
2005	 3.97882361303327E-03 
2006	 1.57651641659676E-03 
2007	-1.61403499642417E-03 
2008	-4.44868439801514E-03 
2009	-5.47940122228097E-03 
2010	-4.22937609348621E-03 
2011	-2.87152086500531E-03 
2012	 6.8262409324714E-04 
2013	 1.27032596412362E-03 
2014	 5.92060086493664E-04 
2015	 2.79335571436921E-04 
2016	 4.495457387023E-04 
2017	 3.67900700298415E-04 
2018	-2.14901440299921E-04 
2019	-3.31053901614244E-05 
2020	-8.97558756107813E-04 
2021	-2.58881621115498E-03 
2022	-1.93348601232971E-03 
2023	-1.45730786305122E-03 
2024	-1.1119397709822E-03 
2025	 3.48045809998489E-04 
2026	 7.28706099255011E-04 
2027	 2.87017528440185E-04 
2028	 1.89270612734417E-04 
2029	 7.14416249732116E-05 
2030	-8.90775866778987E-04 
2031	-2.28426114876987E-04 
2032	 2.96406074808057E-04 
2033	-3.92899499200854E-04 
2034	-6.87823298498082E-04 
2035	-7.94580982451868E-04 
2036	-8.18278311405849E-04 
2037	-1.55219983182752E-04 
2038	 6.81083272635849E-04 
2039	 9.1383440934316E-04 
2040	 2.36249856370279E-04 
2041	-9.46558969864651E-05 
2042	-6.54284167704846E-04 
2043	-6.26068470143705E-04 
2044	-7.88303799998003E-05 
2045	-2.34067418686728E-04 
2046	-7.14055361675826E-05 
2047	 4.28676634219206E-04 
2048	-7.82435235469408E-04 
2049	-1.74657165760056E-03 
2050	-1.79372178601873E-03 
2051	-2.02606075408003E-03 
2052	-7.48042980562514E-04 
2053	 8.37204366515022E-04 
2054	 1.87232757130808E-03 
2055	 2.84417284399953E-03 
2056	 3.06796999985173E-03 
2057	 2.33725503197241E-03 
2058	 2.03668585148677E-03 
2059	 1.22232075529739E-03 
2060	 8.41774021527634E-04 
2061	 7.81439516061533E-04 
2062	 6.59866520362667E-04 
2063	 2.33431915033723E-04 
2064	-4.50365112046919E-04 
2065	-1.19584811321241E-03 
2066	-6.55082995087433E-04 
2067	 5.85664548187074E-06 
2068	-4.40380552553738E-04 
2069	-1.44167854635426E-04 
2070	 4.2660924847387E-04 
2071	 4.47049602253582E-04 
2072	 3.62240463957207E-05 
2073	 2.96303487681209E-04 
2074	 6.87287212148145E-04 
2075	 1.01302168044738E-03 
2076	 2.13238251701209E-03 
2077	 2.30180977559479E-03 
2078	 1.37202363199737E-03 
2079	 9.35923041937201E-04 
2080	-1.12076006471503E-04 
2081	 5.54879937535766E-04 
2082	 9.30669445508129E-04 
2083	 5.4517707434293E-04 
2084	 7.06017169764788E-04 
2085	 2.85943817420432E-04 
2086	-2.49103306300437E-04 
2087	 1.35075254256509E-03 
2088	 2.67716674357955E-03 
2089	 1.80846976478453E-03 
2090	 1.71252910509408E-03 
2091	 1.8845816351411E-03 
2092	 1.61569420616886E-03 
2093	 9.48754424033999E-04 
2094	 1.04668760126214E-03 
2095	 1.40671901116065E-03 
2096	 1.08875640354138E-03 
2097	 8.17794901414658E-04 
2098	 8.03530288229191E-04 
2099	 4.88777750825227E-04 
2100	 7.8736252320519E-05 
2101	 1.17136297194362E-03 
2102	 1.11102429437004E-03 
2103	 4.03602084242817E-04 
2104	 7.79396175399012E-04 
2105	 6.14705000066517E-04 
2106	 1.96130892148791E-04 
2107	 6.49266601277261E-04 
2108	 6.09202385197881E-04 
2109	 3.39024226146857E-04 
2110	-8.36186988639704E-05 
2111	-1.02876016888715E-03 
2112	-8.98932455940361E-04 
2113	-1.05346683738493E-03 
2114	-1.72643601164387E-03 
2115	-1.45351215739855E-03 
2116	-2.13938983991516E-04 
2117	 6.78384223102926E-05 
2118	 9.10904252594038E-04 
2119	 1.24775230829386E-03 
2120	 9.91893944933056E-04 
2121	 1.13322681433032E-04 
2122	 3.29101462317645E-04 
2123	-7.59495394638733E-04 
2124	-1.7853826911948E-03 
2125	-1.36469758260105E-03 
2126	-6.92449271947618E-04 
2127	 1.31624695253053E-04 
2128	 1.08875299895073E-03 
2129	 1.4944914581402E-03 
2130	 1.55343564064405E-03 
2131	 1.43078164500855E-03 
2132	 1.35691065232756E-03 
2133	 1.73905277625425E-03 
2134	 1.21710862134332E-03 
2135	-8.20909953504728E-04 
2136	-8.50255657654545E-04 
2137	 8.84565642252727E-05 
2138	-5.92747475236375E-05 
2139	 2.3851147890892E-04 
2140	 4.34371076228564E-04 
2141	-3.49144813682539E-04 
2142	-6.7616567167335E-04 
2143	-7.31758474557079E-04 
2144	 2.50805576810477E-04 
2145	 7.08201384675836E-04 
2146	 3.0251501046862E-04 
2147	 5.69384683728714E-04 
2148	 8.06339919013601E-04 
2149	-3.59923246847762E-04 
2150	-1.46506674529991E-03 
2151	-1.30090470793072E-03 
2152	-1.0546705862794E-03 
2153	-1.51559494192671E-04 
2154	 1.59624154638475E-03 
2155	 2.46301145751681E-03 
2156	 3.22975275782206E-03 
2157	 2.9622804510245E-03 
2158	 1.15142647947503E-03 
2159	 5.6847531696048E-04 
2160	 1.69329550963747E-04 
2161	-7.41441538416834E-04 
2162	-1.73174106367297E-03 
2163	-1.48937409523248E-03 
2164	-1.70079256463359E-03 
2165	-1.23184170554801E-03 
2166	 2.01573881682611E-03 
2167	 2.86353336230329E-03 
2168	 2.37759388862907E-03 
2169	 2.01265076908743E-03 
2170	 5.98322469236649E-04 
2171	-6.04526410116027E-04 
2172	-1.19997839011042E-03 
2173	-1.59933268042941E-03 
2174	-1.6343702265449E-03 
2175	-1.41975739437596E-03 
2176	-4.99946471416754E-04 
2177	 1.46139939456891E-04 
2178	 3.24441516986736E-04 
2179	 5.4283936424554E-04 
2180	 1.48972378462918E-04 
2181	 8.3453622806221E-04 
2182	 2.13150469821275E-03 
2183	 2.23302128586842E-03 
2184	 2.11270439379893E-03 
2185	 1.57105068283183E-03 
2186	 1.55470981559099E-03 
2187	 1.76243001996894E-03 
2188	 1.90434629183963E-03 
2189	 2.52218703666989E-03 
2190	 2.41549956716634E-03 
2191	 1.5208930537834E-03 
2192	 1.19161152899306E-03 
2193	 9.74010847739586E-04 
2194	 8.90916312612451E-04 
2195	 1.3534507771098E-03 
2196	 1.06974523218615E-03 
2197	 5.98454744788608E-05 
2198	-3.26480111541792E-04 
2199	-5.43085536396611E-04 
2200	-1.49675634901909E-03 
2201	-1.03802329272308E-03 
2202	-1.36424010882065E-05 
2203	-8.58988453652948E-04 
2204	-7.72170909563272E-04 
2205	 8.96778239261385E-04 
2206	 6.80537935369579E-04 
2207	-3.30033781882515E-05 
2208	 5.77003244744338E-04 
2209	 8.76376999866773E-05 
2210	-1.80705399680084E-04 
2211	 6.21444182456524E-04 
2212	 7.54449678086498E-05 
2213	-5.16889549243944E-04 
2214	-9.50056330296875E-04 
2215	-1.4964443421477E-03 
2216	 3.70040121431566E-04 
2217	 7.02869273850068E-04 
2218	-5.93889936581604E-05 
2219	-1.36737997933417E-04 
2220	-3.57007941165091E-04 
2221	-5.63027283290781E-04 
2222	 3.02392851604037E-04 
2223	 6.89958517919601E-04 
2224	 2.5755224831902E-04 
2225	 8.90084366511213E-04 
2226	 2.44943364504669E-03 
2227	 2.34925685581102E-03 
2228	 1.76891219334836E-03 
2229	 1.2073760355996E-03 
2230	-1.60729184238138E-03 
2231	-1.57014691913577E-03 
2232	 2.27556987383578E-03 
2233	 2.65148689890216E-03 
2234	 1.72390233605774E-03 
2235	 1.66408530025597E-03 
2236	 1.96448924989021E-03 
2237	 1.18040564884615E-03 
2238	 1.60383606057851E-03 
2239	 2.48183995557371E-03 
2240	 1.49264128320145E-03 
2241	-1.76369120358316E-03 
2242	-2.39276861201681E-03 
2243	-9.96980125675689E-04 
2244	-2.55592255368158E-03 
2245	-3.43595588058892E-03 
2246	-2.8534268590953E-03 
2247	-4.32257593141632E-03 
2248	-4.46470624158593E-03 
2249	-2.34241703638702E-03 
2250	-1.61330128686058E-04 
2251	 3.44889609259401E-04 
2252	 2.03668962764539E-04 
2253	 1.42572544217686E-03 
2254	 2.21688017490962E-03 
2255	 4.58454771675714E-03 
2256	 6.18364549086723E-03 
2257	 4.75613535933237E-03 
2258	 3.69475218998688E-03 
2259	 2.21315172037434E-03 
2260	 2.32915959221006E-03 
2261	 6.35612928413037E-03 
2262	 5.73354915887419E-03 
2263	 2.05157438664097E-03 
2264	 1.2528586619655E-03 
2265	-7.71341605724311E-04 
2266	-2.20640800543196E-03 
2267	-1.18121303436108E-03 
2268	-5.92367058280665E-04 
2269	-1.56485334947026E-03 
2270	-1.10963190443593E-03 
2271	 2.23425222941573E-03 
2272	 3.52286734290772E-03 
2273	 3.9972064357905E-03 
2274	 3.74058545595772E-03 
2275	 2.04710507795873E-03 
2276	 9.31991002285436E-04 
2277	-8.0209068181799E-04 
2278	-1.91843465961845E-03 
2279	-3.7885356207725E-03 
2280	-2.52016357598226E-03 
2281	 1.21927755068624E-03 
2282	 4.03368125255418E-03 
2283	 5.47205567316197E-03 
2284	 6.50262083691268E-03 
2285	 4.29126122953454E-03 
2286	 3.00008152746779E-04 
2287	 1.71585382340477E-03 
2288	 1.54400566440605E-03 
2289	-2.09352381503651E-03 
2290	-1.07710346458004E-04 
2291	 3.60131885545577E-04 
2292	-1.11323261975838E-04 
2293	 1.44190256651201E-03 
2294	 3.82184142576637E-04 
2295	 1.22648546513818E-03 
2296	 3.32358038074582E-03 
2297	 4.28301499522533E-03 
2298	 3.85232682719144E-03 
2299	 1.30141451630775E-03 
2300	-4.71663534292951E-04 
2301	-3.33277178754683E-03 
2302	-5.79913128062574E-03 
2303	-5.77615740354853E-03 
2304	-7.50724631728032E-03 
2305	-6.7901716761463E-03 
2306	-4.08564644439825E-03 
2307	-4.4246140941195E-03 
2308	-5.19089135334744E-03 
2309	-4.59938476657827E-03 
2310	-1.67248118506918E-03 
2311	-4.34783087115042E-04 
2312	 9.21943615353346E-04 
2313	 3.93012857177281E-03 
2314	 2.81464723277169E-03 
2315	 1.68753688563609E-03 
2316	 9.62470356490493E-04 
2317	-2.12839813852934E-03 
2318	-5.56111999722681E-03 
2319	-5.22515010279938E-03 
2320	 2.10524924164759E-04 
2321	 4.77675272907812E-03 
2322	 8.58988310086424E-03 
2323	 1.17569191228462E-02 
2324	 6.88805724749354E-03 
2325	-1.95412112461168E-03 
2326	-4.34800551828435E-03 
2327	-3.77505841175102E-03 
2328	-3.54156110620063E-03 
2329	-8.0642714103906E-04 
2330	 3.62986076142214E-04 
2331	-2.73003989247425E-03 
2332	-2.02020282974091E-03 
2333	 1.05554399445089E-03 
2334	 1.39897108789935E-03 
2335	 3.70067992994818E-03 
2336	 3.42554606271563E-03 
2337	 1.19811959387294E-03 
2338	 1.1439477488855E-03 
2339	-2.73093890609145E-03 
2340	-8.37257706628229E-03 
2341	-1.10672548445624E-02 
2342	-1.06734781884308E-02 
2343	-7.57231469440193E-03 
2344	-5.49321308852703E-03 
2345	-6.43081350955306E-03 
2346	-8.10998078065961E-03 
2347	-7.70325470086273E-03 
2348	-8.64691294973052E-03 
2349	-1.09147892112014E-02 
2350	-1.24020022122877E-02 
2351	-1.24672373263979E-02 
2352	-9.88537666133726E-03 
2353	-1.22139913437382E-02 
2354	-8.68710591436868E-03 
2355	-4.19194206145732E-03 
2356	-9.71136696367739E-03 
2357	-6.1438876790454E-03 
2358	 4.39542549117582E-03 
2359	 1.27726207320031E-02 
2360	 1.72268961387852E-02 
2361	 0.016289794227761 
2362	 8.83413630913745E-03 
2363	-5.7475587132812E-03 
2364	-6.60092759091255E-03 
2365	 6.68405318117424E-03 
2366	 6.48033903012629E-03 
2367	 2.37269146944262E-03 
2368	 3.77413302551825E-04 
2369	-1.22817075004541E-02 
2370	-1.80692406648173E-02 
2371	-1.10930245198618E-02 
2372	-1.81092240146448E-02 
2373	-2.67987607749088E-02 
2374	-2.52847611615939E-02 
2375	-3.42012713190977E-02 
2376	-2.92331010199777E-02 
2377	-4.68902917003219E-03 
2378	-2.99136308384669E-03 
2379	-2.18360256094195E-02 
2380	-2.51625967904712E-02 
2381	-2.03408832267808E-02 
2382	-1.73759457695774E-02 
2383	-6.60594283582839E-03 
2384	 9.94504579854876E-05 
2385	-1.23957085058504E-02 
2386	-3.04297449353452E-02 
2387	-1.48012190983794E-02 
2388	 3.68382890176705E-04 
2389	-8.82789665430695E-03 
2390	-4.34834457753914E-03 
2391	-4.13637524445002E-03 
2392	-1.39090742314018E-02 
2393	-7.03356584787756E-03 
2394	 2.63620501226915E-03 
2395	 6.31958329100468E-04 
2396	-1.97323453179561E-04 
2397	-4.04301838968117E-03 
2398	-1.16808158850253E-02 
2399	-7.97019223977439E-03 
2400	 2.73353231295436E-03 
2401	 4.61405650512147E-03 
2402	 7.50135523061981E-03 
2403	 1.69608186243093E-02 
2404	 1.13444781474451E-02 
2405	 1.32582939787066E-02 
2406	 3.42395586207861E-02 
2407	 3.75138420205049E-02 
2408	 3.80990280649375E-02 
2409	 2.81171797897627E-02 
2410	 0.014771059138245 
2411	 3.25381229120326E-02 
2412	 4.83862427693062E-02 
2413	 6.01254108310242E-02 
2414	 6.60996156204887E-02 
2415	 4.91350676133151E-02 
2416	 9.44285547707364E-03 
2417	-2.06202330760887E-02 
2418	-0.026779842553145 
2419	-4.73695197996849E-02 
2420	-6.09933119460074E-02 
2421	-4.03626625480506E-02 
2422	-6.04468297751953E-02 
2423	-8.47029234016487E-02 
2424	-5.69629854537399E-02 
2425	-5.49842961687213E-02 
2426	-3.06564772900503E-02 
2427	 3.01479869051071E-03 
2428	-3.11777768537889E-02 
2429	-1.35987744858515E-02 
2430	 2.20470887900812E-02 
2431	 7.36638064942183E-03 
2432	 2.55916672022349E-02 
2433	 2.12754019243944E-02 
2434	 1.33760751444283E-02 
2435	 4.46694185804806E-02 
2436	 5.58314577037374E-02 
2437	 5.48921621788756E-02 
2438	 4.77433599572282E-02 
2439	 7.61143214142255E-02 
2440	 0.12509520277737 
2441	 0.145272997920596 
2442	 0.116378680451471 
2443	 6.86652990864275E-02 
2444	 5.85523244530229E-02 
2445	 8.04526800284122E-02 
2446	 0.106791455299201 
2447	-1.20988224716808E-02 
2448	-4.81748314572405E-02 
2449	-2.34215105947491E-02 
2450	-4.70318963026952E-02 
2451	-4.33270574305429E-02 
2452	-0.056751717399566 
2453	-9.75027088922189E-02 
2454	-4.49278024389633E-02 
2455	-1.21003564165003E-02 
2456	-0.112934157966757 
2457	-0.174449597608929 
2458	-0.232615823613442 
2459	-0.265477577131805 
2460	-0.201778854244796 
2461	-0.159797970629201 
2462	-0.11565242745338 
2463	-4.77585501602762E-02 
2464	-4.92256349385297E-02 
2465	-8.60737554984377E-02 
2466	-0.110727252869077 
2467	-0.200472253984916 
2468	-0.285151998989323 
2469	-0.238766685410099 
2470	-0.257666591637575 
2471	-0.391139794468877 
2472	-0.402339095426802 
2473	-0.335222978310058 
2474	-0.452165914936234 
2475	-0.704148810116921 
2476	-0.942048230585459 
2477	-0.945610037278351 
2478	-0.496615373865023 
2479	-0.165940769832484 
2480	-0.1182546384725 
2481	-0.123430728113218 
2482	-0.233082702278127 
2483	-0.601941520334101 
2484	 3.01034519704513 
2485	 2.46799092637041 
2486	 1.47475196559958 
2487	 2.35520395190291 
2488	 1.42934140057577 
2489	-0.864968756334323 
2490	 2.3003010494807 
2491	 12.7201682520586 
2492	 1.16523687990135 
2493	 1.26785949321947 
2494	-0.718636805915633 
2495	-3.89328608142272 
2496	 91.4521391714732 
2497	 19.4325384355531 
2498	-5.82389341061974 
2499	-1.23686333665081 
2500	 1.05973111575506 
