Wavelength	rt0629clean00009.asd
350	 4.17820628158162E-02 
351	 0.04307529421057 
352	 4.33122397004227E-02 
353	 4.30587771184974E-02 
354	 4.29162543209122E-02 
355	 4.23436032430083E-02 
356	 4.20969971456268E-02 
357	 4.21679364556263E-02 
358	 0.04229305791691 
359	 4.22582472724679E-02 
360	 0.042624698937489 
361	 4.31901325922462E-02 
362	 0.043235537764669 
363	 4.23314897281838E-02 
364	 4.19861805727198E-02 
365	 4.25916424685378E-02 
366	 4.25736480635608E-02 
367	 0.042457859156818 
368	 4.23002841320905E-02 
369	 4.22169178663054E-02 
370	 4.29117632175667E-02 
371	 4.33462902750055E-02 
372	 4.33179187684281E-02 
373	 4.31904723530203E-02 
374	 4.34360634986202E-02 
375	 4.32515682273515E-02 
376	 4.27159379566608E-02 
377	 4.32205458593341E-02 
378	 4.33541670645522E-02 
379	 4.31579890371048E-02 
380	 4.30657032919162E-02 
381	 4.35969866055076E-02 
382	 4.39988833813037E-02 
383	 4.40726427123824E-02 
384	 4.39909471989768E-02 
385	 4.43087701287897E-02 
386	 4.44350546871168E-02 
387	 4.42100250904953E-02 
388	 4.40572933103584E-02 
389	 4.43390549078249E-02 
390	 4.46259283430907E-02 
391	 4.46913818920438E-02 
392	 4.52535178892127E-02 
393	 4.52911235934924E-02 
394	 4.51360834134778E-02 
395	 4.54218957369083E-02 
396	 4.55074463290038E-02 
397	 4.55702058291456E-02 
398	 4.56114882598289E-02 
399	 4.54596068219446E-02 
400	 4.52687909761954E-02 
401	 4.53632481116124E-02 
402	 4.57347602081038E-02 
403	 4.56001648867594E-02 
404	 4.56389711386544E-02 
405	 0.045796279779159 
406	 4.58202459255782E-02 
407	 4.59914544550069E-02 
408	 4.61324816662919E-02 
409	 4.61679298544374E-02 
410	 4.61575914327209E-02 
411	 4.63571013136869E-02 
412	 4.65756950669032E-02 
413	 4.66772589459233E-02 
414	 4.68554949089273E-02 
415	 4.70135758911005E-02 
416	 4.71356890299504E-02 
417	 4.72412738086166E-02 
418	 4.73468506243985E-02 
419	 4.75075948789529E-02 
420	 4.76924435589693E-02 
421	 4.77861391797355E-02 
422	 4.80316852106949E-02 
423	 4.83545432376806E-02 
424	 4.86219937063836E-02 
425	 4.87289006982732E-02 
426	 0.048842971331424 
427	 4.90585558056309E-02 
428	 4.93956188209969E-02 
429	 4.96867696603231E-02 
430	 4.98537170817919E-02 
431	 5.00161748437086E-02 
432	 0.050498104978179 
433	 5.06424679496233E-02 
434	 5.07568491667195E-02 
435	 5.11464138854935E-02 
436	 5.14736520008256E-02 
437	 5.17112327648456E-02 
438	 5.19142825561036E-02 
439	 5.21765360652968E-02 
440	 5.24674568085529E-02 
441	 5.27192572962588E-02 
442	 5.29344842350707E-02 
443	 0.053225078426152 
444	 5.34413740850846E-02 
445	 5.36374570469684E-02 
446	 5.38891503516735E-02 
447	 5.41456035171132E-02 
448	 5.42680967997995E-02 
449	 5.43887932485113E-02 
450	 5.47833746402418E-02 
451	 5.48644335368786E-02 
452	 5.49617598713039E-02 
453	 5.52578975193118E-02 
454	 5.53536921067682E-02 
455	 5.55831252162064E-02 
456	 5.58110952347931E-02 
457	 5.58356595403346E-02 
458	 5.60273688379414E-02 
459	 5.62094765300947E-02 
460	 5.63504670683744E-02 
461	 5.65804872296611E-02 
462	 5.67291539713687E-02 
463	 5.67751243035149E-02 
464	 0.056783225362816 
465	 5.69639961641904E-02 
466	 5.71324236221829E-02 
467	 5.72828693932226E-02 
468	 5.74724095340696E-02 
469	 5.75204978809695E-02 
470	 5.76704886373032E-02 
471	 5.79195458172237E-02 
472	 5.78919299133252E-02 
473	 5.80762051786843E-02 
474	 5.83307894414977E-02 
475	 5.84547711208094E-02 
476	 5.86627681336701E-02 
477	 5.87760005721438E-02 
478	 5.88588914680483E-02 
479	 5.91125167017518E-02 
480	 0.059260191048783 
481	 5.94405723756032E-02 
482	 5.97021639607987E-02 
483	 5.97870262949045E-02 
484	 6.00009936264297E-02 
485	 6.02603922680176E-02 
486	 6.04003617627553E-02 
487	 6.06489478447413E-02 
488	 0.060877113420204 
489	 6.10819907555513E-02 
490	 6.13913412037796E-02 
491	 6.16487838856412E-02 
492	 6.19334570427145E-02 
493	 0.062284354971589 
494	 6.25121228183261E-02 
495	 6.27029808387935E-02 
496	 6.29442915942987E-02 
497	 6.32986118757033E-02 
498	 6.35898866935651E-02 
499	 6.39007765776209E-02 
500	 6.42614274479106E-02 
501	 0.064583743420409 
502	 6.47759570868994E-02 
503	 0.065001788676803 
504	 6.54086865351396E-02 
505	 6.57788432216811E-02 
506	 6.60366048652401E-02 
507	 6.62699445662555E-02 
508	 6.66691838460469E-02 
509	 6.69509095132233E-02 
510	 6.72347554697613E-02 
511	 6.76223373139896E-02 
512	 6.80405264724476E-02 
513	 6.83652375314848E-02 
514	 6.86503309164413E-02 
515	 0.069012094989967 
516	 6.93511777838866E-02 
517	 6.97777495179068E-02 
518	 7.02832376328053E-02 
519	 7.07005823625392E-02 
520	 7.10557729840347E-02 
521	 7.14107229703129E-02 
522	 7.18181561896342E-02 
523	 7.22618728760689E-02 
524	 7.26819174306154E-02 
525	 7.30687012008499E-02 
526	 7.34556155755281E-02 
527	 0.073894372915318 
528	 7.42962149735872E-02 
529	 7.46478845771981E-02 
530	 7.51272850773493E-02 
531	 7.56371032370971E-02 
532	 7.60851230890842E-02 
533	 7.64198192655459E-02 
534	 7.68369425827435E-02 
535	 7.72792866372631E-02 
536	 7.77027244196235E-02 
537	 7.80964397496281E-02 
538	 7.85570937662665E-02 
539	 7.90861659759857E-02 
540	 7.96369014574303E-02 
541	 8.01055427649707E-02 
542	 8.05207502982539E-02 
543	 8.09348126517363E-02 
544	 8.14019772766834E-02 
545	 8.18101430403049E-02 
546	 8.22440908954618E-02 
547	 8.27381145979979E-02 
548	 8.31793325672642E-02 
549	 0.083700921544562 
550	 8.41985862503677E-02 
551	 8.45474456264817E-02 
552	 8.49965684641433E-02 
553	 8.54761927964467E-02 
554	 8.59195225105671E-02 
555	 8.62868331710653E-02 
556	 8.68154170229687E-02 
557	 8.73566471698372E-02 
558	 8.77429758576933E-02 
559	 8.80807048449513E-02 
560	 8.84611285111297E-02 
561	 8.88756520173979E-02 
562	 8.92545558876096E-02 
563	 8.95988693069708E-02 
564	 9.00060446648082E-02 
565	 0.090467811055443 
566	 9.07444007338902E-02 
567	 9.10439163682063E-02 
568	 9.13763043238016E-02 
569	 9.16859255564832E-02 
570	 9.19956323411052E-02 
571	 9.21862634409677E-02 
572	 9.23303184385422E-02 
573	 9.26979608564593E-02 
574	 9.28874784867247E-02 
575	 9.30547696036367E-02 
576	 9.33441272967236E-02 
577	 9.34288162678339E-02 
578	 9.35955923416455E-02 
579	 9.37955887053776E-02 
580	 9.38062144762085E-02 
581	 0.093878106595866 
582	 9.39888236651661E-02 
583	 9.40647098970911E-02 
584	 9.39797492511073E-02 
585	 9.41371984783538E-02 
586	 0.094316475430833 
587	 9.41752582620205E-02 
588	 9.41615028199002E-02 
589	 9.41919254335859E-02 
590	 9.41765784763004E-02 
591	 9.40678149887519E-02 
592	 9.39613343218629E-02 
593	 9.37847420528837E-02 
594	 9.34908796305381E-02 
595	 9.31955052788057E-02 
596	 9.29287365207169E-02 
597	 9.26297501570305E-02 
598	 9.22088394790511E-02 
599	 9.18304632251902E-02 
600	 9.14866933353182E-02 
601	 9.11937216133501E-02 
602	 9.10518830498477E-02 
603	 9.08960509873486E-02 
604	 9.07706337884718E-02 
605	 0.090753554356161 
606	 9.07130146489421E-02 
607	 9.07167906416813E-02 
608	 9.07459661834744E-02 
609	 9.06900666202089E-02 
610	 9.06727686817056E-02 
611	 9.07242305160865E-02 
612	 0.090790588082392 
613	 9.06181212817891E-02 
614	 9.05557584319811E-02 
615	 9.06125788185293E-02 
616	 9.06125276314807E-02 
617	 0.09061856967839 
618	 9.06865891037734E-02 
619	 9.07676296550166E-02 
620	 9.06360698326382E-02 
621	 9.05868257428728E-02 
622	 9.06131218855303E-02 
623	 9.06245408490844E-02 
624	 9.06356214309382E-02 
625	 9.07228563897611E-02 
626	 9.08046420906711E-02 
627	 9.06693350722358E-02 
628	 9.06833293543218E-02 
629	 9.06923028687739E-02 
630	 9.05877327929778E-02 
631	 9.06639552341162E-02 
632	 9.06751077312142E-02 
633	 9.06129128476044E-02 
634	 9.05686805666266E-02 
635	 9.04568572625567E-02 
636	 0.090359724492031 
637	 9.03245111028885E-02 
638	 9.03287412327556E-02 
639	 9.03362106526411E-02 
640	 9.03234060736445E-02 
641	 9.02717831518656E-02 
642	 9.01472065955786E-02 
643	 9.00605520670614E-02 
644	 9.00496516143812E-02 
645	 9.00819230070114E-02 
646	 9.00298240342743E-02 
647	 8.99071521525805E-02 
648	 8.97519264550152E-02 
649	 8.95626943868134E-02 
650	 0.089449541536997 
651	 8.93555083737346E-02 
652	 8.91702418510109E-02 
653	 8.88795212513554E-02 
654	 8.86099426882606E-02 
655	 8.83443325312396E-02 
656	 8.78991520145591E-02 
657	 8.75606702660477E-02 
658	 8.72470967090941E-02 
659	 8.68713183385285E-02 
660	 8.66000870424043E-02 
661	 8.64157686733173E-02 
662	 8.62652929317493E-02 
663	 8.60817909565672E-02 
664	 0.085903630698862 
665	 8.57373261696867E-02 
666	 8.55849961794996E-02 
667	 8.54491141121687E-02 
668	 8.53695993186309E-02 
669	 8.53413611907429E-02 
670	 8.53208586617262E-02 
671	 8.51487554373234E-02 
672	 8.51211123571315E-02 
673	 8.52693410339323E-02 
674	 0.085359911316491 
675	 8.53131050752925E-02 
676	 8.52857097636889E-02 
677	 8.53776172696798E-02 
678	 8.54171018815416E-02 
679	 8.55016349072984E-02 
680	 0.085618186004253 
681	 8.57133745899445E-02 
682	 8.58123975632478E-02 
683	 8.59454624464883E-02 
684	 8.61098598276074E-02 
685	 8.62739766809473E-02 
686	 8.64572929953008E-02 
687	 8.65976101257937E-02 
688	 8.66422688333657E-02 
689	 0.08664531543762 
690	 8.67181285541096E-02 
691	 8.68324475397215E-02 
692	 8.68695402215082E-02 
693	 8.67762479752094E-02 
694	 8.65636046008909E-02 
695	 8.63018410686634E-02 
696	 8.60726446500185E-02 
697	 8.59543436581154E-02 
698	 8.58114734262747E-02 
699	 8.54972634218169E-02 
700	 8.51606335825441E-02 
701	 8.47574592521001E-02 
702	 8.43458877632483E-02 
703	 8.40216951932787E-02 
704	 8.34442228821835E-02 
705	 8.27328202658283E-02 
706	 8.20706028407928E-02 
707	 8.15925613514271E-02 
708	 8.08907890685031E-02 
709	 8.00214655250479E-02 
710	 7.91772858158024E-02 
711	 7.82127335591653E-02 
712	 7.72119305114607E-02 
713	 7.62091886027746E-02 
714	 7.51548923292246E-02 
715	 7.44144681032291E-02 
716	 7.35167237300329E-02 
717	 7.20377090305364E-02 
718	 7.07663162235224E-02 
719	 6.92567419044431E-02 
720	 6.78152445703662E-02 
721	 6.65673042405651E-02 
722	 6.54195355767018E-02 
723	 6.41952449264299E-02 
724	 6.28917434059523E-02 
725	 6.13196925247508E-02 
726	 5.97018565887593E-02 
727	 5.80027870043781E-02 
728	 5.61663651068492E-02 
729	 5.41769630914194E-02 
730	 5.22110962884078E-02 
731	 5.03430534081081E-02 
732	 4.85286311924636E-02 
733	 4.72462546873965E-02 
734	 4.61304557376843E-02 
735	 0.045040200966933 
736	 0.044155451053559 
737	 4.34490468825863E-02 
738	 4.29555193927253E-02 
739	 4.26467974351228E-02 
740	 4.22393676183377E-02 
741	 0.041965485809603 
742	 4.18352070301915E-02 
743	 4.17325048434909E-02 
744	 4.16045421759602E-02 
745	 4.14621132884039E-02 
746	 4.13155561758861E-02 
747	 4.11602539015321E-02 
748	 4.11088071479297E-02 
749	 0.041142294474304 
750	 4.11827270263022E-02 
751	 4.10897682671586E-02 
752	 4.10307588813376E-02 
753	 4.09815542673032E-02 
754	 4.08498982974262E-02 
755	 4.09379581574851E-02 
756	 4.09146666616634E-02 
757	 4.07488694378323E-02 
758	 0.040985482201162 
759	 4.12175585446618E-02 
760	 4.12733030764663E-02 
761	 4.11992524213152E-02 
762	 4.11696661677804E-02 
763	 4.12147196529683E-02 
764	 4.12176343062515E-02 
765	 4.11038213121759E-02 
766	 4.10998653079429E-02 
767	 4.11324892222112E-02 
768	 4.11618616459231E-02 
769	 4.11833537532268E-02 
770	 4.13079083491344E-02 
771	 4.14391490727662E-02 
772	 4.15064931449312E-02 
773	 0.04162465575187 
774	 4.17640568127698E-02 
775	 4.19352491607726E-02 
776	 4.21556525343663E-02 
777	 4.23917026557951E-02 
778	 4.25655135020349E-02 
779	 4.27253278397597E-02 
780	 4.30365158527392E-02 
781	 4.33713091612667E-02 
782	 4.36235503767213E-02 
783	 4.37768488489773E-02 
784	 4.39945534514983E-02 
785	 4.42922833000178E-02 
786	 4.46435783258219E-02 
787	 4.49919663014969E-02 
788	 4.52616074094413E-02 
789	 4.56306015087157E-02 
790	 4.60487491493139E-02 
791	 4.63119693868976E-02 
792	 4.67184695768835E-02 
793	 4.70998119963852E-02 
794	 4.73544604792835E-02 
795	 4.75696217460273E-02 
796	 4.79944523632635E-02 
797	 0.04838983803407 
798	 4.85559356140682E-02 
799	 4.88495138643102E-02 
800	 4.92878899987637E-02 
801	 4.96365127018956E-02 
802	 4.96195807306602E-02 
803	 4.97161004417516E-02 
804	 4.99115589598243E-02 
805	 5.01081685662857E-02 
806	 5.01792251251887E-02 
807	 5.01278143896761E-02 
808	 5.01101648414418E-02 
809	 5.02048661059389E-02 
810	 0.050210404437778 
811	 5.01313359260581E-02 
812	 4.99845800604223E-02 
813	 4.98046543229946E-02 
814	 4.96169207634982E-02 
815	 4.93950842992426E-02 
816	 4.90750219220368E-02 
817	 4.85879903227413E-02 
818	 4.79462927448132E-02 
819	 4.74893795216644E-02 
820	 4.71072025125037E-02 
821	 4.61593238583117E-02 
822	 4.53725505369817E-02 
823	 4.43080165882314E-02 
824	 4.27943602485023E-02 
825	 4.17122666132165E-02 
826	 4.07201197874738E-02 
827	 3.95004711892302E-02 
828	 3.79142558708237E-02 
829	 3.63906280749421E-02 
830	 3.52321759229586E-02 
831	 3.43571333959482E-02 
832	 3.34656370841497E-02 
833	 3.26312200587948E-02 
834	 3.20189653779121E-02 
835	 3.16265719586557E-02 
836	 3.12465132485972E-02 
837	 3.08313633103666E-02 
838	 3.04770669280496E-02 
839	 3.02059288685312E-02 
840	 2.97514162076942E-02 
841	 2.93728394652097E-02 
842	 2.91362235110245E-02 
843	 2.89883820829664E-02 
844	 0.028703990730246 
845	 2.84874074620697E-02 
846	 2.83037081523632E-02 
847	 2.79791393921951E-02 
848	 0.027747244164862 
849	 0.027637750941146 
850	 2.75483428954614E-02 
851	 0.027263854065421 
852	 2.71277843879997E-02 
853	 2.68958535212942E-02 
854	 2.64392518285388E-02 
855	 2.61001182971118E-02 
856	 2.60279987141862E-02 
857	 2.60546341418419E-02 
858	 2.59614464505041E-02 
859	 2.57041215356442E-02 
860	 2.55210916880618E-02 
861	 2.54073707543849E-02 
862	 2.52177414725289E-02 
863	 2.48158652612344E-02 
864	 2.46511044395508E-02 
865	 2.46610219636533E-02 
866	 2.43583513595361E-02 
867	 2.44046436748716E-02 
868	 2.42267841638284E-02 
869	 2.37574374625574E-02 
870	 2.37486385971647E-02 
871	 2.32859700790975E-02 
872	 2.30033065916791E-02 
873	 2.32369755140226E-02 
874	 2.29278632256111E-02 
875	 2.26136001678117E-02 
876	 2.24627512677262E-02 
877	 2.24277618695805E-02 
878	 2.21020690483119E-02 
879	 2.18621693576331E-02 
880	 2.16789171069852E-02 
881	 2.13704793852683E-02 
882	 2.11142788278293E-02 
883	 2.08452910564172E-02 
884	 2.06249478447141E-02 
885	 2.05825155626608E-02 
886	 2.05535977706229E-02 
887	 2.02838878520604E-02 
888	 1.98900493624723E-02 
889	 1.98657188774137E-02 
890	 1.98173844893516E-02 
891	 0.019609412066244 
892	 1.93338956205918E-02 
893	 1.94306576496674E-02 
894	 1.92750505404399E-02 
895	 0.018930486727371 
896	 1.87550295831591E-02 
897	 1.92845703118463E-02 
898	 1.91483804083922E-02 
899	 1.87080325633846E-02 
900	 1.87031225616128E-02 
901	 1.86796298326865E-02 
902	 1.83737953016484E-02 
903	 1.78168432954729E-02 
904	 1.72479360478732E-02 
905	 1.72904521544574E-02 
906	 1.72431954614851E-02 
907	 1.71037432933089E-02 
908	 1.72888797166868E-02 
909	 1.69439142429493E-02 
910	 1.66882063318758E-02 
911	 1.66579004855412E-02 
912	 1.64476374315121E-02 
913	 1.61853116266098E-02 
914	 1.63393320705575E-02 
915	 0.016684824404984 
916	 1.62977054241432E-02 
917	 1.55592972321216E-02 
918	 1.48312186476202E-02 
919	 1.46324394712814E-02 
920	 1.55994966203158E-02 
921	 1.55109559457966E-02 
922	 1.44194179523966E-02 
923	 1.32802541493486E-02 
924	 1.39607041088608E-02 
925	 1.49730390117061E-02 
926	 1.48806383090018E-02 
927	 1.30416385272999E-02 
928	 1.20236267536703E-02 
929	 1.29598388220172E-02 
930	 0.015025443174549 
931	 1.53971902767309E-02 
932	 1.20445995568296E-02 
933	 1.26232580085444E-02 
934	 1.55665524503906E-02 
935	 1.42280527708719E-02 
936	 1.15937891348944E-02 
937	 1.22176670173282E-02 
938	 1.20056262698413E-02 
939	 8.40400409862167E-03 
940	 1.47652868723677E-02 
941	 1.46372063924514E-02 
942	 1.11745162752049E-02 
943	 1.48247974715794E-02 
944	 1.33351940534492E-02 
945	 1.07495137215739E-02 
946	 1.08250381481766E-02 
947	 1.45636899689416E-02 
948	 1.57150033777529E-02 
949	 1.32971698749132E-02 
950	 9.79359124056518E-03 
951	 8.92613638047303E-03 
952	 1.05791714821514E-02 
953	 1.07203004229112E-02 
954	 9.24704270008916E-03 
955	 8.98670196963631E-03 
956	 1.16729410560663E-02 
957	 1.44370094867249E-02 
958	 1.32179642416731E-02 
959	 6.21202233056474E-03 
960	 7.66483572737014E-03 
961	 9.65098292536083E-03 
962	 9.78404405452587E-03 
963	 1.06423391449675E-02 
964	 9.78080766574265E-03 
965	 9.98328734484818E-03 
966	 1.07817673288653E-02 
967	 9.75296666913037E-03 
968	 9.28863548893927E-03 
969	 9.44137632390903E-03 
970	 1.00784253877335E-02 
971	 1.09054760984011E-02 
972	 9.95312311986773E-03 
973	 9.04044858030321E-03 
974	 9.23984743200183E-03 
975	 1.01303130697558E-02 
976	 9.89021493142585E-03 
977	 8.02755570978579E-03 
978	 6.81128188961774E-03 
979	 9.36422737102733E-03 
980	 1.02015173631908E-02 
981	 9.84188584919975E-03 
982	 1.00595527717526E-02 
983	 1.21362211784324E-02 
984	 0.010629738026819 
985	 8.95944508276988E-03 
986	 9.07373622584844E-03 
987	 1.05382850752515E-02 
988	 1.06909159234732E-02 
989	 9.82850233628144E-03 
990	 8.67748920325629E-03 
991	 8.13953407884802E-03 
992	 9.59905734132092E-03 
993	 1.04245968953611E-02 
994	 1.04593098971665E-02 
995	 1.10875565818609E-02 
996	 0.010160121035571 
997	 9.39405917017012E-03 
998	 9.83854567916976E-03 
999	 1.13677873043405E-02 
1000	 0.011976886312182 
1001	 9.29593684746644E-03 
1002	 9.1697538131064E-03 
1003	 9.15661199538772E-03 
1004	 9.07469554606909E-03 
1005	 9.02771597668185E-03 
1006	 9.02532537472556E-03 
1007	 9.20592727737456E-03 
1008	 9.13569976673272E-03 
1009	 8.9087948311362E-03 
1010	 8.85078294085062E-03 
1011	 8.77333270372944E-03 
1012	 8.84876443839843E-03 
1013	 9.08865611472698E-03 
1014	 9.21640302214086E-03 
1015	 9.44904105755951E-03 
1016	 9.47891051257468E-03 
1017	 9.31764944303772E-03 
1018	 9.25931807320864E-03 
1019	 9.1754731465312E-03 
1020	 9.08000910912143E-03 
1021	 8.97593981451521E-03 
1022	 8.93850217557813E-03 
1023	 8.86836188853283E-03 
1024	 8.73024778465639E-03 
1025	 8.79397955927505E-03 
1026	 8.80757313569387E-03 
1027	 8.78271302659424E-03 
1028	 8.72869044792183E-03 
1029	 8.7246556553679E-03 
1030	 8.62126641176889E-03 
1031	 8.7430861496713E-03 
1032	 9.1415522628461E-03 
1033	 9.27077619759495E-03 
1034	 9.41101670882412E-03 
1035	 9.48127392325838E-03 
1036	 9.37376158377969E-03 
1037	 9.25313590857549E-03 
1038	 9.09906754592797E-03 
1039	 8.93589951668493E-03 
1040	 8.80336413066244E-03 
1041	 8.83456835351964E-03 
1042	 8.95741554729668E-03 
1043	 9.36657516546958E-03 
1044	 9.51837893493364E-03 
1045	 9.65235557402807E-03 
1046	 9.70720739220357E-03 
1047	 9.66431236988764E-03 
1048	 9.61320883037287E-03 
1049	 9.41045364335734E-03 
1050	 9.41942330974211E-03 
1051	 9.54429624915445E-03 
1052	 9.58899910420076E-03 
1053	 9.7791061429004E-03 
1054	 9.8464929852858E-03 
1055	 9.63070029945885E-03 
1056	 9.64742768102148E-03 
1057	 9.74898835505669E-03 
1058	 9.93572168335976E-03 
1059	 1.00965059151529E-02 
1060	 1.05639334166371E-02 
1061	 1.04891575486813E-02 
1062	 9.94761640458881E-03 
1063	 9.89277247149084E-03 
1064	 9.74603314828971E-03 
1065	 9.75729138173644E-03 
1066	 1.03214825574176E-02 
1067	 0.010453097058892 
1068	 1.02835815139636E-02 
1069	 1.02271706039558E-02 
1070	 1.01287268757882E-02 
1071	 9.99298939912842E-03 
1072	 9.70503820332355E-03 
1073	 9.67395719023291E-03 
1074	 9.65177778195175E-03 
1075	 9.60862750632286E-03 
1076	 9.70965700760961E-03 
1077	 1.01159088173633E-02 
1078	 1.01391372326216E-02 
1079	 9.95250249755676E-03 
1080	 9.95286671921332E-03 
1081	 9.9783714626325E-03 
1082	 9.86141918210192E-03 
1083	 9.74005245434869E-03 
1084	 9.67537079192572E-03 
1085	 9.28472637959135E-03 
1086	 9.20209101515738E-03 
1087	 9.59040638210301E-03 
1088	 9.72812164985518E-03 
1089	 9.83473542962174E-03 
1090	 1.00395487743031E-02 
1091	 9.88176940303116E-03 
1092	 9.29409044563575E-03 
1093	 9.15452204662905E-03 
1094	 8.86743998850666E-03 
1095	 8.98567599089638E-03 
1096	 9.80665222374959E-03 
1097	 9.98844623982321E-03 
1098	 0.010233797823609 
1099	 1.00882571205439E-02 
1100	 8.8429923787516E-03 
1101	 8.63143397701779E-03 
1102	 8.99602973339792E-03 
1103	 9.06600153154987E-03 
1104	 9.58925579076222E-03 
1105	 1.02157579805337E-02 
1106	 1.01851509646689E-02 
1107	 9.20666540265416E-03 
1108	 8.39991866149877E-03 
1109	 8.77612138791806E-03 
1110	 8.83364657218972E-03 
1111	 9.14792680340218E-03 
1112	 9.49803987165353E-03 
1113	 1.03079568822705E-02 
1114	 1.02351295492891E-02 
1115	 9.5078782199247E-03 
1116	 9.64106794438502E-03 
1117	 9.77907112608658E-03 
1118	 9.52559016190863E-03 
1119	 9.74275873841859E-03 
1120	 9.60086125968298E-03 
1121	 6.94254818049286E-03 
1122	 5.52722947911619E-03 
1123	 1.07564425032682E-02 
1124	 1.73891118431554E-02 
1125	 1.71767385639727E-02 
1126	 1.61365011312769E-02 
1127	 1.08633082532763E-02 
1128	 3.5521458518579E-03 
1129	 3.0764738582539E-03 
1130	 9.78736882872209E-03 
1131	 1.02933971453974E-02 
1132	 9.78831077220539E-03 
1133	 9.92533813595546E-03 
1134	 9.04646843594833E-03 
1135	 8.38948123822023E-03 
1136	 7.58831289755509E-03 
1137	 7.95298394303995E-03 
1138	 8.85508043841059E-03 
1139	 9.7824559527214E-03 
1140	 8.45037761813021E-03 
1141	 8.3160688399326E-03 
1142	 8.6066300768546E-03 
1143	 6.75760309519385E-03 
1144	 5.93455791682598E-03 
1145	 7.57520723622728E-03 
1146	 8.29576879145189E-03 
1147	 7.97870159458493E-03 
1148	 9.13895252504639E-03 
1149	 9.02403295904868E-03 
1150	 8.63207323786105E-03 
1151	 7.08422764904124E-03 
1152	 7.2905431219842E-03 
1153	 8.30835669592614E-03 
1154	 8.33901577961625E-03 
1155	 8.38680228670877E-03 
1156	 8.55121058434831E-03 
1157	 8.31883949859626E-03 
1158	 7.87692373930137E-03 
1159	 8.11247281872667E-03 
1160	 8.1533914658655E-03 
1161	 7.65486596696025E-03 
1162	 7.8994701131465E-03 
1163	 8.54725961281254E-03 
1164	 8.50915600523733E-03 
1165	 8.33792850897928E-03 
1166	 8.03655777860616E-03 
1167	 7.41153804268328E-03 
1168	 7.32916097472704E-03 
1169	 7.76185596787094E-03 
1170	 8.18777279106093E-03 
1171	 8.15610712464876E-03 
1172	 7.51154780030243E-03 
1173	 7.45902112454609E-03 
1174	 7.40715181741989E-03 
1175	 7.63830310034016E-03 
1176	 7.59048285928567E-03 
1177	 7.76201776672105E-03 
1178	 7.72660302937421E-03 
1179	 7.19743921431783E-03 
1180	 7.32554145772308E-03 
1181	 7.81757307644044E-03 
1182	 7.69390698825039E-03 
1183	 7.48288628924355E-03 
1184	 7.46056529417221E-03 
1185	 7.56318061814051E-03 
1186	 7.93200934441183E-03 
1187	 8.01659287814779E-03 
1188	 7.66348211027663E-03 
1189	 7.47553428781203E-03 
1190	 7.40799171688021E-03 
1191	 7.36443061905392E-03 
1192	 7.39806250404533E-03 
1193	 7.75527774899303E-03 
1194	 7.72695465749276E-03 
1195	 7.38366085514132E-03 
1196	 7.4263633881784E-03 
1197	 7.37780827134862E-03 
1198	 7.20877702845271E-03 
1199	 7.35100501514556E-03 
1200	 7.44936508279561E-03 
1201	 7.37224396576714E-03 
1202	 7.39150934097761E-03 
1203	 7.54689172536196E-03 
1204	 7.46646449990405E-03 
1205	 7.31215206441544E-03 
1206	 7.31498385052557E-03 
1207	 7.23199461678515E-03 
1208	 7.17890866896239E-03 
1209	 7.2807976688504E-03 
1210	 7.52784110899326E-03 
1211	 7.60429988713984E-03 
1212	 7.37588317205058E-03 
1213	 7.29436414291199E-03 
1214	 7.25941028834122E-03 
1215	 7.18255827392408E-03 
1216	 7.08178625580285E-03 
1217	 7.17347456797374E-03 
1218	 7.19792540486466E-03 
1219	 7.19689611101814E-03 
1220	 7.33739950469446E-03 
1221	 7.53750608796892E-03 
1222	 7.62913850016205E-03 
1223	 7.48085673094906E-03 
1224	 7.47348779732244E-03 
1225	 7.45070679279096E-03 
1226	 7.06828059877908E-03 
1227	 7.11720677695733E-03 
1228	 0.007451975274563 
1229	 7.32035447491729E-03 
1230	 7.3466232601397E-03 
1231	 7.48441821108271E-03 
1232	 7.26465082038532E-03 
1233	 7.2113518787039E-03 
1234	 7.33059351530285E-03 
1235	 7.32917939094493E-03 
1236	 7.09412017116682E-03 
1237	 7.09266249868321E-03 
1238	 7.19090038744775E-03 
1239	 7.32093683863168E-03 
1240	 7.25079636940335E-03 
1241	 7.23798035110062E-03 
1242	 7.27370532975862E-03 
1243	 7.03215371310277E-03 
1244	 6.84289030058579E-03 
1245	 6.90266924640896E-03 
1246	 6.87730525247949E-03 
1247	 6.84752018815886E-03 
1248	 7.02834822661598E-03 
1249	 7.0846025768634E-03 
1250	 6.88249048639621E-03 
1251	 6.83816250992998E-03 
1252	 6.9300065913754E-03 
1253	 7.00779724319172E-03 
1254	 7.15584314935331E-03 
1255	 7.21888752180242E-03 
1256	 7.16470644190744E-03 
1257	 6.90599999337941E-03 
1258	 6.9513703880529E-03 
1259	 7.10338064682198E-03 
1260	 7.04284152556008E-03 
1261	 7.08603525941191E-03 
1262	 7.15729093283287E-03 
1263	 7.04597144243474E-03 
1264	 6.93300928472928E-03 
1265	 7.06702168046341E-03 
1266	 7.10786710864143E-03 
1267	 6.98010896563753E-03 
1268	 6.76882684573278E-03 
1269	 6.7123141179461E-03 
1270	 6.86554964696488E-03 
1271	 6.9239681902963E-03 
1272	 6.98883577332008E-03 
1273	 7.09255212473382E-03 
1274	 6.94226329726964E-03 
1275	 6.82943353729153E-03 
1276	 6.92775976179765E-03 
1277	 6.92788761238064E-03 
1278	 6.91911907712099E-03 
1279	 6.97961685652946E-03 
1280	 6.97717515060039E-03 
1281	 6.95329816324768E-03 
1282	 7.01460510480516E-03 
1283	 6.99635129724038E-03 
1284	 6.71721880016343E-03 
1285	 6.76631207036243E-03 
1286	 7.21732707727744E-03 
1287	 7.2322557230149E-03 
1288	 7.06042685203488E-03 
1289	 7.04184383492179E-03 
1290	 6.90333819895609E-03 
1291	 6.63296965316774E-03 
1292	 6.65269014075623E-03 
1293	 6.94024297393125E-03 
1294	 6.92870444252596E-03 
1295	 6.7723000103345E-03 
1296	 6.89655272982515E-03 
1297	 7.02603003747246E-03 
1298	 6.83128666486704E-03 
1299	 6.7952514007899E-03 
1300	 6.93701729538004E-03 
1301	 6.74649465210285E-03 
1302	 6.58573380343531E-03 
1303	 6.70861542830536E-03 
1304	 6.79822132570728E-03 
1305	 6.71709284009371E-03 
1306	 6.63432067550263E-03 
1307	 6.69642509326304E-03 
1308	 6.74261857539913E-03 
1309	 6.55513477262827E-03 
1310	 6.57603737236531E-03 
1311	 6.98705454761821E-03 
1312	 7.01188589926139E-03 
1313	 6.7506741389618E-03 
1314	 6.70979278488481E-03 
1315	 6.59580831314821E-03 
1316	 6.56835685273104E-03 
1317	 6.80727186969944E-03 
1318	 6.80987288479706E-03 
1319	 6.56915960281708E-03 
1320	 6.5197062798616E-03 
1321	 6.52233070040342E-03 
1322	 6.51923522749995E-03 
1323	 6.2326726253838E-03 
1324	 6.17863447445384E-03 
1325	 6.44298531576807E-03 
1326	 6.47971503302883E-03 
1327	 6.36838920555037E-03 
1328	 6.74498274862003E-03 
1329	 7.16137954832671E-03 
1330	 6.82979262791794E-03 
1331	 6.43914846574158E-03 
1332	 6.54692860210958E-03 
1333	 6.66088921722763E-03 
1334	 6.66917909753219E-03 
1335	 6.68875374849784E-03 
1336	 7.32947405846468E-03 
1337	 7.52650586579898E-03 
1338	 7.1663472010566E-03 
1339	 7.00865632369785E-03 
1340	 7.23388937709744E-03 
1341	 7.0970841878084E-03 
1342	 5.82463828546964E-03 
1343	 5.76770487692886E-03 
1344	 7.71614498337475E-03 
1345	 7.2342507813957E-03 
1346	 3.90068707808385E-03 
1347	 4.16579107269075E-03 
1348	 7.4130851019334E-03 
1349	 5.63384034949358E-03 
1350	 2.40480477704124E-03 
1351	 3.5136976467733E-03 
1352	-2.24680772973275E-03 
1353	-1.56616939291608E-02 
1354	-1.94556759572372E-02 
1355	-1.94203511909925E-02 
1356	-3.21319092391258E-02 
1357	-4.14889385545525E-02 
1358	-6.07715636506607E-02 
1359	-6.00156809639351E-02 
1360	-1.96482275728485E-02 
1361	-2.55305399452286E-02 
1362	-9.89961093150644E-03 
1363	 8.79026984731434E-02 
1364	 0.150515762764192 
1365	 5.70431069826058E-02 
1366	-9.60625086331321E-02 
1367	 3.97459903251933E-02 
1368	 5.18154410611045E-02 
1369	-0.209046291433311 
1370	-0.275637896853204 
1371	-0.085546670136371 
1372	-2.35452887344531E-02 
1373	-4.21679533823757E-02 
1374	-7.53348790904878E-02 
1375	-0.170948596116308 
1376	-7.75890658329612E-02 
1377	 7.69258786559697E-02 
1378	 0.135857626869415 
1379	 0.338944324430703 
1380	 0.302271301105192 
1381	-2.56846648259001E-02 
1382	-0.061769890547464 
1383	 5.63116139495841E-02 
1384	-0.000635161307015 
1385	-6.22545819499746E-02 
1386	-6.24347186227923E-03 
1387	 6.37926793262294E-02 
1388	 0.014657361717476 
1389	-1.33495763724411E-02 
1390	 5.88030970522554E-03 
1391	-9.32532244483937E-02 
1392	-0.247670475907334 
1393	-0.111773240837276 
1394	-0.104712967531906 
1395	-0.185714624107648 
1396	-8.33223469869016E-02 
1397	-0.107147512271731 
1398	-0.181476097284552 
1399	-0.101526293486279 
1400	 0.150731779486998 
1401	 0.357637061613942 
1402	 0.126972412895161 
1403	-8.14375812970015E-02 
1404	-0.149763942490688 
1405	-0.203527833001297 
1406	-5.04527859567731E-04 
1407	 7.81941044138737E-02 
1408	 3.05455200102062E-02 
1409	-8.93189404229215E-03 
1410	 1.15690947893944E-02 
1411	 7.05371648718704E-02 
1412	 6.84909630832544E-02 
1413	 8.41484633062515E-02 
1414	 0.21657856211768 
1415	 0.172961144759783 
1416	 1.70367824697151E-02 
1417	-1.38295541838842E-03 
1418	-3.00803493686938E-04 
1419	-6.55108968403926E-03 
1420	 3.08465582606794E-02 
1421	 3.21656028888839E-02 
1422	 8.26639911902665E-03 
1423	 1.64736324710354E-03 
1424	-3.54953355690307E-04 
1425	 1.34667704055689E-03 
1426	 2.08545781668768E-03 
1427	 4.4798368545747E-03 
1428	 1.56991653085189E-02 
1429	 1.16416544717703E-02 
1430	-1.24021405238197E-03 
1431	-4.04606363386262E-03 
1432	-0.015230312550603 
1433	-1.60836233705286E-02 
1434	-2.09955443694388E-03 
1435	 0.004982796107368 
1436	 1.21227647899696E-02 
1437	 2.05306931101772E-02 
1438	 1.65540467526727E-02 
1439	 9.54360389985694E-03 
1440	 1.28122017685675E-02 
1441	 1.73566121773734E-02 
1442	 1.43438852276764E-02 
1443	 1.35473533620789E-02 
1444	 1.25194018830092E-02 
1445	 5.91669282205937E-03 
1446	 1.06399634593312E-03 
1447	 4.23098902919796E-03 
1448	 6.13468864865853E-03 
1449	 3.34646993972335E-03 
1450	 5.57965344603917E-03 
1451	 7.70410116753819E-03 
1452	 6.80518972506549E-03 
1453	 8.02316657104456E-03 
1454	 7.57340790316141E-03 
1455	 6.24261647997009E-03 
1456	 5.76031872325745E-03 
1457	 5.02141417388695E-03 
1458	 4.94744174334992E-03 
1459	 5.78103665426885E-03 
1460	 5.69709085351163E-03 
1461	 5.05117460743668E-03 
1462	 5.0219794518649E-03 
1463	 5.01396388310688E-03 
1464	 4.96360161519037E-03 
1465	 5.24960569553709E-03 
1466	 5.78627453787726E-03 
1467	 6.21893091823918E-03 
1468	 6.97697141034483E-03 
1469	 8.82239248146013E-03 
1470	 8.86737439897367E-03 
1471	 0.007859024033469 
1472	 7.3624907641148E-03 
1473	 6.40619288972125E-03 
1474	 5.9174158754896E-03 
1475	 5.28766652075355E-03 
1476	 5.42256110066313E-03 
1477	 6.45332998214666E-03 
1478	 6.37535015356467E-03 
1479	 6.19662674549174E-03 
1480	 5.98751053671835E-03 
1481	 5.09794440784607E-03 
1482	 4.70967484858979E-03 
1483	 4.35341975565586E-03 
1484	 4.83194549278008E-03 
1485	 5.86884610211372E-03 
1486	 6.07051716594266E-03 
1487	 6.56883368660407E-03 
1488	 6.68983718489108E-03 
1489	 6.23412232566499E-03 
1490	 5.92439951306152E-03 
1491	 5.67506594281187E-03 
1492	 5.50501687788973E-03 
1493	 5.15743239792924E-03 
1494	 5.11747262623727E-03 
1495	 5.29990053321815E-03 
1496	 5.38136344617088E-03 
1497	 0.005619697789111 
1498	 5.65811973264261E-03 
1499	 5.48725738651229E-03 
1500	 5.51195428668449E-03 
1501	 5.59952576150379E-03 
1502	 5.61556880604022E-03 
1503	 5.71911345690912E-03 
1504	 5.68320769733555E-03 
1505	 5.39490691088111E-03 
1506	 5.42971668266316E-03 
1507	 5.47802500258408E-03 
1508	 5.44904963602035E-03 
1509	 5.46794208034253E-03 
1510	 5.46788497167143E-03 
1511	 5.50711694487462E-03 
1512	 5.63604895236321E-03 
1513	 5.68061397016047E-03 
1514	 5.63608210270016E-03 
1515	 5.58448451749651E-03 
1516	 5.49927997117685E-03 
1517	 5.50303429866585E-03 
1518	 5.59695908274938E-03 
1519	 5.49201475636496E-03 
1520	 5.26835649809417E-03 
1521	 5.35993488040062E-03 
1522	 5.50395601534258E-03 
1523	 5.50890201995829E-03 
1524	 5.68256791448412E-03 
1525	 5.78448368346777E-03 
1526	 5.60467306618832E-03 
1527	 5.50636747283154E-03 
1528	 5.58656986099421E-03 
1529	 5.51311268277774E-03 
1530	 5.48239479240756E-03 
1531	 5.68643274330498E-03 
1532	 5.6517891312768E-03 
1533	 5.54164234446906E-03 
1534	 5.69447754439428E-03 
1535	 5.70254639312974E-03 
1536	 5.59053738074281E-03 
1537	 5.70444503519514E-03 
1538	 5.6760117499277E-03 
1539	 5.44765451558535E-03 
1540	 5.45297062635967E-03 
1541	 5.44213415323682E-03 
1542	 5.40988867201195E-03 
1543	 5.63972444495713E-03 
1544	 5.76316556974499E-03 
1545	 5.64807259092975E-03 
1546	 5.54989812474999E-03 
1547	 5.46024268255918E-03 
1548	 5.51483118650364E-03 
1549	 5.78478212360776E-03 
1550	 5.88680157422713E-03 
1551	 5.7584347274701E-03 
1552	 5.6428739466463E-03 
1553	 5.49217278204154E-03 
1554	 5.38429708120733E-03 
1555	 5.56784672065652E-03 
1556	 5.77513759696367E-03 
1557	 5.76483869481549E-03 
1558	 5.70212302173588E-03 
1559	 5.64558960561145E-03 
1560	 5.56998919928346E-03 
1561	 5.5273976120035E-03 
1562	 5.70863525401113E-03 
1563	 5.99204092387947E-03 
1564	 5.96219035001971E-03 
1565	 5.86350511858709E-03 
1566	 5.97142998848928E-03 
1567	 5.87177144596609E-03 
1568	 5.56791197042335E-03 
1569	 5.51176530730592E-03 
1570	 5.65566654879055E-03 
1571	 5.72843985956482E-03 
1572	 5.77193921653396E-03 
1573	 5.76181849417275E-03 
1574	 5.63372493761745E-03 
1575	 5.53491888548214E-03 
1576	 5.56064754891732E-03 
1577	 5.59560875057874E-03 
1578	 5.6098545309535E-03 
1579	 5.68384685929828E-03 
1580	 5.56864961415538E-03 
1581	 5.46036451575088E-03 
1582	 5.61205881615142E-03 
1583	 5.59515685270666E-03 
1584	 5.49741728601848E-03 
1585	 5.59933795260289E-03 
1586	 5.6108690324429E-03 
1587	 5.53341685160676E-03 
1588	 5.6069358939745E-03 
1589	 5.63370020793481E-03 
1590	 5.54596370709022E-03 
1591	 5.51930814702203E-03 
1592	 5.5054629288729E-03 
1593	 5.52517159201477E-03 
1594	 5.56393283708639E-03 
1595	 0.005572564117199 
1596	 5.62867557431304E-03 
1597	 5.74597155011599E-03 
1598	 5.79110992123453E-03 
1599	 5.58361996423406E-03 
1600	 5.60373851204941E-03 
1601	 5.90870750743048E-03 
1602	 5.81039380838825E-03 
1603	 5.66786612196902E-03 
1604	 5.75902551988681E-03 
1605	 5.62458304648976E-03 
1606	 5.48466575815295E-03 
1607	 5.53802868918696E-03 
1608	 5.47671113230986E-03 
1609	 5.39636021139715E-03 
1610	 5.45340526438299E-03 
1611	 5.56006900275932E-03 
1612	 5.65118432250691E-03 
1613	 5.6735910906173E-03 
1614	 5.6467266062838E-03 
1615	 5.58037853365714E-03 
1616	 5.49447970332507E-03 
1617	 5.41318758129101E-03 
1618	 5.45150287663617E-03 
1619	 5.62405539583062E-03 
1620	 5.76484422120591E-03 
1621	 5.75077212707023E-03 
1622	 5.56723489645762E-03 
1623	 5.42314539295654E-03 
1624	 5.38765224262881E-03 
1625	 5.54775748629625E-03 
1626	 5.67849434624949E-03 
1627	 5.60516165507901E-03 
1628	 5.72940577620941E-03 
1629	 5.78484418793958E-03 
1630	 5.68296109268774E-03 
1631	 5.73358175743141E-03 
1632	 5.61781163079598E-03 
1633	 5.35238411564311E-03 
1634	 5.30303689618664E-03 
1635	 5.38514587266538E-03 
1636	 5.45665972740265E-03 
1637	 5.52199189343603E-03 
1638	 5.54696493030649E-03 
1639	 5.52195954320638E-03 
1640	 5.50729381519872E-03 
1641	 5.48729011921056E-03 
1642	 5.53908696024847E-03 
1643	 5.73481233613708E-03 
1644	 5.56658898290594E-03 
1645	 5.36458089064379E-03 
1646	 5.51995475537839E-03 
1647	 5.30748883389787E-03 
1648	 5.24758398948051E-03 
1649	 5.59367594683754E-03 
1650	 5.63252088520173E-03 
1651	 5.68478356542263E-03 
1652	 5.8866077391437E-03 
1653	 5.89875049784605E-03 
1654	 5.83650128014047E-03 
1655	 5.63453053797244E-03 
1656	 5.59906042780721E-03 
1657	 5.66503360337315E-03 
1658	 5.58036757777599E-03 
1659	 5.50143808543427E-03 
1660	 5.53058616718437E-03 
1661	 5.45930188110067E-03 
1662	 5.43537337740532E-03 
1663	 5.55131955866678E-03 
1664	 5.56033195960001E-03 
1665	 5.50823616184954E-03 
1666	 5.43742991893583E-03 
1667	 5.41823238237002E-03 
1668	 5.48565626405181E-03 
1669	 5.28261749345527E-03 
1670	 5.28508194749049E-03 
1671	 5.37743866101241E-03 
1672	 5.3204630097338E-03 
1673	 5.2704797925767E-03 
1674	 5.35650787325408E-03 
1675	 5.36743984137244E-03 
1676	 5.55538824397691E-03 
1677	 5.76050606001292E-03 
1678	 5.40915180865568E-03 
1679	 5.29410779458589E-03 
1680	 5.70128008458068E-03 
1681	 5.75304965038831E-03 
1682	 5.65385100531802E-03 
1683	 5.65925654961196E-03 
1684	 5.17094199935869E-03 
1685	 4.93629647604822E-03 
1686	 5.52120857364765E-03 
1687	 5.73222932424611E-03 
1688	 5.47074188533613E-03 
1689	 5.48593226172914E-03 
1690	 5.68302246366759E-03 
1691	 5.78876099959917E-03 
1692	 5.81959486925778E-03 
1693	 5.7946229528817E-03 
1694	 5.39900086367924E-03 
1695	 5.16304176670236E-03 
1696	 5.45413167263377E-03 
1697	 5.45012741303196E-03 
1698	 5.37607372241874E-03 
1699	 5.34384408703524E-03 
1700	 5.26034161629319E-03 
1701	 5.62816707850246E-03 
1702	 5.64006493072581E-03 
1703	 5.08868737537091E-03 
1704	 5.09642803704854E-03 
1705	 5.39243719653216E-03 
1706	 5.41274116439656E-03 
1707	 5.65471843721097E-03 
1708	 5.80622851664652E-03 
1709	 5.36723477121721E-03 
1710	 5.16538275579485E-03 
1711	 5.55853305907376E-03 
1712	 5.70274677900345E-03 
1713	 5.23416860430964E-03 
1714	 5.28456150247051E-03 
1715	 5.6833663560718E-03 
1716	 5.36060122997699E-03 
1717	 5.12633294808707E-03 
1718	 5.22495295741317E-03 
1719	 5.11861206891425E-03 
1720	 5.08763835519807E-03 
1721	 5.69873291574562E-03 
1722	 5.56853937075858E-03 
1723	 5.02677550876927E-03 
1724	 5.26909163181006E-03 
1725	 5.19252018464376E-03 
1726	 5.10134250380382E-03 
1727	 5.55338060026715E-03 
1728	 5.73155207887643E-03 
1729	 5.64105571302743E-03 
1730	 5.41117287314093E-03 
1731	 5.16760337313704E-03 
1732	 0.005212072003414 
1733	 5.47351204260645E-03 
1734	 5.84729231675496E-03 
1735	 5.79247413853103E-03 
1736	 5.46996515886682E-03 
1737	 5.57839596662266E-03 
1738	 5.36876106502948E-03 
1739	 5.14982585933837E-03 
1740	 5.29323796562377E-03 
1741	 4.84723183791673E-03 
1742	 5.09706264738375E-03 
1743	 5.91856979198927E-03 
1744	 5.66905182884759E-03 
1745	 5.54055432821268E-03 
1746	 4.67381545260751E-03 
1747	 4.54266004014429E-03 
1748	 5.69042511380775E-03 
1749	 5.76626711187241E-03 
1750	 5.41358091664907E-03 
1751	 5.51530887795179E-03 
1752	 5.08065797116966E-03 
1753	 4.86462453908513E-03 
1754	 5.25203810879914E-03 
1755	 5.54109151314496E-03 
1756	 5.75176957428366E-03 
1757	 6.10310895506134E-03 
1758	 6.26284409444877E-03 
1759	 5.68060227212727E-03 
1760	 4.88274870646225E-03 
1761	 5.12650340906522E-03 
1762	 5.15507740179479E-03 
1763	 4.74783961218658E-03 
1764	 5.38388542752921E-03 
1765	 5.42940208663192E-03 
1766	 5.00612234128886E-03 
1767	 5.52779190028626E-03 
1768	 5.40793745695565E-03 
1769	 5.42141994493445E-03 
1770	 5.72081068467932E-03 
1771	 5.08437771255846E-03 
1772	 5.64569920189906E-03 
1773	 6.13865212666266E-03 
1774	 5.56739039097431E-03 
1775	 6.31075486429999E-03 
1776	 6.15127330870173E-03 
1777	 5.05413400620997E-03 
1778	 4.86784405526362E-03 
1779	 4.72703162824122E-03 
1780	 4.41399745378609E-03 
1781	 0.004600274957014 
1782	 4.92453243682083E-03 
1783	 5.00824996025686E-03 
1784	 4.71128006682439E-03 
1785	 4.64409637796922E-03 
1786	 5.11024588844748E-03 
1787	 5.63954922213387E-03 
1788	 5.92200466542016E-03 
1789	 7.26083473799947E-03 
1790	 4.12504336444767E-03 
1791	 1.31051111899848E-03 
1792	 9.34687179809895E-04 
1793	-1.76097413016115E-04 
1794	 2.71353990278673E-03 
1795	 7.0062273406898E-03 
1796	 5.78545470195835E-03 
1797	 8.60300602161869E-03 
1798	 8.91615888437048E-03 
1799	 2.33488769073464E-03 
1800	-6.14351087133044E-03 
1801	-1.07740294541727E-02 
1802	-1.22550521498407E-02 
1803	-1.33073816094878E-02 
1804	-1.67822725928632E-03 
1805	 5.42238372741962E-03 
1806	 1.23852212015105E-02 
1807	 1.18197662611786E-02 
1808	-9.91196337721584E-03 
1809	-1.97353769651209E-02 
1810	-5.21128736663483E-02 
1811	-5.25354411549523E-02 
1812	 6.35210393061122E-02 
1813	 6.74241219414747E-02 
1814	-3.99034040116389E-02 
1815	-2.29730898693301E-02 
1816	 1.57985561036903E-03 
1817	-2.40221280013999E-02 
1818	 0.201654090292453 
1819	 7.93671026305766E-02 
1820	-0.166833663320727 
1821	-1.70569753449927 
1822	-0.628600630582702 
1823	 16.3380187248558 
1824	 0.575565309885861 
1825	-0.463109241900069 
1826	-0.351329461891748 
1827	 9.41417300769371E-02 
1828	 0.189673481818955 
1829	 0.59393996983631 
1830	 0.733225956179982 
1831	-0.62829989066126 
1832	-2.23572434071455 
1833	-8.6257305481236 
1834	 1030.06607191667 
1835	 2.8474400210233 
1836	 2.75046962529364 
1837	 48.2175728465639 
1838	-4.74304723023261 
1839	-1.66809565821837 
1840	-1.37861499090282 
1841	-2.72270747164515 
1842	-4.82054797684999 
1843	-3.09802641158506 
1844	-1.32658982709936 
1845	-1.10660825600762 
1846	-0.745643924655858 
1847	-0.865221796366218 
1848	 9.16746438498505 
1849	-7.90753174631851E-02 
1850	 0.348449294845119 
1851	 0.717706136854155 
1852	-1.57704543289383 
1853	-1.47935247180595 
1854	-1.24158491738406 
1855	-0.890794595841091 
1856	-0.890532879367985 
1857	-0.669181314790755 
1858	-0.494836426478714 
1859	 1.04165364028014 
1860	 0.635559087202825 
1861	 9.06310771415916E-02 
1862	-0.241657653136401 
1863	-0.344270880722694 
1864	 0.14982925763519 
1865	 0.450346192636395 
1866	-5.87175588067765 
1867	-5.06319341712246 
1868	 11.6001117753889 
1869	-3.32770797476367 
1870	 1.06364413554142E-02 
1871	-0.449703673734012 
1872	 0.51556728522847 
1873	-3.40984324825779 
1874	-5.499040155708 
1875	 1.65849838677679 
1876	 1.0830764550957 
1877	-0.864144444466945 
1878	-8.23511625834208E-02 
1879	 0.40249796457192 
1880	 0.427493157764325 
1881	-4.03857579342976 
1882	 0.459552310985338 
1883	-2.86691718445814E-04 
1884	 0.409016878243278 
1885	 0.652404639199101 
1886	-5.47847139386709E-02 
1887	-9.10626256522457 
1888	 6.7940703704787 
1889	 6.11425050585793 
1890	 1.55364816252974 
1891	 1.17266091813334 
1892	 2.20972595683826 
1893	-0.166657809400939 
1894	-2.86948839769058 
1895	-0.846180438685447 
1896	-0.31635394291811 
1897	-0.398194249256249 
1898	 6.2018944324054 
1899	 0.994059901189715 
1900	 0.831447670557746 
1901	 1.26337646037811 
1902	 1.4239583286984 
1903	 1.52324872630232 
1904	 1.55985736472546 
1905	 2.52130097585821 
1906	 1.54625613567528 
1907	 0.858250391054045 
1908	 0.75420614528088 
1909	 0.40038231983517 
1910	 0.276012383400173 
1911	 0.633359620691114 
1912	 0.893004159991472 
1913	 0.877925595019262 
1914	 0.450625280793679 
1915	 0.359517735855235 
1916	 0.291359248373276 
1917	-0.407293216822425 
1918	 7.72497334116123E-02 
1919	 0.113484448072359 
1920	-0.43862475820819 
1921	-0.139348452750989 
1922	-0.361136237068104 
1923	-2.63803042970585 
1924	 1.05698948173214 
1925	 0.507435829390306 
1926	 0.260399656311001 
1927	-0.027138377313576 
1928	-1.07154683026404 
1929	 22.8030352881562 
1930	 0.48202437944646 
1931	 1.6783387771542 
1932	 0.534622910252126 
1933	-1.27392947905404E-02 
1934	 3.90940414558121E-02 
1935	 2.10133757712969E-02 
1936	-4.10488875326518E-02 
1937	-2.99167108942939E-02 
1938	-7.38796402724836E-02 
1939	-4.83420829491728E-02 
1940	-2.65650847705587E-02 
1941	-9.19440779510508E-03 
1942	 7.58540451124649E-03 
1943	 7.36822916629616E-02 
1944	 7.52243312946681E-02 
1945	 3.49218014875668E-02 
1946	 1.90227440910703E-02 
1947	 7.93381736558714E-04 
1948	 2.86646330068595E-03 
1949	 2.34246753483908E-02 
1950	 1.87600068767629E-02 
1951	-5.14640510958292E-03 
1952	-1.18012479332246E-02 
1953	-2.06096632449552E-02 
1954	-2.74321103715692E-02 
1955	-2.20685495053552E-02 
1956	-5.38460844570485E-03 
1957	 9.25548645020733E-03 
1958	 2.04349316249696E-02 
1959	 2.74538921482777E-02 
1960	 2.58160008982689E-02 
1961	 0.01989138554231 
1962	 1.20143162206785E-02 
1963	 2.1224479675279E-03 
1964	 9.13823322218267E-04 
1965	 2.63261484196536E-03 
1966	 3.21292122835955E-03 
1967	 4.40511895652568E-03 
1968	 6.73528043347601E-03 
1969	 4.8671105632035E-03 
1970	 3.10433570526047E-03 
1971	 4.21641433695159E-03 
1972	 4.25490489995916E-03 
1973	 5.32184477817741E-03 
1974	 6.28052310672086E-03 
1975	 4.61965301910512E-03 
1976	 3.77983815885037E-03 
1977	 3.95748218283416E-03 
1978	 4.01848783828517E-03 
1979	 4.39469023380453E-03 
1980	 5.35814389569439E-03 
1981	 6.18498214662478E-03 
1982	 6.02276387532506E-03 
1983	 5.51558244452036E-03 
1984	 4.86014089288395E-03 
1985	 3.98167924403076E-03 
1986	 4.35191063329873E-03 
1987	 5.0010721757856E-03 
1988	 5.36788359106551E-03 
1989	 5.6176505702539E-03 
1990	 5.45263915181538E-03 
1991	 5.75822057097133E-03 
1992	 5.75651902881308E-03 
1993	 4.91070029409363E-03 
1994	 4.31556862876328E-03 
1995	 3.02898809400885E-03 
1996	 1.53401953809289E-03 
1997	 1.87200979854243E-03 
1998	 3.93753429500441E-03 
1999	 5.09239967861094E-03 
2000	 6.49409336825125E-03 
2001	 5.70580355561436E-03 
2002	 3.4394710838097E-03 
2003	 4.51926689500925E-03 
2004	 4.19414360566549E-03 
2005	 4.10404502683475E-03 
2006	 7.05615295015011E-03 
2007	 8.39085584168024E-03 
2008	 7.23984510844176E-03 
2009	 6.06222108654353E-03 
2010	 3.74259551945342E-03 
2011	 2.75192276968318E-03 
2012	 1.57002317101727E-03 
2013	 3.48136451227392E-04 
2014	 1.30605584107693E-03 
2015	 2.31382795097949E-03 
2016	-1.53076177086424E-04 
2017	 3.51257935709064E-04 
2018	 1.72766503302176E-03 
2019	 2.27594019227276E-03 
2020	 3.22748660810878E-03 
2021	 3.67885578798893E-03 
2022	 4.06949683265903E-03 
2023	 3.55998341238326E-03 
2024	 3.71757786262795E-03 
2025	 4.59473904070943E-03 
2026	 5.00405593685534E-03 
2027	 5.4383883920867E-03 
2028	 5.45750721651167E-03 
2029	 5.02716645214703E-03 
2030	 3.99175898715244E-03 
2031	 3.17544806045876E-03 
2032	 3.63468577245433E-03 
2033	 3.95623439850395E-03 
2034	 4.11906130590218E-03 
2035	 4.48368777416389E-03 
2036	 3.94901984273547E-03 
2037	 3.73215474916395E-03 
2038	 3.84077138356318E-03 
2039	 3.92827110019313E-03 
2040	 4.19114979117485E-03 
2041	 4.35689739700595E-03 
2042	 4.59832886825813E-03 
2043	 4.62091656485568E-03 
2044	 4.5237050665406E-03 
2045	 4.18307380821396E-03 
2046	 4.03457222233292E-03 
2047	 3.99449564531937E-03 
2048	 3.85347267974426E-03 
2049	 3.7621513582593E-03 
2050	 3.10560657582441E-03 
2051	 2.6008114645038E-03 
2052	 3.01790493144119E-03 
2053	 2.97068167080078E-03 
2054	 3.19623569608323E-03 
2055	 3.95858566989696E-03 
2056	 4.12878574824736E-03 
2057	 3.95578186175271E-03 
2058	 3.69302103046877E-03 
2059	 2.79397963037227E-03 
2060	 2.66737081644916E-03 
2061	 2.76601300218867E-03 
2062	 2.78734187844073E-03 
2063	 3.26341473257739E-03 
2064	 3.59174594009278E-03 
2065	 3.69865037464205E-03 
2066	 4.1469365080887E-03 
2067	 4.67903555887798E-03 
2068	 4.26993092108859E-03 
2069	 3.63478698459979E-03 
2070	 3.34324409540422E-03 
2071	 2.92365212335839E-03 
2072	 2.79902798732962E-03 
2073	 2.80300811909148E-03 
2074	 2.88101032988216E-03 
2075	 3.19635820791134E-03 
2076	 3.96955137363971E-03 
2077	 4.12938602931877E-03 
2078	 3.99994030593768E-03 
2079	 4.14819883270129E-03 
2080	 3.95529637933724E-03 
2081	 4.37031788969039E-03 
2082	 5.07288115543183E-03 
2083	 5.03432610995573E-03 
2084	 4.64603915804858E-03 
2085	 4.38285359469782E-03 
2086	 4.18771876657547E-03 
2087	 4.54691206138979E-03 
2088	 5.05684727402661E-03 
2089	 5.03678307888929E-03 
2090	 4.39525550744587E-03 
2091	 4.37021512284324E-03 
2092	 4.54093594928012E-03 
2093	 4.83897078306689E-03 
2094	 4.81151203565537E-03 
2095	 5.26906002136596E-03 
2096	 5.30246126468286E-03 
2097	 4.49533566349924E-03 
2098	 4.32356922103398E-03 
2099	 4.70675867694821E-03 
2100	 4.59002707185725E-03 
2101	 3.59629818359174E-03 
2102	 3.7417169819193E-03 
2103	 4.4833467837154E-03 
2104	 4.46740828478422E-03 
2105	 4.99059185171543E-03 
2106	 5.77821839730019E-03 
2107	 6.07248446511541E-03 
2108	 5.83470467882988E-03 
2109	 5.26929186903248E-03 
2110	 5.16365883711404E-03 
2111	 4.50009528704502E-03 
2112	 3.91337393713635E-03 
2113	 3.7407251782322E-03 
2114	 3.95342057940845E-03 
2115	 4.0754318778171E-03 
2116	 4.45452580269779E-03 
2117	 4.80752413758402E-03 
2118	 5.34535113039062E-03 
2119	 5.70340964878225E-03 
2120	 6.08460234212376E-03 
2121	 6.16782838885461E-03 
2122	 6.57449543893118E-03 
2123	 7.13447012684633E-03 
2124	 6.74170252295129E-03 
2125	 6.16794993011741E-03 
2126	 5.45070821261199E-03 
2127	 4.18106017065939E-03 
2128	 3.40373027449818E-03 
2129	 3.14182280151184E-03 
2130	 3.18648000426229E-03 
2131	 3.32671111315097E-03 
2132	 3.79178055461547E-03 
2133	 4.31158227412071E-03 
2134	 4.35562148984501E-03 
2135	 3.80861188437292E-03 
2136	 3.74728408501425E-03 
2137	 3.43139727610211E-03 
2138	 3.72745530232141E-03 
2139	 4.95541812490934E-03 
2140	 5.20653805327884E-03 
2141	 5.05512375633481E-03 
2142	 5.24568640687193E-03 
2143	 5.32882800983489E-03 
2144	 4.89481064963805E-03 
2145	 5.19356894930322E-03 
2146	 5.70257038529463E-03 
2147	 5.14987418353264E-03 
2148	 4.33520255145433E-03 
2149	 4.17325346961311E-03 
2150	 4.52165615985527E-03 
2151	 5.34297130011782E-03 
2152	 6.0407548806381E-03 
2153	 5.97605923077616E-03 
2154	 5.32715823749858E-03 
2155	 4.20433796414739E-03 
2156	 3.88727990065183E-03 
2157	 3.74078028247237E-03 
2158	 3.80278019422115E-03 
2159	 4.26272235525505E-03 
2160	 5.77618003658278E-03 
2161	 5.90959804963473E-03 
2162	 5.71650429169883E-03 
2163	 5.27546622306094E-03 
2164	 3.11856711008738E-03 
2165	 2.63063412076961E-03 
2166	 3.42536787290088E-03 
2167	 3.71884347691169E-03 
2168	 4.55268670658011E-03 
2169	 5.14101050156606E-03 
2170	 5.47495328124021E-03 
2171	 5.5810454898092E-03 
2172	 5.77632373881763E-03 
2173	 5.46576042164626E-03 
2174	 4.93498956084924E-03 
2175	 4.35831565799511E-03 
2176	 4.88561090620378E-03 
2177	 5.86155153795918E-03 
2178	 6.45212511892261E-03 
2179	 6.44402480228602E-03 
2180	 5.4574577340659E-03 
2181	 4.82208812371505E-03 
2182	 4.5891711690468E-03 
2183	 4.87651584168997E-03 
2184	 5.51045944753173E-03 
2185	 6.11188917452006E-03 
2186	 6.21117064654436E-03 
2187	 5.92249988173107E-03 
2188	 5.67702142113222E-03 
2189	 4.5724297758877E-03 
2190	 4.55155029984303E-03 
2191	 5.27349074881794E-03 
2192	 5.35784951619617E-03 
2193	 6.4045218736566E-03 
2194	 6.72138629147379E-03 
2195	 5.60258966836238E-03 
2196	 5.21650473812589E-03 
2197	 5.38227590181259E-03 
2198	 4.62775321622558E-03 
2199	 2.38972540240728E-03 
2200	 2.77205603920589E-03 
2201	 4.52999786538447E-03 
2202	 4.56896934302867E-03 
2203	 4.5898774643081E-03 
2204	 5.63783888643256E-03 
2205	 4.87272300077833E-03 
2206	 3.42053199811745E-03 
2207	 4.7361824574057E-03 
2208	 5.94509942389979E-03 
2209	 5.97091195546482E-03 
2210	 6.34782953835856E-03 
2211	 5.52961257797069E-03 
2212	 4.00758072302415E-03 
2213	 3.30838769496237E-03 
2214	 3.22312049859853E-03 
2215	 4.3537719101224E-03 
2216	 5.87294835600495E-03 
2217	 5.99699102939234E-03 
2218	 5.62585485052285E-03 
2219	 5.56769411163014E-03 
2220	 3.96490146973259E-03 
2221	 3.95959837351719E-03 
2222	 5.80897170995395E-03 
2223	 6.20172800966503E-03 
2224	 6.35026738428951E-03 
2225	 6.29691804457695E-03 
2226	 5.29772236482698E-03 
2227	 4.88246742263565E-03 
2228	 4.65650894537766E-03 
2229	 4.86105128515292E-03 
2230	 5.70474290829579E-03 
2231	 5.72224549062977E-03 
2232	 5.4373809962506E-03 
2233	 5.38911849143995E-03 
2234	 4.41474190746734E-03 
2235	 5.29406801967764E-03 
2236	 5.99356464916386E-03 
2237	 4.97795889505393E-03 
2238	 4.9178114721127E-03 
2239	 4.4526478250766E-03 
2240	 4.00792970031679E-03 
2241	 5.51124162693765E-03 
2242	 7.02054590170823E-03 
2243	 6.81457548683646E-03 
2244	 6.63320999609287E-03 
2245	 6.99633788542504E-03 
2246	 6.55580183384537E-03 
2247	 5.95543530289715E-03 
2248	 6.49429940381066E-03 
2249	 7.47954422006636E-03 
2250	 6.71845508754648E-03 
2251	 6.26930002157181E-03 
2252	 6.88582776154887E-03 
2253	 6.1170134825172E-03 
2254	 6.45963692446576E-03 
2255	 7.68566311926009E-03 
2256	 6.56991750194152E-03 
2257	 5.7046854461918E-03 
2258	 5.18627117600647E-03 
2259	 3.66174860086999E-03 
2260	 2.83525434250591E-03 
2261	 2.5468983794658E-03 
2262	 2.22303697133271E-03 
2263	 1.81330378545061E-03 
2264	 2.31948632919419E-03 
2265	 3.73765196827201E-03 
2266	 4.4934134676747E-03 
2267	 5.60323796539709E-03 
2268	 6.08781114436676E-03 
2269	 6.28702283620995E-03 
2270	 6.09509170166423E-03 
2271	 5.51303957615468E-03 
2272	 5.06716945367485E-03 
2273	 2.67061653643092E-03 
2274	 2.88637008364663E-03 
2275	 5.56466254304347E-03 
2276	 6.22249179259165E-03 
2277	 8.08539433444277E-03 
2278	 9.55833753081738E-03 
2279	 8.85003070148065E-03 
2280	 8.77594012667903E-03 
2281	 9.78656294563831E-03 
2282	 9.5611710159713E-03 
2283	 7.76603623800105E-03 
2284	 6.19586439411402E-03 
2285	 6.34553031616104E-03 
2286	 6.05226249510144E-03 
2287	 4.05607683579981E-03 
2288	 4.35712991496917E-03 
2289	 3.90067040523911E-03 
2290	 2.34283666617256E-03 
2291	 2.00044433820214E-03 
2292	 1.6695793143127E-03 
2293	 1.47076755270502E-03 
2294	 1.95907378589013E-03 
2295	 4.19423262379974E-03 
2296	 6.36815183108796E-03 
2297	 7.43993514597367E-03 
2298	 6.46868360362485E-03 
2299	 6.21273142813796E-03 
2300	 6.67947076121617E-03 
2301	 5.46653603658578E-03 
2302	 7.41935964702191E-03 
2303	 7.25683376912803E-03 
2304	 4.81250665777672E-03 
2305	 6.77116226843561E-03 
2306	 6.41063170662752E-03 
2307	 5.7787461271649E-03 
2308	 6.13871004403515E-03 
2309	 3.55235008941991E-03 
2310	 2.12180641231527E-03 
2311	 1.1120725542112E-03 
2312	 8.94332517471381E-04 
2313	 3.32567283301898E-03 
2314	 6.35106017643275E-03 
2315	 5.48702655455824E-03 
2316	 5.44003778149172E-03 
2317	 1.02450219618476E-02 
2318	 1.02422149695744E-02 
2319	 1.09561752004312E-02 
2320	 1.30039249529152E-02 
2321	 7.56799723250357E-03 
2322	 3.80590621455806E-03 
2323	 4.33424006339583E-03 
2324	 4.93012732763547E-03 
2325	 6.23785813859624E-03 
2326	 8.51682853678918E-03 
2327	 9.0423668006232E-03 
2328	 7.16772218508028E-03 
2329	 8.06671195649118E-03 
2330	 9.94742916612509E-03 
2331	 8.56243600751284E-03 
2332	 8.20178873030167E-03 
2333	 7.95824231934334E-03 
2334	 3.55340361397166E-03 
2335	 1.87346309983511E-03 
2336	 3.08283676689204E-03 
2337	 5.11518812129501E-03 
2338	 1.06637209556911E-02 
2339	 0.015129365591737 
2340	 1.70823341980333E-02 
2341	 1.24459334420421E-02 
2342	 4.17407359139982E-03 
2343	 2.20830408814143E-03 
2344	-7.23893092672254E-04 
2345	-9.46235404951641E-04 
2346	 5.52761646088387E-03 
2347	 5.45971531239346E-03 
2348	 3.82404473877559E-03 
2349	 5.92112596451625E-03 
2350	 3.38913875002755E-03 
2351	 2.83277789519448E-04 
2352	-1.91295238873988E-03 
2353	-5.12428689409562E-03 
2354	-2.69403936662544E-03 
2355	-1.10100133613102E-04 
2356	 1.88864333666658E-03 
2357	 8.11353806591527E-03 
2358	 6.34350817617129E-03 
2359	-7.45282602371555E-04 
2360	 6.89481352193791E-03 
2361	 9.03133913771004E-03 
2362	 2.28634868233135E-03 
2363	 9.62854923998898E-03 
2364	 6.5240447702129E-03 
2365	 5.02191042143919E-03 
2366	 2.14732724919009E-02 
2367	 2.23131022061095E-02 
2368	 1.32649776442198E-02 
2369	 1.14906224422705E-02 
2370	 1.26298954364969E-02 
2371	 8.08589135938643E-03 
2372	 8.24045225523816E-03 
2373	 0.011017275771563 
2374	 4.39836953623631E-03 
2375	 1.34366861904192E-02 
2376	 1.72640182069332E-02 
2377	-4.1266806920093E-03 
2378	-1.09223019405951E-02 
2379	-5.14115743155833E-03 
2380	 2.84744860256154E-03 
2381	 1.47103697719215E-02 
2382	 1.30962714693669E-02 
2383	-6.64682375359878E-03 
2384	-2.47379323927649E-02 
2385	-2.61640176742905E-02 
2386	-4.17199847432069E-03 
2387	 1.81521406078834E-02 
2388	 2.82389994457416E-02 
2389	 3.71505068392925E-02 
2390	 2.80572627510545E-02 
2391	 1.14383220095727E-02 
2392	 1.30558943498075E-02 
2393	 2.26851721730412E-02 
2394	 1.62861578610374E-02 
2395	 1.16635310111982E-02 
2396	 1.36994411924984E-02 
2397	 2.34061230961513E-02 
2398	 5.41799400379707E-02 
2399	 7.29411668160935E-02 
2400	 6.02627070959293E-02 
2401	 0.040426855024632 
2402	 3.64896845766988E-02 
2403	 4.31177732191072E-02 
2404	 3.65873127459794E-02 
2405	 1.94226476733569E-02 
2406	 3.87512897300388E-02 
2407	 5.66368000457406E-02 
2408	 5.74931005846275E-02 
2409	 6.26518985351323E-02 
2410	 5.21384042809433E-02 
2411	 6.04619975383186E-02 
2412	 0.113524032286367 
2413	 0.196452943845726 
2414	 0.167906494338303 
2415	 3.12396786555272E-02 
2416	-5.86167024340856E-02 
2417	-7.35494722182655E-02 
2418	-4.89498871265294E-02 
2419	-2.76797505667855E-02 
2420	 3.68624609296391E-02 
2421	 2.56279420303583E-02 
2422	-0.029268974806871 
2423	 9.90142451985941E-03 
2424	-2.44087535209563E-02 
2425	-9.43797887048672E-02 
2426	-9.96234361300565E-02 
2427	-7.39348112315217E-02 
2428	-4.41873111955099E-02 
2429	 1.04448595461002E-02 
2430	 0.116035356249762 
2431	 0.143328079802829 
2432	 0.14946074802755 
2433	 0.178727248393943 
2434	 0.168139946579736 
2435	 0.187028320710475 
2436	 0.195803080199506 
2437	 0.118844988146887 
2438	 1.92569876730982E-02 
2439	-0.105090943433393 
2440	-0.26575977209455 
2441	-0.300323988264007 
2442	-0.147573337371853 
2443	-5.12227969908785E-02 
2444	 9.78169344645788E-02 
2445	 0.215013662321784 
2446	 0.195246833883478 
2447	 0.322521252329616 
2448	 0.268595169408417 
2449	-0.120066164507561 
2450	-0.329199417102187 
2451	-0.651193516078162 
2452	-0.26922158282564 
2453	-0.197263860520896 
2454	-1.42756854390696E-02 
2455	-0.184364917572286 
2456	-0.29453983085184 
2457	-8.74947402830294E-02 
2458	-0.212413553998697 
2459	-0.421449321604745 
2460	-0.228361870931457 
2461	-0.264971211310913 
2462	-0.204240014724469 
2463	 0.153763982517576 
2464	-5.01002427565202E-02 
2465	-0.348910702265321 
2466	-0.247776754655775 
2467	-0.232276225131385 
2468	 0.172228686982338 
2469	 0.810089927763801 
2470	-2.92601856353976 
2471	-9.14389428846757E-02 
2472	 3.12580352772641 
2473	 0.209165166645283 
2474	-0.311801895377215 
2475	-0.983303483622574 
2476	-1.32793298256474 
2477	-1.30704279509871 
2478	 0.614577043405934 
2479	 2.91820053927949 
2480	 4.99318100283318 
2481	-0.889315304919832 
2482	 0.163071068363728 
2483	-23.5880746682305 
2484	 31.996862439478 
2485	 0.48666168827424 
2486	 16.674156856258 
2487	-8.42660743490659 
2488	 4.29937086011339 
2489	 0.639820766466508 
2490	-0.573842155280367 
2491	 1.31969502264225 
2492	-8.44265571762981E-02 
2493	-0.403805370277392 
2494	-0.534693923087385 
2495	 1.04837125351628 
2496	-1.75971758144228E-02 
2497	-0.18626817048609 
2498	-0.243243925186109 
2499	-2.56549242030121 
2500	 0.513820758707617 
