Wavelength	rt0629algea00009.asd
350	 4.22226997174842E-02 
351	 4.15079940624898E-02 
352	 4.14982285725174E-02 
353	 4.20044706560087E-02 
354	 0.042487950177641 
355	 4.18560756354333E-02 
356	 4.20788333164875E-02 
357	 4.21971151520456E-02 
358	 4.12020533885673E-02 
359	 0.041917949061016 
360	 4.20066163224945E-02 
361	 4.11160035703148E-02 
362	 4.03983020081148E-02 
363	 0.040539436746629 
364	 4.11572408032523E-02 
365	 4.15958200836766E-02 
366	 4.10290062392976E-02 
367	 4.08065012650366E-02 
368	 4.09086503801138E-02 
369	 4.08635648071909E-02 
370	 3.98562556465021E-02 
371	 4.01608644837606E-02 
372	 4.12115921065912E-02 
373	 4.10415958797645E-02 
374	 4.14176088926764E-02 
375	 4.13259974729771E-02 
376	 4.04531092754401E-02 
377	 3.97786640346177E-02 
378	 4.06267637051586E-02 
379	 4.12825784564077E-02 
380	 4.04850588507853E-02 
381	 4.06475029027947E-02 
382	 4.10513605240551E-02 
383	 4.12940015006545E-02 
384	 0.041194198386059 
385	 4.11099327430079E-02 
386	 4.11281444021689E-02 
387	 4.11415156798187E-02 
388	 4.08886571511509E-02 
389	 4.09841250543203E-02 
390	 4.13620879847463E-02 
391	 4.17620823268824E-02 
392	 4.18407273573892E-02 
393	 4.18179764191192E-02 
394	 4.16970916453886E-02 
395	 4.15076317153778E-02 
396	 4.18070231268516E-02 
397	 4.22221410011141E-02 
398	 4.23426603168456E-02 
399	 4.18567021253013E-02 
400	 4.19103617395875E-02 
401	 4.20568406049149E-02 
402	 4.19962404097323E-02 
403	 4.23420722313839E-02 
404	 0.042724049330352 
405	 4.27237355266505E-02 
406	 0.042173970026659 
407	 4.23352201401532E-02 
408	 4.26002186888229E-02 
409	 4.26948915894792E-02 
410	 4.27883741175132E-02 
411	 4.28193769302814E-02 
412	 0.042826490420507 
413	 4.28729168967569E-02 
414	 4.30460718257114E-02 
415	 4.32783489654446E-02 
416	 0.043408816002614 
417	 0.043342848556159 
418	 4.36040410802607E-02 
419	 4.37773657766162E-02 
420	 4.38117690927325E-02 
421	 4.40964637523378E-02 
422	 4.42732067309851E-02 
423	 0.044411314761613 
424	 4.46227454337554E-02 
425	 4.49328050504682E-02 
426	 4.48627537361913E-02 
427	 4.48030327693053E-02 
428	 4.53700115237898E-02 
429	 4.55162130536495E-02 
430	 4.57422733654567E-02 
431	 4.61905178861091E-02 
432	 4.64295046059327E-02 
433	 0.046573502719343 
434	 4.68757200236325E-02 
435	 4.74092568870249E-02 
436	 4.76418874023932E-02 
437	 4.78808508098969E-02 
438	 4.81072143539435E-02 
439	 0.048179764266222 
440	 0.048531510298634 
441	 4.88713381227205E-02 
442	 4.90537271924764E-02 
443	 4.92584731633001E-02 
444	 0.049468966330143 
445	 4.96683204221773E-02 
446	 4.98507644892944E-02 
447	 5.00764424412142E-02 
448	 5.02647408656774E-02 
449	 5.04091545079695E-02 
450	 5.05674304264814E-02 
451	 5.08572295673525E-02 
452	 5.10821531605799E-02 
453	 5.11385668120756E-02 
454	 5.11854216174329E-02 
455	 5.13318907282864E-02 
456	 5.14794066271257E-02 
457	 0.05152067178437 
458	 5.17939204980751E-02 
459	 5.19069036358798E-02 
460	 5.18235954035558E-02 
461	 5.18925964468201E-02 
462	 0.052132528714265 
463	 5.23144084113173E-02 
464	 5.23069139135362E-02 
465	 5.23869636837284E-02 
466	 5.24476293791717E-02 
467	 5.25519694290822E-02 
468	 5.27769018830877E-02 
469	 5.26775740645774E-02 
470	 5.28347445056743E-02 
471	 5.32480823696358E-02 
472	 5.30380681232228E-02 
473	 0.053112154070603 
474	 5.33689773399603E-02 
475	 5.35291222218238E-02 
476	 5.36858174846611E-02 
477	 0.053670934684476 
478	 5.36710115373473E-02 
479	 5.40493735866943E-02 
480	 5.42921656297502E-02 
481	 5.44075080057255E-02 
482	 5.44989292434753E-02 
483	 5.47182147796253E-02 
484	 5.48250386612568E-02 
485	 5.49855548265168E-02 
486	 5.53829589124647E-02 
487	 0.05545606992438 
488	 5.55948168637857E-02 
489	 5.59058095535457E-02 
490	 0.056177668205274 
491	 5.63904150088661E-02 
492	 5.65791086979515E-02 
493	 0.056798573621865 
494	 5.71352819092131E-02 
495	 0.057357152871173 
496	 5.75373172789865E-02 
497	 5.78706581659131E-02 
498	 5.81382348082597E-02 
499	 5.83716986693217E-02 
500	 5.86271665884482E-02 
501	 5.89581010569216E-02 
502	 0.059266181739104 
503	 5.95234479454148E-02 
504	 5.97564991623025E-02 
505	 0.060113980283146 
506	 6.04041459294235E-02 
507	 6.06246202030757E-02 
508	 6.09238512390613E-02 
509	 6.12678898058536E-02 
510	 6.15945159215259E-02 
511	 6.18681044758685E-02 
512	 6.21154477092052E-02 
513	 0.062432989186332 
514	 6.28040273803127E-02 
515	 6.31589327761953E-02 
516	 6.34909383359511E-02 
517	 6.38584630221068E-02 
518	 6.42514546944103E-02 
519	 6.45729036328905E-02 
520	 6.48858844285536E-02 
521	 6.52261833232725E-02 
522	 6.56028926841558E-02 
523	 6.59552177638206E-02 
524	 6.62794683274678E-02 
525	 6.66291714365622E-02 
526	 0.067075533400818 
527	 6.73719380657361E-02 
528	 6.77067122563925E-02 
529	 6.81548702417179E-02 
530	 6.84432474196502E-02 
531	 6.87773290550543E-02 
532	 0.069176329407289 
533	 6.95671613067891E-02 
534	 6.97508087333749E-02 
535	 7.00736868904887E-02 
536	 7.05688736278057E-02 
537	 7.08849599626687E-02 
538	 7.12604856601092E-02 
539	 7.16563544817962E-02 
540	 7.20046183773331E-02 
541	 7.23614583463783E-02 
542	 7.26718176398597E-02 
543	 7.29578931126541E-02 
544	 7.32876092169008E-02 
545	 7.36613169575378E-02 
546	 7.39702905857819E-02 
547	 7.42246249289757E-02 
548	 7.47003297533355E-02 
549	 7.50828098004387E-02 
550	 0.07536285827955 
551	 7.56460911399595E-02 
552	 7.60077267753419E-02 
553	 7.63646903767296E-02 
554	 7.66879126281349E-02 
555	 7.70176929315181E-02 
556	 0.077316176338321 
557	 7.76233721742835E-02 
558	 7.79603122756269E-02 
559	 7.82406146429144E-02 
560	 7.84983881716883E-02 
561	 7.87375839159789E-02 
562	 7.89515317290045E-02 
563	 7.92144072603284E-02 
564	 7.94293936914182E-02 
565	 0.079574293060881 
566	 7.98184362896551E-02 
567	 8.00194891056442E-02 
568	 8.01658506737473E-02 
569	 0.080299437743244 
570	 8.04727931848537E-02 
571	 8.06696512672986E-02 
572	 8.08508636376599E-02 
573	 8.09609248669148E-02 
574	 8.10515926550714E-02 
575	 8.10866972149987E-02 
576	 8.10753204490693E-02 
577	 8.12378421057622E-02 
578	 8.13828693590029E-02 
579	 8.13946795440612E-02 
580	 8.12513322311107E-02 
581	 8.13098177102173E-02 
582	 8.13343476949718E-02 
583	 8.12030796414584E-02 
584	 8.11409823605868E-02 
585	 8.09880328488045E-02 
586	 8.07989039680943E-02 
587	 8.06810390737431E-02 
588	 8.05889066560424E-02 
589	 8.04486959351188E-02 
590	 8.02832597517255E-02 
591	 8.01975898713932E-02 
592	 7.99380475646989E-02 
593	 7.96760197133753E-02 
594	 7.95304538319136E-02 
595	 7.91694780061603E-02 
596	 0.078829903305448 
597	 7.84748645856561E-02 
598	 7.79552097018787E-02 
599	 0.07758443827263 
600	 7.72719345965207E-02 
601	 7.69318919369855E-02 
602	 7.65565199760864E-02 
603	 7.64628566792382E-02 
604	 7.64614923678111E-02 
605	 7.62761252011776E-02 
606	 7.61040881917009E-02 
607	 7.60714123289089E-02 
608	 7.60921145548306E-02 
609	 7.58842258938197E-02 
610	 7.58591128663301E-02 
611	 7.58355325804767E-02 
612	 0.075659037251199 
613	 7.56291754514569E-02 
614	 7.56085174151846E-02 
615	 7.55315375973382E-02 
616	 7.53988470985704E-02 
617	 7.54324618657781E-02 
618	 7.54044029650533E-02 
619	 7.52652135918515E-02 
620	 7.53378372305447E-02 
621	 0.075244037441732 
622	 7.50912977205779E-02 
623	 7.50690397577897E-02 
624	 7.49309205381029E-02 
625	 7.49344020348238E-02 
626	 7.50200220125481E-02 
627	 7.48348029697118E-02 
628	 0.074700970543335 
629	 7.46434678943187E-02 
630	 0.074619003290526 
631	 7.45722288007882E-02 
632	 7.45296000317256E-02 
633	 7.45151904955055E-02 
634	 7.45267359620952E-02 
635	 7.43804062315221E-02 
636	 7.41618562217246E-02 
637	 7.40123484575863E-02 
638	 7.41172761490221E-02 
639	 7.40284344781972E-02 
640	 7.38850186787896E-02 
641	 0.073887418816329 
642	 7.37068235280189E-02 
643	 7.36235691442085E-02 
644	 7.36125607945419E-02 
645	 7.34077258841892E-02 
646	 7.32485345734486E-02 
647	 7.30221571873661E-02 
648	 7.27412073358508E-02 
649	 7.28811529142117E-02 
650	 7.26929198837841E-02 
651	 0.072299400516407 
652	 7.21090591564023E-02 
653	 7.19013338294922E-02 
654	 7.16209325851377E-02 
655	 7.12359045007653E-02 
656	 7.07935807483445E-02 
657	 0.070467802028956 
658	 7.01557103576465E-02 
659	 6.97705185868311E-02 
660	 6.94821700415659E-02 
661	 6.92629230202894E-02 
662	 0.069034540741577 
663	 6.87223817388909E-02 
664	 6.86246387381674E-02 
665	 6.84545883126288E-02 
666	 6.81462032484095E-02 
667	 6.81698003739813E-02 
668	 6.81002327951439E-02 
669	 6.79594927857475E-02 
670	 6.78864868761435E-02 
671	 0.067823686290424 
672	 6.77902460493329E-02 
673	 6.77381887975527E-02 
674	 0.067570364304377 
675	 6.74998676561417E-02 
676	 6.75802465910393E-02 
677	 6.77444802615809E-02 
678	 6.77185727804174E-02 
679	 6.76393775628966E-02 
680	 6.76224815151165E-02 
681	 6.77384573808054E-02 
682	 0.067789546269847 
683	 0.067838120050947 
684	 6.78929931507162E-02 
685	 6.78615687290216E-02 
686	 6.79143071945945E-02 
687	 6.79303730101089E-02 
688	 6.78236920775786E-02 
689	 6.79600601112449E-02 
690	 6.79376989935022E-02 
691	 6.77167753248336E-02 
692	 6.74884806079128E-02 
693	 6.75086455387375E-02 
694	 6.74200275096788E-02 
695	 6.71063655985349E-02 
696	 6.69450672664639E-02 
697	 6.66778778794681E-02 
698	 6.63262905148024E-02 
699	 0.066000058158409 
700	 6.56889692477634E-02 
701	 6.53527475101667E-02 
702	 6.49503131220024E-02 
703	 6.44496102121939E-02 
704	 0.064106131705975 
705	 6.36274198488867E-02 
706	 6.29223338510007E-02 
707	 6.24889823171485E-02 
708	 0.061882792493414 
709	 6.11427498504541E-02 
710	 6.04454833320829E-02 
711	 5.96833315851002E-02 
712	 5.88447236108812E-02 
713	 5.79341698628064E-02 
714	 5.69454898651902E-02 
715	 5.60718436263266E-02 
716	 5.51491161251597E-02 
717	 5.40338799428598E-02 
718	 5.27507229304399E-02 
719	 5.16895614144267E-02 
720	 5.08488586199816E-02 
721	 4.98948921518299E-02 
722	 4.90294811030015E-02 
723	 0.047976314911472 
724	 4.67470982892794E-02 
725	 4.54757281480336E-02 
726	 4.43659947776347E-02 
727	 4.31826126299612E-02 
728	 4.17786505787263E-02 
729	 4.05151461741791E-02 
730	 3.91081786628386E-02 
731	 3.77490882897638E-02 
732	 3.66771310086302E-02 
733	 3.57404067464516E-02 
734	 3.49481352097439E-02 
735	 3.42864327917396E-02 
736	 0.033674013339431 
737	 3.31346978237853E-02 
738	 3.27411507410022E-02 
739	 3.25204535562925E-02 
740	 3.23084899567126E-02 
741	 3.21566320607975E-02 
742	 3.20685122717234E-02 
743	 3.20024314497586E-02 
744	 3.17697980163203E-02 
745	 3.16766338551775E-02 
746	 3.17608624336497E-02 
747	 3.16412664716792E-02 
748	 3.15705237900939E-02 
749	 3.15112651736919E-02 
750	 3.14153021689169E-02 
751	 0.031446761871916 
752	 3.13562116981269E-02 
753	 3.12181774302707E-02 
754	 0.031244557085206 
755	 3.11696117511616E-02 
756	 3.11156013295009E-02 
757	 3.11357037371947E-02 
758	 3.11394675539262E-02 
759	 3.12896570674008E-02 
760	 3.13952030815268E-02 
761	 3.11610197477409E-02 
762	 0.031162813379475 
763	 3.10102466132723E-02 
764	 3.08955598934823E-02 
765	 0.03103011644399 
766	 3.10599511325747E-02 
767	 3.11095280366531E-02 
768	 3.12097475077918E-02 
769	 3.12908997127652E-02 
770	 3.12370607258928E-02 
771	 3.12136800838552E-02 
772	 3.13336335586199E-02 
773	 3.14104575195751E-02 
774	 0.031503708711222 
775	 3.15908856733576E-02 
776	 3.16408032177376E-02 
777	 3.17675845271646E-02 
778	 3.18619557956252E-02 
779	 3.19553535102737E-02 
780	 3.22120437472795E-02 
781	 3.22430264029575E-02 
782	 0.032346510618935 
783	 3.26718355534005E-02 
784	 3.27441566333564E-02 
785	 3.28572003271096E-02 
786	 3.30858649480661E-02 
787	 3.33740737632097E-02 
788	 3.34039665359108E-02 
789	 3.35909380425478E-02 
790	 3.39322980859543E-02 
791	 3.40916901427118E-02 
792	 3.43293767882258E-02 
793	 0.034522142766535 
794	 3.46340757273404E-02 
795	 3.48397804521498E-02 
796	 3.51381127537216E-02 
797	 0.035395253169154 
798	 3.55123185380249E-02 
799	 3.55908114690378E-02 
800	 3.57201287977999E-02 
801	 3.59107498451649E-02 
802	 3.61158084307483E-02 
803	 3.63000423399483E-02 
804	 3.63583732492592E-02 
805	 3.62874907858269E-02 
806	 3.61983273752472E-02 
807	 3.63350078117941E-02 
808	 3.64428393607497E-02 
809	 3.63245402351518E-02 
810	 3.62195658218994E-02 
811	 3.59292614228271E-02 
812	 3.56587023742978E-02 
813	 3.57214705114561E-02 
814	 3.58518558856555E-02 
815	 3.55616502268868E-02 
816	 3.50050170523388E-02 
817	 3.48036772494204E-02 
818	 3.45675747779249E-02 
819	 0.034202670926704 
820	 3.37592719725246E-02 
821	 3.34427441541362E-02 
822	 3.27997219705722E-02 
823	 0.031964748062017 
824	 3.11962102700642E-02 
825	 0.03052475391475 
826	 2.96993448377696E-02 
827	 2.88327485984865E-02 
828	 0.028157220123928 
829	 2.72884947354283E-02 
830	 2.64606367390332E-02 
831	 2.57668715445647E-02 
832	 2.51929553303316E-02 
833	 2.47664302195066E-02 
834	 0.024422897981137 
835	 2.41359124635538E-02 
836	 2.39466454092434E-02 
837	 2.37671565835772E-02 
838	 2.35203633187009E-02 
839	 2.32059131986984E-02 
840	 0.022993161122816 
841	 2.28328771331892E-02 
842	 2.27073703711491E-02 
843	 2.25910615807954E-02 
844	 2.23818224673532E-02 
845	 2.22708000737627E-02 
846	 2.22070028149391E-02 
847	 2.19917643823733E-02 
848	 2.17733902802686E-02 
849	 0.021520931940484 
850	 2.13338524689986E-02 
851	 2.14597508544335E-02 
852	 2.13033002015407E-02 
853	 2.11599831488113E-02 
854	 2.12318412511823E-02 
855	 2.11281128989221E-02 
856	 2.07095312148579E-02 
857	 2.04273281573733E-02 
858	 2.06034890606634E-02 
859	 0.020535429120171 
860	 2.03613937005972E-02 
861	 2.01542330409072E-02 
862	 1.99869639517364E-02 
863	 2.01219329350733E-02 
864	 2.01219162769018E-02 
865	 1.98590739932154E-02 
866	 1.95640085974882E-02 
867	 1.94593116427775E-02 
868	 1.94209868638037E-02 
869	 0.019367387183531 
870	 1.93424390611721E-02 
871	 1.90783827705948E-02 
872	 1.87420752169439E-02 
873	 1.85403209339393E-02 
874	 1.85404636390459E-02 
875	 0.018566552017245 
876	 1.84174534349402E-02 
877	 1.80679774434517E-02 
878	 1.80949516814927E-02 
879	 1.80638403532367E-02 
880	 1.78249922088356E-02 
881	 1.74403475709922E-02 
882	 1.71674042463067E-02 
883	 1.72614897212944E-02 
884	 1.74088791402099E-02 
885	 1.70173730834345E-02 
886	 1.68689315322355E-02 
887	 0.017064063479742 
888	 1.72091932085816E-02 
889	 1.65613475135866E-02 
890	 1.62757070746071E-02 
891	 1.64685698956833E-02 
892	 1.68452725948155E-02 
893	 1.67048454383847E-02 
894	 1.66815602482646E-02 
895	 1.66389095745458E-02 
896	 1.63489657372702E-02 
897	 1.60411775805071E-02 
898	 0.016076797709718 
899	 1.60056359339395E-02 
900	 1.55033351651854E-02 
901	 1.56573899013314E-02 
902	 1.58674411215944E-02 
903	 0.015834696235096 
904	 1.54590872062212E-02 
905	 1.48597887835944E-02 
906	 0.014707586489176 
907	 1.51228031539262E-02 
908	 1.56168837722339E-02 
909	 1.50144517708117E-02 
910	 1.49414144687528E-02 
911	 1.52580029696307E-02 
912	 1.43010148968755E-02 
913	 1.42659389778501E-02 
914	 1.43448595677511E-02 
915	 1.40451224963051E-02 
916	 0.013701457175588 
917	 1.33429009231624E-02 
918	 1.33635113616766E-02 
919	 1.35567685106296E-02 
920	 1.29899461591832E-02 
921	 1.27307309461278E-02 
922	 1.29699869092497E-02 
923	 1.33504584173915E-02 
924	 1.27300322571536E-02 
925	 1.22399870673745E-02 
926	 1.20594638336964E-02 
927	 0.012056181948329 
928	 1.20731714992836E-02 
929	 1.21429979421863E-02 
930	 1.16822230969909E-02 
931	 1.04306892385883E-02 
932	 1.30938268364353E-02 
933	 1.43838306236202E-02 
934	 1.19897601030755E-02 
935	 8.56231338423667E-03 
936	 9.66019213652929E-03 
937	 1.18491484114443E-02 
938	 1.21301276586007E-02 
939	 1.05608788316175E-02 
940	 1.70272748198059E-02 
941	 1.66785928794573E-02 
942	 1.00340017082833E-02 
943	 5.68475453513846E-03 
944	 7.22266947165495E-03 
945	 1.09604151059435E-02 
946	 1.21148659584158E-02 
947	 8.58528876790292E-03 
948	 1.04434331316392E-02 
949	 1.22472358733149E-02 
950	 1.22766774492186E-02 
951	 1.18450395167811E-02 
952	 1.17347042653559E-02 
953	 1.00813559801962E-02 
954	 8.0574937139147E-03 
955	 8.54647061581347E-03 
956	 1.16430960299079E-02 
957	 1.09456573303072E-02 
958	 6.69127946446905E-03 
959	 4.05742008153948E-03 
960	 7.04123084861711E-03 
961	 7.25191249099522E-03 
962	 5.52964254288007E-03 
963	 8.22905121075686E-03 
964	 1.01424377915696E-02 
965	 1.07035285259282E-02 
966	 1.03946633044503E-02 
967	 0.010085587031102 
968	 1.04288205591237E-02 
969	 9.66966390676746E-03 
970	 8.06541128418086E-03 
971	 7.57230953032434E-03 
972	 7.7257668484912E-03 
973	 8.86420148530069E-03 
974	 9.80416115970145E-03 
975	 8.52469744521911E-03 
976	 8.81743362108843E-03 
977	 7.74927073407929E-03 
978	 6.33305970699673E-03 
979	 8.43480273195278E-03 
980	 8.64040784488356E-03 
981	 8.65126531882206E-03 
982	 9.5007573055712E-03 
983	 1.08192680900211E-02 
984	 1.07010317637933E-02 
985	 0.010938645139741 
986	 1.10968446269381E-02 
987	 9.34281365259253E-03 
988	 8.62841508721969E-03 
989	 8.69950824652001E-03 
990	 8.45538817192975E-03 
991	 7.04187226879012E-03 
992	 7.70168293165555E-03 
993	 8.68374192875072E-03 
994	 8.79475605204385E-03 
995	 7.95807603569884E-03 
996	 7.75039493148675E-03 
997	 9.01916777683363E-03 
998	 9.36505351373891E-03 
999	 6.26666381751276E-03 
1000	 7.14342395744073E-03 
1001	 8.09877699708402E-03 
1002	 8.29646847965197E-03 
1003	 8.50096220059741E-03 
1004	 9.12768001557754E-03 
1005	 9.30083118053494E-03 
1006	 9.22416311132397E-03 
1007	 9.1123529216886E-03 
1008	 8.99393571491318E-03 
1009	 8.87811165077708E-03 
1010	 8.82528490063625E-03 
1011	 8.9021720436703E-03 
1012	 8.9382479123619E-03 
1013	 8.91557103783695E-03 
1014	 8.76619344228897E-03 
1015	 8.36166119254533E-03 
1016	 8.35681543281329E-03 
1017	 0.008407033462283 
1018	 8.54828226434476E-03 
1019	 9.24509897488258E-03 
1020	 9.3887467902167E-03 
1021	 9.36392925957503E-03 
1022	 8.98933384820877E-03 
1023	 8.68334187284955E-03 
1024	 8.66027266043783E-03 
1025	 8.70202474752551E-03 
1026	 8.99089043637599E-03 
1027	 9.16870535305891E-03 
1028	 9.40239669312856E-03 
1029	 9.41785353599746E-03 
1030	 9.33502668823895E-03 
1031	 9.33530050757112E-03 
1032	 9.21280623759247E-03 
1033	 9.18475272548081E-03 
1034	 9.31921908358935E-03 
1035	 9.32925532875795E-03 
1036	 9.12035534965675E-03 
1037	 9.14893743807633E-03 
1038	 9.23560783629692E-03 
1039	 9.45416685932879E-03 
1040	 9.81210560123899E-03 
1041	 1.01884638010345E-02 
1042	 0.010273602750712 
1043	 1.02486210251782E-02 
1044	 1.01278024375299E-02 
1045	 9.68253818149582E-03 
1046	 9.54521832718252E-03 
1047	 9.36220382138732E-03 
1048	 9.42703167114583E-03 
1049	 9.78413916140511E-03 
1050	 9.99138465883194E-03 
1051	 1.04949160385133E-02 
1052	 1.06038366038905E-02 
1053	 1.04534556256769E-02 
1054	 1.02965213184413E-02 
1055	 9.56329775144495E-03 
1056	 9.37172089910163E-03 
1057	 9.40444509582709E-03 
1058	 9.68359122388715E-03 
1059	 9.8544131593498E-03 
1060	 1.04547374479346E-02 
1061	 1.05639571932649E-02 
1062	 1.03242324867035E-02 
1063	 1.02762544209998E-02 
1064	 1.01470846169879E-02 
1065	 1.01000667733425E-02 
1066	 1.01019973264652E-02 
1067	 1.01359743271988E-02 
1068	 1.02906265428102E-02 
1069	 1.03000414256313E-02 
1070	 1.01293388649782E-02 
1071	 1.01700019179194E-02 
1072	 1.02309430252716E-02 
1073	 1.04286594750177E-02 
1074	 1.03669690657942E-02 
1075	 1.04354771641321E-02 
1076	 1.02716098901883E-02 
1077	 9.56770645264219E-03 
1078	 9.49086990122579E-03 
1079	 0.009834539629567 
1080	 9.7985222500853E-03 
1081	 9.87971591169238E-03 
1082	 9.84826335559583E-03 
1083	 9.21558106844935E-03 
1084	 9.21076607168716E-03 
1085	 9.95933268070297E-03 
1086	 1.00474787661341E-02 
1087	 9.95624283797948E-03 
1088	 1.00032271378271E-02 
1089	 9.63545916133202E-03 
1090	 9.39613135212066E-03 
1091	 9.40872668559395E-03 
1092	 9.94835014768053E-03 
1093	 9.90526327751923E-03 
1094	 9.58026534458962E-03 
1095	 9.43722025835658E-03 
1096	 9.14908307413063E-03 
1097	 9.06950709466227E-03 
1098	 9.18519119520896E-03 
1099	 9.22793927937382E-03 
1100	 9.31563272654179E-03 
1101	 9.30731790306324E-03 
1102	 9.27982991202127E-03 
1103	 9.40040792573062E-03 
1104	 9.70550469937936E-03 
1105	 9.49196489817994E-03 
1106	 1.00387390998487E-02 
1107	 0.010390923136237 
1108	 9.96722211943704E-03 
1109	 1.00561126726881E-02 
1110	 9.76608439925579E-03 
1111	 8.44430687407968E-03 
1112	 8.21711396088969E-03 
1113	 8.7544795303266E-03 
1114	 9.13285144117495E-03 
1115	 1.08491848806168E-02 
1116	 1.12509081526424E-02 
1117	 9.78334467807717E-03 
1118	 9.81417239821655E-03 
1119	 1.03553276165758E-02 
1120	 1.05745909764669E-02 
1121	 1.22589637791435E-02 
1122	 1.41681510751957E-02 
1123	 1.63909525159245E-02 
1124	 1.47175715985258E-02 
1125	 1.58796525009223E-02 
1126	 1.95039833551123E-02 
1127	 1.62776267291033E-02 
1128	 1.45778747731699E-02 
1129	 0.013793608525549 
1130	 0.012282081655264 
1131	 1.16054216562748E-02 
1132	 1.28908939371489E-02 
1133	 1.19384740016968E-02 
1134	 9.72387745987928E-03 
1135	 0.010125667636615 
1136	 1.11639039737395E-02 
1137	 1.11350894660235E-02 
1138	 1.22889319650941E-02 
1139	 1.16146365031119E-02 
1140	 9.86486115841243E-03 
1141	 9.65389785338263E-03 
1142	 1.11514797469316E-02 
1143	 1.25216496443469E-02 
1144	 1.16834060779962E-02 
1145	 1.04680419050101E-02 
1146	 1.07812628397493E-02 
1147	 1.01992220320737E-02 
1148	 8.54639899631644E-03 
1149	 8.71977775428951E-03 
1150	 8.69826566398971E-03 
1151	 7.14485124908441E-03 
1152	 7.2908457479473E-03 
1153	 9.63052120880579E-03 
1154	 9.57106439180162E-03 
1155	 8.9778774426802E-03 
1156	 7.85241069510959E-03 
1157	 7.06589245301697E-03 
1158	 7.01501383887058E-03 
1159	 7.06092854238903E-03 
1160	 7.24808179652808E-03 
1161	 7.29277324173119E-03 
1162	 6.97590185674878E-03 
1163	 6.67715869803272E-03 
1164	 6.91952844570209E-03 
1165	 7.26813751473584E-03 
1166	 7.16729735877613E-03 
1167	 7.09981897193275E-03 
1168	 7.20175429735335E-03 
1169	 7.23229369452283E-03 
1170	 7.42320532946807E-03 
1171	 7.48100819390746E-03 
1172	 7.44797768891449E-03 
1173	 7.35894987646829E-03 
1174	 7.16037416118163E-03 
1175	 7.15147303703447E-03 
1176	 7.05532265755369E-03 
1177	 7.07631266260718E-03 
1178	 6.99579548340648E-03 
1179	 7.02051837622552E-03 
1180	 7.0029391160735E-03 
1181	 6.81070765832366E-03 
1182	 6.99767376385795E-03 
1183	 7.19261453906978E-03 
1184	 7.00816981880396E-03 
1185	 6.97913110022783E-03 
1186	 7.17459758796354E-03 
1187	 6.9893076598863E-03 
1188	 6.61179110547965E-03 
1189	 6.61557735640446E-03 
1190	 6.79288773435492E-03 
1191	 6.75602250620784E-03 
1192	 6.74541892073949E-03 
1193	 6.93188366083131E-03 
1194	 7.18825829137473E-03 
1195	 7.02125175349039E-03 
1196	 6.68745204700402E-03 
1197	 6.47631603412602E-03 
1198	 6.54647696434348E-03 
1199	 6.68372333543142E-03 
1200	 6.6514776016825E-03 
1201	 6.86801258223267E-03 
1202	 6.89385901171899E-03 
1203	 6.56628806305277E-03 
1204	 6.71145392243885E-03 
1205	 6.93340004046503E-03 
1206	 6.81096670205372E-03 
1207	 6.73186646190912E-03 
1208	 6.75732399488785E-03 
1209	 6.81912081058063E-03 
1210	 6.80506582640412E-03 
1211	 6.82665564654323E-03 
1212	 6.96229527378847E-03 
1213	 6.87849150985817E-03 
1214	 6.79297530737771E-03 
1215	 6.71487978581612E-03 
1216	 6.78833810464143E-03 
1217	 6.71034899047477E-03 
1218	 6.78860912673528E-03 
1219	 7.02159946381291E-03 
1220	 6.99069752128634E-03 
1221	 6.8054549101564E-03 
1222	 6.54540768156026E-03 
1223	 6.42240959793944E-03 
1224	 6.49524250931826E-03 
1225	 6.53160867630738E-03 
1226	 6.61696728151864E-03 
1227	 6.65673885148263E-03 
1228	 6.58349012440235E-03 
1229	 6.52235574131829E-03 
1230	 6.48226521383842E-03 
1231	 6.51999974796131E-03 
1232	 6.56840827309274E-03 
1233	 6.62742822825783E-03 
1234	 6.68476937214597E-03 
1235	 6.66208999191443E-03 
1236	 6.39504181899316E-03 
1237	 6.38928148767404E-03 
1238	 6.47669965692735E-03 
1239	 6.64989279815153E-03 
1240	 6.62714874859242E-03 
1241	 6.5603758596892E-03 
1242	 6.54809386528758E-03 
1243	 6.46687817936789E-03 
1244	 6.60130892163265E-03 
1245	 6.78454261228536E-03 
1246	 6.75033762545865E-03 
1247	 6.72676653106128E-03 
1248	 6.70198151695173E-03 
1249	 6.54717275900234E-03 
1250	 6.46934590063115E-03 
1251	 6.58159189970364E-03 
1252	 6.54756463627417E-03 
1253	 6.41238608742375E-03 
1254	 6.4459616447266E-03 
1255	 6.50670596815618E-03 
1256	 6.53585864182429E-03 
1257	 6.71923290510732E-03 
1258	 6.73347532508615E-03 
1259	 6.42905795177321E-03 
1260	 6.42612513604544E-03 
1261	 6.74244249923925E-03 
1262	 6.7689115878321E-03 
1263	 6.77147134494368E-03 
1264	 6.80118347888857E-03 
1265	 6.84231614123715E-03 
1266	 6.5709526633981E-03 
1267	 6.59307529079995E-03 
1268	 6.81455844635398E-03 
1269	 6.60553337400947E-03 
1270	 6.22693554548574E-03 
1271	 6.24831704929477E-03 
1272	 6.43956684033506E-03 
1273	 6.36893121373233E-03 
1274	 6.45204755793399E-03 
1275	 6.65967937800113E-03 
1276	 6.49468011088243E-03 
1277	 6.38946805203852E-03 
1278	 6.48179814276316E-03 
1279	 6.34122862484219E-03 
1280	 6.33739421145529E-03 
1281	 6.33053199392593E-03 
1282	 6.39500909727492E-03 
1283	 6.36806285595231E-03 
1284	 6.26894115194222E-03 
1285	 6.22738874691296E-03 
1286	 6.2772389657031E-03 
1287	 6.28686586844416E-03 
1288	 6.23381339920029E-03 
1289	 6.25869986269773E-03 
1290	 6.34572502981479E-03 
1291	 6.30321661893395E-03 
1292	 6.27186188794253E-03 
1293	 6.33485616749936E-03 
1294	 6.22161261528598E-03 
1295	 6.04294417275626E-03 
1296	 0.006094481450283 
1297	 6.22633363136237E-03 
1298	 5.96322823648305E-03 
1299	 5.76393816377955E-03 
1300	 5.96655814784067E-03 
1301	 6.11876940862371E-03 
1302	 6.32991615960276E-03 
1303	 6.49225357200612E-03 
1304	 6.28461236139697E-03 
1305	 6.01512284629675E-03 
1306	 5.96012879650564E-03 
1307	 6.20367301102378E-03 
1308	 6.32076377915844E-03 
1309	 6.48290018302057E-03 
1310	 6.47826922864818E-03 
1311	 6.39067487226368E-03 
1312	 6.43281938680581E-03 
1313	 6.37907644988468E-03 
1314	 6.35478192432909E-03 
1315	 6.59165813132554E-03 
1316	 6.59095826471247E-03 
1317	 6.19901425676826E-03 
1318	 6.12460352631978E-03 
1319	 6.10360371543818E-03 
1320	 6.13552888366345E-03 
1321	 6.23807756378507E-03 
1322	 6.88712016372572E-03 
1323	 7.25148445467644E-03 
1324	 7.07230163242678E-03 
1325	 6.5927656674749E-03 
1326	 6.50104148662237E-03 
1327	 6.72424605978343E-03 
1328	 6.6325245338476E-03 
1329	 6.59700362376506E-03 
1330	 6.86958805335634E-03 
1331	 7.40975378741277E-03 
1332	 7.78790548890357E-03 
1333	 7.57418745182546E-03 
1334	 7.52322426692031E-03 
1335	 7.39504080139773E-03 
1336	 6.06742351755824E-03 
1337	 6.04655705353452E-03 
1338	 7.60827838430266E-03 
1339	 7.73415539384749E-03 
1340	 7.14029551857941E-03 
1341	 7.29743074394299E-03 
1342	 7.62678309551977E-03 
1343	 7.4651482978621E-03 
1344	 7.19245223288946E-03 
1345	 7.27568220865365E-03 
1346	 6.54440659638276E-03 
1347	 5.93533561166103E-03 
1348	 6.89716213484538E-03 
1349	 9.12587602201752E-03 
1350	 1.24460564127155E-02 
1351	 1.53980973505897E-02 
1352	 2.36159141978992E-02 
1353	 3.25768372654662E-02 
1354	 3.63727872179275E-02 
1355	 2.60957328415424E-02 
1356	 3.60786775286117E-02 
1357	 0.102918041708704 
1358	 0.121129500036847 
1359	 0.11379917772298 
1360	 0.175385428680692 
1361	 0.185412099204219 
1362	 0.140306592048571 
1363	 0.112262973390112 
1364	 0.102920843360951 
1365	 0.110813572303858 
1366	 0.020887188088676 
1367	-5.47750579432862E-02 
1368	 5.08290760745235E-02 
1369	 0.162321262178158 
1370	 0.151231441783775 
1371	 0.315731716195606 
1372	 0.467930293314628 
1373	 0.321547292229327 
1374	 0.284511891706691 
1375	 0.401029939284396 
1376	 0.479976864888818 
1377	 0.497608434819458 
1378	 0.360269747909515 
1379	 0.162739173761219 
1380	 0.209519402257318 
1381	 0.235095293024538 
1382	 0.26471966846035 
1383	 0.760139368568865 
1384	 0.810444830042183 
1385	 0.296848503908517 
1386	 0.136481048741243 
1387	 4.22551869546256E-02 
1388	-2.50797943836643E-02 
1389	 0.385651041790666 
1390	 0.482158867519031 
1391	-6.95555463450892E-03 
1392	-0.673148426885647 
1393	-0.483691338221615 
1394	-0.25026977147585 
1395	 0.235465541173152 
1396	 0.299657354352782 
1397	-0.054423169854774 
1398	 0.112177075363295 
1399	 0.37779442311654 
1400	 0.275277603087259 
1401	 0.441833340927652 
1402	 0.905074820975138 
1403	 1.08263435150334 
1404	 0.753320092683796 
1405	 0.656729544807598 
1406	 0.839180969108861 
1407	 0.666156237373927 
1408	 0.084429203086864 
1409	 8.34788188688717E-02 
1410	 0.281894742084219 
1411	 0.169330843760866 
1412	 0.141271170635554 
1413	 0.169497398255812 
1414	 5.66168204295772E-02 
1415	 1.15281899336651E-02 
1416	 0.123083403281519 
1417	 0.143416697352395 
1418	 8.76788068725116E-02 
1419	 6.35584736903617E-02 
1420	 8.37011501509534E-02 
1421	 6.04889411805041E-02 
1422	-1.88291646306137E-03 
1423	-6.99682697297634E-05 
1424	 2.86050620875522E-02 
1425	 2.77851995970122E-02 
1426	 3.39702249308995E-02 
1427	 3.23399105635029E-02 
1428	 3.90476559471463E-03 
1429	 6.64470987563077E-03 
1430	 4.14670769985888E-02 
1431	 3.97902397072721E-02 
1432	 1.30023861126652E-02 
1433	 1.77911344428564E-02 
1434	 0.036092351178669 
1435	 3.01464943144536E-02 
1436	 2.79915666867611E-02 
1437	 3.20086497432092E-02 
1438	 2.72192907715701E-02 
1439	 1.10092224742351E-02 
1440	 4.52106617422921E-03 
1441	 1.31527556763645E-02 
1442	 1.58870991541299E-02 
1443	 1.11311706372441E-02 
1444	 1.55554019771532E-02 
1445	 2.21609317604043E-02 
1446	 1.62972011909947E-02 
1447	 7.53727757711376E-03 
1448	 8.55164767236832E-03 
1449	 1.04820777315448E-02 
1450	 8.3996769255973E-03 
1451	 6.76973459854327E-03 
1452	 6.14575650052941E-03 
1453	 6.42685713143263E-03 
1454	 5.99373153253112E-03 
1455	 6.22969568128824E-03 
1456	 5.98081793251179E-03 
1457	 4.78029030125816E-03 
1458	 4.8677694636647E-03 
1459	 5.81416401238503E-03 
1460	 5.32678631338904E-03 
1461	 4.5374351048362E-03 
1462	 4.37758052087324E-03 
1463	 3.48131969695135E-03 
1464	 3.26733889041807E-03 
1465	 4.33195551319265E-03 
1466	 4.52103668670355E-03 
1467	 3.99563318689453E-03 
1468	 4.07944613775417E-03 
1469	 4.57821628319042E-03 
1470	 4.8552508771799E-03 
1471	 4.33911552387321E-03 
1472	 4.97410581111992E-03 
1473	 7.74278964049146E-03 
1474	 7.59553648764559E-03 
1475	 5.64648276984986E-03 
1476	 5.33886918572901E-03 
1477	 3.98989873585171E-03 
1478	 3.83427279405475E-03 
1479	 5.97358754776392E-03 
1480	 6.36915039960866E-03 
1481	 6.08282114307204E-03 
1482	 5.7210017940116E-03 
1483	 4.33891474457753E-03 
1484	 4.35736016305651E-03 
1485	 5.5898012727903E-03 
1486	 5.15674949419949E-03 
1487	 4.08978041757007E-03 
1488	 4.07825413930256E-03 
1489	 3.99514767496309E-03 
1490	 3.7107444869192E-03 
1491	 3.79772164791071E-03 
1492	 3.98175615077874E-03 
1493	 4.02777185569768E-03 
1494	 3.79172395186891E-03 
1495	 3.51501533349578E-03 
1496	 3.64659127014408E-03 
1497	 3.8618115656973E-03 
1498	 3.71745982632267E-03 
1499	 3.65625290635926E-03 
1500	 3.70654042580438E-03 
1501	 3.41599799046574E-03 
1502	 3.25479268335712E-03 
1503	 3.4531144474234E-03 
1504	 3.56411722585911E-03 
1505	 3.52313620309681E-03 
1506	 3.43808553254824E-03 
1507	 3.70760178397946E-03 
1508	 3.87462790297423E-03 
1509	 3.71644403381069E-03 
1510	 3.78878359585412E-03 
1511	 3.88510470180841E-03 
1512	 3.70730237022165E-03 
1513	 3.66688380966187E-03 
1514	 3.67285389871308E-03 
1515	 3.51451156706989E-03 
1516	 3.48943045501039E-03 
1517	 3.78987123354493E-03 
1518	 3.87641668334824E-03 
1519	 3.5196076089979E-03 
1520	 3.46692093226165E-03 
1521	 3.62621892425629E-03 
1522	 3.49916182305074E-03 
1523	 3.56617336189419E-03 
1524	 3.75816254152101E-03 
1525	 3.58582738858252E-03 
1526	 3.46586826278842E-03 
1527	 3.57348630936156E-03 
1528	 3.5664835933422E-03 
1529	 3.65829752107456E-03 
1530	 3.80074035156115E-03 
1531	 3.65818312659818E-03 
1532	 3.64050755469147E-03 
1533	 3.71949432897535E-03 
1534	 3.53880109432879E-03 
1535	 3.61939515180121E-03 
1536	 3.83791048484326E-03 
1537	 3.67916299326343E-03 
1538	 3.65477418596703E-03 
1539	 3.82305527563895E-03 
1540	 3.89491044168808E-03 
1541	 3.90435541360593E-03 
1542	 3.83469356806045E-03 
1543	 3.8357259927722E-03 
1544	 3.79555616942483E-03 
1545	 3.75015287610094E-03 
1546	 3.92263681588796E-03 
1547	 3.89875952460819E-03 
1548	 3.69263282538621E-03 
1549	 3.74118092467371E-03 
1550	 3.84227576436075E-03 
1551	 3.7638402401588E-03 
1552	 3.62312152513441E-03 
1553	 3.68449221746497E-03 
1554	 3.69963174668651E-03 
1555	 3.57129088291897E-03 
1556	 3.71973352265664E-03 
1557	 3.87723796963412E-03 
1558	 3.83132494247536E-03 
1559	 3.82437806233372E-03 
1560	 3.93613192816025E-03 
1561	 4.02020709277308E-03 
1562	 0.003923358311011 
1563	 3.93012704937142E-03 
1564	 4.07902363328097E-03 
1565	 3.91189483642102E-03 
1566	 3.76671592071285E-03 
1567	 3.92979742073808E-03 
1568	 3.87427147894022E-03 
1569	 3.82968027771284E-03 
1570	 3.96615896112119E-03 
1571	 3.86819015679735E-03 
1572	 3.86373297371314E-03 
1573	 4.0594264747913E-03 
1574	 4.03504911284059E-03 
1575	 3.96610177349341E-03 
1576	 3.9596570950625E-03 
1577	 3.94061826331809E-03 
1578	 3.88492265002248E-03 
1579	 3.86657236212595E-03 
1580	 4.01047893989925E-03 
1581	 3.84929172320268E-03 
1582	 3.67338870808357E-03 
1583	 4.04697527322423E-03 
1584	 4.29222354485985E-03 
1585	 4.11531224866042E-03 
1586	 4.09988124415968E-03 
1587	 4.2544034908519E-03 
1588	 4.11198046028731E-03 
1589	 3.96803923533415E-03 
1590	 4.17096075568253E-03 
1591	 4.24419217946772E-03 
1592	 4.03636729477331E-03 
1593	 3.97894171369878E-03 
1594	 4.15070626558951E-03 
1595	 4.25587539200997E-03 
1596	 4.10901971807295E-03 
1597	 3.96148056129023E-03 
1598	 4.04626572435361E-03 
1599	 4.02844625864033E-03 
1600	 3.97986365737397E-03 
1601	 4.25291135223813E-03 
1602	 4.33398032822814E-03 
1603	 4.20044127082277E-03 
1604	 4.24063118570872E-03 
1605	 4.06769320109466E-03 
1606	 3.95174710761415E-03 
1607	 4.22528673391669E-03 
1608	 4.32106087676323E-03 
1609	 4.07598640168824E-03 
1610	 3.84419952130921E-03 
1611	 3.71036363391364E-03 
1612	 3.62375319562518E-03 
1613	 3.84283764096097E-03 
1614	 4.1565977517348E-03 
1615	 4.00691683182916E-03 
1616	 3.78070628061095E-03 
1617	 3.9086397694811E-03 
1618	 4.06944883708403E-03 
1619	 4.25401609823291E-03 
1620	 4.42924831898099E-03 
1621	 4.31497193011635E-03 
1622	 4.21054213857943E-03 
1623	 4.31736647479154E-03 
1624	 4.18090885200883E-03 
1625	 3.81380997030973E-03 
1626	 3.79222687307959E-03 
1627	 3.98774860295429E-03 
1628	 4.09398648389475E-03 
1629	 4.24381329441693E-03 
1630	 4.26384704005042E-03 
1631	 4.15447427699405E-03 
1632	 4.08571563731747E-03 
1633	 4.10338577472037E-03 
1634	 4.39547882056415E-03 
1635	 4.45235272358701E-03 
1636	 4.13435044839689E-03 
1637	 4.11842139887794E-03 
1638	 4.17534049216166E-03 
1639	 4.06108647742308E-03 
1640	 4.30474411405084E-03 
1641	 4.5616911079119E-03 
1642	 4.26975455757247E-03 
1643	 4.04032878259753E-03 
1644	 4.15653879910322E-03 
1645	 4.10298498029709E-03 
1646	 3.94957498948766E-03 
1647	 4.16047559029807E-03 
1648	 4.21874190763602E-03 
1649	 3.86912286430951E-03 
1650	 3.92479289937635E-03 
1651	 4.23409374317702E-03 
1652	 4.17208531137633E-03 
1653	 0.004326695641479 
1654	 4.41710190726651E-03 
1655	 4.3111864006063E-03 
1656	 4.20599546845919E-03 
1657	 3.94865878802239E-03 
1658	 3.94226037956947E-03 
1659	 4.13188232623328E-03 
1660	 4.11989329775832E-03 
1661	 4.21990029057633E-03 
1662	 4.2343007007706E-03 
1663	 4.08294519675173E-03 
1664	 4.04062905636161E-03 
1665	 3.8958316842626E-03 
1666	 3.87242224950068E-03 
1667	 3.97759954552661E-03 
1668	 3.98573437254669E-03 
1669	 4.25484704264435E-03 
1670	 4.30520473880963E-03 
1671	 4.15441056558752E-03 
1672	 4.12542053967169E-03 
1673	 3.92253534174951E-03 
1674	 4.15767579877565E-03 
1675	 4.43408864262828E-03 
1676	 3.83622066009458E-03 
1677	 3.75535535346637E-03 
1678	 4.25329489385021E-03 
1679	 4.20299313793799E-03 
1680	 4.1416007638698E-03 
1681	 4.17485083669577E-03 
1682	 3.90598935495331E-03 
1683	 3.73444997525551E-03 
1684	 3.93540849713663E-03 
1685	 3.88867932554856E-03 
1686	 3.68295166771714E-03 
1687	 3.69129649600144E-03 
1688	 3.68705551109494E-03 
1689	 4.20191372803401E-03 
1690	 4.64927622194467E-03 
1691	 4.2435716805674E-03 
1692	 4.00465118417351E-03 
1693	 3.92407836449109E-03 
1694	 3.70010981170057E-03 
1695	 3.89234832409638E-03 
1696	 4.26329636752697E-03 
1697	 4.3742472433363E-03 
1698	 4.04699455997509E-03 
1699	 3.83152261244607E-03 
1700	 4.28284708110925E-03 
1701	 4.40254552384796E-03 
1702	 4.04834631628365E-03 
1703	 4.15185667881101E-03 
1704	 4.06834567649007E-03 
1705	 3.52028711604038E-03 
1706	 3.75924257329449E-03 
1707	 4.41447446765938E-03 
1708	 4.11362606784601E-03 
1709	 3.96197394217855E-03 
1710	 4.67568024036373E-03 
1711	 4.54049834980512E-03 
1712	 4.05676720857636E-03 
1713	 4.01888539638501E-03 
1714	 3.88599813150405E-03 
1715	 3.97917627454916E-03 
1716	 4.1724520095928E-03 
1717	 4.21896966370158E-03 
1718	 4.16894199835786E-03 
1719	 3.54013731044247E-03 
1720	 3.61109030247977E-03 
1721	 4.10692698871439E-03 
1722	 4.09070895385903E-03 
1723	 4.67617633612528E-03 
1724	 4.49115539455308E-03 
1725	 3.34056512084864E-03 
1726	 3.7012844164775E-03 
1727	 4.20495866527068E-03 
1728	 3.90116278712831E-03 
1729	 4.47386594753079E-03 
1730	 4.62768908239204E-03 
1731	 3.53838124919013E-03 
1732	 3.25624424733072E-03 
1733	 3.58759182253674E-03 
1734	 3.6958682181805E-03 
1735	 4.40160740897576E-03 
1736	 5.03128605141339E-03 
1737	 4.48631209494016E-03 
1738	 3.77285062043181E-03 
1739	 3.60764580606296E-03 
1740	 3.7116894862845E-03 
1741	 4.31234180543669E-03 
1742	 4.57209559666566E-03 
1743	 3.91554716660189E-03 
1744	 3.79047200879675E-03 
1745	 3.96870315092883E-03 
1746	 3.92282798718596E-03 
1747	 4.13645217489026E-03 
1748	 4.11368596493573E-03 
1749	 3.92668709688174E-03 
1750	 4.14194276803013E-03 
1751	 0.004089323633282 
1752	 3.36297856401502E-03 
1753	 3.64763910431849E-03 
1754	 4.78531058602027E-03 
1755	 4.62603000977411E-03 
1756	 4.17955166329999E-03 
1757	 3.33840833793178E-03 
1758	 2.65930626439276E-03 
1759	 3.28866956176636E-03 
1760	 3.82934896509665E-03 
1761	 3.95018040001683E-03 
1762	 4.33482533399627E-03 
1763	 4.04404019260192E-03 
1764	 3.72910695480337E-03 
1765	 3.7842485156998E-03 
1766	 3.61557695870756E-03 
1767	 4.36230265658949E-03 
1768	 5.16769290301134E-03 
1769	 4.89874526125644E-03 
1770	 5.18149617882296E-03 
1771	 4.88659452179298E-03 
1772	 4.42641218277216E-03 
1773	 5.80915714386553E-03 
1774	 5.72106140587257E-03 
1775	 4.41885687687235E-03 
1776	 4.04796629964439E-03 
1777	 3.12129251006535E-03 
1778	 2.94949666178415E-03 
1779	 4.21411787615123E-03 
1780	 4.76648785887857E-03 
1781	 5.55093759954037E-03 
1782	 5.38001605682128E-03 
1783	 3.63886669176774E-03 
1784	 3.73928139527047E-03 
1785	 4.44918112816351E-03 
1786	 4.59443257200865E-03 
1787	 6.69390739299427E-03 
1788	 6.46585935636521E-03 
1789	 2.47648041200605E-03 
1790	 3.46840983502578E-03 
1791	 5.46054175162694E-03 
1792	 7.80723230517243E-03 
1793	 1.06002850322003E-02 
1794	 9.04651273243215E-03 
1795	 7.3008919470459E-03 
1796	 7.05373283201561E-03 
1797	 7.31930586170287E-03 
1798	 1.23799535894762E-02 
1799	 1.25811189021365E-02 
1800	 1.11153426780633E-02 
1801	 1.12454932035308E-02 
1802	 2.36240214250523E-03 
1803	 4.19756845034556E-03 
1804	 2.61156968663959E-02 
1805	 4.29947881530632E-02 
1806	 8.93650989008943E-02 
1807	 0.100339192035957 
1808	 4.18211680580327E-02 
1809	 0.010177527088391 
1810	-0.12124466584547 
1811	-0.156144036839946 
1812	 2.82150217044885E-02 
1813	 0.119149019429729 
1814	 0.30753098608312 
1815	 0.362261008422793 
1816	 0.162358590656761 
1817	 0.537291447143744 
1818	 0.131640703917668 
1819	 0.532091272511937 
1820	 0.995834284175945 
1821	 0.667020182518281 
1822	 0.773160194764463 
1823	 1.38683755111382 
1824	 1.61217645377788 
1825	 2.78128944233539 
1826	 3.49186649772911 
1827	 1.08949405981326 
1828	 0.734251845714381 
1829	 0.454057129720767 
1830	 0.529394803607996 
1831	-2.59075805369534 
1832	-1.44594856410281 
1833	-3.62062620683274E-02 
1834	 0.540932291921215 
1835	 1.544281059324 
1836	 1.46513070476535 
1837	 0.738094371519009 
1838	 0.722178387828414 
1839	 0.77622749230865 
1840	 0.226222950800989 
1841	 0.130940509203587 
1842	 0.98440875617398 
1843	 1.48296311289549 
1844	 1.55201202544763 
1845	 1.49850593720268 
1846	 1.01757090699669 
1847	 1.01449359233818 
1848	 0.898081397404239 
1849	 1.01483859704859 
1850	 5.05862426463199 
1851	-1.05708021965089 
1852	-0.320335473149837 
1853	 0.506286913834377 
1854	 0.782043797730893 
1855	 1.37852556260563 
1856	 3.67967740382729 
1857	-0.706811345540112 
1858	 0.344362911008157 
1859	 3.6290521461073 
1860	 1.42935011318792 
1861	 2.28983860146182 
1862	 18.274746759165 
1863	 3.16031426589127 
1864	 1.10214566325025 
1865	 0.562993823056503 
1866	 0.376396449678158 
1867	 0.489327032392936 
1868	 0.590143001598509 
1869	 0.13403022649804 
1870	 0.218169336234816 
1871	-7.76648082075399E-02 
1872	-1.18392238288259 
1873	-2.45246757150089 
1874	-0.911598988043607 
1875	-1.75924976332123 
1876	-2.3884691425619 
1877	 0.765994280318634 
1878	-6.79748468117371 
1879	-0.238513870484921 
1880	-0.456176874861481 
1881	-0.550102156802134 
1882	-1.75616655415315 
1883	 1.49699475037655 
1884	 1.64987743979157 
1885	 2.00965322187293 
1886	 0.702055571406866 
1887	 0.532906924434196 
1888	 0.343336048889732 
1889	 0.517974753527431 
1890	-1.33288909218702 
1891	-0.72845207898874 
1892	-0.15462118897582 
1893	-0.33424482441359 
1894	-0.443132265342372 
1895	 5.15474835454311E-02 
1896	 0.165116694590213 
1897	 0.418896398454601 
1898	 0.908342644576278 
1899	-0.634477465118243 
1900	-0.420074481091989 
1901	-3.10486710415989E-02 
1902	 0.056746611376743 
1903	 0.107699096554033 
1904	 1.21783731199455 
1905	-0.5911381945553 
1906	-0.133488577949478 
1907	 9.65153265158267E-02 
1908	 0.470382090573974 
1909	 0.926630999736896 
1910	-1.87546843720695 
1911	-1.33646765908203 
1912	 0.187063124958609 
1913	 1.15200651686824 
1914	 44.3058953783381 
1915	-5.45538345943884 
1916	-3.16152933317677 
1917	 5.19556750369899 
1918	 1.28488205874135 
1919	 2.09500518059298 
1920	 58.7511748755805 
1921	 1.78174548153014 
1922	-3.38546170577559E-02 
1923	-0.243793045311805 
1924	-0.228182809563433 
1925	-0.149094838877181 
1926	-4.99482477509207E-02 
1927	 0.266997657412255 
1928	 0.463995706245033 
1929	 1.08814223605557 
1930	 0.563875102760028 
1931	 0.414083773144984 
1932	 0.565307944802507 
1933	 0.224381181141554 
1934	 7.42069228095731E-02 
1935	 3.07087403176229E-02 
1936	 3.36276883820821E-02 
1937	 8.91475353741059E-02 
1938	 5.34556341873218E-02 
1939	 1.50637601236115E-02 
1940	-7.63817106202259E-03 
1941	 2.19069428390602E-02 
1942	 2.17888869902843E-02 
1943	 1.19203940003369E-02 
1944	 2.57925716328529E-02 
1945	 1.15512715078212E-02 
1946	-2.42986193962533E-02 
1947	-3.97251216576303E-02 
1948	-3.70884598416784E-02 
1949	-4.1537480404279E-03 
1950	 6.89548534973036E-03 
1951	-9.09034822577496E-03 
1952	-5.4841516289681E-03 
1953	 9.02871116111318E-03 
1954	 2.24587839036036E-03 
1955	 5.71928320958273E-03 
1956	 1.40515754795152E-02 
1957	-1.44963904249309E-03 
1958	-4.06094722555045E-03 
1959	 3.81920782678038E-03 
1960	 4.56255349149395E-03 
1961	 7.42758673863172E-03 
1962	 1.05304484072623E-02 
1963	 5.17789342597307E-03 
1964	 1.28828630466822E-03 
1965	 3.6754166426706E-03 
1966	 4.73917186621416E-03 
1967	 5.69247373011551E-03 
1968	 5.8100796662804E-03 
1969	 5.63032880894733E-03 
1970	 5.31093097189617E-03 
1971	 5.76308226373586E-03 
1972	 3.88331856802928E-03 
1973	 1.46785116555629E-03 
1974	 6.57351348426855E-04 
1975	-6.6910279495211E-05 
1976	-1.56851039442314E-04 
1977	 2.48741844003419E-04 
1978	 1.23282023246988E-03 
1979	 1.82916682215588E-03 
1980	 1.5638765273706E-03 
1981	 1.51893374821385E-03 
1982	 2.97380290642283E-03 
1983	 3.2061976287763E-03 
1984	 3.39646182551511E-03 
1985	 4.67770562787552E-03 
1986	 0.004969660129152 
1987	 4.26705935027241E-03 
1988	 3.69543390390713E-03 
1989	 3.19153193352114E-03 
1990	 2.6032079666117E-03 
1991	 3.40314872662774E-03 
1992	 3.57673432606987E-03 
1993	 2.33555385264675E-03 
1994	 2.00587862764771E-03 
1995	 1.94814493716451E-03 
1996	 1.52694387447923E-03 
1997	 1.46772320512404E-03 
1998	 2.71693493004055E-03 
1999	 2.28315615250203E-03 
2000	 3.98324327520085E-04 
2001	-1.24779378557068E-03 
2002	-2.3127921207881E-03 
2003	-2.15082468400276E-03 
2004	-2.76215472744172E-03 
2005	-1.82506649937999E-03 
2006	-4.28209612759049E-05 
2007	-9.6649837170166E-04 
2008	 7.47520343398904E-04 
2009	 2.15099972911091E-03 
2010	 4.3442795910516E-03 
2011	 3.23653358392392E-03 
2012	 2.2972024684911E-04 
2013	-6.56007263278325E-04 
2014	-1.19873188432157E-03 
2015	-1.29823152038791E-03 
2016	 1.18621042329462E-03 
2017	 4.46888457051556E-03 
2018	 5.58547254527038E-03 
2019	 6.05155996585633E-03 
2020	 6.7000784004805E-03 
2021	 6.54737087155673E-03 
2022	 6.5530647380425E-03 
2023	 5.67113343015578E-03 
2024	 4.32627443189269E-03 
2025	 2.05177859481749E-03 
2026	 1.18774502917771E-03 
2027	-2.4486666323892E-05 
2028	-1.90355442279142E-04 
2029	 1.02747394122314E-03 
2030	 1.63713726886493E-03 
2031	 2.0928346040757E-03 
2032	 2.74359689842425E-03 
2033	 2.70108858906311E-03 
2034	 2.7999784471594E-03 
2035	 2.70072991149066E-03 
2036	 2.31393451535682E-03 
2037	 1.77329318799654E-03 
2038	 1.00492066867442E-03 
2039	 8.41665504093222E-04 
2040	 1.07837573892355E-03 
2041	 9.60502191871016E-04 
2042	 1.10473795919931E-03 
2043	 1.33406457091874E-03 
2044	 1.44686926095143E-03 
2045	 1.25997021074266E-03 
2046	 1.39283915071249E-03 
2047	 1.89019679249978E-03 
2048	 2.33799535844607E-03 
2049	 2.37472747808167E-03 
2050	 3.05048279529562E-03 
2051	 3.59453503827035E-03 
2052	 2.61986885322989E-03 
2053	 2.0892743553703E-03 
2054	 1.50460809797184E-03 
2055	 6.4675251673175E-04 
2056	 8.10784090513007E-04 
2057	 2.4383567715511E-03 
2058	 2.7317834601893E-03 
2059	 3.34126882737473E-03 
2060	 3.56243460360922E-03 
2061	 3.04919434083755E-03 
2062	 2.24309446420412E-03 
2063	 2.28747060531005E-03 
2064	 1.48443360887521E-03 
2065	 1.0478357800077E-03 
2066	 1.6154987590875E-03 
2067	 2.37622947683027E-03 
2068	 3.53710522131835E-03 
2069	 3.42474413721445E-03 
2070	 2.95862284966262E-03 
2071	 3.08115144457633E-03 
2072	 2.11300356186187E-03 
2073	 2.2589825292539E-03 
2074	 4.04162230771585E-03 
2075	 4.22969144338168E-03 
2076	 3.87877015518095E-03 
2077	 3.57808242488993E-03 
2078	 2.36295930159387E-03 
2079	 1.6784364364291E-03 
2080	 1.07204496974317E-03 
2081	 8.95717191126132E-04 
2082	 1.45157757830952E-03 
2083	 2.05487453724193E-03 
2084	 1.79168104546582E-03 
2085	 2.18940365156042E-03 
2086	 2.28372324858767E-03 
2087	 1.56876579548471E-03 
2088	 1.57063961582598E-03 
2089	 1.21455742417051E-03 
2090	 1.21971909199083E-03 
2091	 1.56956145516205E-03 
2092	 1.52718469406719E-03 
2093	 1.85078506957132E-03 
2094	 1.79484856750256E-03 
2095	 8.48271031531923E-04 
2096	 5.93223962984123E-04 
2097	 7.55398876220609E-04 
2098	 8.20280840004103E-04 
2099	 1.02704032855705E-03 
2100	 1.2838576541615E-03 
2101	 1.73424220690419E-03 
2102	 1.23923901664143E-03 
2103	 9.12589960145258E-04 
2104	 8.44878918077703E-04 
2105	-2.59484840607421E-04 
2106	 1.54760906211047E-04 
2107	 2.14169440226469E-03 
2108	 2.80305232841536E-03 
2109	 2.30767990831347E-03 
2110	 2.00706764008532E-03 
2111	 1.39788648006623E-03 
2112	 5.1418051563372E-04 
2113	 2.93995450980071E-04 
2114	 1.7277869757965E-03 
2115	 2.14910066985632E-03 
2116	 1.94744885741859E-03 
2117	 2.00674849481419E-03 
2118	 2.3650850311244E-03 
2119	 2.27240296634811E-03 
2120	 1.57319945102059E-03 
2121	 1.49044737700548E-03 
2122	 1.69055543450331E-03 
2123	 1.45176811138027E-03 
2124	 0.001231780417167 
2125	 9.67334648078305E-04 
2126	 1.04718265115571E-03 
2127	 1.80500753515287E-03 
2128	 1.70987495764421E-03 
2129	 1.55139089445186E-03 
2130	 1.76685342416252E-03 
2131	 1.6271631652951E-03 
2132	 2.46958085998707E-03 
2133	 3.29371179133995E-03 
2134	 3.46833658983722E-03 
2135	 2.82139972795639E-03 
2136	 2.67246848649241E-03 
2137	 2.53986490662389E-03 
2138	 2.14029180752466E-03 
2139	 1.64312021230121E-03 
2140	 1.28468121113405E-03 
2141	 4.93041261804221E-04 
2142	 3.79772263568241E-04 
2143	 9.54976034319841E-04 
2144	 1.00461166330016E-03 
2145	 1.40557083573443E-03 
2146	 1.78768556202637E-03 
2147	 1.26375431424403E-03 
2148	 9.087417713976E-04 
2149	 1.16146162638904E-03 
2150	 1.37108874521485E-03 
2151	 2.06937081080338E-03 
2152	 2.31967739250077E-03 
2153	 1.44089013168745E-03 
2154	 3.861623826329E-04 
2155	-4.42245058092253E-04 
2156	-4.52373716124793E-04 
2157	 6.22569001336306E-05 
2158	 2.15846201471753E-03 
2159	 2.31766779274797E-03 
2160	 1.72935663818108E-03 
2161	 1.65911532633887E-03 
2162	 3.17059537184661E-04 
2163	 5.21097566964754E-04 
2164	 2.38340845215171E-03 
2165	 3.29759298974207E-03 
2166	 4.75670434632843E-03 
2167	 5.05557966860647E-03 
2168	 4.2628165424047E-03 
2169	 4.13720592598974E-03 
2170	 3.79758891986771E-03 
2171	 3.00455352169052E-03 
2172	 3.75563106209266E-03 
2173	 3.66992859031793E-03 
2174	 3.24718903790989E-03 
2175	 3.60410903193168E-03 
2176	 3.09466024306975E-03 
2177	 3.20403926476455E-03 
2178	 3.3472025964443E-03 
2179	 3.0980912524755E-03 
2180	 2.61678937975106E-03 
2181	 1.58769215510932E-03 
2182	 1.74437938754254E-03 
2183	 1.52821828913837E-03 
2184	 1.19345866233494E-03 
2185	 1.76213398102634E-03 
2186	 1.92867915942044E-03 
2187	 1.79294988810953E-03 
2188	 1.69546067188525E-03 
2189	 1.88870007066139E-03 
2190	 1.59353606156991E-03 
2191	 1.82088208322967E-04 
2192	 2.6436846395319E-04 
2193	 1.76299868234187E-03 
2194	 1.69912573097002E-03 
2195	 1.15617544341033E-03 
2196	 1.56350388483782E-03 
2197	 1.15438046188112E-03 
2198	 1.11593588080854E-03 
2199	 2.31636440259544E-03 
2200	 3.74771455369784E-03 
2201	 3.3988977747572E-03 
2202	 3.65451965229945E-03 
2203	 2.97350852741418E-03 
2204	 1.4162899707074E-03 
2205	 1.46143147181389E-03 
2206	-5.04913083910699E-06 
2207	-8.04748175139914E-04 
2208	-8.28461302146828E-05 
2209	-3.68619043299155E-04 
2210	 4.77137210976844E-04 
2211	 6.08400130557977E-04 
2212	 5.44616013482174E-04 
2213	 1.9462926603282E-03 
2214	 2.31728641230436E-03 
2215	 0.002080669285445 
2216	 1.68611047723192E-03 
2217	 1.91314891581665E-03 
2218	 1.37401529633204E-03 
2219	 1.02681597441939E-03 
2220	 1.89247640186692E-03 
2221	 2.33018188254857E-03 
2222	 1.80489339679056E-03 
2223	 1.71578220524539E-03 
2224	 1.67937726213449E-03 
2225	 2.60772451989381E-03 
2226	 4.85655825156694E-03 
2227	 4.75337865763704E-03 
2228	 3.84850335679526E-03 
2229	 4.1825035689092E-03 
2230	 3.95523815932784E-03 
2231	 2.79102678584069E-03 
2232	 1.6863795108656E-03 
2233	 1.42719225917647E-03 
2234	-1.44425933687984E-04 
2235	-2.5750288430615E-04 
2236	 8.93208289086727E-04 
2237	 2.41306311594527E-03 
2238	 1.1666802646729E-03 
2239	-1.5050617086141E-03 
2240	-9.1026848033764E-04 
2241	-6.68586566315065E-04 
2242	-1.17600580237462E-03 
2243	 1.41515413227447E-03 
2244	 3.40438902323096E-03 
2245	 2.78959766486059E-03 
2246	 2.93230185294698E-03 
2247	 2.40412116463268E-03 
2248	 2.64282974488197E-04 
2249	-1.24947765784476E-03 
2250	-4.10654779397023E-06 
2251	 2.19243833182874E-03 
2252	 2.08230494076349E-03 
2253	 3.20879084182757E-03 
2254	 3.85960359998571E-03 
2255	 1.5133206563676E-03 
2256	 2.50389819220199E-03 
2257	 4.24649024413634E-03 
2258	 3.98227290234734E-03 
2259	 5.15745391880026E-03 
2260	 5.57484539496635E-03 
2261	 4.12746607295659E-03 
2262	 3.43403334861667E-03 
2263	 3.64573770026105E-03 
2264	 2.95145398448224E-03 
2265	 1.06216425049741E-03 
2266	 3.22741011770377E-04 
2267	 1.95173152086624E-04 
2268	-1.48169652402064E-04 
2269	-1.18441578530624E-04 
2270	-4.39233272867018E-04 
2271	-2.04405608888913E-03 
2272	-1.44064667994459E-03 
2273	 1.07206886248516E-03 
2274	 1.62269407890427E-03 
2275	 2.77993344735175E-03 
2276	 4.33333118473194E-03 
2277	 4.68935752945403E-03 
2278	 5.07795843409768E-03 
2279	 6.53186044406637E-03 
2280	 6.30409398912189E-03 
2281	 4.45753071371712E-03 
2282	 3.26860070777547E-03 
2283	 2.08343974142662E-03 
2284	 1.55819524228572E-03 
2285	 1.82196436981685E-03 
2286	 5.06567067760864E-04 
2287	-1.38274609522098E-03 
2288	-1.51227817082189E-03 
2289	-7.89677356247893E-04 
2290	-7.6641279024083E-05 
2291	-3.79378825070419E-04 
2292	-7.29608907798371E-04 
2293	-2.67795894205976E-04 
2294	 7.79533311857501E-06 
2295	-7.30486031475531E-04 
2296	 5.33880360029664E-04 
2297	 4.7482399283653E-05 
2298	-2.73890040253831E-03 
2299	-8.86759964588603E-04 
2300	 4.53106399660651E-04 
2301	 7.0592486410235E-05 
2302	 2.23064140271805E-03 
2303	 3.87041085084564E-03 
2304	 3.13800705934857E-03 
2305	 1.4193368471724E-03 
2306	-3.0391482109192E-05 
2307	-4.42833317310504E-05 
2308	 1.66678848276331E-03 
2309	 4.47472952673654E-03 
2310	 5.50170147619778E-03 
2311	 4.03069226408814E-03 
2312	 1.28368699456656E-03 
2313	 5.25529486692006E-06 
2314	 2.15664055027759E-03 
2315	 1.92197646760275E-03 
2316	 1.40140481411124E-03 
2317	 3.11990507787622E-03 
2318	 7.23405737674613E-04 
2319	 9.4112714810886E-04 
2320	 6.45232450487136E-03 
2321	 9.52896136003992E-03 
2322	 8.29676975859419E-03 
2323	 5.21174698759006E-03 
2324	 3.51034094814716E-03 
2325	 3.75867254281148E-03 
2326	 6.66464311897481E-03 
2327	 5.61513017110054E-03 
2328	 3.60972049125257E-03 
2329	 2.7704829895162E-03 
2330	-2.65049909304047E-04 
2331	 2.62348145608949E-03 
2332	 3.26760622232311E-03 
2333	 1.95535795834824E-03 
2334	 4.67084580062883E-03 
2335	 5.98232994091026E-03 
2336	 1.06877573880505E-02 
2337	 1.25340515877023E-02 
2338	 8.50518447955372E-03 
2339	 7.45371904311207E-03 
2340	 1.11104451073401E-02 
2341	 2.13239745440855E-02 
2342	 2.74556496825486E-02 
2343	 2.55241304643775E-02 
2344	 1.98792963355279E-02 
2345	 6.46609250415999E-03 
2346	 1.19088037027831E-04 
2347	-3.04456870072859E-03 
2348	-1.39201658841643E-02 
2349	-1.33297831005458E-02 
2350	-7.39826652151234E-03 
2351	-6.79072165815179E-03 
2352	 0.001778789024169 
2353	 1.15494996493275E-02 
2354	 7.14898784066864E-03 
2355	-4.47331101072217E-04 
2356	-1.02888112416979E-03 
2357	-5.10123124540014E-03 
2358	-1.41610267760876E-02 
2359	-1.09935956744943E-02 
2360	-4.12988319820657E-03 
2361	-9.77128421302171E-03 
2362	-8.76071295187342E-03 
2363	 1.23197508063622E-03 
2364	-6.62224842358712E-03 
2365	-0.017185546827498 
2366	-9.29827173116459E-03 
2367	-1.20407662116125E-02 
2368	-2.17933331164644E-02 
2369	-1.40338917177231E-02 
2370	-6.98150322334146E-03 
2371	-4.73056531422168E-03 
2372	 3.2689881367918E-03 
2373	 1.24882458918323E-02 
2374	 1.62499277496856E-02 
2375	 9.42001710315349E-03 
2376	 1.07971952713932E-02 
2377	 0.020776164137569 
2378	 1.50972032564987E-02 
2379	 3.07727703528893E-03 
2380	-4.9645467733083E-03 
2381	-1.17526020058302E-02 
2382	-1.43355645675637E-02 
2383	-1.11891934326605E-02 
2384	-2.17810164881648E-02 
2385	-4.69693420515564E-02 
2386	-5.19820295902931E-02 
2387	-3.70730226214246E-02 
2388	-6.35763717646198E-03 
2389	 1.78187535944314E-02 
2390	 7.76233349563708E-03 
2391	-7.23790627549006E-03 
2392	-1.93740026310629E-02 
2393	-8.52718240610612E-03 
2394	 1.43604299724402E-02 
2395	 6.1053009877204E-03 
2396	-6.89392463472452E-04 
2397	-7.93883836266707E-03 
2398	-2.49341633514283E-02 
2399	-2.88729912184732E-02 
2400	-3.76449486189303E-02 
2401	-5.46892609213878E-02 
2402	-0.056237237912705 
2403	-3.75941911508159E-02 
2404	-5.62914918422522E-03 
2405	 2.54235258050974E-02 
2406	 1.24860476319653E-02 
2407	 1.69230401800926E-02 
2408	 3.80456944773046E-02 
2409	-7.10568650075549E-03 
2410	 1.17210073169455E-02 
2411	 4.09780815933923E-02 
2412	 2.63625591632224E-03 
2413	-2.13875357520492E-02 
2414	-6.69103455889177E-02 
2415	-8.14639105916558E-02 
2416	-6.98316125762914E-02 
2417	-5.75887315807889E-02 
2418	-4.91703126596393E-02 
2419	-1.58317495390613E-02 
2420	-2.40849258818645E-02 
2421	-6.84722830554581E-02 
2422	 1.23217234841742E-02 
2423	-3.98955923717533E-02 
2424	-0.127412337770667 
2425	-7.28536352215869E-02 
2426	-4.74682498824973E-02 
2427	-4.54166669989323E-02 
2428	-5.38277673263476E-03 
2429	 1.04660894079595E-02 
2430	 1.02877633224792E-02 
2431	 6.01239655588569E-02 
2432	 4.40140596840722E-02 
2433	-1.95167329089275E-02 
2434	 6.80256064906936E-02 
2435	 7.67396947402551E-02 
2436	 1.22011347864638E-02 
2437	 2.64267807253735E-02 
2438	-4.27920924556191E-02 
2439	-9.43306760659482E-02 
2440	-7.49834537151509E-02 
2441	-9.86807594942468E-02 
2442	-8.82486997495505E-02 
2443	-9.60787889088799E-02 
2444	-0.113808780102446 
2445	 1.37470856228616E-02 
2446	 0.113674017793009 
2447	-6.98688100085182E-02 
2448	-0.10458824527813 
2449	-0.221563767221165 
2450	-0.243088647335528 
2451	 4.05454601429098E-02 
2452	 0.451992991747985 
2453	 0.727080304148214 
2454	 0.609057593519635 
2455	 0.756356525238126 
2456	 0.744338255397878 
2457	 0.508275542255994 
2458	 0.52056637352187 
2459	 0.694812710677817 
2460	 0.763684934261588 
2461	 0.560650295018204 
2462	 0.394856478841866 
2463	 0.121580153081364 
2464	 0.305019556124867 
2465	 0.291570137649573 
2466	 0.318089726977774 
2467	 0.631746802007755 
2468	 0.684523071237151 
2469	 1.27941086203919 
2470	 12.9734278094511 
2471	-16.5949226143811 
2472	 2.34363445103338 
2473	 1.85414780263762 
2474	 0.927667302700316 
2475	 0.906953053258761 
2476	 1.65482634444304 
2477	 0.453010815760367 
2478	-0.461828838727056 
2479	-1.09011804490806 
2480	-0.154398894968732 
2481	 13.4649589870632 
2482	-3.69279176135264 
2483	-3.85460708956632 
2484	-0.1779160374269 
2485	-0.674234230841172 
2486	-1.29377744263435 
2487	-2.67978456196838 
2488	 0.168009586155182 
2489	 9.69156139089693E-02 
2490	 0.667047532731403 
2491	 0.176722616279215 
2492	-0.608254905520961 
2493	-1.2141989129605 
2494	-0.999281707630228 
2495	 1.7399468899884 
2496	-3.74502302390612 
2497	-8.37058584099294 
2498	-0.578691578867216 
2499	-2.17268957001078 
2500	-2.42714864182771 
