Wavelength	rt0629algeare00001.asd
350	 3.62957340193795E-02 
351	 3.54103240242119E-02 
352	 3.53176985203169E-02 
353	 3.54680921593049E-02 
354	 3.54737056945645E-02 
355	 3.57114648691446E-02 
356	 3.57144410179263E-02 
357	 3.54782550698685E-02 
358	 3.52488076002351E-02 
359	 3.56941942257036E-02 
360	 3.55514337297335E-02 
361	 3.47869735256186E-02 
362	 3.42627415443658E-02 
363	 3.45364456094577E-02 
364	 3.46910300306148E-02 
365	 3.44483760426657E-02 
366	 3.47617543566316E-02 
367	 3.45513299121002E-02 
368	 3.42868125039522E-02 
369	 3.44554012149201E-02 
370	 3.40889623910788E-02 
371	 3.41624072469008E-02 
372	 3.46814066573981E-02 
373	 3.50394669170088E-02 
374	 3.48078477751598E-02 
375	 3.47408805672827E-02 
376	 3.49276989681987E-02 
377	 3.44192194933951E-02 
378	 3.44591271425678E-02 
379	 3.44410044313734E-02 
380	 3.40329948432417E-02 
381	 3.51995647879361E-02 
382	 3.56270180575068E-02 
383	 3.51926010798867E-02 
384	 3.48869122329908E-02 
385	 0.035133460952913 
386	 3.51576397083744E-02 
387	 3.48269873506675E-02 
388	 3.48095364984201E-02 
389	 3.49507600500628E-02 
390	 3.52421466146696E-02 
391	 3.55863878800679E-02 
392	 3.56551589496711E-02 
393	 3.55833566423339E-02 
394	 3.54412813484975E-02 
395	 3.53524510619732E-02 
396	 3.58687744350199E-02 
397	 3.60912194322159E-02 
398	 3.58517061225223E-02 
399	 3.56649258384956E-02 
400	 3.58496428585102E-02 
401	 3.59349859253998E-02 
402	 3.57312301329598E-02 
403	 3.59174226473258E-02 
404	 3.63199564035626E-02 
405	 0.036555036797992 
406	 3.63249141936168E-02 
407	 3.62660904589075E-02 
408	 0.036542953057753 
409	 3.68607266541891E-02 
410	 3.65771938532675E-02 
411	 3.63731652834659E-02 
412	 3.64395968245823E-02 
413	 3.67015308915725E-02 
414	 3.66835106868186E-02 
415	 3.69111960980827E-02 
416	 0.037167958579382 
417	 3.70751526203714E-02 
418	 3.71917473964757E-02 
419	 3.74411867775786E-02 
420	 3.76461175694515E-02 
421	 3.75918185148587E-02 
422	 3.77248777813023E-02 
423	 3.79280553650883E-02 
424	 3.80771396416869E-02 
425	 3.84014207666723E-02 
426	 3.85364086571253E-02 
427	 3.85451358796782E-02 
428	 3.87086814872175E-02 
429	 3.92325984965147E-02 
430	 3.95448297222432E-02 
431	 3.95756625517288E-02 
432	 3.99109390857343E-02 
433	 4.01750569970747E-02 
434	 4.04038875309928E-02 
435	 4.06589743293088E-02 
436	 4.07865048074338E-02 
437	 4.11281330668322E-02 
438	 4.15254307213986E-02 
439	 4.16156296950037E-02 
440	 4.18478477925778E-02 
441	 4.20837226597129E-02 
442	 4.22477900263358E-02 
443	 4.24484479439299E-02 
444	 4.26556352302125E-02 
445	 4.28443710218366E-02 
446	 4.30249771788189E-02 
447	 4.33596814472942E-02 
448	 4.35850007717997E-02 
449	 4.37064868200758E-02 
450	 4.39182814987889E-02 
451	 0.044047755880553 
452	 4.42477172208364E-02 
453	 0.044512833589532 
454	 4.44046520146215E-02 
455	 4.44622217578668E-02 
456	 0.044672721802319 
457	 4.48392788747157E-02 
458	 4.49680797022021E-02 
459	 4.50160222950986E-02 
460	 4.50183969638473E-02 
461	 4.50909223113041E-02 
462	 4.53982850499775E-02 
463	 4.56277693292077E-02 
464	 4.55862218118714E-02 
465	 0.045659698436928 
466	 4.57357981825181E-02 
467	 4.58465917267714E-02 
468	 4.60380364598955E-02 
469	 4.59604219468147E-02 
470	 4.61190586138964E-02 
471	 4.64977526843153E-02 
472	 4.62988263796643E-02 
473	 4.64749750077946E-02 
474	 4.67679277284281E-02 
475	 4.67915097475776E-02 
476	 4.68669714697258E-02 
477	 4.70135283877232E-02 
478	 0.047205019858726 
479	 0.047383027971225 
480	 4.75300473322698E-02 
481	 4.76383279134315E-02 
482	 4.77404075157687E-02 
483	 4.79463823320062E-02 
484	 4.81365197678607E-02 
485	 4.83517153415838E-02 
486	 4.86390144242843E-02 
487	 4.87608797363076E-02 
488	 4.88743978281407E-02 
489	 4.90679813129791E-02 
490	 4.93359955197433E-02 
491	 4.95750742209859E-02 
492	 4.97217617698479E-02 
493	 4.98297138251814E-02 
494	 5.02718619758407E-02 
495	 5.04950243622501E-02 
496	 5.05573646090127E-02 
497	 5.08026686779021E-02 
498	 5.11048620072612E-02 
499	 5.13262064034632E-02 
500	 5.14927520720459E-02 
501	 5.18839679823777E-02 
502	 5.22004499302308E-02 
503	 5.24060047801234E-02 
504	 5.25751183009311E-02 
505	 5.28750303558472E-02 
506	 5.32059753924094E-02 
507	 5.35085526067834E-02 
508	 5.37666184723201E-02 
509	 5.40270511926533E-02 
510	 5.42697791015339E-02 
511	 5.44979028944326E-02 
512	 5.47995870692074E-02 
513	 5.50871579114074E-02 
514	 5.54006916218045E-02 
515	 5.57922741871889E-02 
516	 0.056000381527062 
517	 5.62881761884985E-02 
518	 5.67043607246514E-02 
519	 5.69840569547426E-02 
520	 5.72724867846973E-02 
521	 5.75799356250081E-02 
522	 5.78975245912329E-02 
523	 5.82582359636489E-02 
524	 5.85523881663111E-02 
525	 5.88311028681793E-02 
526	 5.92334955195477E-02 
527	 5.94654642518588E-02 
528	 5.97437520162748E-02 
529	 6.01703655187964E-02 
530	 6.04886806165722E-02 
531	 6.07815713020004E-02 
532	 6.11145976092446E-02 
533	 0.061509141133325 
534	 6.17279898224519E-02 
535	 6.20097285467264E-02 
536	 6.24021545076683E-02 
537	 6.27061368261964E-02 
538	 6.29639525356807E-02 
539	 6.32663738370372E-02 
540	 6.36615870224539E-02 
541	 6.40233123095529E-02 
542	 0.064332422383529 
543	 6.46011570476854E-02 
544	 6.48688768187968E-02 
545	 0.065207682138571 
546	 6.55396492265544E-02 
547	 0.065828418603786 
548	 6.61528733612706E-02 
549	 6.65244199037298E-02 
550	 6.68549435896485E-02 
551	 6.70701774099286E-02 
552	 0.067387053808928 
553	 6.77192992631523E-02 
554	 0.068027125356629 
555	 6.83410981976125E-02 
556	 6.86503786663962E-02 
557	 6.89063859765156E-02 
558	 6.91123956618979E-02 
559	 6.94892235667542E-02 
560	 6.97549849563685E-02 
561	 6.99086363414366E-02 
562	 7.01241859675156E-02 
563	 7.03897298628762E-02 
564	 7.06214178307222E-02 
565	 7.07881009068221E-02 
566	 7.09821342196513E-02 
567	 7.11468998776381E-02 
568	 0.071324895618402 
569	 7.15534424674111E-02 
570	 7.16362743350526E-02 
571	 7.17631973963377E-02 
572	 7.19667705923464E-02 
573	 7.20895785975398E-02 
574	 7.22028346761804E-02 
575	 7.22608415398432E-02 
576	 7.22580743231551E-02 
577	 7.24004785734388E-02 
578	 7.24956672875335E-02 
579	 7.24742676315063E-02 
580	 7.23702583225054E-02 
581	 7.23904986128106E-02 
582	 0.072386632064436 
583	 7.22887383241948E-02 
584	 7.22566169066361E-02 
585	 7.21546175263368E-02 
586	 7.20091983283073E-02 
587	 7.18772124613848E-02 
588	 7.16351584247181E-02 
589	 7.14619213789664E-02 
590	 7.13833561715496E-02 
591	 7.12321538860937E-02 
592	 7.10154986920555E-02 
593	 7.07907088946784E-02 
594	 7.05850135737074E-02 
595	 7.02805054212636E-02 
596	 6.99342930533398E-02 
597	 6.95531958555251E-02 
598	 6.91306986210224E-02 
599	 6.87815597657957E-02 
600	 6.84550703438109E-02 
601	 6.81152480990167E-02 
602	 6.77730913182434E-02 
603	 6.76768856496447E-02 
604	 6.76314254572589E-02 
605	 6.73953171557364E-02 
606	 6.72910833150221E-02 
607	 6.72661956431104E-02 
608	 6.72375784286449E-02 
609	 6.71185577528091E-02 
610	 6.71481742086959E-02 
611	 6.71520461669997E-02 
612	 6.69927655708641E-02 
613	 6.68905275108053E-02 
614	 6.68578714156147E-02 
615	 0.066857346999629 
616	 6.68226687558009E-02 
617	 6.67760851517213E-02 
618	 6.67151594229747E-02 
619	 6.66681840722181E-02 
620	 6.67266470863013E-02 
621	 6.66312111620698E-02 
622	 0.066496881742799 
623	 6.64941569096091E-02 
624	 6.64046199356506E-02 
625	 6.63621961397151E-02 
626	 6.63696929682972E-02 
627	 0.066298946447716 
628	 6.61988288136046E-02 
629	 6.61152330403396E-02 
630	 6.60695909849057E-02 
631	 6.60188580824076E-02 
632	 6.60271510619109E-02 
633	 6.60618479508838E-02 
634	 6.60440651530631E-02 
635	 6.59308420900321E-02 
636	 6.58488831482327E-02 
637	 6.58452421408811E-02 
638	 6.58340607210027E-02 
639	 6.57670462415079E-02 
640	 6.56554432612102E-02 
641	 6.55338740771973E-02 
642	 6.54319457359118E-02 
643	 0.0652672999172 
644	 6.50977266239958E-02 
645	 6.50789626719669E-02 
646	 6.49289034728711E-02 
647	 6.47160626065694E-02 
648	 6.45499615063428E-02 
649	 6.44684500711754E-02 
650	 6.43468658769083E-02 
651	 6.41555031677311E-02 
652	 0.063920782573695 
653	 6.37115122815182E-02 
654	 0.063416889531891 
655	 6.29941236547224E-02 
656	 6.25728112422616E-02 
657	 6.22963653603357E-02 
658	 6.20147498341978E-02 
659	 6.16219612526424E-02 
660	 6.13430546674172E-02 
661	 6.11843779591391E-02 
662	 6.10460433322257E-02 
663	 6.07867107844908E-02 
664	 6.05794270169179E-02 
665	 6.04273696414602E-02 
666	 6.03006071953648E-02 
667	 0.060150412324872 
668	 6.00978933532953E-02 
669	 6.00995535576292E-02 
670	 6.00583878543667E-02 
671	 5.99074063761282E-02 
672	 5.98257167944527E-02 
673	 5.98331257262661E-02 
674	 5.97919422811967E-02 
675	 5.96630904331881E-02 
676	 5.96711426122497E-02 
677	 5.98832035987877E-02 
678	 5.98450641711163E-02 
679	 5.98371021452138E-02 
680	 5.98968911908347E-02 
681	 0.059947156782628 
682	 5.98889318317133E-02 
683	 5.99522288519909E-02 
684	 6.01010636588663E-02 
685	 5.99039206399326E-02 
686	 5.98068269254032E-02 
687	 5.98283632789391E-02 
688	 5.98486266853791E-02 
689	 5.98597437020224E-02 
690	 5.98604622247755E-02 
691	 0.059755322220256 
692	 5.94276971870893E-02 
693	 5.93166539087575E-02 
694	 0.059165931642582 
695	 5.88986870031381E-02 
696	 0.058870759644347 
697	 5.85746211073425E-02 
698	 0.058078784577219 
699	 5.76459888554456E-02 
700	 5.73715795652216E-02 
701	 5.70935066124164E-02 
702	 5.67158566294643E-02 
703	 5.62170100066492E-02 
704	 5.57332662648716E-02 
705	 5.52552489493694E-02 
706	 5.47649356144172E-02 
707	 5.42489893047322E-02 
708	 5.36212533589435E-02 
709	 5.29132179908734E-02 
710	 5.21961209297315E-02 
711	 5.14767693896694E-02 
712	 5.06635166614398E-02 
713	 4.97440614158163E-02 
714	 4.87713318914017E-02 
715	 4.79002299246645E-02 
716	 4.68813441054807E-02 
717	 4.55844378380705E-02 
718	 4.45325098421812E-02 
719	 4.36378634252778E-02 
720	 4.28056133212634E-02 
721	 4.18456053057321E-02 
722	 4.11099233620837E-02 
723	 4.00907845998376E-02 
724	 3.87954242423875E-02 
725	 3.77490834359861E-02 
726	 3.67812680383834E-02 
727	 3.56088532655347E-02 
728	 3.41635109604245E-02 
729	 3.30257522571497E-02 
730	 3.17569232702456E-02 
731	 3.05126989937935E-02 
732	 2.95458306571094E-02 
733	 2.85647805715749E-02 
734	 2.77690140803976E-02 
735	 0.027189900528377 
736	 2.65814738514658E-02 
737	 2.62398471135233E-02 
738	 2.59954188077412E-02 
739	 2.56832874718845E-02 
740	 2.54603324798768E-02 
741	 2.53272987780489E-02 
742	 2.52337316455596E-02 
743	 2.51064867780083E-02 
744	 2.49433215037611E-02 
745	 2.49104128268875E-02 
746	 2.49844856327757E-02 
747	 2.48724829390985E-02 
748	 2.48651313588597E-02 
749	 2.48495157344218E-02 
750	 2.47250952513485E-02 
751	 0.024788486681734 
752	 2.46887423553314E-02 
753	 0.024508331800013 
754	 2.45367380876315E-02 
755	 2.46260179191149E-02 
756	 2.46185497729546E-02 
757	 2.45019452100694E-02 
758	 2.44639530287953E-02 
759	 2.44609322149574E-02 
760	 0.024543680364914 
761	 2.46086616285562E-02 
762	 0.024291616583876 
763	 0.024279030561026 
764	 2.44657428078587E-02 
765	 2.45293758481014E-02 
766	 2.44657643611399E-02 
767	 2.44270951641232E-02 
768	 2.44697205907797E-02 
769	 2.45715980819332E-02 
770	 2.46187953096939E-02 
771	 2.46290263330757E-02 
772	 2.46649180303859E-02 
773	 2.48351263799109E-02 
774	 2.49720532191835E-02 
775	 2.50451703481277E-02 
776	 2.50908685972085E-02 
777	 2.51184565246396E-02 
778	 2.51803438435794E-02 
779	 2.53229679324314E-02 
780	 2.55669477101153E-02 
781	 2.56287643525166E-02 
782	 2.57267404978678E-02 
783	 2.60012089265338E-02 
784	 2.62211715155715E-02 
785	 2.62670722735883E-02 
786	 2.62716235364505E-02 
787	 2.64399621299958E-02 
788	 0.026749894544611 
789	 2.70707451214137E-02 
790	 2.72911638141217E-02 
791	 2.73671027144285E-02 
792	 2.75613187660112E-02 
793	 2.77895893195763E-02 
794	 2.79712329940657E-02 
795	 2.81037228723547E-02 
796	 0.02828654251111 
797	 0.028534517487209 
798	 2.87925131244554E-02 
799	 2.88264120752676E-02 
800	 2.89516303735731E-02 
801	 2.91766632497175E-02 
802	 2.93331509506305E-02 
803	 2.94163631788804E-02 
804	 2.95084114093912E-02 
805	 2.95698226024177E-02 
806	 2.94383664601417E-02 
807	 2.94791936164933E-02 
808	 2.96177192743927E-02 
809	 2.96833764760978E-02 
810	 2.95028349578227E-02 
811	 2.91916843600594E-02 
812	 2.89405777117836E-02 
813	 2.89406935227987E-02 
814	 2.90342652040564E-02 
815	 0.028788376822149 
816	 2.83546486420228E-02 
817	 2.82736900532196E-02 
818	 2.78819239558986E-02 
819	 2.75058205016935E-02 
820	 2.72513580421752E-02 
821	 2.68795076748262E-02 
822	 2.62813696541751E-02 
823	 2.55163407908781E-02 
824	 2.47652919554351E-02 
825	 0.024253338877327 
826	 2.34428494565018E-02 
827	 2.25728579042235E-02 
828	 2.20980398727499E-02 
829	 2.14042880357974E-02 
830	 2.05732996136944E-02 
831	 1.97766756707934E-02 
832	 1.92330963027964E-02 
833	 1.90347772626191E-02 
834	 1.87336268083896E-02 
835	 1.82759092213133E-02 
836	 1.81729772306005E-02 
837	 1.81315400882588E-02 
838	 1.79069557997864E-02 
839	 0.017504432480957 
840	 1.75373150210974E-02 
841	 1.74634068028572E-02 
842	 1.72970580330414E-02 
843	 1.72047282307731E-02 
844	 1.70379205599299E-02 
845	 0.016897674481911 
846	 1.67589591256675E-02 
847	 1.65315358486438E-02 
848	 1.64260038218296E-02 
849	 0.016235915067247 
850	 1.59724451703876E-02 
851	 1.59552818909835E-02 
852	 1.58436948952035E-02 
853	 1.58162876296236E-02 
854	 1.59099974216142E-02 
855	 1.56526868589496E-02 
856	 1.53776946324327E-02 
857	 1.52750235617954E-02 
858	 1.53802722680022E-02 
859	 1.53946378047641E-02 
860	 1.52055571782171E-02 
861	 1.49570723025593E-02 
862	 1.48904335664567E-02 
863	 1.49402561198015E-02 
864	 1.49611954740413E-02 
865	 1.48794111916364E-02 
866	 1.47093295433166E-02 
867	 1.45120176351448E-02 
868	 1.42092482948343E-02 
869	 1.39594145268924E-02 
870	 1.42105845346677E-02 
871	 1.41035491808328E-02 
872	 1.38566229167172E-02 
873	 1.37497491999802E-02 
874	 1.36450308674039E-02 
875	 1.35577857280892E-02 
876	 1.34378973152354E-02 
877	 1.32705246963803E-02 
878	 1.32318276829857E-02 
879	 0.013110186767 
880	 1.29069524128119E-02 
881	 1.27314364655417E-02 
882	 1.26055319464726E-02 
883	 1.26915747866727E-02 
884	 1.27307976159892E-02 
885	 1.22934331566669E-02 
886	 1.22608912233022E-02 
887	 0.012474024467567 
888	 1.26132563672231E-02 
889	 1.23601734965495E-02 
890	 1.19455753618835E-02 
891	 1.19392486209228E-02 
892	 1.23309501815203E-02 
893	 1.18981427359348E-02 
894	 1.19379741600459E-02 
895	 1.20841580203467E-02 
896	 1.17612616399441E-02 
897	 1.14646055612406E-02 
898	 1.11686334714843E-02 
899	 1.09906000718165E-02 
900	 1.10351153603122E-02 
901	 1.13256640871872E-02 
902	 1.14287708952975E-02 
903	 1.12053358711378E-02 
904	 0.010751523090095 
905	 1.06145690353671E-02 
906	 1.04612378051552E-02 
907	 1.06449718132275E-02 
908	 1.16760161134493E-02 
909	 1.13463841206856E-02 
910	 0.010694818122312 
911	 1.03590790449542E-02 
912	 1.01966442966882E-02 
913	 9.6243877459886E-03 
914	 9.46055861913298E-03 
915	 9.84227050718344E-03 
916	 9.95335704445094E-03 
917	 9.62902410115833E-03 
918	 9.20533978040025E-03 
919	 8.93978844815454E-03 
920	 8.86278501698374E-03 
921	 8.63261866789404E-03 
922	 8.58026140058074E-03 
923	 9.01208135587788E-03 
924	 9.92984429605258E-03 
925	 9.12614039280848E-03 
926	 7.94614192172779E-03 
927	 8.24884188489066E-03 
928	 8.76825328557337E-03 
929	 9.40547165656973E-03 
930	 9.69785131976482E-03 
931	 9.22596068701185E-03 
932	 9.57300597603365E-03 
933	 9.15827357437338E-03 
934	 7.89994771794406E-03 
935	 6.98664588940374E-03 
936	 7.07966694652519E-03 
937	 6.67054541830133E-03 
938	 8.11108193013205E-03 
939	 1.23489251855007E-02 
940	 0.011469980212254 
941	 7.9296769952244E-03 
942	 5.39311845943454E-03 
943	 6.88972840350865E-03 
944	 6.47833570154329E-03 
945	 6.82492649684601E-03 
946	 7.61001124013233E-03 
947	 6.88744397947515E-03 
948	 6.00320305698341E-03 
949	 4.39068873350758E-03 
950	 4.48963299648448E-03 
951	 8.76522635989084E-03 
952	 9.44581363132351E-03 
953	 8.44989076454681E-03 
954	 7.81061856745313E-03 
955	 8.60078354467185E-03 
956	 9.72864791462246E-03 
957	 6.83344846511057E-03 
958	 3.04651269848556E-03 
959	 4.85933978140349E-03 
960	 5.49895099185529E-03 
961	 5.52251253221475E-03 
962	 5.71713030761724E-03 
963	 6.38148049990984E-03 
964	 6.92354985413219E-03 
965	 7.73232323142052E-03 
966	 7.67619635563273E-03 
967	 5.3873013329791E-03 
968	 5.97435008434782E-03 
969	 5.70581619526326E-03 
970	 4.18838133824775E-03 
971	 4.20714693344329E-03 
972	 4.43943235128947E-03 
973	 5.04083049362221E-03 
974	 5.34813262238891E-03 
975	 4.33443854519096E-03 
976	 5.57804705799266E-03 
977	 5.94169205573412E-03 
978	 5.16842541323688E-03 
979	 5.72994329767702E-03 
980	 5.65729179962621E-03 
981	 6.2941562911031E-03 
982	 7.23993103336628E-03 
983	 6.85482541795307E-03 
984	 6.67362108533506E-03 
985	 6.00609181714627E-03 
986	 5.32747012792235E-03 
987	 5.82968412731678E-03 
988	 6.11954689778843E-03 
989	 6.75476062999803E-03 
990	 6.80431901909548E-03 
991	 4.96956346510951E-03 
992	 5.56899195982131E-03 
993	 5.97241413432443E-03 
994	 5.78278690327382E-03 
995	 6.13467924118854E-03 
996	 4.4462352469284E-03 
997	 5.92720714551988E-03 
998	 7.98217239079691E-03 
999	 5.10791157528553E-03 
1000	 5.78841304247268E-03 
1001	 5.61791681493837E-03 
1002	 5.62017951400263E-03 
1003	 5.54521468401075E-03 
1004	 5.25020576602556E-03 
1005	 5.08787597402483E-03 
1006	 4.83927876721325E-03 
1007	 4.71439567633673E-03 
1008	 4.89626792036647E-03 
1009	 5.1145552332641E-03 
1010	 5.41140938412345E-03 
1011	 5.94665556316349E-03 
1012	 5.97773892607243E-03 
1013	 5.87248480841322E-03 
1014	 5.80298646547694E-03 
1015	 5.50490545811949E-03 
1016	 5.2186771668707E-03 
1017	 4.96159116994369E-03 
1018	 4.78393843647222E-03 
1019	 4.38504333761645E-03 
1020	 4.39799195859476E-03 
1021	 4.81120113054157E-03 
1022	 4.98727612068493E-03 
1023	 5.30111562510213E-03 
1024	 5.59692042903695E-03 
1025	 5.73224333803882E-03 
1026	 5.67556573057392E-03 
1027	 5.55441159319407E-03 
1028	 5.27065544739868E-03 
1029	 5.08587651425894E-03 
1030	 4.6497705445162E-03 
1031	 4.7177434816381E-03 
1032	 5.10247979459762E-03 
1033	 5.39894872984503E-03 
1034	 6.18926708915546E-03 
1035	 6.39320613190021E-03 
1036	 6.21658662693135E-03 
1037	 6.11202321904134E-03 
1038	 5.71291770746937E-03 
1039	 5.41408226965377E-03 
1040	 5.13919613671164E-03 
1041	 5.31784623411365E-03 
1042	 5.3214532439253E-03 
1043	 5.35851967990162E-03 
1044	 5.3701474199832E-03 
1045	 5.36296692396538E-03 
1046	 5.4690216482855E-03 
1047	 5.68742276899407E-03 
1048	 5.83585736582937E-03 
1049	 6.2039509982233E-03 
1050	 6.18514850728885E-03 
1051	 5.68449570033324E-03 
1052	 5.62117512632045E-03 
1053	 5.55280704250247E-03 
1054	 5.56322468799879E-03 
1055	 6.04328316726973E-03 
1056	 6.24860106480928E-03 
1057	 6.34492997550808E-03 
1058	 6.25510588526924E-03 
1059	 6.26890131363886E-03 
1060	 6.23369191696041E-03 
1061	 6.20093028840092E-03 
1062	 6.12228648203678E-03 
1063	 6.16065746271653E-03 
1064	 6.27683342023565E-03 
1065	 6.29593417325792E-03 
1066	 6.40483092711131E-03 
1067	 6.39469858323943E-03 
1068	 6.19445219903501E-03 
1069	 6.08926335849023E-03 
1070	 5.97566759097383E-03 
1071	 5.91344521103963E-03 
1072	 5.89056809618735E-03 
1073	 5.85145500576095E-03 
1074	 5.92880123121266E-03 
1075	 6.12105067952348E-03 
1076	 6.15875627198623E-03 
1077	 6.27862964557872E-03 
1078	 6.23072727267416E-03 
1079	 5.99659536753626E-03 
1080	 5.86654512915329E-03 
1081	 5.50945562501141E-03 
1082	 5.51516434927382E-03 
1083	 5.8815028772998E-03 
1084	 5.96606496663996E-03 
1085	 6.36027110797154E-03 
1086	 6.38694329981024E-03 
1087	 5.53570902570963E-03 
1088	 5.34981918785699E-03 
1089	 5.37793036880747E-03 
1090	 5.64656426551611E-03 
1091	 5.75087670455304E-03 
1092	 6.37538858736049E-03 
1093	 6.44681786959732E-03 
1094	 5.93131577027036E-03 
1095	 5.79008359420214E-03 
1096	 5.79379885292277E-03 
1097	 5.63249523264744E-03 
1098	 5.37599193783847E-03 
1099	 5.27797789761903E-03 
1100	 5.03985410607003E-03 
1101	 5.02054944385906E-03 
1102	 5.50718158389842E-03 
1103	 5.6165433312478E-03 
1104	 5.56660650409089E-03 
1105	 5.51908575423253E-03 
1106	 5.47672926312409E-03 
1107	 5.1933203451011E-03 
1108	 5.21997259827255E-03 
1109	 5.48538759663454E-03 
1110	 5.51543541156229E-03 
1111	 5.42396828671576E-03 
1112	 5.51865232484211E-03 
1113	 5.57018008916496E-03 
1114	 5.73740284979513E-03 
1115	 6.10455583003159E-03 
1116	 6.58950189802779E-03 
1117	 7.95319504163594E-03 
1118	 8.23751386073579E-03 
1119	 6.72534420043194E-03 
1120	 6.90510016588695E-03 
1121	 7.6271500451391E-03 
1122	 7.5200566737928E-03 
1123	 8.01231225888064E-03 
1124	 9.23579056481797E-03 
1125	 7.27185050068853E-03 
1126	 5.12636030795929E-03 
1127	 6.08278510150768E-03 
1128	 7.82193942620409E-03 
1129	 8.56921644141034E-03 
1130	 9.21050820998326E-03 
1131	 8.26019977821564E-03 
1132	 6.21752149068193E-03 
1133	 6.88723547736273E-03 
1134	 8.16009610290206E-03 
1135	 7.97628353999007E-03 
1136	 8.7950512828389E-03 
1137	 8.16915851481187E-03 
1138	 5.03619988229097E-03 
1139	 4.36210580870701E-03 
1140	 5.96094674822119E-03 
1141	 6.14742401730572E-03 
1142	 5.88704038616291E-03 
1143	 6.23661310794249E-03 
1144	 5.3252246663881E-03 
1145	 5.08553719411443E-03 
1146	 6.63468446473533E-03 
1147	 7.0273789899706E-03 
1148	 6.22080467062712E-03 
1149	 5.45527287020927E-03 
1150	 5.36173803349344E-03 
1151	 5.60300314785921E-03 
1152	 5.57555201062367E-03 
1153	 6.04804520481117E-03 
1154	 5.61126022176276E-03 
1155	 4.68091026899458E-03 
1156	 3.80653450803526E-03 
1157	 3.78124698461857E-03 
1158	 4.25954592835557E-03 
1159	 4.3152072942955E-03 
1160	 3.96162497759797E-03 
1161	 3.96937259938581E-03 
1162	 3.96587784823868E-03 
1163	 3.70057234494251E-03 
1164	 3.98662505703278E-03 
1165	 4.3229673159768E-03 
1166	 3.94716859628237E-03 
1167	 3.78226575231015E-03 
1168	 4.26183329979028E-03 
1169	 4.12094673540064E-03 
1170	 3.70185258793474E-03 
1171	 0.003649032073206 
1172	 3.77573745581387E-03 
1173	 3.64860353252764E-03 
1174	 3.37946490550476E-03 
1175	 3.72150957951081E-03 
1176	 3.85932511773753E-03 
1177	 3.82890429892939E-03 
1178	 3.80389110078439E-03 
1179	 3.74368646219353E-03 
1180	 3.56885352396259E-03 
1181	 3.50101310771424E-03 
1182	 3.8743863307352E-03 
1183	 3.89809169127109E-03 
1184	 3.44607902392054E-03 
1185	 3.44932721286404E-03 
1186	 3.53563997138405E-03 
1187	 3.35821514589564E-03 
1188	 3.57493527608961E-03 
1189	 3.80023167021436E-03 
1190	 3.57308529464804E-03 
1191	 3.45269308920949E-03 
1192	 3.41621744155842E-03 
1193	 3.4460801959689E-03 
1194	 3.42748219199866E-03 
1195	 3.64153993322046E-03 
1196	 3.89589694439832E-03 
1197	 4.09147932562004E-03 
1198	 4.02783746151052E-03 
1199	 3.86625564362049E-03 
1200	 3.93912424099183E-03 
1201	 3.83710660808713E-03 
1202	 3.64826919943532E-03 
1203	 3.78069523171204E-03 
1204	 3.74737114281519E-03 
1205	 3.4286983023017E-03 
1206	 3.55057451248972E-03 
1207	 3.8199723817402E-03 
1208	 3.6379746372989E-03 
1209	 3.44530092753278E-03 
1210	 3.43041993648537E-03 
1211	 3.45609027475856E-03 
1212	 3.49365051965993E-03 
1213	 3.59842262778002E-03 
1214	 3.62049526303344E-03 
1215	 3.63097736060984E-03 
1216	 3.29002017943276E-03 
1217	 3.23687690930023E-03 
1218	 3.56833553579421E-03 
1219	 3.88355758571162E-03 
1220	 3.99485848130923E-03 
1221	 3.85337278402691E-03 
1222	 3.7187164790793E-03 
1223	 3.51863478444754E-03 
1224	 3.27466877297892E-03 
1225	 3.29584999754407E-03 
1226	 3.38205125976923E-03 
1227	 3.3888414334338E-03 
1228	 3.46599403571074E-03 
1229	 3.46547430555731E-03 
1230	 3.39370843565369E-03 
1231	 3.44874030666166E-03 
1232	 3.48832119688107E-03 
1233	 3.44177365368168E-03 
1234	 3.48047773938124E-03 
1235	 3.44065100372163E-03 
1236	 3.16045403800146E-03 
1237	 3.17394578421731E-03 
1238	 3.4286429360109E-03 
1239	 3.42877756942992E-03 
1240	 3.30222792214022E-03 
1241	 3.49788976398072E-03 
1242	 3.39712850866403E-03 
1243	 3.13320133107084E-03 
1244	 3.31900729831661E-03 
1245	 3.47070991218768E-03 
1246	 3.5382489806039E-03 
1247	 3.75587421096364E-03 
1248	 3.67474389415237E-03 
1249	 3.48869014458423E-03 
1250	 3.56109987611165E-03 
1251	 3.5645972263384E-03 
1252	 3.49887765995515E-03 
1253	 3.70083421777957E-03 
1254	 3.8597152636175E-03 
1255	 3.67336843891454E-03 
1256	 3.5088618224672E-03 
1257	 3.24965454644473E-03 
1258	 3.26621544678557E-03 
1259	 3.30420189637798E-03 
1260	 3.25941549376647E-03 
1261	 3.54789510102126E-03 
1262	 3.65310064240119E-03 
1263	 3.48249896990959E-03 
1264	 3.26606868082288E-03 
1265	 3.37074574789171E-03 
1266	 3.32585836229769E-03 
1267	 3.22442145572344E-03 
1268	 3.42928695054952E-03 
1269	 3.53612550040801E-03 
1270	 3.50530927341141E-03 
1271	 3.59523807062388E-03 
1272	 3.53756236545224E-03 
1273	 3.60142167197779E-03 
1274	 3.72508283083315E-03 
1275	 3.49091282519695E-03 
1276	 3.34955089145247E-03 
1277	 3.43053820710301E-03 
1278	 3.49608175869441E-03 
1279	 3.51020220208494E-03 
1280	 3.39393496901045E-03 
1281	 3.31983612747236E-03 
1282	 3.18444074928085E-03 
1283	 3.17783922878526E-03 
1284	 3.26121488255607E-03 
1285	 3.27445729091287E-03 
1286	 3.35425987275715E-03 
1287	 3.35410379657047E-03 
1288	 3.1835274866621E-03 
1289	 3.14195090586868E-03 
1290	 3.21457938095284E-03 
1291	 3.18149970902383E-03 
1292	 3.13916694338589E-03 
1293	 3.26874669006148E-03 
1294	 3.32568675199257E-03 
1295	 3.35670478270289E-03 
1296	 3.33613101156241E-03 
1297	 3.15549097496126E-03 
1298	 2.9968504723836E-03 
1299	 2.90376155959352E-03 
1300	 2.64442012903417E-03 
1301	 2.57939217716409E-03 
1302	 2.9650063457337E-03 
1303	 3.15245643197792E-03 
1304	 3.19953051692381E-03 
1305	 3.28494606743934E-03 
1306	 3.32588093918227E-03 
1307	 3.04770693423071E-03 
1308	 2.99103560411462E-03 
1309	 3.09771014548109E-03 
1310	 3.11782659026849E-03 
1311	 3.13398916059704E-03 
1312	 3.12615582094928E-03 
1313	 3.0145923772593E-03 
1314	 3.12994954041504E-03 
1315	 3.34990406695921E-03 
1316	 3.42207049283147E-03 
1317	 3.8999934548335E-03 
1318	 3.97204561579841E-03 
1319	 3.41664251263435E-03 
1320	 3.18608595509353E-03 
1321	 2.85406836300478E-03 
1322	 2.61365618332703E-03 
1323	 2.63715495588064E-03 
1324	 2.88368182800821E-03 
1325	 3.16415306643196E-03 
1326	 3.26979347621725E-03 
1327	 3.31271557961528E-03 
1328	 3.15857835076508E-03 
1329	 2.84552917098292E-03 
1330	 3.11028818808101E-03 
1331	 3.64322760184374E-03 
1332	 4.0630842423683E-03 
1333	 3.99980059975388E-03 
1334	 3.59128613406705E-03 
1335	 3.62850092048967E-03 
1336	 3.91669208734028E-03 
1337	 3.52749740787927E-03 
1338	 2.81271447781966E-03 
1339	 2.71445820101267E-03 
1340	 2.42722589264763E-03 
1341	 2.39553228225767E-03 
1342	 3.02873862178694E-03 
1343	 3.54053241575089E-03 
1344	 4.55667611296149E-03 
1345	 4.21809347748794E-03 
1346	 2.16706469276244E-03 
1347	 3.00215055982312E-03 
1348	 4.91684910010652E-03 
1349	 5.37453281025553E-03 
1350	 1.20181083193817E-02 
1351	 1.74538279516195E-02 
1352	 9.84741224321162E-03 
1353	 5.29488618425179E-03 
1354	 2.29716540141007E-03 
1355	 2.54580539293264E-03 
1356	 2.66919797995258E-02 
1357	 9.60672330130619E-02 
1358	 7.69238813043224E-02 
1359	 3.52494541374248E-02 
1360	 4.78868583947986E-02 
1361	 0.019122199163489 
1362	 1.87573496380363E-02 
1363	 6.25860867260922E-02 
1364	 0.042155354232875 
1365	-0.130270419998394 
1366	-0.152589999421247 
1367	 5.0338350872357E-04 
1368	 4.24674942742925E-02 
1369	 0.032052224091722 
1370	 6.05428937332547E-02 
1371	 0.175099401338596 
1372	 5.75751184945626E-02 
1373	-0.256179568095811 
1374	-0.25497606411986 
1375	-0.13205473932753 
1376	-0.101990982201349 
1377	 0.125130900227236 
1378	 0.273697398283241 
1379	 0.205453894967246 
1380	 0.141947991182254 
1381	 0.136137459425416 
1382	 0.2269984182175 
1383	 0.243594899197424 
1384	 0.225876007202873 
1385	 0.522174813869343 
1386	 0.455812802565833 
1387	-0.155782706408506 
1388	-0.234964756355422 
1389	 0.34948856381409 
1390	 0.513901924641157 
1391	 0.238183843192101 
1392	 1.00312604946129 
1393	 0.571815418146204 
1394	 0.209170582908562 
1395	 6.34928992888665E-02 
1396	 6.97136988655704E-02 
1397	-0.025080731676857 
1398	-8.42158273678498E-02 
1399	 0.212214830077177 
1400	 0.399513119831018 
1401	 0.144608420803077 
1402	-2.32213655275384E-02 
1403	-0.251553021670051 
1404	-0.259451994992065 
1405	-0.122688762096672 
1406	 0.163875972340829 
1407	 0.175685130178585 
1408	 0.121505034401531 
1409	 0.193839880137332 
1410	 0.321411597913125 
1411	 0.236610757286637 
1412	 0.129264710155072 
1413	 0.109325727036023 
1414	-7.02172122697901E-03 
1415	-3.44946417279733E-02 
1416	 6.21947702377597E-02 
1417	 0.047556176061566 
1418	-6.12324944060521E-02 
1419	-5.41623673897343E-02 
1420	 1.06341632263725E-02 
1421	 1.89823102658794E-02 
1422	 2.18868179828487E-02 
1423	 3.15359627634767E-02 
1424	 2.99058877731181E-02 
1425	 2.41857517429432E-02 
1426	 2.41323661218621E-02 
1427	 0.026320986967881 
1428	 2.00325177750714E-02 
1429	 0.018860853838864 
1430	 2.88633323580196E-02 
1431	 0.034283729755078 
1432	 0.038698667428602 
1433	 3.58444512944339E-02 
1434	 2.71128739608574E-02 
1435	 2.25293030468916E-02 
1436	 1.26644690581405E-02 
1437	 6.60513115892957E-03 
1438	 1.43444417537621E-02 
1439	 1.41306579832962E-02 
1440	-1.54364329263742E-03 
1441	 6.08647356912318E-03 
1442	 1.60851694920071E-02 
1443	 9.13102470303381E-03 
1444	 9.70880747696271E-03 
1445	 1.19541494569601E-02 
1446	 9.1328100879182E-03 
1447	 8.10899887807395E-03 
1448	 6.54794311632352E-03 
1449	 0.006269622222906 
1450	 4.20564171304371E-03 
1451	 1.71311535462128E-03 
1452	 2.36898405436626E-03 
1453	 2.1203639459476E-03 
1454	 2.05811736219744E-03 
1455	 1.59162168553512E-03 
1456	 1.70185158717016E-03 
1457	 2.55973480292243E-03 
1458	 3.13386164423024E-03 
1459	 3.50838966321767E-03 
1460	 3.49907532141815E-03 
1461	 3.92115297433201E-03 
1462	 3.24534230562866E-03 
1463	 8.70731109653692E-04 
1464	 8.65250144105048E-04 
1465	 1.36671904552576E-03 
1466	 1.55472841421019E-03 
1467	 3.21857207158321E-03 
1468	 4.67156880912945E-03 
1469	 6.70910327577758E-03 
1470	 6.72623012124067E-03 
1471	 5.5900076871604E-03 
1472	 4.9290945599448E-03 
1473	 3.01587967982684E-03 
1474	 1.94626185311946E-03 
1475	 1.3369385809709E-03 
1476	 1.61995300363904E-03 
1477	 2.20025827583114E-03 
1478	 1.94133178299302E-03 
1479	 2.79484988843283E-03 
1480	 2.71027661438322E-03 
1481	 4.82974021298685E-04 
1482	 9.28372543186969E-04 
1483	 3.41912848045222E-03 
1484	 3.24515183289933E-03 
1485	 2.44751493088132E-03 
1486	 2.53133988183977E-03 
1487	 1.80249042234132E-03 
1488	 1.38075774501823E-03 
1489	 1.76565217599406E-03 
1490	 2.17294424962618E-03 
1491	 2.60334509172591E-03 
1492	 2.40754059900969E-03 
1493	 1.9197933609939E-03 
1494	 1.92703191660506E-03 
1495	 1.96641927658748E-03 
1496	 0.001667756592368 
1497	 1.37518605920617E-03 
1498	 1.50794957994214E-03 
1499	 1.53625145099149E-03 
1500	 1.43995151527405E-03 
1501	 1.79332657016349E-03 
1502	 0.001930654632839 
1503	 1.58590116126039E-03 
1504	 1.44097075429676E-03 
1505	 1.47519349437322E-03 
1506	 1.53465621060439E-03 
1507	 1.59369403013543E-03 
1508	 1.69789458771245E-03 
1509	 1.6975145299876E-03 
1510	 1.50354700010141E-03 
1511	 1.37831217451934E-03 
1512	 1.55442069104514E-03 
1513	 1.6733575423432E-03 
1514	 1.65527406172426E-03 
1515	 1.53317893726966E-03 
1516	 1.40486030270763E-03 
1517	 1.46227677859859E-03 
1518	 1.61967641558914E-03 
1519	 1.89308714844053E-03 
1520	 1.85216304937771E-03 
1521	 1.63167233991217E-03 
1522	 1.77099231469228E-03 
1523	 1.81021797672437E-03 
1524	 1.67732405006968E-03 
1525	 1.66926991582408E-03 
1526	 1.62210163312799E-03 
1527	 1.4657316725494E-03 
1528	 1.54171993839972E-03 
1529	 1.78371666906382E-03 
1530	 1.82225512418529E-03 
1531	 1.91400476852302E-03 
1532	 1.97191142565334E-03 
1533	 1.87693979212787E-03 
1534	 1.88971893075417E-03 
1535	 1.84082040078821E-03 
1536	 1.7766264703478E-03 
1537	 1.81924327663288E-03 
1538	 1.85097044200486E-03 
1539	 1.86052262862948E-03 
1540	 1.81704025199139E-03 
1541	 1.81096610419967E-03 
1542	 1.82912169754623E-03 
1543	 1.67008600071685E-03 
1544	 1.71057398402489E-03 
1545	 1.92518951273605E-03 
1546	 1.81416713648051E-03 
1547	 1.85520587476623E-03 
1548	 1.96560236259122E-03 
1549	 1.71492306069031E-03 
1550	 1.66257695081213E-03 
1551	 1.85034179280243E-03 
1552	 1.82145011777348E-03 
1553	 1.73534765257204E-03 
1554	 1.69998084973369E-03 
1555	 1.59527081077484E-03 
1556	 1.73167869223369E-03 
1557	 1.99667618832992E-03 
1558	 2.00130395142918E-03 
1559	 1.79545058616422E-03 
1560	 1.62966037854133E-03 
1561	 1.78428404589672E-03 
1562	 1.84903268836995E-03 
1563	 1.70229132674933E-03 
1564	 1.82795321804438E-03 
1565	 1.96037274464931E-03 
1566	 0.001869000963366 
1567	 1.84175000046105E-03 
1568	 0.001911054993409 
1569	 1.84549609590868E-03 
1570	 1.68781919932837E-03 
1571	 1.72749964816694E-03 
1572	 1.82537959974503E-03 
1573	 1.77196134965141E-03 
1574	 1.78855333144307E-03 
1575	 1.89998787134082E-03 
1576	 1.86520759769768E-03 
1577	 1.68012821867235E-03 
1578	 1.56855362139295E-03 
1579	 1.61171820190605E-03 
1580	 1.66109663536669E-03 
1581	 1.70883125762593E-03 
1582	 1.69962855742821E-03 
1583	 1.71276253323045E-03 
1584	 1.87827656830721E-03 
1585	 1.86430210252267E-03 
1586	 1.79670657964775E-03 
1587	 1.84447940327812E-03 
1588	 1.85905790656755E-03 
1589	 1.8323280949232E-03 
1590	 1.80384340015566E-03 
1591	 1.90922044915387E-03 
1592	 1.77155640059207E-03 
1593	 1.6524700833675E-03 
1594	 1.96065495136899E-03 
1595	 1.90696986468898E-03 
1596	 1.70363607531887E-03 
1597	 1.9023858408741E-03 
1598	 1.99435203895383E-03 
1599	 1.91086052047263E-03 
1600	 1.94245526639116E-03 
1601	 2.1006601523243E-03 
1602	 2.02748067231613E-03 
1603	 1.68120510483474E-03 
1604	 1.70099167656198E-03 
1605	 1.80482495106801E-03 
1606	 1.63579814547887E-03 
1607	 1.69595419724538E-03 
1608	 1.84837985056019E-03 
1609	 1.83486269573725E-03 
1610	 1.88556593035679E-03 
1611	 2.08955304242735E-03 
1612	 2.2467356383494E-03 
1613	 2.13463010913864E-03 
1614	 1.91098058319515E-03 
1615	 1.7730106918206E-03 
1616	 1.67835457927421E-03 
1617	 1.61469490452837E-03 
1618	 1.64204244018152E-03 
1619	 1.78197662191022E-03 
1620	 1.83465039504179E-03 
1621	 1.72788410573365E-03 
1622	 1.71133252524808E-03 
1623	 1.69862710682966E-03 
1624	 1.6016871717066E-03 
1625	 1.65323736226308E-03 
1626	 1.70623534802205E-03 
1627	 1.82575601987884E-03 
1628	 1.97062113703805E-03 
1629	 1.77139101871422E-03 
1630	 1.70805770071462E-03 
1631	 1.81907013539727E-03 
1632	 1.76233551586151E-03 
1633	 1.89701806734141E-03 
1634	 2.05487189025766E-03 
1635	 1.89318563155373E-03 
1636	 1.74244599963423E-03 
1637	 1.87646003688042E-03 
1638	 2.02253431446328E-03 
1639	 1.89682695751429E-03 
1640	 1.78490017620488E-03 
1641	 1.86934013500478E-03 
1642	 1.92168041112887E-03 
1643	 1.83069884036863E-03 
1644	 1.81835093219989E-03 
1645	 1.79462938767571E-03 
1646	 1.56330103354803E-03 
1647	 1.60643704943548E-03 
1648	 1.71766899248938E-03 
1649	 1.64564701334475E-03 
1650	 1.73696132293268E-03 
1651	 1.71158209602378E-03 
1652	 1.68161799820472E-03 
1653	 1.85627467726651E-03 
1654	 1.80647700564214E-03 
1655	 1.73485031415606E-03 
1656	 1.82005193649339E-03 
1657	 1.78897139344871E-03 
1658	 1.76734920950412E-03 
1659	 1.94424027613183E-03 
1660	 1.92693871553152E-03 
1661	 1.78536937360527E-03 
1662	 1.77577682438977E-03 
1663	 1.68309491465362E-03 
1664	 1.6624617500913E-03 
1665	 1.81171527772981E-03 
1666	 1.72293062034731E-03 
1667	 1.35211933874682E-03 
1668	 2.09819704894332E-03 
1669	 2.43159938728382E-03 
1670	 1.90155622589446E-03 
1671	 1.59728704662628E-03 
1672	 1.49910716912442E-03 
1673	 1.58064610775596E-03 
1674	 2.23077039047674E-03 
1675	 2.55317304418269E-03 
1676	 1.94414916572542E-03 
1677	 1.4890547173012E-03 
1678	 1.68905430865582E-03 
1679	 1.92669749711584E-03 
1680	 2.11497476337863E-03 
1681	 1.93934546427643E-03 
1682	 1.41610277901456E-03 
1683	 1.49683853791754E-03 
1684	 1.98649113218453E-03 
1685	 1.91092557189979E-03 
1686	 1.58409643253884E-03 
1687	 1.48181990885911E-03 
1688	 1.45174275515023E-03 
1689	 1.52028465379846E-03 
1690	 1.51597521355287E-03 
1691	 1.43917736506292E-03 
1692	 1.29248322641151E-03 
1693	 1.19380750534601E-03 
1694	 1.39626265250664E-03 
1695	 1.42855094331789E-03 
1696	 1.30297841998665E-03 
1697	 1.54385092138916E-03 
1698	 1.72542046760892E-03 
1699	 1.66737893445605E-03 
1700	 1.59632058937574E-03 
1701	 1.46463629796136E-03 
1702	 1.6067552496897E-03 
1703	 1.86651760288459E-03 
1704	 2.01872748029708E-03 
1705	 0.001747577917361 
1706	 1.17232571396158E-03 
1707	 1.29930131184384E-03 
1708	 1.6446851857721E-03 
1709	 1.80866333641513E-03 
1710	 2.10634517053738E-03 
1711	 1.83064954506575E-03 
1712	 1.2958974878921E-03 
1713	 1.65380025188372E-03 
1714	 1.57987167677198E-03 
1715	 1.3554419412956E-03 
1716	 1.25358807063216E-03 
1717	 1.33260252804852E-03 
1718	 1.98788588479362E-03 
1719	 2.29895650049188E-03 
1720	 2.22892462264436E-03 
1721	 2.30954494364453E-03 
1722	 1.81098885334528E-03 
1723	 1.48558795555666E-03 
1724	 1.78386180558371E-03 
1725	 1.54177693715818E-03 
1726	 1.37770379835588E-03 
1727	 1.59007249996389E-03 
1728	 1.40413249139325E-03 
1729	 1.55663076524797E-03 
1730	 0.001725430756602 
1731	 1.48696384615567E-03 
1732	 1.75364466820135E-03 
1733	 1.76897590848473E-03 
1734	 1.57188047723041E-03 
1735	 1.76018143072793E-03 
1736	 1.60874122070398E-03 
1737	 1.35741959841204E-03 
1738	 1.2711913725382E-03 
1739	 1.45978179184166E-03 
1740	 1.83823962673143E-03 
1741	 1.58130122891274E-03 
1742	 1.42841149301686E-03 
1743	 1.84389086393392E-03 
1744	 1.86684176715292E-03 
1745	 1.94138681201655E-03 
1746	 1.85881767527536E-03 
1747	 1.56339416591067E-03 
1748	 5.59172528953147E-04 
1749	 4.46127774995448E-04 
1750	 1.03294775625647E-03 
1751	 1.29465515541301E-03 
1752	 1.93935679440606E-03 
1753	 2.0521845728712E-03 
1754	 1.5649670758668E-03 
1755	 1.62531027827236E-03 
1756	 1.82405297720314E-03 
1757	 2.38221176429945E-03 
1758	 2.54286911528222E-03 
1759	 2.0099823192618E-03 
1760	 1.51456516947732E-03 
1761	 2.01038890717277E-03 
1762	 2.51482146864236E-03 
1763	 2.08220846686585E-03 
1764	 1.78649422522973E-03 
1765	 1.20062919498568E-03 
1766	 5.50855279076638E-04 
1767	 1.46725894398358E-03 
1768	 2.09907964713107E-03 
1769	 1.39482697135692E-03 
1770	 9.60968522357002E-04 
1771	 6.53230059536573E-04 
1772	 1.15683681757702E-03 
1773	 2.54550233572594E-03 
1774	 2.72202058929457E-03 
1775	 1.33597181183904E-03 
1776	 1.1351554007098E-03 
1777	 1.22590959145497E-03 
1778	 1.32292824424648E-03 
1779	 2.82635130884689E-03 
1780	 3.20184196713115E-03 
1781	 1.99288657684535E-03 
1782	 1.45500045830609E-03 
1783	 6.45248643639304E-04 
1784	 5.12838115666175E-04 
1785	 9.74786736886285E-04 
1786	 1.51011743912305E-03 
1787	 2.98960321151113E-03 
1788	 4.32862185822346E-03 
1789	 6.7831350128869E-03 
1790	 3.4477203354443E-03 
1791	 1.83143863354992E-03 
1792	 3.4442863037895E-03 
1793	-5.12925125846427E-04 
1794	 4.46796492785606E-03 
1795	 1.13139332959258E-02 
1796	 1.75493706802018E-03 
1797	 3.53836819323246E-03 
1798	 5.27644516663458E-03 
1799	-6.92049812212725E-03 
1800	 9.3986005276763E-05 
1801	-3.02780656787968E-04 
1802	-9.0839734484126E-03 
1803	-5.65323451052697E-03 
1804	 6.57784403856657E-03 
1805	 2.00171112327821E-02 
1806	 0.06595370365427 
1807	 7.16344933663094E-02 
1808	 1.09889091464665E-02 
1809	-3.34570853461016E-02 
1810	-0.180832701910799 
1811	-0.20962404326274 
1812	 2.29986413715527E-02 
1813	 6.23748608686935E-02 
1814	 0.123445455196639 
1815	 9.13452587744543E-02 
1816	-0.417325807469666 
1817	-0.233834150193573 
1818	-8.71001453218128E-02 
1819	 0.286183332422604 
1820	 0.420860883271672 
1821	-0.276756528056084 
1822	-0.494185964033738 
1823	-0.892007322808068 
1824	-1.08699386597247 
1825	 0.136095934857625 
1826	 0.985224126102778 
1827	 0.356727307663003 
1828	 0.166937350085226 
1829	-0.101298646259027 
1830	-0.285257028314122 
1831	-1.67607321766567 
1832	-0.45003556978674 
1833	 1.30934606738768 
1834	 1.98346839421305 
1835	 2.94272215808831 
1836	 2.41178710091089 
1837	 0.84521878271096 
1838	 0.591783513825085 
1839	 0.96687597813582 
1840	 0.487717505920391 
1841	 0.583159723341615 
1842	 1.38441736741782 
1843	 1.0948068183783 
1844	 0.141483978201559 
1845	 0.115434435794328 
1846	-7.87932592417294E-02 
1847	-0.212250614269828 
1848	-0.304426366266594 
1849	 0.455484321428793 
1850	 1.18988108931797 
1851	-0.438265566204009 
1852	-0.986142493259481 
1853	-1.06156556018524 
1854	-1.06786805214962 
1855	-1.34978858453169 
1856	-4.11085632841622 
1857	 4.25827776680848 
1858	 4.38106781000886 
1859	 11.7157874244862 
1860	 1.20267608779469 
1861	-0.548686457616002 
1862	 5.2596694481589 
1863	 1.84783445565222 
1864	 0.674318430429012 
1865	 1.93349157702556 
1866	-2.8149415551019 
1867	-2.6546081038991 
1868	 10.5754438545555 
1869	 4.06468802282517 
1870	 3.20084748182043 
1871	 0.439251455443898 
1872	 0.332142487097594 
1873	 3.02483525936306 
1874	 0.550701852202806 
1875	 0.949752782358365 
1876	 1.46541462864284 
1877	 1.62475406665925 
1878	-5.7478464945679 
1879	-5.19253622775372E-02 
1880	-1.50934810615793E-02 
1881	-0.15731913799867 
1882	-1.08204777572136 
1883	 0.638228102618118 
1884	 1.10415016326434 
1885	 2.14435989173008 
1886	 1.36552875706307 
1887	 6.71465696490435E-02 
1888	 7.45409996827722E-02 
1889	 1.73868237533158E-02 
1890	 1.4647465814625 
1891	 1.31318582222483 
1892	 1.19590806622291 
1893	 0.978421598191203 
1894	 1.80367450148912 
1895	-5.2521919540015 
1896	-3.15807540426955 
1897	-3.43508896734221 
1898	-4.4734781360559 
1899	 1.01359200845467 
1900	 0.534960654322564 
1901	 0.170646879281523 
1902	 0.126715989023817 
1903	 0.306158642765989 
1904	 3.22214297161446 
1905	-0.747686665856811 
1906	 0.320217452519923 
1907	 0.64044778667594 
1908	 0.852432726724092 
1909	 0.63467863789269 
1910	 0.940978954807935 
1911	 1.54914627866083 
1912	 2.98973780991101 
1913	 3.17173711769572 
1914	 91.809283124314 
1915	-10.7248349964413 
1916	-3.52513714037969 
1917	 4.30626064742034 
1918	 0.760569348950434 
1919	 0.769604566172292 
1920	 39.5690353995446 
1921	 1.86795164172485 
1922	 1.11235838546355 
1923	 1.00964490691427 
1924	 0.634187269367224 
1925	 0.664871673808978 
1926	 0.556356502874658 
1927	 0.430148434157339 
1928	 4.16717270417059E-02 
1929	-0.173251576333937 
1930	-0.129841149417313 
1931	-0.415447618167684 
1932	-0.926415678610632 
1933	-0.66877414376131 
1934	-0.615697626786793 
1935	-0.327027306193402 
1936	 1.58724382554967E-02 
1937	 0.109325668159235 
1938	 0.155001073257787 
1939	 0.183104189915221 
1940	 0.173416038879647 
1941	 8.73374918724176E-02 
1942	 8.92635740680726E-02 
1943	 8.73544664955732E-02 
1944	 3.97170545400025E-02 
1945	 1.81097068413075E-02 
1946	-0.001807424160696 
1947	-7.43555310700944E-02 
1948	-0.131229021595785 
1949	-0.13509029808795 
1950	-0.139772778616887 
1951	-0.110385367086812 
1952	-7.20758324740288E-02 
1953	-5.80611539780157E-03 
1954	 0.010897434644229 
1955	 8.18932342326814E-03 
1956	 2.31778160574028E-03 
1957	-8.26887416633779E-03 
1958	-5.36439585175433E-03 
1959	 2.42725438255226E-05 
1960	 1.02268120512117E-02 
1961	 1.94524948354041E-02 
1962	 1.17026026647064E-02 
1963	-1.11590710924871E-03 
1964	-6.88215919447595E-03 
1965	-8.11648427697524E-03 
1966	-7.08290301582198E-03 
1967	-3.55192941808619E-03 
1968	 3.20805422499117E-03 
1969	 4.51379122735319E-03 
1970	 1.52468121629287E-03 
1971	 3.97471259980957E-04 
1972	-3.12573757565214E-04 
1973	 1.7933046016416E-04 
1974	 2.55887980797609E-03 
1975	 3.22526727560668E-03 
1976	 0.001780273036317 
1977	 1.91909801135368E-04 
1978	-9.79291614077095E-04 
1979	-9.05790257518793E-04 
1980	-2.03700199255248E-04 
1981	 5.8776093048603E-04 
1982	 1.01026186688063E-03 
1983	 1.60688923807884E-03 
1984	 2.3369428638375E-04 
1985	-8.81374883807922E-04 
1986	-1.63924773391202E-04 
1987	-2.70582285598761E-04 
1988	 2.43078299866215E-04 
1989	 1.14092778482869E-03 
1990	 7.17403890710748E-05 
1991	-3.10936164392374E-04 
1992	 2.59172470275783E-04 
1993	-3.41256118953973E-05 
1994	-5.50643216576209E-05 
1995	 9.12468731116409E-04 
1996	 1.92122892618499E-03 
1997	 3.91359566502221E-04 
1998	-3.30012073617966E-04 
1999	 2.32483717287611E-03 
2000	 3.32156194705153E-03 
2001	 3.29803318893367E-03 
2002	 4.23036165116151E-03 
2003	 3.16022099968382E-03 
2004	-1.01447543753447E-03 
2005	-2.04430298546113E-03 
2006	 1.23376546033597E-03 
2007	-2.4510552113377E-04 
2008	 3.47798535332937E-04 
2009	 2.73169436829732E-04 
2010	-2.73000531425865E-03 
2011	-2.89954882666439E-03 
2012	-1.27569720006895E-03 
2013	 3.15321482322917E-04 
2014	 0.001963729658516 
2015	 3.71010106117749E-03 
2016	 2.94151992150624E-03 
2017	 2.21089563269527E-03 
2018	 1.22843101475496E-03 
2019	 6.2127937763783E-04 
2020	 4.39834000028883E-04 
2021	 3.35174245727638E-04 
2022	 1.62232472683709E-03 
2023	 2.51235743267701E-03 
2024	 2.48788469578839E-03 
2025	 2.25619326691753E-03 
2026	 1.98540385345354E-03 
2027	 7.37039034310347E-04 
2028	 5.72104005910923E-04 
2029	 1.66278852403072E-03 
2030	 2.18242977834818E-03 
2031	 1.91366564125892E-03 
2032	 1.09937845296857E-03 
2033	 7.68902557010508E-04 
2034	 1.40344630333281E-04 
2035	-5.60929218925532E-05 
2036	 9.12970261274718E-04 
2037	 1.48361956601028E-03 
2038	 1.7756959873129E-03 
2039	 2.06877516203994E-03 
2040	 3.1034998918738E-03 
2041	 2.83512445439364E-03 
2042	 1.05217320032853E-03 
2043	 5.77848839462005E-04 
2044	 2.51593372746013E-04 
2045	-1.56557388378249E-04 
2046	-9.07561917936048E-05 
2047	 3.02653526714327E-04 
2048	-5.2240577354851E-04 
2049	-1.54554250452453E-03 
2050	-9.74112028853451E-04 
2051	-3.63721639918874E-04 
2052	 5.18037276653136E-05 
2053	 4.00713529238773E-04 
2054	 8.43530117120754E-05 
2055	-2.72630904660415E-05 
2056	 2.8996584395444E-04 
2057	 1.48303513747519E-03 
2058	 2.09023748912215E-03 
2059	 3.07481528020974E-03 
2060	 3.13670073639245E-03 
2061	 2.28307840064351E-03 
2062	 2.01535928162237E-03 
2063	 2.25354052899958E-03 
2064	 1.62615961415287E-03 
2065	 1.36063564141579E-03 
2066	 1.82867633620402E-03 
2067	 1.2165642890897E-03 
2068	 1.37034139290643E-04 
2069	 1.12224010537708E-03 
2070	 1.41895932212003E-03 
2071	 5.98831237783385E-04 
2072	 1.76718707772089E-03 
2073	 2.06021675432444E-03 
2074	 9.94549200673092E-04 
2075	 1.08600166686298E-03 
2076	 2.3265870144764E-03 
2077	 2.49672641892565E-03 
2078	 2.56517732994176E-03 
2079	 2.68653513980013E-03 
2080	 2.6129552659817E-03 
2081	 2.16693498834653E-03 
2082	 1.9357328104213E-03 
2083	 1.82812038784588E-03 
2084	 2.2514907321532E-03 
2085	 1.99135547203709E-03 
2086	 1.4380565290621E-03 
2087	 1.53085722550244E-03 
2088	 1.55687082255254E-03 
2089	 1.4968170921063E-03 
2090	 1.91259132869504E-03 
2091	 2.16577563424009E-03 
2092	 2.33289166893984E-03 
2093	 2.45356742279423E-03 
2094	 2.28480298536778E-03 
2095	 1.74171279965396E-03 
2096	 1.68173715902921E-03 
2097	 1.5912499315401E-03 
2098	 1.54795477229176E-03 
2099	 1.80148493863201E-03 
2100	 2.26763049139936E-03 
2101	 1.87429664579736E-03 
2102	 1.59909836793941E-03 
2103	 1.9043134209656E-03 
2104	 1.04362952298164E-03 
2105	 8.52197444162929E-04 
2106	 1.68648547755759E-03 
2107	 1.48391617538764E-03 
2108	 1.24249825614165E-03 
2109	 1.28832041029484E-03 
2110	 8.9483729608266E-04 
2111	 7.22735424765065E-04 
2112	 1.47494295316024E-03 
2113	 1.66501473941865E-03 
2114	 1.34066252217708E-03 
2115	 1.49553225870155E-03 
2116	 1.97469146759616E-03 
2117	 1.95645353461051E-03 
2118	 1.92336100910421E-03 
2119	 2.25217769795637E-03 
2120	 2.27536456779286E-03 
2121	 2.67820234433578E-03 
2122	 3.66320378422598E-03 
2123	 3.37016472282802E-03 
2124	 2.46912034713051E-03 
2125	 1.37060685591216E-03 
2126	 8.17198642744217E-04 
2127	 1.2807892367631E-03 
2128	 1.65027396260574E-03 
2129	 2.64999502724133E-03 
2130	 3.46858801971203E-03 
2131	 3.18426290023277E-03 
2132	 3.07413944411477E-03 
2133	 3.16609090449518E-03 
2134	 3.01225405367531E-03 
2135	 2.45050517510944E-03 
2136	 2.25309664547056E-03 
2137	 2.23209580692506E-03 
2138	 2.15869852987719E-03 
2139	 2.14686304594447E-03 
2140	 1.98340503937897E-03 
2141	 1.68962118560678E-03 
2142	 1.25954200456657E-03 
2143	 3.26647865036622E-04 
2144	 4.43950155272918E-04 
2145	 1.41211677660941E-04 
2146	 7.60523012675017E-05 
2147	-3.99285295564059E-04 
2148	-4.05795849967767E-04 
2149	 4.56656490613557E-04 
2150	 1.03009538982364E-03 
2151	 2.1835285413317E-03 
2152	 2.15804142933196E-03 
2153	 1.41264710416041E-03 
2154	 1.15578907102274E-03 
2155	 1.04321181678169E-03 
2156	 1.75100161693982E-03 
2157	 2.06764039814118E-03 
2158	 2.60287907787651E-03 
2159	 2.70934670416888E-03 
2160	 2.3748488414898E-03 
2161	 2.31937327553539E-03 
2162	 2.21373438251927E-03 
2163	 2.04751572676943E-03 
2164	 1.93280100894644E-03 
2165	 1.85288417472213E-03 
2166	 1.98730494815333E-03 
2167	 1.79330911247298E-03 
2168	 1.25089171954396E-03 
2169	 1.16180835809024E-03 
2170	 1.10783193120448E-03 
2171	 6.11162852077408E-04 
2172	 1.36853178938757E-03 
2173	 2.02357307452463E-03 
2174	 2.32773101765796E-03 
2175	 2.02479684390316E-03 
2176	 8.81352328057266E-04 
2177	 1.21857347856645E-03 
2178	 2.04780597993177E-03 
2179	 2.49363208071395E-03 
2180	 2.28879637011629E-03 
2181	 1.06737566957778E-03 
2182	-3.90406700099182E-04 
2183	-1.55881591416548E-03 
2184	-1.97743887796711E-03 
2185	-1.72265010996373E-03 
2186	-1.46959497889652E-03 
2187	-1.36649289207159E-03 
2188	-1.19500833818759E-03 
2189	-4.56333341307223E-04 
2190	 3.55611986827618E-04 
2191	 1.60635490277872E-03 
2192	 2.09732739721965E-03 
2193	 2.08829096147116E-03 
2194	 2.31840958762729E-03 
2195	 1.90446930761926E-03 
2196	 1.91909949014748E-03 
2197	 3.3168228815437E-03 
2198	 3.06947736699234E-03 
2199	 1.17498650210534E-03 
2200	 7.5617153685986E-04 
2201	-4.24621013178717E-04 
2202	-1.04886797296259E-03 
2203	 4.92232686693955E-04 
2204	 1.03065909476596E-04 
2205	-1.12368331709884E-03 
2206	-3.57662640771137E-04 
2207	 1.01065146425166E-03 
2208	 1.24517328060057E-03 
2209	 1.68128748054441E-03 
2210	 1.51982132813589E-03 
2211	 6.95862387626602E-04 
2212	 5.20305547292387E-04 
2213	 7.14866780270685E-04 
2214	 1.06790953090813E-03 
2215	 1.72737133650107E-04 
2216	-3.20434931382059E-04 
2217	-2.46795029928233E-04 
2218	 3.99852674733079E-05 
2219	 2.77907517051609E-04 
2220	 1.75912984743688E-03 
2221	 1.37428914320674E-03 
2222	-7.25750458006143E-04 
2223	-8.42317368772877E-04 
2224	-1.17705176801246E-03 
2225	-8.72673640389325E-04 
2226	 2.17976545295707E-03 
2227	 2.38106285473519E-03 
2228	-4.17945301294991E-04 
2229	-1.12760512508715E-04 
2230	 1.66096615196311E-03 
2231	 1.63979505245863E-03 
2232	 2.58157357552182E-03 
2233	 3.18004520056441E-03 
2234	 2.08792468666287E-03 
2235	 8.56325643338758E-04 
2236	 8.90016509697678E-04 
2237	 1.3882377073565E-03 
2238	 1.6382512055548E-03 
2239	 1.15199401533191E-03 
2240	 1.85295017167245E-03 
2241	 2.01608294463683E-03 
2242	 8.85950826139699E-04 
2243	 1.3723184709784E-04 
2244	-9.60866479103447E-04 
2245	-1.06154837485784E-03 
2246	-2.27121295830497E-04 
2247	 3.23981266006666E-04 
2248	 5.01681770867988E-04 
2249	-3.46104896114467E-04 
2250	-2.06446510499359E-04 
2251	 1.51735234860426E-03 
2252	 2.2507303806131E-03 
2253	 2.7103537095082E-03 
2254	 2.12593455302921E-03 
2255	-7.20335145259721E-04 
2256	-1.38511404819006E-03 
2257	 6.52095376403254E-04 
2258	 1.63427864574694E-03 
2259	 1.70006638334856E-03 
2260	 2.48592029202058E-03 
2261	 2.59459638878186E-03 
2262	 2.42406667337197E-03 
2263	 3.35527232525449E-03 
2264	 3.51868727155015E-03 
2265	 9.69281647436266E-04 
2266	 1.22924389293186E-03 
2267	 4.0869706401055E-03 
2268	 4.72763130575322E-03 
2269	 6.03655691198566E-03 
2270	 5.65509174476491E-03 
2271	 1.82069061446262E-03 
2272	 1.69665825470815E-03 
2273	 3.92414021401764E-03 
2274	 3.85342819922544E-03 
2275	 4.16570674552626E-03 
2276	 4.4416851406978E-03 
2277	 2.61570142834426E-03 
2278	 1.88446861034695E-03 
2279	 3.27803235839794E-03 
2280	 2.90125687828869E-03 
2281	 1.3381229613357E-03 
2282	-1.98360738342682E-04 
2283	-3.2776479353753E-03 
2284	-4.01235222746826E-03 
2285	-2.07363880440952E-03 
2286	-1.35447094717409E-03 
2287	 4.91401597874793E-04 
2288	 2.26605325506614E-03 
2289	 7.92603220495298E-04 
2290	 1.04293500833221E-04 
2291	 1.1293198763056E-03 
2292	-3.70317206470978E-05 
2293	-2.81499906792104E-03 
2294	-3.42925019095926E-03 
2295	-4.10854586150347E-03 
2296	-5.09802158011559E-03 
2297	-3.67906845692086E-03 
2298	-4.2883165977283E-03 
2299	-2.93916495944026E-03 
2300	-7.1164050533632E-04 
2301	-4.98295663232317E-04 
2302	 1.54132939377787E-03 
2303	 2.76001381913246E-03 
2304	 2.29692616494046E-03 
2305	 6.06498119146497E-04 
2306	 1.09894822655254E-03 
2307	 5.19018993589531E-04 
2308	-7.23813285686436E-04 
2309	 1.49565117961224E-03 
2310	 1.04391243045725E-03 
2311	-2.08031005690526E-03 
2312	-1.26165720993972E-03 
2313	 5.21749632422874E-04 
2314	-8.39070261830438E-04 
2315	 1.11217689885045E-03 
2316	 2.75667540821806E-03 
2317	 3.16484264964075E-04 
2318	-3.56545429834984E-04 
2319	-6.52391050147458E-04 
2320	-3.25122258000393E-03 
2321	-3.91316831837786E-03 
2322	 1.0986208568915E-03 
2323	 3.7859168964775E-03 
2324	 1.90412522629747E-04 
2325	-1.39044874326223E-03 
2326	-4.71129456326856E-03 
2327	-9.61748280763436E-03 
2328	-7.67028065232562E-03 
2329	-5.78853603951293E-03 
2330	-4.73627810592726E-03 
2331	-2.19775756390419E-03 
2332	-1.38098089681735E-03 
2333	 1.99721423847329E-04 
2334	 2.25336816247025E-03 
2335	 2.61066222130099E-03 
2336	 1.37578501758819E-04 
2337	-6.59145978510153E-04 
2338	 6.43891828889557E-04 
2339	-2.00730009230609E-03 
2340	 1.84344268958478E-03 
2341	 4.77137658384743E-03 
2342	-2.41773174991971E-03 
2343	-7.06149938796785E-03 
2344	-1.09575395901859E-02 
2345	-1.38107450196028E-02 
2346	-1.87593690420157E-02 
2347	-2.05692599172353E-02 
2348	-1.48076606304844E-02 
2349	-8.96359111437689E-03 
2350	-4.45321232790734E-03 
2351	 8.50651939208778E-04 
2352	 5.78106046874974E-03 
2353	 8.04950397552107E-04 
2354	-3.45146563894674E-03 
2355	 9.7625960768537E-04 
2356	 1.02821411361417E-02 
2357	 1.24058103033019E-02 
2358	 4.64948095524242E-04 
2359	-9.13094353779357E-03 
2360	-1.19893617643456E-02 
2361	-1.11305975002363E-02 
2362	-3.48751132204196E-03 
2363	 4.05824754113704E-03 
2364	 3.58342114066612E-03 
2365	-3.35584393933669E-05 
2366	-1.09828393147904E-03 
2367	-1.74256837065609E-03 
2368	-1.10987255610613E-02 
2369	-0.017746973716474 
2370	-2.86417344148612E-03 
2371	 9.8783797271969E-03 
2372	 6.42275452418732E-03 
2373	-5.71604664236103E-03 
2374	-2.30237504664773E-02 
2375	-1.40305366986729E-02 
2376	 8.66972918381704E-03 
2377	 1.59005931217179E-02 
2378	 1.58617080565373E-02 
2379	-6.25590597937472E-03 
2380	-1.35044347893738E-02 
2381	 2.56932301556518E-03 
2382	-7.40651415535593E-03 
2383	-8.74768826499195E-03 
2384	-2.82265292718901E-03 
2385	-2.71616596196237E-02 
2386	-2.39060685017469E-02 
2387	-5.0726286368529E-03 
2388	-2.18539257608154E-02 
2389	-3.04684390277648E-02 
2390	-2.30430840574419E-02 
2391	-0.028290256866381 
2392	-0.030261427847372 
2393	-1.04528775585987E-02 
2394	 1.24903172201271E-02 
2395	 3.56741781050974E-02 
2396	 3.77780328399414E-02 
2397	 7.55814729359443E-03 
2398	-1.38981135871288E-02 
2399	-2.43789615731342E-02 
2400	-0.023698486715719 
2401	 1.76095060990032E-03 
2402	 1.34559265676641E-02 
2403	 1.08253626446466E-02 
2404	 1.09408935058107E-02 
2405	 1.11308498623625E-02 
2406	 2.08276962834132E-02 
2407	 1.01968656862282E-02 
2408	-1.18606909706514E-02 
2409	-3.33566167629603E-02 
2410	-0.04886671752702 
2411	-9.97464574402505E-02 
2412	-0.160118846397543 
2413	-0.161734147490153 
2414	-0.240650215177598 
2415	-0.260955273421297 
2416	-0.142373793216312 
2417	-0.14873233108053 
2418	-0.131511322134555 
2419	-4.59464735109468E-02 
2420	-9.18353619306661E-02 
2421	-9.75157962933164E-02 
2422	-1.7952617505826E-03 
2423	 2.06019449127009E-02 
2424	 2.18314828480439E-02 
2425	 1.56298076802592E-02 
2426	-5.29049005557587E-02 
2427	-0.104366522318598 
2428	-0.115669676908647 
2429	-0.142082924135038 
2430	-0.11174274791948 
2431	-3.47942130747242E-02 
2432	-4.13530716365207E-02 
2433	-0.020008212061127 
2434	-6.80600388854948E-02 
2435	-0.231499716319063 
2436	-0.197456544614983 
2437	-0.155312290901477 
2438	-0.126141462189057 
2439	 4.54981707585222E-02 
2440	 7.44144653190651E-02 
2441	 2.02477449239318E-02 
2442	 5.53822115604385E-02 
2443	-1.00546770614572E-02 
2444	-0.120040533284723 
2445	-8.78015797414387E-02 
2446	-0.116338169236636 
2447	 5.36088732979074E-02 
2448	 0.11936597540314 
2449	 0.183514336783192 
2450	 0.182286399676215 
2451	 3.70413509098393E-02 
2452	-0.172396540699324 
2453	-0.512649417980882 
2454	-0.131587480463607 
2455	-8.11184325053858E-02 
2456	 5.62716437793571E-02 
2457	 0.320064334794689 
2458	 0.137262491581536 
2459	 2.27157723106548E-02 
2460	-0.190528028708787 
2461	-0.486381052756074 
2462	-0.2014633093972 
2463	-0.37383255813659 
2464	-0.645050861148752 
2465	-0.610583847976652 
2466	-0.568579312606216 
2467	-0.165145099285334 
2468	 3.47312348656385E-02 
2469	 0.117528606075741 
2470	-0.53577733337009 
2471	 7.4457809678705 
2472	-0.385483537406236 
2473	 1.91532173034787 
2474	 0.712271489454588 
2475	 0.18919156454773 
2476	 0.217425288891043 
2477	-1.04509723723086 
2478	-0.755273004200442 
2479	 8.77351602213112E-02 
2480	-0.530142231301741 
2481	-11.5552314838519 
2482	 1.83295328012942 
2483	 5.99858994608586 
2484	-2.85773645212448 
2485	-0.304490788154601 
2486	-0.893044568464857 
2487	-3.34625166232938 
2488	 0.339322030704877 
2489	 4.78579794183977E-02 
2490	-0.620349775740025 
2491	-2.26435717076304 
2492	-1.41397882656264 
2493	-4.20721929695066E-02 
2494	 0.388417742885731 
2495	 0.673818315929607 
2496	 1.86647205790598 
2497	 6.97313433400968 
2498	 0.436896744432579 
2499	 2.15007547496248 
2500	 5.50028069692322 
