Wavelength	rt0629dirt00006.asd
350	 8.33723228953261E-02 
351	 8.55821745617924E-02 
352	 8.51564105648491E-02 
353	 0.084694056828194 
354	 8.55682300875274E-02 
355	 8.39704491980355E-02 
356	 8.36727421426507E-02 
357	 8.44920597699528E-02 
358	 8.52355685773999E-02 
359	 8.64008870352074E-02 
360	 8.65019830276383E-02 
361	 8.57834052517541E-02 
362	 8.56921060997471E-02 
363	 8.68048131161788E-02 
364	 0.087206283758843 
365	 8.65508990135416E-02 
366	 8.72923365996324E-02 
367	 8.79642680748615E-02 
368	 8.82298001176429E-02 
369	 8.80897328930291E-02 
370	 8.75225948383555E-02 
371	 8.80668141411593E-02 
372	 8.90835938730909E-02 
373	 8.88539366141911E-02 
374	 8.85862378487627E-02 
375	 8.94444168753042E-02 
376	 9.09734556167558E-02 
377	 9.06426977611812E-02 
378	 9.04558147129206E-02 
379	 9.09993149687915E-02 
380	 9.21140098512412E-02 
381	 0.092570540838589 
382	 9.25071087436347E-02 
383	 9.23371620316792E-02 
384	 9.26457924708734E-02 
385	 9.40760191742146E-02 
386	 9.46425416509304E-02 
387	 9.41332306810834E-02 
388	 9.44972386512353E-02 
389	 9.60451397332547E-02 
390	 9.71260114178032E-02 
391	 9.68746484843723E-02 
392	 9.72011595493014E-02 
393	 9.72306121460576E-02 
394	 0.097482435574889 
395	 9.85323088066472E-02 
396	 9.86593236417896E-02 
397	 9.86271585890789E-02 
398	 9.89628613878724E-02 
399	 9.97805777533424E-02 
400	 9.98515718195215E-02 
401	 0.099874417204796 
402	 0.100408711172877 
403	 0.101108848916974 
404	 0.101240328645534 
405	 0.101357754700124 
406	 0.102190653027922 
407	 0.10239365277405 
408	 0.102546299977669 
409	 0.102982274505598 
410	 0.103648898094074 
411	 0.104125321466776 
412	 0.104515895910738 
413	 0.105001333045154 
414	 0.105715493552679 
415	 0.106308417909455 
416	 0.106675206120088 
417	 0.106888267005725 
418	 0.10732583250727 
419	 0.107895995370971 
420	 0.108461912411978 
421	 0.108899549353941 
422	 0.109848630063341 
423	 0.11071787140369 
424	 0.11107225581238 
425	 0.111609420478594 
426	 0.112278760341525 
427	 0.113048845853642 
428	 0.113890785704056 
429	 0.114913603612858 
430	 0.115707225399 
431	 0.116307208309718 
432	 0.117306985680322 
433	 0.118252225587433 
434	 0.119059267062157 
435	 0.119785339499497 
436	 0.120637463909223 
437	 0.121490991875291 
438	 0.122257887700509 
439	 0.122917299899876 
440	 0.123838110772139 
441	 0.124755185820903 
442	 0.125528075263458 
443	 0.126306204365981 
444	 0.126862401137455 
445	 0.127502604588399 
446	 0.128455706265082 
447	 0.129086561607052 
448	 0.129757041489429 
449	 0.130414904327518 
450	 0.130752975465268 
451	 0.131418698920866 
452	 0.131968624080609 
453	 0.132255260423807 
454	 0.133082749347069 
455	 0.13371677250114 
456	 0.134043994960544 
457	 0.13426454437992 
458	 0.134933533629406 
459	 0.13544692548767 
460	 0.135687526683779 
461	 0.136079793152595 
462	 0.136612687881698 
463	 0.137101020566626 
464	 0.137466972693515 
465	 0.138061001942069 
466	 0.138503820718003 
467	 0.138757795013764 
468	 0.139014657740156 
469	 0.139747293401134 
470	 0.140355699065343 
471	 0.14064442901659 
472	 0.141087873462475 
473	 0.141514535560179 
474	 0.141891540346042 
475	 0.142302897238995 
476	 0.143199169420132 
477	 0.143648772730767 
478	 0.143805906736359 
479	 0.144511180313993 
480	 0.14514555394639 
481	 0.145763409112794 
482	 0.146418311353443 
483	 0.14696934060323 
484	 0.147636859819612 
485	 0.148313159460977 
486	 0.148847297847684 
487	 0.149524970745003 
488	 0.150401238289168 
489	 0.151316344952151 
490	 0.151947650051973 
491	 0.152538835474935 
492	 0.153199994490052 
493	 0.153984810214344 
494	 0.154904339314132 
495	 0.155740743787338 
496	 0.156512395105441 
497	 0.157363673391701 
498	 0.158379856352656 
499	 0.159189774560961 
500	 0.159835801139644 
501	 0.161066899014074 
502	 0.161986326458908 
503	 0.162770345066185 
504	 0.16373288832016 
505	 0.164340169054081 
506	 0.165282971935425 
507	 0.166539117177725 
508	 0.167526248388476 
509	 0.168508191226396 
510	 0.169528668829052 
511	 0.170569973434895 
512	 0.171553643335856 
513	 0.172554609366763 
514	 0.173627648148975 
515	 0.17479392169398 
516	 0.175969362427911 
517	 0.177057935175032 
518	 0.178104169385443 
519	 0.179320575115416 
520	 0.180577403427182 
521	 0.181782223709012 
522	 0.18289180059478 
523	 0.183927070379958 
524	 0.185119567832063 
525	 0.186388849557021 
526	 0.187481308670211 
527	 0.18885586808335 
528	 0.190248738918303 
529	 0.191458209191453 
530	 0.192603144881018 
531	 0.193734183173916 
532	 0.194922233412804 
533	 0.196203236010319 
534	 0.197437033199249 
535	 0.198665350418176 
536	 0.199921333060446 
537	 0.20120634129032 
538	 0.202456338729445 
539	 0.203740108704423 
540	 0.205103597631403 
541	 0.206420159339541 
542	 0.207739256384438 
543	 0.209030708822193 
544	 0.210240180803734 
545	 0.211536438615778 
546	 0.212807137580955 
547	 0.214019679967562 
548	 0.215382582707947 
549	 0.216644512013073 
550	 0.217827410556548 
551	 0.21905531775164 
552	 0.220423918024015 
553	 0.221591291519809 
554	 0.222574523606153 
555	 0.22380443154816 
556	 0.225040527075064 
557	 0.226199167906054 
558	 0.227265961013642 
559	 0.228388570985771 
560	 0.229434483337762 
561	 0.230419987628016 
562	 0.231450706922557 
563	 0.232436851881051 
564	 0.233385616780803 
565	 0.234279786314972 
566	 0.235023724259306 
567	 0.235755958261665 
568	 0.236558217928594 
569	 0.237435289306463 
570	 0.23812641808317 
571	 0.238798721164197 
572	 0.239497453345868 
573	 0.240108616412969 
574	 0.240740602924797 
575	 0.241354282660115 
576	 0.241886783287178 
577	 0.2423143203555 
578	 0.242801375784547 
579	 0.243244810618332 
580	 0.243428823210239 
581	 0.243796556522493 
582	 0.244015142776147 
583	 0.244002145134813 
584	 0.2443288600564 
585	 0.244361882801708 
586	 0.244179431297101 
587	 0.244063781183595 
588	 0.243850009878896 
589	 0.243673262869383 
590	 0.243516888283227 
591	 0.24318539234285 
592	 0.243021324329451 
593	 0.24285532622055 
594	 0.242528277276502 
595	 0.242246409552381 
596	 0.241742470660024 
597	 0.241090571624563 
598	 0.240545644215814 
599	 0.240034749983624 
600	 0.239583461019048 
601	 0.23917252513405 
602	 0.238673733121852 
603	 0.238430573471446 
604	 0.238445695380512 
605	 0.238560003243219 
606	 0.238456790236688 
607	 0.238308513097773 
608	 0.238268174300634 
609	 0.238428071451974 
610	 0.238530520595973 
611	 0.238582604662662 
612	 0.238636283951398 
613	 0.238691594329926 
614	 0.238717883375957 
615	 0.23867559903447 
616	 0.238556113461215 
617	 0.238628763542361 
618	 0.238729142195484 
619	 0.2387724097669 
620	 0.238885711560772 
621	 0.238881416420778 
622	 0.238879255556637 
623	 0.238992271374898 
624	 0.238775815572888 
625	 0.238641067284626 
626	 0.238715681972839 
627	 0.238823959143341 
628	 0.238999625848317 
629	 0.239030998969396 
630	 0.238854524204163 
631	 0.238895081283013 
632	 0.238778822669113 
633	 0.238615045783523 
634	 0.238693046978647 
635	 0.238801914917327 
636	 0.238795980931007 
637	 0.238660463060442 
638	 0.238544917859572 
639	 0.238657785396157 
640	 0.238712095619736 
641	 0.238455319336414 
642	 0.238457643205685 
643	 0.238155133899162 
644	 0.237617928897077 
645	 0.237410047464647 
646	 0.236805268627597 
647	 0.23634194243471 
648	 0.236372395190086 
649	 0.236259515043589 
650	 0.236065867586424 
651	 0.235775337900069 
652	 0.235369687124522 
653	 0.234803725594214 
654	 0.233982059015333 
655	 0.23298455820309 
656	 0.232263118701355 
657	 0.231714142340132 
658	 0.231158869822039 
659	 0.230517368968558 
660	 0.230101110794773 
661	 0.229577651916427 
662	 0.2290197517404 
663	 0.228694365048108 
664	 0.227925477368156 
665	 0.227435636860268 
666	 0.227460149325589 
667	 0.227083193333937 
668	 0.226671871221311 
669	 0.226292287745541 
670	 0.225942335182521 
671	 0.225658096452098 
672	 0.22564448548002 
673	 0.225700224762389 
674	 0.225289260041499 
675	 0.22491910197622 
676	 0.224890681777812 
677	 0.225137989314615 
678	 0.224786757663383 
679	 0.224510246862907 
680	 0.22435248244661 
681	 0.22411401531001 
682	 0.223961068635567 
683	 0.224110350822497 
684	 0.22427408051816 
685	 0.223446979347024 
686	 0.222796588378058 
687	 0.222496231062789 
688	 0.222289993311912 
689	 0.221818463037531 
690	 0.221352512208471 
691	 0.220799595151642 
692	 0.219877671539698 
693	 0.218960943758046 
694	 0.218333369038836 
695	 0.21791646509431 
696	 0.217106322621098 
697	 0.216018010129717 
698	 0.214841608967988 
699	 0.21381093146642 
700	 0.212532674252107 
701	 0.211329435362992 
702	 0.210241114354937 
703	 0.209019820634404 
704	 0.207703004174836 
705	 0.206203094314652 
706	 0.204593183523187 
707	 0.203216620850986 
708	 0.201597116601911 
709	 0.199671412259863 
710	 0.197568301338235 
711	 0.195504416520035 
712	 0.193254563878994 
713	 0.190820505192401 
714	 0.188398889499539 
715	 0.185718781548115 
716	 0.182558802329675 
717	 0.179153634962272 
718	 0.176073050691917 
719	 0.173150953431891 
720	 0.170937371593126 
721	 0.169203100546475 
722	 0.166481229563938 
723	 0.163256234936895 
724	 0.160296380853655 
725	 0.15734682411408 
726	 0.154174878979325 
727	 0.150774751183521 
728	 0.147261830466818 
729	 0.1438217089311 
730	 0.139921895736457 
731	 0.136188733182326 
732	 0.133207891097557 
733	 0.130341659076513 
734	 0.127802480346939 
735	 0.125738595388283 
736	 0.12410113929611 
737	 0.122863430306098 
738	 0.121727897762474 
739	 0.120630045128585 
740	 0.120336984031512 
741	 0.119680985197229 
742	 0.118884552594595 
743	 0.118735485310355 
744	 0.118358430815627 
745	 0.117887365293887 
746	 0.117522223563894 
747	 0.117408027253892 
748	 0.11729566198063 
749	 0.117137222540882 
750	 0.11692323316694 
751	 0.11655339730184 
752	 0.116361799983435 
753	 0.116260961344039 
754	 0.115963113052816 
755	 0.115648592203159 
756	 0.11536819851173 
757	 0.115174741805091 
758	 0.115174022918109 
759	 0.114545328715309 
760	 0.113955562809976 
761	 0.114706059622764 
762	 0.114326408007872 
763	 0.114110157683009 
764	 0.11420356813795 
765	 0.114358429676155 
766	 0.114681770922926 
767	 0.114970636778039 
768	 0.115141556108749 
769	 0.115191595484259 
770	 0.115215090032398 
771	 0.115301562652255 
772	 0.115471964212376 
773	 0.115548842030513 
774	 0.115935918324493 
775	 0.116347842384675 
776	 0.11636235197467 
777	 0.116680201867547 
778	 0.117071918126688 
779	 0.117426840235628 
780	 0.117813225820383 
781	 0.118025048253276 
782	 0.118457050781468 
783	 0.119204388493762 
784	 0.119432771847914 
785	 0.119801594555411 
786	 0.120355636138543 
787	 0.120894561776973 
788	 0.121180604138425 
789	 0.121636663933982 
790	 0.122358855866847 
791	 0.123122080680991 
792	 0.123622361353657 
793	 0.124110458748514 
794	 0.124716448766941 
795	 0.125213131970085 
796	 0.125756271024686 
797	 0.126145189107419 
798	 0.126335446358641 
799	 0.12706515632285 
800	 0.127661193532295 
801	 0.128031387774434 
802	 0.128411357762324 
803	 0.128539225161027 
804	 0.129063550328793 
805	 0.129728604741597 
806	 0.129332253813356 
807	 0.129079067344182 
808	 0.129218000994607 
809	 0.129471305016342 
810	 0.128614695677424 
811	 0.128333625858188 
812	 0.128275109714703 
813	 0.127348539822501 
814	 0.12624590101125 
815	 0.125767672526446 
816	 0.125645650589288 
817	 0.124853287789269 
818	 0.124490805278923 
819	 0.123726734698477 
820	 0.122250695541988 
821	 0.120555108538718 
822	 0.119133898010657 
823	 0.117307733253492 
824	 0.114873724904847 
825	 0.113128950617452 
826	 0.110904632030874 
827	 0.108058134874089 
828	 0.105155173795908 
829	 0.1028613552152 
830	 0.101045625930918 
831	 9.93659477452815E-02 
832	 9.75388387694678E-02 
833	 9.60999614984256E-02 
834	 9.48792191191716E-02 
835	 9.38987567272653E-02 
836	 9.35220238946878E-02 
837	 9.24494006169051E-02 
838	 9.17852100892255E-02 
839	 9.19879062860623E-02 
840	 0.090437781660209 
841	 8.99533102279608E-02 
842	 8.99630583467412E-02 
843	 8.91166815624177E-02 
844	 8.86791344446102E-02 
845	 8.81826419114829E-02 
846	 8.76131296104536E-02 
847	 8.72592490950148E-02 
848	 8.68771712713557E-02 
849	 8.63679430282155E-02 
850	 8.56710553577157E-02 
851	 8.47963787272044E-02 
852	 8.51495100080615E-02 
853	 8.52719993789777E-02 
854	 8.42541727203301E-02 
855	 8.36423665099667E-02 
856	 0.08330274993172 
857	 0.083054324196346 
858	 0.082720711155244 
859	 8.23114294451171E-02 
860	 8.19185318193174E-02 
861	 8.17169898400696E-02 
862	 8.17762081585681E-02 
863	 0.081422577315836 
864	 8.07721695033981E-02 
865	 8.00244223352964E-02 
866	 7.94135366402055E-02 
867	 7.92017598737065E-02 
868	 7.89413985005649E-02 
869	 7.85467097033028E-02 
870	 7.85056169500985E-02 
871	 7.79595264152075E-02 
872	 7.72071160379718E-02 
873	 7.66786268940022E-02 
874	 7.65118031056288E-02 
875	 7.60378198471187E-02 
876	 7.55611977314673E-02 
877	 7.53248085899292E-02 
878	 7.41252661368994E-02 
879	 7.32460430996783E-02 
880	 7.30297350079325E-02 
881	 7.31343650366803E-02 
882	 7.25499479673051E-02 
883	 7.22274407228195E-02 
884	 7.19572730304711E-02 
885	 7.08086694870298E-02 
886	 7.02139526064723E-02 
887	 6.98906535977314E-02 
888	 6.96756221974486E-02 
889	 6.97176377975291E-02 
890	 6.92445268194915E-02 
891	 0.068468689997657 
892	 6.78616518675162E-02 
893	 6.80074646596715E-02 
894	 6.69347875207381E-02 
895	 6.63985633983556E-02 
896	 6.74246152552762E-02 
897	 6.44875660446828E-02 
898	 6.40474060631661E-02 
899	 6.44126923711667E-02 
900	 6.29491544128195E-02 
901	 6.51235765555864E-02 
902	 6.56793352748936E-02 
903	 6.41753955443118E-02 
904	 6.24002919328079E-02 
905	 6.30365876310084E-02 
906	 6.39597486028299E-02 
907	 6.36840228296536E-02 
908	 6.17976720738266E-02 
909	 6.10351943558173E-02 
910	 6.09172980437787E-02 
911	 6.03027247869516E-02 
912	 5.81861172889178E-02 
913	 5.67917766275009E-02 
914	 5.74675748164066E-02 
915	 0.058729270237534 
916	 0.056849928489227 
917	 5.59456423186388E-02 
918	 5.61430138576809E-02 
919	 5.63143279104747E-02 
920	 0.05471063395753 
921	 5.28692096028558E-02 
922	 5.19231323603158E-02 
923	 5.20130411613728E-02 
924	 5.13973658767512E-02 
925	 4.94410952145593E-02 
926	 4.89551334796625E-02 
927	 0.051360320991338 
928	 4.70840339028424E-02 
929	 4.65178957346868E-02 
930	 4.59947956834159E-02 
931	 3.66515476447603E-02 
932	 4.72710310722055E-02 
933	 4.91172422814767E-02 
934	 4.84674134613749E-02 
935	 6.02397499577016E-02 
936	 3.52997106808641E-02 
937	 4.10287012082126E-02 
938	 5.19438760721829E-02 
939	 3.52303854753121E-02 
940	 4.31672397063565E-02 
941	 4.67516115089457E-02 
942	 4.01711558501007E-02 
943	 3.29187406727992E-02 
944	 4.85836122443516E-02 
945	 4.61968111434734E-02 
946	 3.16751851196583E-02 
947	 3.56188578013891E-02 
948	 3.78508528159479E-02 
949	 4.49811795643079E-02 
950	 4.91973290991098E-02 
951	 3.97861700614871E-02 
952	 4.40732998779104E-02 
953	 4.66389068254232E-02 
954	 4.29011631017661E-02 
955	 3.85157807984203E-02 
956	 3.79750774739341E-02 
957	 3.49156108954619E-02 
958	 3.29954350494056E-02 
959	 3.97916859741855E-02 
960	 0.040180766574441 
961	 4.29684482383709E-02 
962	 4.40506179075973E-02 
963	 3.41239131945214E-02 
964	 3.40758306973535E-02 
965	 3.76003929490655E-02 
966	 3.90011073876017E-02 
967	 3.62009663555729E-02 
968	 3.59929124837936E-02 
969	 3.61843424422826E-02 
970	 3.69101649093384E-02 
971	 3.99686089224368E-02 
972	 3.79396384328854E-02 
973	 3.66409539360957E-02 
974	 3.74493675582214E-02 
975	 3.64512847268082E-02 
976	 3.73667276946598E-02 
977	 3.55111543681219E-02 
978	 0.033703940585698 
979	 0.038977830952565 
980	 3.71916127816378E-02 
981	 3.37715717722818E-02 
982	 3.34158784679842E-02 
983	 3.70085790957779E-02 
984	 3.57676462109744E-02 
985	 3.48421308311141E-02 
986	 3.45639133015847E-02 
987	 3.17701269689048E-02 
988	 3.37049097136871E-02 
989	 3.58857737365885E-02 
990	 0.035980549739728 
991	 3.48953986214066E-02 
992	 3.65524209784366E-02 
993	 3.89490192875135E-02 
994	 0.038420959139467 
995	 3.30352557327231E-02 
996	 3.42479541564908E-02 
997	 3.46016108567244E-02 
998	 3.33713894571553E-02 
999	 3.41425294146397E-02 
1000	 3.40189586837034E-02 
1001	 3.64096367783588E-02 
1002	 3.90929249527154E-02 
1003	 3.91694480056985E-02 
1004	 3.72342413399835E-02 
1005	 0.036830089477988 
1006	 3.64257962957685E-02 
1007	 3.59729257744422E-02 
1008	 3.61192475191738E-02 
1009	 3.64218885856993E-02 
1010	 3.42748935129411E-02 
1011	 3.23878844184666E-02 
1012	 3.24816380510134E-02 
1013	 3.33571565423606E-02 
1014	 0.034515869300842 
1015	 3.79226105856521E-02 
1016	 3.92515367760168E-02 
1017	 3.96465790214448E-02 
1018	 4.02177532360295E-02 
1019	 0.040661779201808 
1020	 4.05133112012622E-02 
1021	 4.00692880876536E-02 
1022	 3.92262703543814E-02 
1023	 0.038100120015905 
1024	 3.68049699868531E-02 
1025	 3.70537243141477E-02 
1026	 3.76980126944203E-02 
1027	 3.78735575149332E-02 
1028	 3.84158441925592E-02 
1029	 3.88997833575623E-02 
1030	 3.90768988879751E-02 
1031	 3.92385494779398E-02 
1032	 3.93587669232793E-02 
1033	 3.99678712886261E-02 
1034	 4.11690998592074E-02 
1035	 4.13388647105878E-02 
1036	 4.15426497207045E-02 
1037	 0.041557203767595 
1038	 0.040169685006391 
1039	 3.93944779640701E-02 
1040	 4.03322915696923E-02 
1041	 4.09890421793365E-02 
1042	 4.17156291493577E-02 
1043	 4.33461272106962E-02 
1044	 4.34889562511298E-02 
1045	 4.29444312364896E-02 
1046	 4.24315619795332E-02 
1047	 4.07484122802079E-02 
1048	 4.03763243591032E-02 
1049	 0.040590538770754 
1050	 4.06083673611005E-02 
1051	 4.08106902059046E-02 
1052	 4.14628542630358E-02 
1053	 4.28639574363409E-02 
1054	 4.33394658927381E-02 
1055	 4.43695353907661E-02 
1056	 4.44646660525498E-02 
1057	 4.38134817812899E-02 
1058	 4.13536163638303E-02 
1059	 4.08911394249155E-02 
1060	 4.05472942889809E-02 
1061	 0.040753095718023 
1062	 4.20863713472842E-02 
1063	 4.29052847918425E-02 
1064	 4.39586857200275E-02 
1065	 4.45471107993733E-02 
1066	 4.50659680667245E-02 
1067	 4.54147704864529E-02 
1068	 4.55276469802374E-02 
1069	 4.53137410163915E-02 
1070	 0.044813208266794 
1071	 4.44224577632213E-02 
1072	 4.42645187802451E-02 
1073	 4.28610363204128E-02 
1074	 4.23852969498607E-02 
1075	 4.19325427719655E-02 
1076	 4.20636042401114E-02 
1077	 4.29268006832628E-02 
1078	 4.30992586980915E-02 
1079	 4.34403617516371E-02 
1080	 4.34801986438772E-02 
1081	 4.27602129846524E-02 
1082	 4.25804042655575E-02 
1083	 0.042896976926141 
1084	 4.29408316933483E-02 
1085	 4.32058574562218E-02 
1086	 4.28636453645858E-02 
1087	 0.041782908336561 
1088	 4.11919324928575E-02 
1089	 4.05786525966615E-02 
1090	 3.91729834660463E-02 
1091	 3.97328429492399E-02 
1092	 4.24867002258321E-02 
1093	 4.21062942352424E-02 
1094	 4.14003014486939E-02 
1095	 4.05719141913141E-02 
1096	 3.59319828272941E-02 
1097	 3.54224015320695E-02 
1098	 3.94482768123944E-02 
1099	 0.039723299827847 
1100	 3.94030300710833E-02 
1101	 3.93771526906744E-02 
1102	 3.62578091355072E-02 
1103	 3.51149716451485E-02 
1104	 3.61825745216497E-02 
1105	 0.03746074046708 
1106	 3.68185428800005E-02 
1107	 3.53280204450107E-02 
1108	 3.35832883167977E-02 
1109	 3.62811959070175E-02 
1110	 3.63475618582771E-02 
1111	 3.64969161081453E-02 
1112	 3.70256259151639E-02 
1113	 0.036701516019434 
1114	 3.45859665729389E-02 
1115	 0.033107030117103 
1116	 3.38560532466409E-02 
1117	 3.10561235411087E-02 
1118	 2.85217337962602E-02 
1119	 0.03532229337422 
1120	 3.48819218580066E-02 
1121	 0.022887963157046 
1122	 1.16780442580606E-02 
1123	 1.00470468234012E-02 
1124	 1.24225798021478E-02 
1125	 1.04541588594028E-02 
1126	 1.80675437020868E-02 
1127	 2.22649235860097E-02 
1128	-9.21266348850914E-03 
1129	-1.62112104974066E-02 
1130	-1.20094902744317E-02 
1131	-1.42474046198667E-02 
1132	-2.09742723463572E-02 
1133	-1.38968296802245E-02 
1134	-7.67844732319672E-04 
1135	 2.86184864064521E-03 
1136	 1.40423443918682E-02 
1137	 0.017631989879636 
1138	 1.38779376115113E-02 
1139	 2.76117930432819E-03 
1140	 1.01513371025534E-02 
1141	 1.70208756195644E-02 
1142	 1.63121819513235E-02 
1143	 1.95544698678087E-02 
1144	 1.77265117955939E-02 
1145	 0.01615523941737 
1146	 2.49396959091454E-02 
1147	 3.23955119888842E-02 
1148	 3.73045014009971E-02 
1149	 3.69536795241607E-02 
1150	 3.36998055110085E-02 
1151	 2.51575264635099E-02 
1152	 2.50236577486992E-02 
1153	 2.45229808112372E-02 
1154	 2.39648874507372E-02 
1155	 2.65742807123067E-02 
1156	 2.74933909403964E-02 
1157	 0.023162428233301 
1158	 2.45877767995815E-02 
1159	 2.72046360751699E-02 
1160	 2.61674207556451E-02 
1161	 2.75312421234982E-02 
1162	 3.08183074376239E-02 
1163	 3.13772270482736E-02 
1164	 3.11647133786919E-02 
1165	 0.031367834319634 
1166	 3.00872602819924E-02 
1167	 3.06736619050421E-02 
1168	 3.25894656154043E-02 
1169	 3.28870999630444E-02 
1170	 3.26907480227223E-02 
1171	 3.26261597078623E-02 
1172	 3.07403202776685E-02 
1173	 3.08383681016855E-02 
1174	 3.20307223884445E-02 
1175	 3.43637313979078E-02 
1176	 3.43349344079495E-02 
1177	 3.25024238529678E-02 
1178	 3.20074458492981E-02 
1179	 3.18101491726382E-02 
1180	 0.031893278083594 
1181	 3.25108928395187E-02 
1182	 3.22574695265974E-02 
1183	 3.10201524600944E-02 
1184	 3.03138448734279E-02 
1185	 3.20448055050175E-02 
1186	 3.33168333884263E-02 
1187	 3.26299922836792E-02 
1188	 3.30023409312627E-02 
1189	 3.36784374057372E-02 
1190	 3.28050164969994E-02 
1191	 3.28624767496464E-02 
1192	 3.35903244607665E-02 
1193	 3.48719421492689E-02 
1194	 0.033922584412086 
1195	 3.26298450066539E-02 
1196	 3.28997178994693E-02 
1197	 3.22750325845019E-02 
1198	 3.17843232055574E-02 
1199	 3.43596200190994E-02 
1200	 3.56862626042223E-02 
1201	 3.41691143112937E-02 
1202	 3.38704778787385E-02 
1203	 3.33248488020157E-02 
1204	 3.32866545287651E-02 
1205	 0.035118646751877 
1206	 3.47071104105479E-02 
1207	 3.28862788727848E-02 
1208	 3.30411125246604E-02 
1209	 3.31304519452153E-02 
1210	 3.19723159722644E-02 
1211	 3.26127014146093E-02 
1212	 3.33147793990621E-02 
1213	 3.16173703091029E-02 
1214	 3.13031979883753E-02 
1215	 3.21729174374375E-02 
1216	 3.41383414356313E-02 
1217	 3.40049481972631E-02 
1218	 3.30902552214634E-02 
1219	 3.25455285010689E-02 
1220	 3.22933695191428E-02 
1221	 3.20144685666823E-02 
1222	 0.033408316899898 
1223	 3.55258650550937E-02 
1224	 3.47694457817391E-02 
1225	 3.35414199537035E-02 
1226	 3.36522155556305E-02 
1227	 0.033023071541541 
1228	 0.032377432693082 
1229	 3.30425634625506E-02 
1230	 3.34276870138914E-02 
1231	 3.32002036675768E-02 
1232	 3.33895268567013E-02 
1233	 3.29121513414233E-02 
1234	 3.24446371711365E-02 
1235	 3.24855128049342E-02 
1236	 3.28269167490035E-02 
1237	 3.32071660051513E-02 
1238	 3.44248918594446E-02 
1239	 3.44901998316377E-02 
1240	 3.31854342772372E-02 
1241	 3.27766344364401E-02 
1242	 3.28480613472163E-02 
1243	 0.032906542558076 
1244	 3.33273744155127E-02 
1245	 3.33929021383185E-02 
1246	 3.33372939332006E-02 
1247	 3.31762832194644E-02 
1248	 3.27475408831384E-02 
1249	 3.25661069852298E-02 
1250	 3.21246163872229E-02 
1251	 3.18916882344651E-02 
1252	 0.03256693749933 
1253	 3.38571154798515E-02 
1254	 3.40800664504867E-02 
1255	 3.27453649037384E-02 
1256	 3.24253945689236E-02 
1257	 0.031992991800514 
1258	 3.21327122428685E-02 
1259	 3.36031338266622E-02 
1260	 3.38220136196756E-02 
1261	 3.31780148139737E-02 
1262	 0.032808411063649 
1263	 3.18271905418806E-02 
1264	 3.16001321388223E-02 
1265	 3.15902255936667E-02 
1266	 3.17585951001074E-02 
1267	 0.032034831349318 
1268	 3.26023327819308E-02 
1269	 3.34900990332599E-02 
1270	 3.36556858242583E-02 
1271	 3.33206971640171E-02 
1272	 3.27677778661542E-02 
1273	 3.17625104006865E-02 
1274	 3.14201206622586E-02 
1275	 3.12123221533165E-02 
1276	 0.030683194651447 
1277	 3.14516048939065E-02 
1278	 3.27748938862847E-02 
1279	 3.35244126297422E-02 
1280	 3.41317186620277E-02 
1281	 0.034551821672083 
1282	 3.39536460930763E-02 
1283	 3.40650920862931E-02 
1284	 3.53241370682141E-02 
1285	 3.50528280418513E-02 
1286	 3.28607085394088E-02 
1287	 3.27592460664786E-02 
1288	 3.39330753075806E-02 
1289	 3.36026982911902E-02 
1290	 3.30492765396123E-02 
1291	 3.39375121874237E-02 
1292	 3.45744370480156E-02 
1293	 3.32059109095385E-02 
1294	 3.29383618553296E-02 
1295	 3.40880221517417E-02 
1296	 3.27985191411772E-02 
1297	 3.09345085236774E-02 
1298	 3.17740699213937E-02 
1299	 3.21175994408489E-02 
1300	 3.10056877247196E-02 
1301	 3.07141903046982E-02 
1302	 3.19701437753847E-02 
1303	 0.032306479297472 
1304	 3.15300875089149E-02 
1305	 3.23824143619923E-02 
1306	 3.22653113062791E-02 
1307	 2.97205495347905E-02 
1308	 2.91627746739132E-02 
1309	 3.05123479037869E-02 
1310	 3.03106379480532E-02 
1311	 2.86588059938911E-02 
1312	 2.99244780241687E-02 
1313	 3.46973286223027E-02 
1314	 3.40846410043124E-02 
1315	 3.03021694348234E-02 
1316	 3.06596530511613E-02 
1317	 2.93584170521619E-02 
1318	 2.82483279004015E-02 
1319	 3.32286838161711E-02 
1320	 3.46108808321833E-02 
1321	 3.11316988967266E-02 
1322	 2.82852018836591E-02 
1323	 3.05925787451332E-02 
1324	 3.03800796231095E-02 
1325	 2.72724158278872E-02 
1326	 2.63829463937126E-02 
1327	 2.67216319937122E-02 
1328	 2.65251419648008E-02 
1329	 0.026215573967248 
1330	 2.84588609943859E-02 
1331	 3.10197518162103E-02 
1332	 2.91222865342438E-02 
1333	 0.026194943971998 
1334	 2.83916158138208E-02 
1335	 2.94300639918238E-02 
1336	 2.67035597447775E-02 
1337	 2.61479478374608E-02 
1338	 3.21603458452667E-02 
1339	 3.21908836263856E-02 
1340	 2.56349397525384E-02 
1341	 2.46437837365628E-02 
1342	 2.38856113649103E-02 
1343	 2.22618143223477E-02 
1344	 2.55373002522608E-02 
1345	 2.89284423024158E-02 
1346	 0.03399091844484 
1347	 0.033060572626025 
1348	 2.33182399245504E-02 
1349	 1.26919336496121E-02 
1350	-8.66549217068569E-03 
1351	-4.20736894488729E-02 
1352	-0.112663488239964 
1353	-0.158890628937728 
1354	-0.190202172186216 
1355	-0.117859646571307 
1356	 4.97054288165617E-03 
1357	-4.18208969233051E-03 
1358	 2.48363514092974E-02 
1359	 9.94673319518902E-02 
1360	 6.37102912313131E-02 
1361	 0.205648015346434 
1362	 4.78750299698587E-02 
1363	-0.551354698069683 
1364	-0.750632348387268 
1365	-0.69300784198914 
1366	-1.09629538906929 
1367	-0.887304819606526 
1368	-0.585441469991425 
1369	-1.44737799673995E-02 
1370	 0.162366048093647 
1371	 2.14092749113236 
1372	 4.00661765365437 
1373	-2.77347750365093 
1374	-2.51291694696651 
1375	-0.455878155969568 
1376	-0.546855432708149 
1377	-1.19005073643874 
1378	-0.840884361901512 
1379	-0.229595653341747 
1380	-0.18504655100394 
1381	 0.505347932886692 
1382	 0.52501802211522 
1383	-0.788054194090794 
1384	-1.05636826089664 
1385	-0.269817795405926 
1386	-0.2042061403084 
1387	 0.385926682513339 
1388	 2.21523710560124 
1389	-0.698484677927536 
1390	-1.17635116905278 
1391	 1.02406901437616 
1392	-3.63222933123975 
1393	-1.90134295579948 
1394	 1.78436145433833 
1395	 0.519324692313622 
1396	 0.28974564092268 
1397	 0.307354504914643 
1398	 0.212442223789746 
1399	 0.153962631571371 
1400	 1.47326601105853E-02 
1401	-0.048230257505091 
1402	 1.37247788978231E-02 
1403	-0.171873304658436 
1404	-0.269763952742434 
1405	-0.146603282002986 
1406	 0.249322250785222 
1407	 0.284687758061406 
1408	 0.679637352552547 
1409	 0.270661800597505 
1410	-0.706005986194055 
1411	-0.760400511566997 
1412	 3.51262677331515E-02 
1413	 0.192637055751761 
1414	 0.573152205801718 
1415	 0.661052178454809 
1416	 0.401313610995811 
1417	 0.28316398482744 
1418	 0.214475023690337 
1419	 0.127691006540703 
1420	-6.67494332432706E-02 
1421	-6.55231130104817E-02 
1422	 7.4901400384699E-03 
1423	-3.52822573961272E-02 
1424	-8.73031811540445E-02 
1425	-6.62089325418647E-02 
1426	-9.90593128589948E-02 
1427	-0.079988701836599 
1428	 0.106274285327363 
1429	 0.112745436960577 
1430	-5.52121400983373E-02 
1431	-5.48881191233803E-02 
1432	 0.081665472002619 
1433	 4.37432557739001E-02 
1434	-8.03843307246099E-02 
1435	-4.73452260340442E-02 
1436	-2.90460354627608E-03 
1437	-2.57134927524422E-02 
1438	-3.59654006937024E-02 
1439	 1.55685097685703E-02 
1440	-1.06442992340476E-02 
1441	-4.84972442794773E-02 
1442	-4.78066283256702E-02 
1443	 1.14191907250002E-02 
1444	 6.53006615661222E-02 
1445	 8.47377000671433E-03 
1446	 1.27262954928649E-02 
1447	 5.54332238534971E-02 
1448	 1.51642779887803E-02 
1449	-3.37631189361216E-02 
1450	-3.98770099197899E-02 
1451	-2.31956151970774E-02 
1452	-0.009820806193188 
1453	 6.95817347040241E-03 
1454	 2.04518634381631E-02 
1455	 3.67598267807032E-02 
1456	 3.29734749122971E-02 
1457	 2.57221846634087E-02 
1458	 2.04934901324082E-02 
1459	-2.45271612949754E-03 
1460	 2.53776411691835E-04 
1461	 1.79446988810009E-02 
1462	 2.91308294855664E-02 
1463	 5.57985236430305E-02 
1464	 5.96213535381409E-02 
1465	 4.67051609364143E-02 
1466	 5.00065985906261E-02 
1467	 0.049853423721996 
1468	 4.87186021089361E-02 
1469	 6.46521347102395E-02 
1470	 6.29429985498348E-02 
1471	 4.38514919622717E-02 
1472	 2.46022118320575E-02 
1473	-1.35335887987246E-02 
1474	-9.43922115232023E-03 
1475	 2.00462485604953E-02 
1476	 2.22060717532121E-02 
1477	 4.06592897351271E-02 
1478	 4.34853302120536E-02 
1479	 7.67932891593706E-03 
1480	 5.22791006104209E-03 
1481	 3.06622737609931E-02 
1482	 3.10041760044317E-02 
1483	 2.08208595578204E-02 
1484	 2.59107327872191E-02 
1485	 0.035136629535052 
1486	 3.07692509290161E-02 
1487	 0.025397035642935 
1488	 2.76732379675745E-02 
1489	 2.68772188767503E-02 
1490	 2.32827831655323E-02 
1491	 2.20647834331847E-02 
1492	 2.53234300876826E-02 
1493	 2.82059504084206E-02 
1494	 0.026632948566916 
1495	 2.64454311612185E-02 
1496	 2.84401532147896E-02 
1497	 2.72421889125185E-02 
1498	 2.60467418536452E-02 
1499	 2.91463059930733E-02 
1500	 0.030758074280618 
1501	 0.029301303007273 
1502	 2.83513230086995E-02 
1503	 2.92187944179548E-02 
1504	 2.87373924483007E-02 
1505	 2.48752961938031E-02 
1506	 2.38191458416343E-02 
1507	 2.75373520929811E-02 
1508	 2.97669105936441E-02 
1509	 2.89118419307629E-02 
1510	 2.94495108896193E-02 
1511	 0.029380225188399 
1512	 2.73495073589532E-02 
1513	 2.76913501912469E-02 
1514	 2.81002867904602E-02 
1515	 2.82847656254605E-02 
1516	 0.029342110374955 
1517	 2.94979131269994E-02 
1518	 2.94880391650798E-02 
1519	 2.73144459973755E-02 
1520	 2.48445982004883E-02 
1521	 2.60923729112314E-02 
1522	 2.71206616448726E-02 
1523	 2.75720305119049E-02 
1524	 2.90246163996313E-02 
1525	 2.86698530432843E-02 
1526	 2.83645846050139E-02 
1527	 2.98441320508741E-02 
1528	 3.10299520878788E-02 
1529	 3.00986836390331E-02 
1530	 2.93036050766082E-02 
1531	 3.01789976717175E-02 
1532	 0.028969827069268 
1533	 2.83691850041302E-02 
1534	 2.99091354688153E-02 
1535	 2.83041276284429E-02 
1536	 2.65123589436186E-02 
1537	 2.72677988178343E-02 
1538	 2.72437792991685E-02 
1539	 2.68552885891524E-02 
1540	 2.67926568279908E-02 
1541	 2.50838058557112E-02 
1542	 0.023981338133634 
1543	 2.52741864036395E-02 
1544	 2.63584562308714E-02 
1545	 2.76871583564442E-02 
1546	 2.87989090690053E-02 
1547	 2.84395673695355E-02 
1548	 2.81287149795133E-02 
1549	 2.82217743154286E-02 
1550	 2.82049468032835E-02 
1551	 2.84252869593025E-02 
1552	 2.89933736140219E-02 
1553	 2.86487895108879E-02 
1554	 2.75595560093553E-02 
1555	 2.74578901841902E-02 
1556	 2.71717798560145E-02 
1557	 0.026535969829989 
1558	 2.67095415946373E-02 
1559	 2.72377559837573E-02 
1560	 2.76838309541913E-02 
1561	 2.80819642599883E-02 
1562	 2.91251531056312E-02 
1563	 2.90775182250832E-02 
1564	 2.77660296370181E-02 
1565	 2.64577085839081E-02 
1566	 0.026108523898437 
1567	 2.63439739978166E-02 
1568	 2.64734809600143E-02 
1569	 2.81485978898713E-02 
1570	 2.88767854992243E-02 
1571	 2.80086273934475E-02 
1572	 2.87929514654552E-02 
1573	 3.06276732510891E-02 
1574	 2.99593726878758E-02 
1575	 2.88187478324101E-02 
1576	 0.02978063986541 
1577	 2.76200849096176E-02 
1578	 2.51530098878593E-02 
1579	 2.65232422392767E-02 
1580	 2.69175218485013E-02 
1581	 2.69628244976054E-02 
1582	 2.82373349455686E-02 
1583	 2.92018720678253E-02 
1584	 2.79508991706365E-02 
1585	 2.51126260310353E-02 
1586	 0.025370771746224 
1587	 2.58353285594624E-02 
1588	 0.024528810208733 
1589	 2.61828256149804E-02 
1590	 2.81346997122827E-02 
1591	 2.77467471013034E-02 
1592	 2.76115730793437E-02 
1593	 2.78058223734917E-02 
1594	 2.82788710845479E-02 
1595	 2.89052252003433E-02 
1596	 2.82297021857078E-02 
1597	 2.78319059427614E-02 
1598	 2.73334953018779E-02 
1599	 0.025989292767405 
1600	 2.67000194293364E-02 
1601	 2.71276398920909E-02 
1602	 2.69509302138967E-02 
1603	 2.78292378890947E-02 
1604	 2.81862664992709E-02 
1605	 2.93386906937062E-02 
1606	 2.97116254916365E-02 
1607	 2.79017326078615E-02 
1608	 2.75206207459954E-02 
1609	 2.84209369333386E-02 
1610	 2.79758967647504E-02 
1611	 2.81949730934645E-02 
1612	 2.85545300129926E-02 
1613	 2.68715325344149E-02 
1614	 2.59485953622991E-02 
1615	 0.026406168168747 
1616	 2.69051880640952E-02 
1617	 2.70423663311417E-02 
1618	 2.66453784722164E-02 
1619	 2.61530805582501E-02 
1620	 2.61573678152649E-02 
1621	 2.70337129382784E-02 
1622	 2.72018426869256E-02 
1623	 2.65573955277823E-02 
1624	 2.70545908258104E-02 
1625	 0.026814706691176 
1626	 0.025184881532074 
1627	 2.50177393237113E-02 
1628	 2.52378590459402E-02 
1629	 2.59892133278154E-02 
1630	 2.83671006034944E-02 
1631	 2.96346877581339E-02 
1632	 2.83597163136717E-02 
1633	 2.74481753279514E-02 
1634	 2.86395647635973E-02 
1635	 2.92199387768666E-02 
1636	 2.87474759046788E-02 
1637	 2.81617662030193E-02 
1638	 2.78672735398108E-02 
1639	 2.80635393493658E-02 
1640	 2.88609805611849E-02 
1641	 2.94187532325897E-02 
1642	 2.80091656311151E-02 
1643	 2.56646134507261E-02 
1644	 2.56734062014152E-02 
1645	 2.84682930836208E-02 
1646	 2.89285937090142E-02 
1647	 2.78928304755946E-02 
1648	 2.88979840200872E-02 
1649	 2.83653743754392E-02 
1650	 2.71015317861509E-02 
1651	 2.78470873899609E-02 
1652	 0.027973509389606 
1653	 2.63566915102601E-02 
1654	 2.62550885769254E-02 
1655	 2.78507744037957E-02 
1656	 2.78687254428628E-02 
1657	 2.71932985935098E-02 
1658	 2.61990102809803E-02 
1659	 2.42632623820486E-02 
1660	 2.38815738915272E-02 
1661	 2.37856528877545E-02 
1662	 2.43692154148545E-02 
1663	 2.63257223474541E-02 
1664	 2.70830903322795E-02 
1665	 2.78336120939257E-02 
1666	 2.85689001944541E-02 
1667	 2.88624385441189E-02 
1668	 2.74569140921806E-02 
1669	 0.027182048950634 
1670	 0.0273486348778 
1671	 2.71004668797448E-02 
1672	 0.026395348579164 
1673	 2.58977543172303E-02 
1674	 2.51077767579528E-02 
1675	 2.42044780983678E-02 
1676	 0.025433390129633 
1677	 2.57353746237764E-02 
1678	 2.50917916959292E-02 
1679	 2.64396566642892E-02 
1680	 2.61565255085183E-02 
1681	 2.40526708292075E-02 
1682	 2.39286984005379E-02 
1683	 2.34897179307333E-02 
1684	 2.21458844377496E-02 
1685	 2.37002327624249E-02 
1686	 2.55726177399975E-02 
1687	 2.48405519571185E-02 
1688	 0.024502193438736 
1689	 2.47859274822629E-02 
1690	 2.49087035376295E-02 
1691	 2.66871761119657E-02 
1692	 2.93376578737459E-02 
1693	 0.029566219951616 
1694	 2.61617439425468E-02 
1695	 2.35377851120815E-02 
1696	 2.38333212947195E-02 
1697	 2.46665835208643E-02 
1698	 2.64016131040898E-02 
1699	 0.027687868031036 
1700	 2.67714599856585E-02 
1701	 2.60201280555568E-02 
1702	 2.55551479469159E-02 
1703	 0.024304573095021 
1704	 2.34393802804067E-02 
1705	 2.44912822415906E-02 
1706	 2.78873997743376E-02 
1707	 2.99137792592568E-02 
1708	 2.83151758902111E-02 
1709	 2.60712098086047E-02 
1710	 0.024572510118206 
1711	 0.025499291192467 
1712	 2.82200971138749E-02 
1713	 2.87868012105726E-02 
1714	 2.92575167269545E-02 
1715	 2.82557094851881E-02 
1716	 2.76359144062078E-02 
1717	 2.76628741616902E-02 
1718	 2.59602125617518E-02 
1719	 2.60719931711043E-02 
1720	 2.80209916170562E-02 
1721	 2.84184467721244E-02 
1722	 2.64791148803135E-02 
1723	 2.61202671633503E-02 
1724	 0.027988104993183 
1725	 2.73037797224982E-02 
1726	 2.80452023444076E-02 
1727	 2.90449296552906E-02 
1728	 2.75051242217147E-02 
1729	 2.78137103990884E-02 
1730	 2.86889496986014E-02 
1731	 2.94233333394472E-02 
1732	 0.028790033217262 
1733	 2.75127517702098E-02 
1734	 2.87774937324597E-02 
1735	 2.81155151480143E-02 
1736	 2.61508364865354E-02 
1737	 2.83053196542583E-02 
1738	 2.78257531789605E-02 
1739	 2.59068933476235E-02 
1740	 2.84628646867604E-02 
1741	 2.81517313294953E-02 
1742	 2.59982883103662E-02 
1743	 0.025922111437407 
1744	 2.58730989621656E-02 
1745	 2.58505228142065E-02 
1746	 2.82161364897161E-02 
1747	 2.95339962098571E-02 
1748	 2.77449182489576E-02 
1749	 2.70318599947912E-02 
1750	 2.92378080851308E-02 
1751	 2.92488769829891E-02 
1752	 0.027653674806733 
1753	 2.72461887429798E-02 
1754	 2.41024732296046E-02 
1755	 2.21975377919414E-02 
1756	 2.48522455608876E-02 
1757	 2.61100237961754E-02 
1758	 2.37562668431554E-02 
1759	 2.38622367102663E-02 
1760	 2.13457552341236E-02 
1761	 0.022169832836572 
1762	 2.94319203404432E-02 
1763	 3.21484176768491E-02 
1764	 2.99382940351527E-02 
1765	 2.80850795560972E-02 
1766	 2.31121781671404E-02 
1767	 2.27509718293266E-02 
1768	 0.02921157056393 
1769	 0.031173460117509 
1770	 3.06714387409386E-02 
1771	 2.86360353881517E-02 
1772	 0.025916234601052 
1773	 2.14727236741831E-02 
1774	 1.68521730237842E-02 
1775	 1.54610131874893E-02 
1776	 1.66848882071704E-02 
1777	 3.36374144094249E-02 
1778	 3.37847700735422E-02 
1779	 1.68233162618689E-02 
1780	 1.42834232568459E-02 
1781	 6.40331682452362E-03 
1782	 5.01039802577265E-03 
1783	 2.60021290365511E-02 
1784	 2.88987549661542E-02 
1785	 1.90806999076078E-02 
1786	 1.74170916766284E-02 
1787	 1.14213228868404E-02 
1788	 1.35422047524284E-02 
1789	 2.56530639847027E-02 
1790	 1.38606887276227E-02 
1791	 2.12429888174784E-02 
1792	 2.07389706040963E-02 
1793	 1.94048807271547E-03 
1794	 5.24978195930991E-03 
1795	 1.12549858392083E-02 
1796	 2.09788546083305E-02 
1797	 3.18749131745298E-02 
1798	-9.28129537257049E-03 
1799	-3.33500863173146E-02 
1800	-0.11824396175101 
1801	-0.166839431158933 
1802	-7.91627032655965E-02 
1803	-6.13983096236308E-02 
1804	-1.17831991823429E-02 
1805	-0.026802553040685 
1806	-0.166080724204839 
1807	-0.233945702576689 
1808	-0.428610628698987 
1809	-0.529401849388835 
1810	-0.459295806686601 
1811	-0.497248345556542 
1812	-0.229557820634199 
1813	-0.168419669760526 
1814	-0.462147691632347 
1815	-0.243262406354461 
1816	 0.166230527685749 
1817	 0.168429310981057 
1818	 0.187658850329331 
1819	-0.364882530114137 
1820	-1.41420577577147 
1821	 0.61078369367284 
1822	 0.510266906575941 
1823	-3.45010212297288 
1824	-1.370451213297 
1825	-0.391303081804457 
1826	-0.372472209122008 
1827	-1.16747797187014 
1828	-1.17150028376796 
1829	-0.709211499069891 
1830	-0.419368331775365 
1831	 1.242280860668 
1832	-0.122666036109554 
1833	-1.49126939102417 
1834	-2.01330760902553 
1835	 0.280092037821966 
1836	-0.718962584736052 
1837	-0.249569995437369 
1838	-1.32864141956784E-02 
1839	 0.881019016332151 
1840	 0.918067153731431 
1841	 1.20051090322197 
1842	 1.40454677722164 
1843	 1.23091063156967 
1844	 0.29452821978132 
1845	-6.60514981121689E-02 
1846	-0.350830468400248 
1847	-0.58987525482376 
1848	-0.773782847491739 
1849	-21.7558644028896 
1850	 0.628539992005836 
1851	 0.298194526411054 
1852	-4.56743407553336E-02 
1853	-1.58628857378275E-02 
1854	-0.539657610487924 
1855	 3.96184245904205 
1856	 4.78558813851831 
1857	-2.71105252067736 
1858	-1.58468245367083 
1859	-0.802007553838077 
1860	-0.140800869973511 
1861	 2.68971264359939E-02 
1862	 0.413340712926255 
1863	 1.77556571335449 
1864	 3.31475230211038 
1865	 3.60634237523709 
1866	 3.24465405345423 
1867	 4.9306585028824 
1868	 0.190509496409603 
1869	-1.16294809911475 
1870	-2.94396262269393 
1871	-5.01203408100634 
1872	-3.11454202314098 
1873	 3.11272283751103 
1874	-0.329756780382468 
1875	-0.303013743278224 
1876	-0.55958333535094 
1877	-1.21800384802937 
1878	-2.0095561208423 
1879	-3.20899725400946 
1880	-3.8886429950624 
1881	-5.55789782941346 
1882	-16.5628793705352 
1883	-12.8736780760743 
1884	 8.06652829201389 
1885	 1.21314524370132 
1886	 0.483604615734666 
1887	 3.12023078004253 
1888	-0.984720621225272 
1889	-0.488606424395078 
1890	 0.986144651194808 
1891	 2.04373316918757 
1892	-1.13096377344202 
1893	-0.210338455143581 
1894	 0.561989561545465 
1895	 0.882534264734932 
1896	 26.8003558782814 
1897	-3.25878346762177 
1898	-0.907192889382602 
1899	-0.796727757874125 
1900	-0.837010999223225 
1901	-0.822758778209073 
1902	-1.03579976984417 
1903	-1.9406824893999 
1904	-2.01030016580451 
1905	-2.18122628848577 
1906	-5.82151466819727 
1907	-5.39307849283342 
1908	-2.66170472629067 
1909	-3.87437834065725 
1910	-3.99114419578869 
1911	-2.12540240046724 
1912	 5.56375443022825 
1913	 0.820195451798749 
1914	-0.702512599146643 
1915	-0.211519040402493 
1916	-25.07396154705 
1917	 3.20471983918352 
1918	-3.94946098525337 
1919	 30.6640964246981 
1920	 6.94874026586286 
1921	-5.82732446503321 
1922	-14.1699944877363 
1923	 8.91182659981427 
1924	-3.677991526245 
1925	-3.07496357296103 
1926	-5.28994661820454 
1927	 4.98566834084841 
1928	-7.44305671200298 
1929	 2.02352300493056 
1930	 0.280914409074363 
1931	 2.69938800018386 
1932	-0.111264328395966 
1933	-0.373616021862179 
1934	-0.422329015204518 
1935	-0.450584775604179 
1936	-0.710416387441165 
1937	-0.386161455732241 
1938	 3.53613597196824E-02 
1939	 0.18442567226643 
1940	 0.262366914995943 
1941	 0.397280177402667 
1942	 0.335812078000294 
1943	-0.195152693347987 
1944	-3.28607787675857 
1945	-0.095448200747167 
1946	-0.520278202333708 
1947	-0.369503036862765 
1948	 0.663586577431142 
1949	 2.64740692728873 
1950	-27.28484450678 
1951	 18.088768857837 
1952	 6.24775735662022 
1953	 1.09711298203621 
1954	 0.619946192159659 
1955	 0.786089894960445 
1956	 0.623548857334324 
1957	 0.504340430050479 
1958	 0.280301041708244 
1959	-1.90418886499887E-02 
1960	-3.34730519255888E-02 
1961	 7.28282008913553E-02 
1962	 9.57372489408638E-02 
1963	 0.167575736389042 
1964	 0.22090079176999 
1965	 0.162046295639834 
1966	 0.115701714941326 
1967	 5.14016921680623E-02 
1968	 4.29609270666083E-02 
1969	 2.87157343746931E-02 
1970	 2.39374093180608E-02 
1971	 3.06559934827818E-02 
1972	 1.55803123334897E-02 
1973	 1.83142087099409E-02 
1974	 2.25416062850222E-02 
1975	 3.16472890930723E-02 
1976	 4.88230525225895E-02 
1977	 0.037338947801614 
1978	 1.96773168701723E-02 
1979	 1.65101668335564E-02 
1980	 1.63942507718336E-02 
1981	 0.026432290187386 
1982	 4.59627507816713E-02 
1983	 5.60351997619961E-02 
1984	 0.062386987307598 
1985	 5.29453827701898E-02 
1986	 3.49846561263706E-02 
1987	 2.63974540252019E-02 
1988	 2.47225946488881E-02 
1989	 2.37791653158062E-02 
1990	 1.41174573097177E-02 
1991	 9.67591451033189E-03 
1992	 9.13688102964638E-03 
1993	 1.75992807420297E-02 
1994	 0.024887542444337 
1995	 4.15547965861784E-02 
1996	 6.40949914883559E-02 
1997	 6.85344137776488E-02 
1998	 4.19797145335063E-02 
1999	 2.95125864317069E-02 
2000	 5.67770157635132E-03 
2001	-3.61267420400041E-02 
2002	-6.59458760310709E-02 
2003	-7.67361854691184E-02 
2004	-0.105936256025836 
2005	-0.103734946908548 
2006	-2.02534944070951E-02 
2007	 5.41095005981653E-02 
2008	 7.05206347077192E-02 
2009	 8.72260925823023E-02 
2010	 8.13712925262419E-02 
2011	 8.29565134618762E-02 
2012	 6.40492583557378E-02 
2013	 9.28187256811475E-02 
2014	 9.10037625380099E-02 
2015	 7.11117114304679E-02 
2016	 8.16076684681306E-02 
2017	 6.49876683113021E-02 
2018	 6.40310269909651E-02 
2019	 0.071307834268632 
2020	 6.56340027167602E-02 
2021	 6.35380452959837E-02 
2022	 6.08538740593401E-02 
2023	 5.80353852105851E-02 
2024	 4.80103348393029E-02 
2025	 2.22550682461018E-02 
2026	 0.014025864744996 
2027	 9.17903963292444E-03 
2028	 1.00595412328096E-02 
2029	 1.29796405953981E-02 
2030	 1.84616804932619E-02 
2031	 1.96115836805656E-02 
2032	 1.77371900747431E-02 
2033	 1.31361656115988E-02 
2034	 9.63146079628474E-03 
2035	 1.08137705152179E-02 
2036	 9.93713360703049E-03 
2037	 1.04683073235222E-02 
2038	 0.011834579817643 
2039	 1.18308903896246E-02 
2040	 9.12225804645038E-03 
2041	 9.75314175253804E-03 
2042	 1.15844216089401E-02 
2043	 1.38262329615916E-02 
2044	 1.98410743133056E-02 
2045	 2.06521809822359E-02 
2046	 1.90192436221308E-02 
2047	 1.81777356071931E-02 
2048	 1.58147002237793E-02 
2049	 2.22574497645188E-02 
2050	 2.43882665106311E-02 
2051	 0.023410088001394 
2052	 3.15618496629925E-02 
2053	 2.47736812832767E-02 
2054	 0.020156999598767 
2055	 0.0307597078226 
2056	 3.36922108504273E-02 
2057	 3.19583170630287E-02 
2058	 3.37347186116855E-02 
2059	 3.74703938497037E-02 
2060	 3.67388872764931E-02 
2061	 3.38590281727888E-02 
2062	 2.85063998393512E-02 
2063	 3.03641339642196E-02 
2064	 3.61928502412336E-02 
2065	 4.10903624600005E-02 
2066	 4.96454856735188E-02 
2067	 0.054716960062978 
2068	 5.48406476628243E-02 
2069	 4.56048536072293E-02 
2070	 3.87305848176816E-02 
2071	 4.21905320282443E-02 
2072	 3.48535030919237E-02 
2073	 3.33745524098766E-02 
2074	 4.54132942179256E-02 
2075	 4.54707609041172E-02 
2076	 0.034636459124704 
2077	 3.22595207392665E-02 
2078	 2.99524532839397E-02 
2079	 2.67888280593382E-02 
2080	 2.63665746051862E-02 
2081	 0.026527105573612 
2082	 1.91923825405649E-02 
2083	 1.21068034175843E-02 
2084	 8.28380902060281E-03 
2085	 1.24519323638336E-02 
2086	 2.59025363096721E-02 
2087	 0.03939333361585 
2088	 4.47634874268761E-02 
2089	 4.44690021914207E-02 
2090	 3.56940834522442E-02 
2091	 2.61067081057666E-02 
2092	 2.39693302694934E-02 
2093	 2.44255990067298E-02 
2094	 2.65690951061295E-02 
2095	 3.90812277616332E-02 
2096	 4.10510093502409E-02 
2097	 3.75762736689181E-02 
2098	 3.84913835010989E-02 
2099	 0.037798718593477 
2100	 3.44675622160111E-02 
2101	 4.04443424658747E-02 
2102	 4.46759329902397E-02 
2103	 4.83968966757239E-02 
2104	 5.13763420528705E-02 
2105	 4.56017497890291E-02 
2106	 3.85625192839759E-02 
2107	 4.10556153459854E-02 
2108	 3.88850858631427E-02 
2109	 3.63420123343854E-02 
2110	 3.91911174672667E-02 
2111	 2.96819452159693E-02 
2112	 2.24610155860324E-02 
2113	 2.03744885908104E-02 
2114	 2.38195569856674E-02 
2115	 2.53962493010428E-02 
2116	 3.29389117404964E-02 
2117	 3.21238958790995E-02 
2118	 2.37309273147472E-02 
2119	 2.25045800373256E-02 
2120	 2.22420400020765E-02 
2121	 1.88722511247422E-02 
2122	 0.019709771144399 
2123	 2.54371174351517E-02 
2124	 0.02424813713411 
2125	 1.92884061973236E-02 
2126	 1.97802050389281E-02 
2127	 1.93813078542111E-02 
2128	 1.66097681625529E-02 
2129	 1.97106431948457E-02 
2130	 2.18652371499578E-02 
2131	 2.48005326737704E-02 
2132	 2.68512741813164E-02 
2133	 2.23217025893364E-02 
2134	 2.27445435091745E-02 
2135	 2.48482707836367E-02 
2136	 2.31896912777469E-02 
2137	 2.21946089024149E-02 
2138	 2.37709601403787E-02 
2139	 2.29648714912572E-02 
2140	 2.51526727257322E-02 
2141	 2.97029921501607E-02 
2142	 3.24296124303328E-02 
2143	 3.84152377027386E-02 
2144	 3.77423183738219E-02 
2145	 3.04134678907263E-02 
2146	 3.37547946461688E-02 
2147	 2.90271969730174E-02 
2148	 2.50922200182143E-02 
2149	 2.39085552522668E-02 
2150	 0.019058129275773 
2151	 2.22845828470646E-02 
2152	 2.80825746494236E-02 
2153	 3.42626573526313E-02 
2154	 0.041785486601171 
2155	 4.98223091608056E-02 
2156	 5.94550531917317E-02 
2157	 6.11381245538524E-02 
2158	 6.00192731882016E-02 
2159	 5.89401820993675E-02 
2160	 5.16845555234948E-02 
2161	 0.043295894167941 
2162	 3.07594695978727E-02 
2163	 3.00989891489185E-02 
2164	 3.23756425173493E-02 
2165	 3.23257708078069E-02 
2166	 4.58184572309114E-02 
2167	 4.74554556521377E-02 
2168	 3.75427539355455E-02 
2169	 3.19059746648573E-02 
2170	 2.43513070650534E-02 
2171	 1.66917161883336E-02 
2172	 1.62512886182031E-02 
2173	 1.58350474556268E-02 
2174	 1.42504153541001E-02 
2175	 0.018397898992366 
2176	 0.020004893927089 
2177	 2.15974884107043E-02 
2178	 3.05502379345027E-02 
2179	 3.34829255854386E-02 
2180	 3.22813989706515E-02 
2181	 0.034768900326305 
2182	 3.97166178411271E-02 
2183	 4.79346021409332E-02 
2184	 5.42204713839636E-02 
2185	 5.33571739669592E-02 
2186	 5.04584980626294E-02 
2187	 3.71812317834545E-02 
2188	 3.29004458520282E-02 
2189	 2.97605203322477E-02 
2190	 2.72210995568569E-02 
2191	 2.93405308735408E-02 
2192	 0.025853416888006 
2193	 2.16307657538614E-02 
2194	 1.67624051504568E-02 
2195	 8.18687836071845E-04 
2196	-1.10308842391926E-03 
2197	 9.64043477497397E-03 
2198	 1.28431105443657E-02 
2199	 0.020614531992408 
2200	 2.89582729308942E-02 
2201	 2.10080555668318E-02 
2202	 1.68850928237792E-02 
2203	 3.13665802106671E-02 
2204	 3.70155639941238E-02 
2205	 3.98783626107649E-02 
2206	 4.47979672210522E-02 
2207	 3.76326320984138E-02 
2208	 3.07646394183718E-02 
2209	 3.27440031651777E-02 
2210	 3.00209846899335E-02 
2211	 2.88836591559815E-02 
2212	 3.28524230726269E-02 
2213	 3.77625463904631E-02 
2214	 0.040122143524419 
2215	 3.57684027703797E-02 
2216	 0.037169697316134 
2217	 3.77529107145049E-02 
2218	 3.64170205020389E-02 
2219	 3.83584646459687E-02 
2220	 0.044351063276205 
2221	 4.67347034270128E-02 
2222	 4.55988222098483E-02 
2223	 4.72058639212287E-02 
2224	 4.85757590177164E-02 
2225	 5.24989879732482E-02 
2226	 6.20307883797435E-02 
2227	 0.069578734508764 
2228	 8.43638678247878E-02 
2229	 0.084684049517224 
2230	 7.62791062650691E-02 
2231	 6.73676707588233E-02 
2232	 3.95912965029204E-02 
2233	 2.98855251634293E-02 
2234	 2.98146641822047E-02 
2235	 2.71083374695397E-02 
2236	 3.49752984691921E-02 
2237	 4.23260948561048E-02 
2238	 2.73629051144253E-02 
2239	 2.00403255567265E-02 
2240	 1.53231376714698E-02 
2241	-4.79387048946562E-03 
2242	 1.08107520665133E-03 
2243	 6.64457885317973E-03 
2244	-1.58219894547975E-03 
2245	 4.19268880000895E-03 
2246	 8.43481058709476E-03 
2247	 2.69790266684888E-02 
2248	 2.40389200101621E-02 
2249	 1.96323361821888E-02 
2250	 2.98890537500393E-02 
2251	 7.49136455532586E-03 
2252	 7.42601675443765E-03 
2253	 1.30821596423843E-02 
2254	 4.58053570291407E-03 
2255	 2.35727270208361E-02 
2256	 4.32218568388606E-02 
2257	 5.99557584759974E-02 
2258	 7.33652179826483E-02 
2259	 0.064823789304928 
2260	 5.15421549048567E-02 
2261	 1.31631631592482E-02 
2262	-1.67708827546897E-04 
2263	-1.38691877848819E-02 
2264	-0.017389073640808 
2265	-3.5753584565483E-04 
2266	 7.79685680492065E-03 
2267	 1.90240116797649E-02 
2268	 0.026747714603412 
2269	 3.46590014209156E-02 
2270	 4.60806561379738E-02 
2271	 6.27530105486001E-02 
2272	 0.061212991319357 
2273	 4.32737536750028E-02 
2274	 3.27065481742187E-02 
2275	 1.67646695874832E-02 
2276	 7.09776527315465E-03 
2277	 3.44355602072655E-03 
2278	 0.003358248878587 
2279	 2.34317797770484E-03 
2280	 5.17769403685105E-03 
2281	 1.23955338753655E-02 
2282	 3.60195387014724E-02 
2283	 5.78628978448133E-02 
2284	 4.24251417359032E-02 
2285	 9.77883855645821E-03 
2286	-1.47213504924027E-02 
2287	-0.019736748880207 
2288	-1.99283820432113E-02 
2289	 4.76597595956875E-03 
2290	 4.30204577398053E-02 
2291	 2.34662815415864E-02 
2292	 3.19765708064799E-02 
2293	 4.92475752376092E-02 
2294	 2.65866887391122E-02 
2295	 6.62511177102067E-02 
2296	 6.21512473235206E-02 
2297	 0.022692954014776 
2298	 4.17800061701147E-02 
2299	 2.28830624933485E-02 
2300	 1.27291133418432E-03 
2301	 4.63750986339753E-02 
2302	 6.05346173670999E-02 
2303	 7.51481326906261E-02 
2304	 0.112035630048349 
2305	 9.44281393654725E-02 
2306	 9.29621366023217E-02 
2307	 0.10110645165206 
2308	 0.09064310094371 
2309	 0.102984170928594 
2310	 0.10300043030076 
2311	 9.06864456409035E-02 
2312	 9.85689456335148E-02 
2313	 0.107362747905775 
2314	 0.117617365900872 
2315	 0.135110668821516 
2316	 0.135166819530735 
2317	 0.103450088275537 
2318	 6.65162395092071E-02 
2319	 0.051504287566298 
2320	-7.13318163171901E-03 
2321	-0.058015848636735 
2322	-4.05329006087094E-02 
2323	-6.44458311404883E-02 
2324	-4.41684516754053E-02 
2325	 2.17729413176005E-02 
2326	 3.56032755360035E-02 
2327	 5.72699140681528E-02 
2328	 4.06447658309029E-02 
2329	 3.59007526646729E-03 
2330	 0.013300941078783 
2331	 2.98411735809586E-03 
2332	 7.44908058803197E-03 
2333	 3.95266579566089E-02 
2334	 0.010168804888418 
2335	 5.42112044723234E-03 
2336	 3.70631216587357E-02 
2337	 3.76355688179019E-02 
2338	 8.12478892076254E-02 
2339	 9.15575479106875E-02 
2340	 7.06195864078238E-02 
2341	 6.70638999296644E-02 
2342	 2.79169883975647E-03 
2343	-2.72808378344644E-03 
2344	 7.99883722944134E-02 
2345	 0.130226182133455 
2346	 0.126295823802372 
2347	 0.10428654892044 
2348	-1.28178497052311E-02 
2349	-0.155687260646522 
2350	-0.117713510310411 
2351	-0.148908180208725 
2352	-0.224262244823575 
2353	-0.215697249898185 
2354	-0.312548602311398 
2355	-0.321268141936067 
2356	-0.129745513142176 
2357	-3.51567731157625E-02 
2358	 0.081736583876695 
2359	 0.142947769889943 
2360	 0.12515143460741 
2361	 0.249757295462097 
2362	 0.39309630430875 
2363	 0.552100423904725 
2364	 0.665435887801804 
2365	 0.66076186289242 
2366	 0.5496817658317 
2367	 0.49619645727816 
2368	 0.315930140753779 
2369	-0.257082694947745 
2370	-1.84896772718629 
2371	-0.415605849307865 
2372	 0.804724820218329 
2373	 1.65850230501497 
2374	 1.22152037122632 
2375	 0.763417092487959 
2376	-0.141428800599011 
2377	-0.494295893545005 
2378	 3.31813538592008E-03 
2379	 0.279005168686817 
2380	 0.118943292034597 
2381	 0.214397021601314 
2382	 0.147262159227062 
2383	 1.32470865050837E-02 
2384	 0.103989944628889 
2385	 0.16338091560022 
2386	 0.247462480384362 
2387	 0.612357870383912 
2388	 1.25672222466854 
2389	 0.880456552107042 
2390	 0.846299410550209 
2391	 0.912729460983326 
2392	 0.673077577445526 
2393	 0.432077974708278 
2394	 0.122327413091132 
2395	-0.206416599769652 
2396	-0.282106287150253 
2397	-0.129753578464346 
2398	 0.105139930697287 
2399	 0.556839186628612 
2400	 0.634011012614855 
2401	 0.542692028651991 
2402	 0.371471146973061 
2403	 2.96703192269588E-02 
2404	-9.55992792316375E-03 
2405	 0.319467991847643 
2406	 0.573816533768858 
2407	 0.715658902588961 
2408	 0.488369649710652 
2409	 0.293561625619399 
2410	-0.344604090173826 
2411	-0.753181013520939 
2412	-0.67859606272896 
2413	-0.963844385301834 
2414	-0.596994024740313 
2415	 0.095726149018048 
2416	 0.80717407705689 
2417	 1.53862635514399 
2418	 4.09064655918473 
2419	 4.07528787298565 
2420	 4.47214830169961 
2421	 2.49625879337909 
2422	-2.75324756950333E-02 
2423	-0.491191653252277 
2424	-0.601566871012849 
2425	-3.33849023512653 
2426	-5.20751291273853 
2427	 1.10382512387621 
2428	 0.930280856111808 
2429	 0.788184063503522 
2430	 9.94137354947318E-02 
2431	-0.267295285760441 
2432	-0.571787497699397 
2433	-0.563930273244063 
2434	-0.703909903381374 
2435	-0.94283099430201 
2436	-1.77669576710591 
2437	 5.87232846467145 
2438	-13.405959366734 
2439	-2.40176969590149 
2440	-2.08375616049585 
2441	-1.09157528337509 
2442	-1.35578701483653 
2443	-2.1817561797248 
2444	 0.848655937309109 
2445	 0.624811617837278 
2446	-0.588796245819334 
2447	-0.69046235943591 
2448	-0.969252860406676 
2449	-7.55182822531403 
2450	 8.06096130737535 
2451	 0.428613489469907 
2452	 0.294106262759822 
2453	-2.68191237416745 
2454	 8.55898270115635 
2455	-68.5545762911538 
2456	-2.00402206596239 
2457	-2.38800164634627 
2458	-0.269265029928316 
2459	 0.515260002082168 
2460	 4.91279650980653 
2461	-17.2945794439462 
2462	 1.04456155950712E-03 
2463	-10.0464916710944 
2464	-0.331685102648147 
2465	 0.539114529180375 
2466	 7.83486316288146 
2467	-0.629659326211055 
2468	-0.353627040820008 
2469	-0.481870731106834 
2470	-2.09912387898976 
2471	 2.45484898456766 
2472	 0.827853771415591 
2473	 1.12655789343925 
2474	-2.94007178281817 
2475	 0.827547124059789 
2476	 3.18658265948893 
2477	 1.39037133141721 
2478	 0.772149274652693 
2479	 0.032027978087884 
2480	-2.66726093861931 
2481	-3.94485501668077 
2482	-20.76992988428 
2483	-8.81215232063718 
2484	 1.32635219066156 
2485	-0.214085569190241 
2486	-1.17312820261622 
2487	-1.59603710938172 
2488	-0.779641620594445 
2489	-0.516656273415393 
2490	-0.314188497187478 
2491	-5.18344703422706E-02 
2492	-0.195240705298434 
2493	-0.181743900347546 
2494	 0.125700708001582 
2495	-0.132731466527963 
2496	-9.89337476831123E-02 
2497	-1.26085323618809 
2498	-2.08533983957257 
2499	-5.83672081278969 
2500	-8.62918377654389 
