Wavelength	rt0629dirt00005.asd
350	 9.10181917455219E-02 
351	 9.27299006354347E-02 
352	 0.092237196673935 
353	 9.20160510173324E-02 
354	 9.32396867038885E-02 
355	 0.092026763596696 
356	 9.21064031988325E-02 
357	 9.30919012443626E-02 
358	 9.35348958228325E-02 
359	 9.35059712706823E-02 
360	 0.093039377017266 
361	 9.26675115019536E-02 
362	 9.30912563297507E-02 
363	 9.33364285522843E-02 
364	 0.09317152811046 
365	 9.28257923891571E-02 
366	 9.30414900560387E-02 
367	 9.34383870342941E-02 
368	 9.39073608341063E-02 
369	 9.43303349600717E-02 
370	 9.42863723556014E-02 
371	 9.46792665447107E-02 
372	 0.095402947450743 
373	 9.57586121597543E-02 
374	 9.57386018356391E-02 
375	 9.58183930097127E-02 
376	 9.62626318614457E-02 
377	 9.69559254708369E-02 
378	 9.68442052852712E-02 
379	 9.70152509255674E-02 
380	 9.81141822274686E-02 
381	 9.76625878451417E-02 
382	 9.81733582600462E-02 
383	 9.88872827763631E-02 
384	 9.81173807551412E-02 
385	 9.97491080383481E-02 
386	 0.100725550218809 
387	 0.100379969138796 
388	 0.101245302947204 
389	 0.101957864510317 
390	 0.102445009464099 
391	 0.102899366980248 
392	 0.103570029291869 
393	 0.103842776941211 
394	 0.104232075847084 
395	 0.105238802980435 
396	 0.105016444595675 
397	 0.104643538798638 
398	 0.10486521038473 
399	 0.105879724992916 
400	 0.106216048462868 
401	 0.106087518794985 
402	 0.106014310808356 
403	 0.106541142946607 
404	 0.107199265269725 
405	 0.107704107291197 
406	 0.107932655007718 
407	 0.108254126568199 
408	 0.108527606151065 
409	 0.108903845878267 
410	 0.109790975144797 
411	 0.110110611864268 
412	 0.110281775083417 
413	 0.110732162815469 
414	 0.111231753445404 
415	 0.111720192009537 
416	 0.112214984403216 
417	 0.112734605289236 
418	 0.113020287149052 
419	 0.113544964773589 
420	 0.114276113837888 
421	 0.114618711502777 
422	 0.115317646943332 
423	 0.11608642023564 
424	 0.116634499072303 
425	 0.117249280854085 
426	 0.118072034411592 
427	 0.118832067422363 
428	 0.119234299463381 
429	 0.120401319559429 
430	 0.121442165490408 
431	 0.122094945789626 
432	 0.123051201402229 
433	 0.123944340050275 
434	 0.124691295525963 
435	 0.125351710964356 
436	 0.12622231680035 
437	 0.127037385260677 
438	 0.127799402549625 
439	 0.128636970192065 
440	 0.129396622457777 
441	 0.130148995558391 
442	 0.130907403084985 
443	 0.131561260059507 
444	 0.132233948978399 
445	 0.132957846640011 
446	 0.13370449180986 
447	 0.134316600178548 
448	 0.135046592135308 
449	 0.135770426577403 
450	 0.136126925142093 
451	 0.136439331106108 
452	 0.136920741108639 
453	 0.137579327067572 
454	 0.138041338249452 
455	 0.138650426679205 
456	 0.139188266798987 
457	 0.139397414930948 
458	 0.139924420593078 
459	 0.140421966459426 
460	 0.140764312264822 
461	 0.141096799997246 
462	 0.14144351098227 
463	 0.141769923985975 
464	 0.142123856154661 
465	 0.142874272939902 
466	 0.143265076940188 
467	 0.143419869158693 
468	 0.143847883463983 
469	 0.144266256801874 
470	 0.14464332821347 
471	 0.145027437472975 
472	 0.145543693793911 
473	 0.145915906107373 
474	 0.146339553307367 
475	 0.146980714579496 
476	 0.147450974233307 
477	 0.147839856427551 
478	 0.148242943094449 
479	 0.148743581065439 
480	 0.149197934007349 
481	 0.149863002880818 
482	 0.150727216382767 
483	 0.151100187708369 
484	 0.151787310361538 
485	 0.152601066733774 
486	 0.153115256806824 
487	 0.153727650096048 
488	 0.154517937512219 
489	 0.155369296514174 
490	 0.156014196720704 
491	 0.156602327213347 
492	 0.157250680118408 
493	 0.158022369326744 
494	 0.158882026406494 
495	 0.15965778194145 
496	 0.160461919981614 
497	 0.16149981915377 
498	 0.162428900498527 
499	 0.163301082841746 
500	 0.164157529260347 
501	 0.164950699470616 
502	 0.165796538314933 
503	 0.166781863014452 
504	 0.167850354463452 
505	 0.168376261179241 
506	 0.169365869668534 
507	 0.170750988942279 
508	 0.171631011377462 
509	 0.172485787473884 
510	 0.17356875550647 
511	 0.174859995634303 
512	 0.175796659031152 
513	 0.176779190497078 
514	 0.177907421577498 
515	 0.179130311721668 
516	 0.180325075573557 
517	 0.181495131942202 
518	 0.182618050386268 
519	 0.183628093796817 
520	 0.185027964938714 
521	 0.186363553344097 
522	 0.187273673585017 
523	 0.18845959013809 
524	 0.189638020129814 
525	 0.190802848518506 
526	 0.19213573889192 
527	 0.193468860893183 
528	 0.194771211125494 
529	 0.196075795866603 
530	 0.197537609357699 
531	 0.198732254554749 
532	 0.199938836367839 
533	 0.201520704596849 
534	 0.202655492180762 
535	 0.203833028975499 
536	 0.205243051672945 
537	 0.206634511442698 
538	 0.20790397642197 
539	 0.209202663392602 
540	 0.210653973658041 
541	 0.212083708508865 
542	 0.213396329694999 
543	 0.214624817338871 
544	 0.215902517831941 
545	 0.217411055145989 
546	 0.218849304422303 
547	 0.22009103924809 
548	 0.221464690493872 
549	 0.222881390956573 
550	 0.224235992048828 
551	 0.225469834101072 
552	 0.226843970416847 
553	 0.228180940046544 
554	 0.229402668809364 
555	 0.230565880732258 
556	 0.231892858276727 
557	 0.233274124935985 
558	 0.234528431849081 
559	 0.235580523655093 
560	 0.236681391441372 
561	 0.237840924015003 
562	 0.238922125958526 
563	 0.239917669530289 
564	 0.240928602463023 
565	 0.241962929385131 
566	 0.242809598100725 
567	 0.243718678542013 
568	 0.244713328907988 
569	 0.245687173478866 
570	 0.24635131710064 
571	 0.247090490290757 
572	 0.247929572667675 
573	 0.248474035545763 
574	 0.24918607852588 
575	 0.250043712020557 
576	 0.250854544039894 
577	 0.251256286762864 
578	 0.251857051521045 
579	 0.252595212096427 
580	 0.253018641265784 
581	 0.253301383991736 
582	 0.253511886918778 
583	 0.253730967941534 
584	 0.254095438835653 
585	 0.254343312343638 
586	 0.254417861284176 
587	 0.254367228508319 
588	 0.254380599281726 
589	 0.254296842402087 
590	 0.254168398318917 
591	 0.254272136914702 
592	 0.25443017605233 
593	 0.254504826941141 
594	 0.254382710834317 
595	 0.253973258607754 
596	 0.2536770525281 
597	 0.253537974883343 
598	 0.253390546262329 
599	 0.253244435458877 
600	 0.253027084503444 
601	 0.252695793422223 
602	 0.252229078940754 
603	 0.252283306727111 
604	 0.252654681711134 
605	 0.252861262829257 
606	 0.252638211569549 
607	 0.252566643647393 
608	 0.252732332103433 
609	 0.252684317903265 
610	 0.252964805972501 
611	 0.253146634082274 
612	 0.252956521029355 
613	 0.253172467098676 
614	 0.25334986314795 
615	 0.253417150663702 
616	 0.253511219496344 
617	 0.253700290660249 
618	 0.253734403874566 
619	 0.253615216282671 
620	 0.253804135510127 
621	 0.253912267486796 
622	 0.253961303987127 
623	 0.254022751813991 
624	 0.253704948324581 
625	 0.253760880777767 
626	 0.254126289142846 
627	 0.253969412676699 
628	 0.254207345199703 
629	 0.254424033520539 
630	 0.254310521629414 
631	 0.254533261905 
632	 0.254465361940875 
633	 0.25435259714918 
634	 0.254712217231484 
635	 0.254720664355393 
636	 0.254598225774233 
637	 0.254569881164429 
638	 0.254722600167167 
639	 0.254792135054331 
640	 0.254822833084679 
641	 0.254898353066691 
642	 0.254896180082322 
643	 0.254553070308526 
644	 0.254151151575108 
645	 0.254339751859727 
646	 0.253766935459312 
647	 0.253299813076049 
648	 0.253531794527568 
649	 0.253415268466848 
650	 0.253162803885195 
651	 0.252929545982706 
652	 0.252812878111672 
653	 0.252447705123458 
654	 0.2518273086911 
655	 0.251009158682566 
656	 0.250231092726988 
657	 0.24982205002309 
658	 0.249596098577117 
659	 0.249304851607596 
660	 0.248819091018102 
661	 0.24858417558145 
662	 0.248419916425318 
663	 0.247823782310894 
664	 0.247256222032428 
665	 0.246924240066925 
666	 0.246804613610358 
667	 0.246543099212136 
668	 0.24638163354429 
669	 0.246208221546873 
670	 0.245881245031222 
671	 0.245666031444092 
672	 0.245605309102749 
673	 0.245591604857444 
674	 0.245401021384891 
675	 0.245079808175965 
676	 0.244925515233824 
677	 0.245026132880672 
678	 0.244817311687963 
679	 0.244770131397467 
680	 0.244862457188466 
681	 0.244849577688446 
682	 0.244604343114638 
683	 0.244552285080046 
684	 0.244610427517116 
685	 0.243919380502542 
686	 0.24340018814108 
687	 0.243223024871463 
688	 0.243154629196756 
689	 0.242682925489328 
690	 0.242326312964856 
691	 0.241994963518521 
692	 0.241276894176319 
693	 0.240670521778561 
694	 0.240291218213111 
695	 0.240006370714625 
696	 0.239415576597607 
697	 0.238462129417072 
698	 0.237424192544555 
699	 0.236668958225895 
700	 0.235809851570796 
701	 0.234975060285585 
702	 0.23405244525851 
703	 0.232776136657027 
704	 0.232149644030142 
705	 0.231228106051078 
706	 0.229588497351952 
707	 0.228462155259811 
708	 0.227260540455263 
709	 0.225798353572637 
710	 0.224067921254229 
711	 0.222251222881945 
712	 0.220512693990929 
713	 0.218670224871794 
714	 0.21615300876311 
715	 0.213903494649447 
716	 0.21149118155028 
717	 0.208519942180465 
718	 0.205350792600279 
719	 0.202878124319169 
720	 0.201217113794309 
721	 0.199542620067641 
722	 0.197177363622954 
723	 0.194260944654043 
724	 0.191409179275905 
725	 0.188754379060444 
726	 0.185679313578917 
727	 0.182474033045654 
728	 0.179384784310214 
729	 0.175817115440716 
730	 0.172063668420658 
731	 0.168578159933235 
732	 0.165505366746664 
733	 0.162877844731106 
734	 0.160480745118099 
735	 0.158259677265502 
736	 0.156344029543105 
737	 0.154827639824469 
738	 0.153627195570639 
739	 0.152713338649963 
740	 0.152357022392016 
741	 0.151563711885528 
742	 0.150746370090208 
743	 0.150808898485 
744	 0.150349146546773 
745	 0.14987110977595 
746	 0.149646081004568 
747	 0.149381039194903 
748	 0.14911238146652 
749	 0.148846335070614 
750	 0.148609324073605 
751	 0.148496913111214 
752	 0.148338823004877 
753	 0.148118579374348 
754	 0.147891957503139 
755	 0.147504191187548 
756	 0.14729906468667 
757	 0.14729516783147 
758	 0.146909486477645 
759	 0.146466992297716 
760	 0.146497290459644 
761	 0.146954112017489 
762	 0.146095690502829 
763	 0.145943903000967 
764	 0.146297048012306 
765	 0.146405815119722 
766	 0.146805529938335 
767	 0.147007298831083 
768	 0.146998645604833 
769	 0.147180423081601 
770	 0.147295822710037 
771	 0.147390327338546 
772	 0.147538764256318 
773	 0.147721489640751 
774	 0.148099581187194 
775	 0.148472659813977 
776	 0.148598401445518 
777	 0.148989052249518 
778	 0.149408267828374 
779	 0.14979490578143 
780	 0.150299445785785 
781	 0.150564156352968 
782	 0.150897438274775 
783	 0.15146851991339 
784	 0.151851186066187 
785	 0.152325265301305 
786	 0.152902217232565 
787	 0.153442969093233 
788	 0.153552602692959 
789	 0.154004645570968 
790	 0.154783873979308 
791	 0.155265772535794 
792	 0.156154303050533 
793	 0.156835056970659 
794	 0.15715251099549 
795	 0.157940548408012 
796	 0.15846452150782 
797	 0.158765219433505 
798	 0.159141994786081 
799	 0.159936330807376 
800	 0.160399358398755 
801	 0.160676397167789 
802	 0.161309246408779 
803	 0.161470368592945 
804	 0.161681536435948 
805	 0.16201507867612 
806	 0.161954708334256 
807	 0.161550285743716 
808	 0.161489484193884 
809	 0.161945162542507 
810	 0.161344412521095 
811	 0.160790069570666 
812	 0.160502695515884 
813	 0.16019554418594 
814	 0.158794371240033 
815	 0.157824507820878 
816	 0.157683195976039 
817	 0.157463124429456 
818	 0.156501160892576 
819	 0.155569747901129 
820	 0.154779229651253 
821	 0.153352682799257 
822	 0.150981657262875 
823	 0.148669496435219 
824	 0.147036583569182 
825	 0.144819937911614 
826	 0.142764786256808 
827	 0.140052467301558 
828	 0.136137252695546 
829	 0.134218229198194 
830	 0.131899090880893 
831	 0.129242919544045 
832	 0.128067497477862 
833	 0.125966593343186 
834	 0.124136962467436 
835	 0.123158192891295 
836	 0.122310441774444 
837	 0.121412226502992 
838	 0.12081820014866 
839	 0.120525230326452 
840	 0.119209117812037 
841	 0.118677118382319 
842	 0.118332758566108 
843	 0.117239187107426 
844	 0.117349782886754 
845	 0.116683974660981 
846	 0.11546517538372 
847	 0.115315192780822 
848	 0.115096987990079 
849	 0.114555433534245 
850	 0.113692057313213 
851	 0.112731039972249 
852	 0.112375628181446 
853	 0.112229069684701 
854	 0.111721855709249 
855	 0.110452948465468 
856	 0.110197743686017 
857	 0.110230694136128 
858	 0.109603532340437 
859	 0.109265199655538 
860	 0.10878508728217 
861	 0.108373336786291 
862	 0.108308072403715 
863	 0.107216616313112 
864	 0.106586121498736 
865	 0.106633430393754 
866	 0.106237485556304 
867	 0.105249452246042 
868	 0.104161674622921 
869	 0.103598657375657 
870	 0.104134190679808 
871	 0.103255264323524 
872	 0.102124073054492 
873	 0.101752969372654 
874	 0.1008981844435 
875	 0.100247982136063 
876	 0.100047242205433 
877	 0.100052735060786 
878	 9.88237043427483E-02 
879	 9.78853119140123E-02 
880	 9.73798994229556E-02 
881	 9.67483035939115E-02 
882	 9.58165446532182E-02 
883	 9.52179585896957E-02 
884	 9.48522351625402E-02 
885	 9.41293473212583E-02 
886	 9.36912210109546E-02 
887	 0.092958770724641 
888	 0.092053740914453 
889	 9.19262942356748E-02 
890	 9.13434842487539E-02 
891	 0.090771405602614 
892	 9.05343435567253E-02 
893	 0.090069702097487 
894	 8.91761929656138E-02 
895	 8.82381292057474E-02 
896	 8.74969758282954E-02 
897	 8.59003259896389E-02 
898	 8.56469266294914E-02 
899	 0.085706741035439 
900	 8.48771439751473E-02 
901	 8.58853942677637E-02 
902	 8.57309866534312E-02 
903	 8.48700218596044E-02 
904	 8.47151531967834E-02 
905	 8.44822009171096E-02 
906	 8.37377126304675E-02 
907	 8.22757488660899E-02 
908	 0.080276972233268 
909	 7.84675888267264E-02 
910	 0.079060122703378 
911	 8.03013400663338E-02 
912	 7.77698547491885E-02 
913	 7.71517469955407E-02 
914	 7.66632626815856E-02 
915	 7.52034357673671E-02 
916	 7.36958245756394E-02 
917	 7.38558128409663E-02 
918	 7.39507372921639E-02 
919	 7.25451791371651E-02 
920	 0.069343096541226 
921	 6.88315794612113E-02 
922	 6.84709964448034E-02 
923	 6.65951777235948E-02 
924	 0.066489289781425 
925	 6.37895020381971E-02 
926	 6.20466398965194E-02 
927	 6.46446408000189E-02 
928	 6.30466962322572E-02 
929	 5.89727001202034E-02 
930	 5.70430386768166E-02 
931	 6.29357255118978E-02 
932	 6.43323033271669E-02 
933	 5.84625571577863E-02 
934	 5.81667308882481E-02 
935	 6.99604477521215E-02 
936	 5.05892892600256E-02 
937	 5.12486490508582E-02 
938	 5.43087690324948E-02 
939	 3.79772228754678E-02 
940	 5.22719346341629E-02 
941	 5.11423829822431E-02 
942	 4.24295388359267E-02 
943	 5.38420043913996E-02 
944	 4.84247833359762E-02 
945	 4.68352237107009E-02 
946	 0.047572091104157 
947	 3.84869316742329E-02 
948	 3.84432739097751E-02 
949	 5.00760779515446E-02 
950	 6.01654413019125E-02 
951	 5.28657733390278E-02 
952	 4.53223052927107E-02 
953	 4.92224541624794E-02 
954	 5.45040857688642E-02 
955	 0.043458559577228 
956	 0.040338595821903 
957	 4.18026481470657E-02 
958	 4.53818045275664E-02 
959	 4.98179604518756E-02 
960	 0.04580684263906 
961	 4.44142021954043E-02 
962	 4.54380075594987E-02 
963	 0.041813129523994 
964	 4.21421295657357E-02 
965	 4.09187198225826E-02 
966	 3.75516937369179E-02 
967	 3.56793622817593E-02 
968	 3.84686230548103E-02 
969	 4.00341762692943E-02 
970	 4.00746636293653E-02 
971	 4.25094916689659E-02 
972	 3.90226885229721E-02 
973	 3.94311842497482E-02 
974	 4.33759219901991E-02 
975	 4.04489296309289E-02 
976	 3.96783026515104E-02 
977	 3.89473238001387E-02 
978	 3.75234237202358E-02 
979	 3.71231618312582E-02 
980	 4.08155532536928E-02 
981	 4.21949154462703E-02 
982	 3.96654928458421E-02 
983	 3.66509014663801E-02 
984	 3.75673246048406E-02 
985	 3.89300730356419E-02 
986	 3.78527976202654E-02 
987	 3.41240835010308E-02 
988	 3.69833915507377E-02 
989	 3.90028532454078E-02 
990	 0.037537939114087 
991	 3.55970118269532E-02 
992	 0.038714849390256 
993	 4.13575988398414E-02 
994	 4.14542233669208E-02 
995	 4.00452930392704E-02 
996	 3.57356493852965E-02 
997	 3.50449147806687E-02 
998	 3.66792530461314E-02 
999	 3.53896059070373E-02 
1000	 3.50177482668755E-02 
1001	 4.20803990386903E-02 
1002	 4.03464304825755E-02 
1003	 3.93696326770919E-02 
1004	 0.038363733275818 
1005	 3.80556460526523E-02 
1006	 3.80902162341186E-02 
1007	 3.82490973171881E-02 
1008	 3.85884188319389E-02 
1009	 3.83550980705635E-02 
1010	 3.93401469991476E-02 
1011	 4.10732985121119E-02 
1012	 4.29321165847844E-02 
1013	 0.045040023868035 
1014	 4.59224879007008E-02 
1015	 4.58363245531473E-02 
1016	 4.52428791231745E-02 
1017	 4.34059136736543E-02 
1018	 4.25523515178837E-02 
1019	 4.04449058002088E-02 
1020	 0.040122615932879 
1021	 4.11853623958496E-02 
1022	 0.042853681938074 
1023	 4.38789539096225E-02 
1024	 4.53091753979645E-02 
1025	 4.42932265479441E-02 
1026	 4.25393055333633E-02 
1027	 4.26660593263293E-02 
1028	 4.30785413023647E-02 
1029	 4.33164024660285E-02 
1030	 4.51260610218714E-02 
1031	 4.56525044936027E-02 
1032	 0.044801390313617 
1033	 0.044820332560831 
1034	 4.55537798873804E-02 
1035	 4.55843290344384E-02 
1036	 4.46411584248331E-02 
1037	 4.48046008535345E-02 
1038	 4.56836995094659E-02 
1039	 4.59431917874646E-02 
1040	 4.56822312404834E-02 
1041	 4.65418950088505E-02 
1042	 4.73915543337323E-02 
1043	 4.79674842000343E-02 
1044	 4.82795230951097E-02 
1045	 4.96418082829466E-02 
1046	 4.98222557333778E-02 
1047	 4.81531160262967E-02 
1048	 4.80985841284992E-02 
1049	 4.92215855132966E-02 
1050	 0.048986510554646 
1051	 4.79538406893721E-02 
1052	 4.80647468525551E-02 
1053	 4.75922952778633E-02 
1054	 0.04803649604745 
1055	 5.17643068081355E-02 
1056	 5.25598470126932E-02 
1057	 5.22050528983915E-02 
1058	 5.02971875269113E-02 
1059	 4.98177431355915E-02 
1060	 4.75420486047495E-02 
1061	 4.77013463899162E-02 
1062	 5.05789963029799E-02 
1063	 5.13815302559064E-02 
1064	 0.052277796918866 
1065	 0.05224948259738 
1066	 5.03441605794575E-02 
1067	 5.01534987492211E-02 
1068	 5.07183878218396E-02 
1069	 5.06256952298014E-02 
1070	 5.10609545871613E-02 
1071	 0.051403551387734 
1072	 0.052012774143595 
1073	 5.07791492488164E-02 
1074	 5.03728975592083E-02 
1075	 0.05002821746132 
1076	 5.04846298801209E-02 
1077	 5.13124178123758E-02 
1078	 0.051550093989197 
1079	 5.24603721516206E-02 
1080	 5.26092634579653E-02 
1081	 0.051727203454093 
1082	 5.10438479118635E-02 
1083	 0.0507458287003 
1084	 5.00986003785967E-02 
1085	 4.76269081131587E-02 
1086	 0.047144042908994 
1087	 4.87353893098863E-02 
1088	 4.87643007949948E-02 
1089	 4.85968546631187E-02 
1090	 4.96853225629816E-02 
1091	 4.90017781651514E-02 
1092	 4.56021421220753E-02 
1093	 4.55717571141224E-02 
1094	 4.72043427677515E-02 
1095	 4.75981352296818E-02 
1096	 4.95062605389859E-02 
1097	 4.93195063366675E-02 
1098	 4.66621802246504E-02 
1099	 4.55928405709908E-02 
1100	 4.45094569253942E-02 
1101	 4.40321292353057E-02 
1102	 4.39055755392013E-02 
1103	 4.40269569367619E-02 
1104	 4.50957570844176E-02 
1105	 4.59693408276017E-02 
1106	 4.45461861628884E-02 
1107	 4.40525745363441E-02 
1108	 4.26164289765974E-02 
1109	 4.03830065586439E-02 
1110	 3.85173792730538E-02 
1111	 0.037431662954306 
1112	 3.75841184300839E-02 
1113	 3.73348514735434E-02 
1114	 0.037242901220454 
1115	 4.29641862949336E-02 
1116	 4.42742436810447E-02 
1117	 3.71818417377807E-02 
1118	 3.73363365955473E-02 
1119	 4.43643425314604E-02 
1120	 4.46614766050034E-02 
1121	 4.47642372668679E-02 
1122	 4.92162893678138E-02 
1123	 3.46789247536282E-02 
1124	 2.06512006687809E-02 
1125	 4.03503157758629E-02 
1126	 5.38331028246003E-02 
1127	 0.037259656069472 
1128	 2.98882420537556E-02 
1129	 2.45846715803798E-02 
1130	-6.22005329514557E-03 
1131	 1.33848301307828E-03 
1132	 4.18190458218742E-02 
1133	 4.96698152337543E-02 
1134	 5.55185040067737E-02 
1135	 5.39332025718131E-02 
1136	 0.037119358833467 
1137	 0.031848385984356 
1138	 2.52342062798835E-02 
1139	 2.76772622953326E-02 
1140	 0.039660900469584 
1141	 3.84594777592173E-02 
1142	 3.36765867055751E-02 
1143	 0.041602037336362 
1144	 4.47878002897401E-02 
1145	 4.18251731025596E-02 
1146	 4.79967465991095E-02 
1147	 5.15336769932154E-02 
1148	 4.25928957716297E-02 
1149	 4.04599089049028E-02 
1150	 3.98852876780735E-02 
1151	 3.84861464826892E-02 
1152	 3.69451912140388E-02 
1153	 3.80382021733605E-02 
1154	 3.80095334963292E-02 
1155	 0.037254229349421 
1156	 3.74403290287105E-02 
1157	 3.69994920513442E-02 
1158	 3.60607269918582E-02 
1159	 3.55271417445259E-02 
1160	 3.46526902870839E-02 
1161	 3.07972672589427E-02 
1162	 3.06830212787872E-02 
1163	 3.39824167667772E-02 
1164	 3.39504989019306E-02 
1165	 3.43879316637904E-02 
1166	 3.45913686079734E-02 
1167	 3.23780739442434E-02 
1168	 3.18588076762556E-02 
1169	 3.13330716573284E-02 
1170	 3.03235980384226E-02 
1171	 3.05010350112129E-02 
1172	 3.06959677167659E-02 
1173	 3.05799186113648E-02 
1174	 3.10229665881673E-02 
1175	 3.26974427982144E-02 
1176	 3.15759751280095E-02 
1177	 2.99474314502366E-02 
1178	 3.12604929875163E-02 
1179	 3.12859905094868E-02 
1180	 0.030316733594295 
1181	 3.16449162150074E-02 
1182	 3.13884727930875E-02 
1183	 2.98158167180335E-02 
1184	 2.97361537793346E-02 
1185	 3.05635869027297E-02 
1186	 3.17278876040645E-02 
1187	 3.17939617582318E-02 
1188	 3.17272903922658E-02 
1189	 3.22739705875985E-02 
1190	 3.12626876676864E-02 
1191	 3.05328371236654E-02 
1192	 3.05581309381798E-02 
1193	 3.18614801239225E-02 
1194	 3.15009804239963E-02 
1195	 3.14031045817168E-02 
1196	 3.17562119318308E-02 
1197	 3.05198498387942E-02 
1198	 2.93099193060836E-02 
1199	 2.92572066659531E-02 
1200	 2.99238944750286E-02 
1201	 3.05063183105796E-02 
1202	 3.18071995251409E-02 
1203	 3.32878943698807E-02 
1204	 3.28536562299542E-02 
1205	 3.32723051012233E-02 
1206	 3.54191082788039E-02 
1207	 3.54952727026042E-02 
1208	 3.34147245595173E-02 
1209	 3.19878824088941E-02 
1210	 3.13894530072184E-02 
1211	 3.02607919883611E-02 
1212	 3.04908126054325E-02 
1213	 0.032537107981387 
1214	 3.34807560019473E-02 
1215	 3.35651866952485E-02 
1216	 3.31259031969987E-02 
1217	 3.33865759706175E-02 
1218	 3.42220256055546E-02 
1219	 3.42959895362155E-02 
1220	 3.31115485413108E-02 
1221	 3.29685075376474E-02 
1222	 3.23327449326604E-02 
1223	 3.07402194777138E-02 
1224	 3.13363140146131E-02 
1225	 3.24112636364987E-02 
1226	 3.18894015368219E-02 
1227	 3.19627052479665E-02 
1228	 3.35062749771308E-02 
1229	 3.41963363746167E-02 
1230	 3.33188457176965E-02 
1231	 3.26683564992083E-02 
1232	 3.20814069506288E-02 
1233	 3.12391001116994E-02 
1234	 3.15737993934522E-02 
1235	 3.18818828809434E-02 
1236	 3.23369126911275E-02 
1237	 0.032544280081971 
1238	 3.26955117717263E-02 
1239	 3.37410419348606E-02 
1240	 3.35143845708344E-02 
1241	 3.26388579773424E-02 
1242	 3.28749208076625E-02 
1243	 3.25268125678237E-02 
1244	 3.16017202766553E-02 
1245	 3.15206976697201E-02 
1246	 0.032347228579089 
1247	 3.30545594289561E-02 
1248	 3.30111686260817E-02 
1249	 3.40924897858578E-02 
1250	 3.43695139354155E-02 
1251	 3.33531949854914E-02 
1252	 0.034120693022162 
1253	 3.41642462529856E-02 
1254	 3.30457079435146E-02 
1255	 0.032676768718989 
1256	 3.22554125921003E-02 
1257	 3.15553404953383E-02 
1258	 3.16341169260529E-02 
1259	 3.23196289620267E-02 
1260	 3.24750596897357E-02 
1261	 0.03326809273854 
1262	 3.34671490616175E-02 
1263	 3.33650169745739E-02 
1264	 3.26814223517893E-02 
1265	 3.17275332788856E-02 
1266	 3.09947645023911E-02 
1267	 3.12697415183565E-02 
1268	 3.17196268542481E-02 
1269	 3.21235781629996E-02 
1270	 3.22772398943303E-02 
1271	 3.24972706135877E-02 
1272	 3.26415062520111E-02 
1273	 3.20614966960508E-02 
1274	 3.21249201267102E-02 
1275	 3.32513404365425E-02 
1276	 3.33271789656464E-02 
1277	 3.28231219417181E-02 
1278	 3.27803569593721E-02 
1279	 3.19996292626229E-02 
1280	 3.14050680067739E-02 
1281	 3.11725314221582E-02 
1282	 3.21864901244747E-02 
1283	 3.24448188454455E-02 
1284	 3.22186266346952E-02 
1285	 3.21085234945194E-02 
1286	 3.24760040158555E-02 
1287	 3.24991636564877E-02 
1288	 3.15430715410687E-02 
1289	 3.12767842254806E-02 
1290	 3.10586497837632E-02 
1291	 3.18349606205675E-02 
1292	 3.30131817468711E-02 
1293	 3.35720040858456E-02 
1294	 3.33915487937722E-02 
1295	 3.27571661770841E-02 
1296	 3.16867929307523E-02 
1297	 0.031502513064078 
1298	 3.17054998312902E-02 
1299	 3.24037343676188E-02 
1300	 3.37818609019095E-02 
1301	 3.41729367339828E-02 
1302	 3.42039999261948E-02 
1303	 3.34315308650234E-02 
1304	 0.031814789700613 
1305	 3.17109139951107E-02 
1306	 0.031137380142438 
1307	 3.09661830107294E-02 
1308	 3.14552866794768E-02 
1309	 3.24618023175014E-02 
1310	 3.21374608089595E-02 
1311	 3.24274511313796E-02 
1312	 0.032581162770869 
1313	 3.12675043065882E-02 
1314	 0.030443320698412 
1315	 2.90722400803692E-02 
1316	 2.97160622994782E-02 
1317	 3.18949042577384E-02 
1318	 3.22320657015142E-02 
1319	 3.49406351175682E-02 
1320	 3.61735500944624E-02 
1321	 3.43496822004046E-02 
1322	 3.30895357923877E-02 
1323	 3.40301529605162E-02 
1324	 3.00457400025378E-02 
1325	 3.03161742585301E-02 
1326	 3.10466771184868E-02 
1327	 2.98811830832034E-02 
1328	 3.43139788726289E-02 
1329	 3.15309716199724E-02 
1330	 2.82535871141392E-02 
1331	 0.03064475967652 
1332	 2.73335632347675E-02 
1333	 2.76451139498756E-02 
1334	 0.033172170082911 
1335	 3.36816185872677E-02 
1336	 0.027712124688487 
1337	 2.81644168200447E-02 
1338	 3.20373359786913E-02 
1339	 3.43677912716481E-02 
1340	 4.15116623184021E-02 
1341	 4.40126928927274E-02 
1342	 4.02493990955677E-02 
1343	 3.86888813640061E-02 
1344	 0.034424080509041 
1345	 3.30210359135082E-02 
1346	 0.03563820068976 
1347	 4.11946529298659E-02 
1348	 0.058022051551268 
1349	 7.07906264810211E-02 
1350	 9.84709478088559E-02 
1351	 0.105154309482051 
1352	 3.24993893462327E-02 
1353	-3.36547601340089E-02 
1354	-0.171311841078324 
1355	-0.309736801743901 
1356	-0.296976964494027 
1357	-0.105670987161663 
1358	 1.06082175641366E-02 
1359	-1.68481490022329E-02 
1360	 0.116280473518984 
1361	 5.85957044352282E-02 
1362	-0.354580399567312 
1363	-0.210584672656226 
1364	 0.145221238460115 
1365	-0.179732985403268 
1366	-0.248937584872203 
1367	 0.129411980880671 
1368	 0.191208412138281 
1369	-0.119463810243293 
1370	-0.440624862306252 
1371	-1.64721092312585 
1372	-2.03437402379183 
1373	-0.111150441516485 
1374	-0.285914472338642 
1375	 0.145549761644888 
1376	 0.189082437470055 
1377	-0.465224713300013 
1378	-0.536665094386488 
1379	-0.141768041801347 
1380	-0.123903534075356 
1381	-0.578354118416286 
1382	-0.694757860226718 
1383	-0.530426618750614 
1384	-0.609988763826938 
1385	-0.616762761135168 
1386	-0.656207770363247 
1387	-1.32877759178575 
1388	-2.91314693476848 
1389	-1.95932989892575 
1390	-2.89353401314893 
1391	-3.57212629210309 
1392	 4.92859787985894 
1393	 2.91564898032597 
1394	-2.8474137877912 
1395	-0.919906758851199 
1396	-0.286775581970916 
1397	-0.353159003424081 
1398	-0.232237530867494 
1399	 0.246514146833783 
1400	-0.357808389398976 
1401	-0.822214153435926 
1402	-0.966571466526819 
1403	-1.07222211288356 
1404	-0.705623996208182 
1405	-0.646654911272226 
1406	-0.450947076601024 
1407	-0.470906535630714 
1408	-2.40407476300464 
1409	-2.31015066378103 
1410	-0.572910106824798 
1411	-0.821995478768159 
1412	-1.49251140366962 
1413	-0.908166199034688 
1414	-0.567224753512018 
1415	-0.440574750607023 
1416	 9.96826766433892E-02 
1417	 0.105397685620023 
1418	-0.251252367609568 
1419	-0.216238099944366 
1420	 0.061074636953687 
1421	 8.69369875799243E-02 
1422	 0.110768182293792 
1423	 0.176856610399269 
1424	 0.207334764420486 
1425	 8.88369786607482E-02 
1426	-8.56999405032324E-02 
1427	-0.070515856737265 
1428	-6.75840075784563E-02 
1429	-6.36090160594923E-02 
1430	 0.126870523133526 
1431	 0.168959334765947 
1432	 1.54822895049927E-02 
1433	-0.04899209840693 
1434	-8.92325600803889E-02 
1435	-0.123309136394137 
1436	-0.111370800391703 
1437	-0.165916677473236 
1438	-0.140573745879505 
1439	-9.17241001590416E-02 
1440	-0.061614549622701 
1441	 1.00267051259022E-02 
1442	 7.13028441078539E-02 
1443	 1.78858601236512E-02 
1444	-0.060230693021072 
1445	-4.38000132625113E-03 
1446	 4.23703821057702E-02 
1447	 3.39012143955104E-02 
1448	 2.89054345141879E-02 
1449	 3.52784943408523E-02 
1450	 1.69964167778175E-02 
1451	-1.57021177276224E-02 
1452	-1.47983482325602E-02 
1453	-2.23904550376759E-02 
1454	-2.16129160509258E-02 
1455	-1.79215240089532E-02 
1456	-8.24211158071857E-03 
1457	 3.46657113772178E-03 
1458	 1.65681720610633E-02 
1459	 4.53460023577763E-02 
1460	 4.22176840840418E-02 
1461	 2.17166727622979E-02 
1462	 1.79927781945635E-02 
1463	-4.64720911082552E-03 
1464	-2.04796311505277E-03 
1465	 4.19024041699982E-02 
1466	 4.56972038452384E-02 
1467	 2.25490863589428E-02 
1468	 2.86445567729498E-02 
1469	 4.53346787857091E-02 
1470	 3.37619456203874E-02 
1471	 1.40267943329053E-02 
1472	 2.37468859751364E-02 
1473	 3.46856019938097E-02 
1474	 2.23557321958067E-02 
1475	 2.27773371130343E-02 
1476	 2.49623293452258E-02 
1477	-1.13753051533028E-03 
1478	-8.62013122286116E-03 
1479	 1.05564746396206E-02 
1480	 1.64330210497649E-02 
1481	 9.86284456747551E-03 
1482	 8.70789837792029E-03 
1483	 1.52461737621877E-02 
1484	 1.69671073053139E-02 
1485	 1.03623330973953E-02 
1486	 1.12612767955099E-02 
1487	 1.87897198790475E-02 
1488	 1.88164708827119E-02 
1489	 1.60581314724886E-02 
1490	 0.017673114955593 
1491	 1.77980870660425E-02 
1492	 1.82855385186134E-02 
1493	 2.21483086109754E-02 
1494	 2.39960494069169E-02 
1495	 2.36970100062981E-02 
1496	 2.48508997106068E-02 
1497	 2.72558596958802E-02 
1498	 2.77389643833671E-02 
1499	 2.88904112961131E-02 
1500	 2.80004744764288E-02 
1501	 2.29068742410392E-02 
1502	 2.23810986935908E-02 
1503	 2.40864831374699E-02 
1504	 2.42062027294752E-02 
1505	 2.58618886353978E-02 
1506	 2.70920952268329E-02 
1507	 2.58519361608608E-02 
1508	 2.43108274835133E-02 
1509	 2.48023298571865E-02 
1510	 2.62345334096835E-02 
1511	 2.58874089125402E-02 
1512	 0.024400884139806 
1513	 2.39828804800693E-02 
1514	 2.32774456560605E-02 
1515	 2.25154254566125E-02 
1516	 2.35770752436515E-02 
1517	 2.36957384816866E-02 
1518	 2.39969378839684E-02 
1519	 2.51156679270041E-02 
1520	 2.45057821873084E-02 
1521	 2.46226782486648E-02 
1522	 2.50155287364087E-02 
1523	 2.47720227929839E-02 
1524	 2.49624823414315E-02 
1525	 0.024221939834149 
1526	 2.26753779801505E-02 
1527	 2.26069631028424E-02 
1528	 2.38938988351237E-02 
1529	 2.37472178221348E-02 
1530	 2.37062026958223E-02 
1531	 2.42302705878406E-02 
1532	 2.38075635173523E-02 
1533	 2.49566187029232E-02 
1534	 2.63434182628886E-02 
1535	 2.59105565049672E-02 
1536	 2.60637050713756E-02 
1537	 2.70560965454178E-02 
1538	 2.66153502422995E-02 
1539	 2.53948874579919E-02 
1540	 0.025260629743188 
1541	 2.45981070832211E-02 
1542	 2.34161022743201E-02 
1543	 2.42452781655559E-02 
1544	 0.025500931805398 
1545	 2.59713895889709E-02 
1546	 2.58141918895786E-02 
1547	 2.44510270953921E-02 
1548	 2.47064965743899E-02 
1549	 2.58739848870475E-02 
1550	 0.025535722143726 
1551	 2.53286490991173E-02 
1552	 2.55440812787668E-02 
1553	 2.62190710703651E-02 
1554	 2.69355742962092E-02 
1555	 2.63436725656102E-02 
1556	 2.53678664837071E-02 
1557	 2.52610426424769E-02 
1558	 2.49025468252057E-02 
1559	 2.44090930747779E-02 
1560	 2.47880398885364E-02 
1561	 2.46038483610372E-02 
1562	 2.36692906684547E-02 
1563	 2.45455660564018E-02 
1564	 2.62782341356791E-02 
1565	 0.025749906919753 
1566	 2.56447312303172E-02 
1567	 2.71581925182347E-02 
1568	 2.71406608414099E-02 
1569	 2.60305832220738E-02 
1570	 2.55810066210263E-02 
1571	 2.48815434041079E-02 
1572	 0.024405254879571 
1573	 2.58715401694907E-02 
1574	 2.73220341253861E-02 
1575	 2.70360666896114E-02 
1576	 0.026732967561112 
1577	 2.68018517410507E-02 
1578	 2.59220092584332E-02 
1579	 2.56341255786749E-02 
1580	 2.64393712943029E-02 
1581	 2.61925008763006E-02 
1582	 0.025896261267537 
1583	 2.68924058515478E-02 
1584	 2.74540786739471E-02 
1585	 2.73525238802375E-02 
1586	 2.79487776380792E-02 
1587	 2.78033156274156E-02 
1588	 0.026412882477971 
1589	 2.60167375389043E-02 
1590	 2.57195555842293E-02 
1591	 2.48126302047486E-02 
1592	 2.46907683658598E-02 
1593	 2.53538906529773E-02 
1594	 2.59040840382003E-02 
1595	 2.60558475500589E-02 
1596	 2.63893540454653E-02 
1597	 2.56061014613995E-02 
1598	 2.49092234934628E-02 
1599	 2.59818623732729E-02 
1600	 2.61456903267624E-02 
1601	 2.52158300741222E-02 
1602	 2.52491066991046E-02 
1603	 2.63787244558497E-02 
1604	 2.73206706157787E-02 
1605	 2.87903855636246E-02 
1606	 2.99279655781063E-02 
1607	 2.84202170226086E-02 
1608	 2.64921671692328E-02 
1609	 2.46007552308845E-02 
1610	 2.42087429415971E-02 
1611	 2.62142984176255E-02 
1612	 2.63689747570713E-02 
1613	 2.62069496226213E-02 
1614	 2.71811010474765E-02 
1615	 2.62251818683613E-02 
1616	 2.50226956421021E-02 
1617	 0.026914004941827 
1618	 2.85210143505678E-02 
1619	 2.73692221584617E-02 
1620	 2.71466874432591E-02 
1621	 2.73573879060438E-02 
1622	 2.61032542573797E-02 
1623	 2.48389582630208E-02 
1624	 2.53936525496658E-02 
1625	 0.026964559623437 
1626	 2.72559661245364E-02 
1627	 2.71070448859372E-02 
1628	 0.02787476457283 
1629	 0.028648208850794 
1630	 0.026913500439765 
1631	 2.50790706359885E-02 
1632	 0.025876798392128 
1633	 2.57392123080754E-02 
1634	 2.51339500899647E-02 
1635	 2.74266194112167E-02 
1636	 2.85096044263192E-02 
1637	 2.55027659940922E-02 
1638	 2.46162844797048E-02 
1639	 2.59325337702796E-02 
1640	 2.56568965494977E-02 
1641	 0.025223605419496 
1642	 2.52863741872864E-02 
1643	 2.56376388877297E-02 
1644	 2.52625467723332E-02 
1645	 2.53142180160369E-02 
1646	 2.62540530179881E-02 
1647	 0.024912327649331 
1648	 2.31637730261506E-02 
1649	 2.30142722613776E-02 
1650	 2.30041785280016E-02 
1651	 2.39298102898755E-02 
1652	 2.48186024619431E-02 
1653	 2.55121194457488E-02 
1654	 2.58120704240605E-02 
1655	 2.42068806538228E-02 
1656	 0.024394226473676 
1657	 2.62051237740859E-02 
1658	 0.02682544451489 
1659	 2.74343168562363E-02 
1660	 2.70422077218565E-02 
1661	 2.58236583793687E-02 
1662	 0.02621360711456 
1663	 2.69990854218114E-02 
1664	 2.67074426880255E-02 
1665	 2.63508531469862E-02 
1666	 2.59606819031365E-02 
1667	 2.45381362954091E-02 
1668	 2.62506215756035E-02 
1669	 2.58739332951474E-02 
1670	 2.35132095723563E-02 
1671	 2.28302727746712E-02 
1672	 2.24707642241063E-02 
1673	 2.27298417493501E-02 
1674	 2.41682828652412E-02 
1675	 2.45684227177461E-02 
1676	 2.40570854955998E-02 
1677	 2.51330245986253E-02 
1678	 2.53476321649491E-02 
1679	 2.42586434384193E-02 
1680	 2.52027023196917E-02 
1681	 2.58162795826732E-02 
1682	 2.52296749836192E-02 
1683	 2.55397178051978E-02 
1684	 2.50186745055287E-02 
1685	 0.024051177718156 
1686	 2.40337610401502E-02 
1687	 2.41963894717449E-02 
1688	 2.53466365897418E-02 
1689	 2.56516739296462E-02 
1690	 2.45687686086347E-02 
1691	 2.51939837270123E-02 
1692	 2.46751982664784E-02 
1693	 2.24075036109559E-02 
1694	 2.17597545241442E-02 
1695	 2.38965491163691E-02 
1696	 2.63321369862145E-02 
1697	 2.60290896828079E-02 
1698	 2.63425031024358E-02 
1699	 2.68364633949686E-02 
1700	 2.64984559219277E-02 
1701	 2.77804596899712E-02 
1702	 2.90763044364691E-02 
1703	 2.75091273303494E-02 
1704	 2.46572219936616E-02 
1705	 2.56854326387065E-02 
1706	 2.81081929588199E-02 
1707	 2.77940375861274E-02 
1708	 2.78361489930193E-02 
1709	 2.81247837774077E-02 
1710	 2.62773324106679E-02 
1711	 2.66192945360486E-02 
1712	 2.94210690650869E-02 
1713	 2.54631419266779E-02 
1714	 2.61276138034894E-02 
1715	 3.04611038626437E-02 
1716	 2.85402046097425E-02 
1717	 2.54769958017794E-02 
1718	 2.42794165255046E-02 
1719	 2.27594556467513E-02 
1720	 2.03855545392536E-02 
1721	 2.20411744668477E-02 
1722	 2.40995711955657E-02 
1723	 2.31778270137271E-02 
1724	 2.39140433930548E-02 
1725	 2.62308795751336E-02 
1726	 0.025877639229345 
1727	 2.35634690661254E-02 
1728	 2.34247550558063E-02 
1729	 2.34968815044011E-02 
1730	 2.31764667027512E-02 
1731	 2.51624301330062E-02 
1732	 0.026187868969732 
1733	 2.70278208942837E-02 
1734	 2.80112492331856E-02 
1735	 2.63487402913659E-02 
1736	 2.46188805628006E-02 
1737	 2.46030570200808E-02 
1738	 2.53741052715689E-02 
1739	 2.56236193804923E-02 
1740	 2.53386888946773E-02 
1741	 2.63763977725169E-02 
1742	 2.72138084772906E-02 
1743	 2.60991555923152E-02 
1744	 2.60585813418703E-02 
1745	 0.028488007237418 
1746	 2.92155972762313E-02 
1747	 2.83819245624799E-02 
1748	 2.63258334843999E-02 
1749	 2.61579085524588E-02 
1750	 2.61623653910688E-02 
1751	 2.50964441437372E-02 
1752	 2.57510835106239E-02 
1753	 0.025713028720756 
1754	 0.023144628739356 
1755	 2.12385780957843E-02 
1756	 2.03681092567491E-02 
1757	 1.90909939183423E-02 
1758	 1.72735583990819E-02 
1759	 1.91243006051459E-02 
1760	 2.43151531647218E-02 
1761	 2.47711680306532E-02 
1762	 2.57769166871422E-02 
1763	 2.67131401216087E-02 
1764	 2.27112641459229E-02 
1765	 2.36132083223046E-02 
1766	 2.27259169790507E-02 
1767	 0.018051591063264 
1768	 2.07212540057525E-02 
1769	 2.73244653632666E-02 
1770	 2.80080772783021E-02 
1771	 2.35583586600313E-02 
1772	 2.20993943229225E-02 
1773	 1.30508584600645E-02 
1774	 8.15647245405064E-03 
1775	 2.30565541761703E-02 
1776	 2.48502460913398E-02 
1777	 1.87494935163566E-02 
1778	 2.10637297552678E-02 
1779	 2.25127761893601E-02 
1780	 2.13677641175245E-02 
1781	 2.80759385729615E-02 
1782	 0.028723913390898 
1783	 1.68992577184817E-02 
1784	 1.84271782224065E-02 
1785	 3.05738636426834E-02 
1786	 0.034072731393142 
1787	 3.89197709621667E-02 
1788	 0.035282171021147 
1789	 1.68733170917496E-02 
1790	 1.54381743132206E-02 
1791	 2.23313827354368E-02 
1792	 4.22343343096174E-02 
1793	 5.47947691319307E-02 
1794	 4.41590840104091E-02 
1795	 3.38983874738955E-02 
1796	 8.11363987402365E-03 
1797	 1.52280341195909E-02 
1798	 8.77541496612288E-02 
1799	 0.124015571683242 
1800	 0.068066568062971 
1801	 4.64450187989632E-02 
1802	-0.11611385739141 
1803	-0.185586854177847 
1804	-4.56446575260435E-02 
1805	 3.01779443733018E-02 
1806	 0.181414804589513 
1807	 0.203782332479379 
1808	 0.081721469258648 
1809	 2.95722712939923E-02 
1810	-0.663692951064319 
1811	-0.939129952414221 
1812	 7.03232756521867E-02 
1813	 0.236855729591933 
1814	 0.413764280258094 
1815	 0.614314724472978 
1816	 0.611001488808266 
1817	 0.675091798422182 
1818	 0.36604272442743 
1819	-0.453208682339738 
1820	-3.82559985013161 
1821	 1.47301749243428 
1822	 0.916572295474989 
1823	 2.23762426208432 
1824	 1.27607734187901 
1825	-0.258813776356879 
1826	-0.263486456382125 
1827	-0.557725096945396 
1828	-0.53125150828054 
1829	 0.553324208722419 
1830	 0.865933700856667 
1831	 0.240907549577679 
1832	-0.761181039885061 
1833	-1.95193437571739 
1834	-2.36877945706254 
1835	-2.16202213447195 
1836	 2.17283813488167 
1837	 0.737484501593909 
1838	 0.505317351530461 
1839	 0.79243883766527 
1840	 0.593503822261659 
1841	 5.73689195676975E-02 
1842	-0.145728679933528 
1843	-0.378544326394118 
1844	-0.699250273815646 
1845	-0.561489579246866 
1846	 7.57883159115861E-04 
1847	 3.04430192088688E-02 
1848	-3.07009214991304E-02 
1849	 7.31338300441621 
1850	 0.135707613476268 
1851	 0.081935979075361 
1852	-0.101891724168959 
1853	-0.393051788992126 
1854	-0.991233386061834 
1855	 1.90291697517684 
1856	 2.30682612821706 
1857	-1.42226938615032 
1858	-1.38303281436893 
1859	-1.39505441194608 
1860	-1.28773129867516 
1861	-1.33119781269968 
1862	-1.38401039414492 
1863	-2.37964207410522 
1864	-2.89011554187413 
1865	-2.73966702406885 
1866	-4.01176950805875 
1867	-6.00763913352189 
1868	-5.03890976144557E-03 
1869	 1.60779643130555 
1870	 5.01462669225855 
1871	 10.2013751739039 
1872	 5.31230653563432 
1873	-4.36427710171084 
1874	-3.72051565700683E-02 
1875	 0.583862229363483 
1876	 0.472570635511062 
1877	-0.354835397366261 
1878	-1.06737514893678 
1879	-3.24275218992575 
1880	-4.31029171764251 
1881	-5.51303736316921 
1882	-24.5811136239099 
1883	-28.0292823726098 
1884	 25.808812823185 
1885	 5.92285640597 
1886	 3.19194529172439 
1887	 12.5281794807989 
1888	-2.50209720245924 
1889	-1.68887137190115 
1890	-2.5501466082051 
1891	-4.64992112049519 
1892	 2.06638100119683 
1893	 1.41840279972909 
1894	 1.6516399540074 
1895	 1.62182036730159 
1896	 53.1509535311981 
1897	-6.45668189311262 
1898	-1.90270730624139 
1899	-0.46989576799678 
1900	-0.425216229681152 
1901	-1.04282908069553 
1902	-1.35828611202502 
1903	-2.76450500074424 
1904	-2.33244144719907 
1905	-2.43883171965323 
1906	-4.46874914909245 
1907	-3.16126699509076 
1908	-2.5527062880502 
1909	-4.88489910668525 
1910	-5.64570833339971 
1911	-5.65713428004971 
1912	 24.1596007944989 
1913	 6.8113757474094 
1914	 21.445718101285 
1915	-53.6496617143239 
1916	-75.7288473429199 
1917	 6.7468273618102 
1918	-4.48306524328789 
1919	 16.3375865824478 
1920	 1.4214861452475 
1921	-2.80363238873334 
1922	-8.34753854398839 
1923	 6.73315874172667 
1924	-2.32463574348538 
1925	-0.223387804899286 
1926	 0.269567366026221 
1927	-0.747908973857315 
1928	 2.1094586859565 
1929	 2.43559628012535 
1930	 1.97303309410602 
1931	 58.3205448107514 
1932	-2.03802950988804 
1933	-1.31411171854426 
1934	-0.788881662750206 
1935	-0.692917871013879 
1936	-1.41119292783608 
1937	-1.26781989645707 
1938	-0.682095113773914 
1939	-0.42522664344819 
1940	 4.10543726841052E-02 
1941	 0.459323387660358 
1942	 0.117689704593353 
1943	-0.41115892833389 
1944	 0.342927041220843 
1945	-0.92649469326386 
1946	-0.563168766855687 
1947	-0.284296490185097 
1948	-0.106475947945382 
1949	 1.37214902498659 
1950	-12.258664638827 
1951	 6.11611616153123 
1952	 2.05699055004171 
1953	 0.94766989287972 
1954	-1.60205199847446E-02 
1955	-0.404560589636074 
1956	-0.384920939248681 
1957	-0.574120060782481 
1958	-0.34619854770619 
1959	-6.30547069968471E-02 
1960	 8.75982036723536E-02 
1961	 0.228669799455447 
1962	 0.300344035228418 
1963	 0.262217714913971 
1964	 0.113349988882464 
1965	 4.24158141892779E-03 
1966	-2.20725345896472E-02 
1967	-1.73082105352094E-02 
1968	-2.98605992798888E-03 
1969	 1.54861157466495E-03 
1970	 2.22211158425929E-02 
1971	 4.39326546325819E-02 
1972	 7.25651267398462E-02 
1973	 8.66878803185426E-02 
1974	 7.98586570972997E-02 
1975	 7.90698719655119E-02 
1976	 4.43366690892586E-02 
1977	 2.11542088610579E-02 
1978	 3.48952926791017E-02 
1979	 3.67332462348327E-02 
1980	 2.52240509627383E-02 
1981	 3.40069990092761E-02 
1982	 5.60025395716194E-02 
1983	 0.048562643993424 
1984	 4.35743210533189E-02 
1985	 4.38229081210659E-02 
1986	 4.75870265097953E-02 
1987	 5.02297532089351E-02 
1988	 4.30605608041228E-02 
1989	 0.045655169122277 
1990	 3.43843116915152E-02 
1991	 0.025874415832101 
1992	 3.93296782628325E-02 
1993	 3.84410392976955E-02 
1994	 4.15633288802457E-02 
1995	 4.61309439412435E-02 
1996	 0.058782669628474 
1997	 6.96858901171396E-02 
1998	 9.11727641254217E-02 
1999	 7.95649533366354E-02 
2000	 7.57238075560097E-02 
2001	 0.100155574483648 
2002	 7.27724458163501E-02 
2003	 7.07010752630283E-02 
2004	 9.08878441069148E-02 
2005	 4.57771683707075E-02 
2006	 1.45554268246765E-02 
2007	 4.98869089347371E-02 
2008	 8.90698099447491E-02 
2009	 9.99226227370371E-02 
2010	 0.110746353669351 
2011	 0.119541261579332 
2012	 0.114996836599554 
2013	 0.08718876439664 
2014	 0.086138096825146 
2015	 7.10426398339881E-02 
2016	 0.042770832052942 
2017	 3.10705723233451E-02 
2018	 4.05888669512881E-02 
2019	 4.67378423246672E-02 
2020	 0.04176672696596 
2021	 2.65037056244707E-02 
2022	 5.67428109864818E-03 
2023	-4.57127430544916E-03 
2024	-7.8650161785888E-03 
2025	 9.99032035419052E-04 
2026	 5.75365091432693E-03 
2027	 1.16494679163137E-02 
2028	 1.51102023970884E-02 
2029	 0.013495690607835 
2030	 7.68875747694285E-03 
2031	 1.30021446270643E-02 
2032	 1.65500530201706E-02 
2033	 2.75020339944419E-02 
2034	 4.16905793393613E-02 
2035	 3.73407364275638E-02 
2036	 2.83278621790141E-02 
2037	 0.028816140370802 
2038	 2.62979677899669E-02 
2039	 2.55082908783748E-02 
2040	 3.61099477779341E-02 
2041	 3.79890993571431E-02 
2042	 3.42413675355622E-02 
2043	 2.96489366273172E-02 
2044	 2.34368273017478E-02 
2045	 1.07219796638892E-02 
2046	 5.46984686025079E-03 
2047	 6.64528538155674E-03 
2048	 1.23013808587479E-02 
2049	 2.44362462409252E-02 
2050	 2.59789414848022E-02 
2051	 1.69024099951443E-02 
2052	 1.71447174785152E-02 
2053	 1.36771442270371E-02 
2054	 1.65374117315067E-02 
2055	 2.81271553326682E-02 
2056	 0.031999423650709 
2057	 3.50080905155913E-02 
2058	 3.29376480905865E-02 
2059	 2.09621792811847E-02 
2060	 0.015006162258869 
2061	 3.25999247926099E-03 
2062	 4.75430693306463E-03 
2063	 1.74463925991485E-02 
2064	 1.94108645531351E-02 
2065	 2.56638710480832E-02 
2066	 2.83730236651029E-02 
2067	 1.68267832592104E-02 
2068	 1.61093561563564E-02 
2069	 8.34132430120936E-03 
2070	 1.32889428388182E-03 
2071	 1.55708687124784E-02 
2072	 2.21464609861685E-02 
2073	 2.64342730082815E-02 
2074	 3.84083795236508E-02 
2075	 4.23554026897977E-02 
2076	 3.78771958514333E-02 
2077	 3.56247056535675E-02 
2078	 3.14327044032531E-02 
2079	 3.12372422399819E-02 
2080	 3.13914332664078E-02 
2081	 2.80543576232737E-02 
2082	 3.16148723448264E-02 
2083	 3.41014797063375E-02 
2084	 0.028981503328607 
2085	 0.025894146700242 
2086	 2.73184137213089E-02 
2087	 2.88767776081034E-02 
2088	 2.64643432118324E-02 
2089	 2.80988137817035E-02 
2090	 2.58879494291723E-02 
2091	 2.16966497648252E-02 
2092	 2.30688246618352E-02 
2093	 2.87320227690763E-02 
2094	 2.97590694230818E-02 
2095	 3.46779367103591E-02 
2096	 3.59474199566309E-02 
2097	 3.38033582411419E-02 
2098	 3.22229168620415E-02 
2099	 2.89806960376471E-02 
2100	 2.60845082225003E-02 
2101	 2.70227648610046E-02 
2102	 2.12694551621005E-02 
2103	 1.84018849330758E-02 
2104	 1.89788383115164E-02 
2105	 1.79817236431476E-02 
2106	 2.26786435785809E-02 
2107	 3.00043942041453E-02 
2108	 0.028613519297848 
2109	 2.91644772616389E-02 
2110	 0.030605257319334 
2111	 3.14542846026873E-02 
2112	 3.29048934305569E-02 
2113	 2.99262655673745E-02 
2114	 1.94640071700093E-02 
2115	 1.55034171892422E-02 
2116	 1.42520944675915E-02 
2117	 1.09392330230908E-02 
2118	 3.72852691504072E-03 
2119	 4.07764966967446E-03 
2120	 8.23411726838876E-03 
2121	 9.15292018528423E-03 
2122	 1.82301020094086E-02 
2123	 3.14987028505995E-02 
2124	 3.25362548652302E-02 
2125	 3.54260406366178E-02 
2126	 3.30308497187045E-02 
2127	 2.62368785648306E-02 
2128	 2.49701373328255E-02 
2129	 2.27792356960858E-02 
2130	 2.24656483975992E-02 
2131	 2.22104155410362E-02 
2132	 0.024753481240366 
2133	 0.026974080312019 
2134	 2.68497363227621E-02 
2135	 0.025211025391497 
2136	 2.75376984276366E-02 
2137	 2.77813592560112E-02 
2138	 3.22720904856063E-02 
2139	 4.90990081724091E-02 
2140	 5.13527821749071E-02 
2141	 0.044120909547671 
2142	 4.18238261625897E-02 
2143	 3.56045846040126E-02 
2144	 0.027228157376951 
2145	 2.74873470062542E-02 
2146	 0.028179655210188 
2147	 2.48006343066173E-02 
2148	 2.32660078145818E-02 
2149	 2.42052930543491E-02 
2150	 3.85651851546659E-02 
2151	 5.07346152054453E-02 
2152	 0.053410090410396 
2153	 4.93137709611123E-02 
2154	 3.94224275291639E-02 
2155	 3.31721480209895E-02 
2156	 2.25244012271491E-02 
2157	 1.67304906514069E-02 
2158	 1.52732235005667E-02 
2159	 0.015773930005058 
2160	 1.93873657966179E-02 
2161	 2.15714368984295E-02 
2162	 0.026841867004199 
2163	 3.09592154504477E-02 
2164	 3.68025184822576E-02 
2165	 0.035561813393798 
2166	 2.50232986578791E-02 
2167	 2.27587637827415E-02 
2168	 2.07812962638888E-02 
2169	 1.84535113370161E-02 
2170	 1.65583263278684E-02 
2171	 3.00948361400733E-02 
2172	 4.08207870963958E-02 
2173	 3.91552066445638E-02 
2174	 5.45620062425135E-02 
2175	 6.40026213261451E-02 
2176	 5.84278443044859E-02 
2177	 0.058917584453967 
2178	 4.99295926400661E-02 
2179	 4.84399199939178E-02 
2180	 5.38435330430074E-02 
2181	 5.00437639528065E-02 
2182	 5.32161784502866E-02 
2183	 5.28919152242668E-02 
2184	 4.83859332658334E-02 
2185	 0.05432534978622 
2186	 0.047045811768338 
2187	 2.19116711164115E-02 
2188	 1.85254077038928E-02 
2189	 2.13432080921347E-02 
2190	 1.72509453776062E-02 
2191	 2.45650174335897E-02 
2192	 0.02615793387231 
2193	 0.010135021130151 
2194	 1.40816706246837E-02 
2195	 4.38579532010396E-02 
2196	 0.050944617027171 
2197	 5.53881746349385E-02 
2198	 5.42258157532065E-02 
2199	 0.038277675101903 
2200	 1.28472446865202E-02 
2201	 0.010373906654887 
2202	 1.86039613569617E-02 
2203	 2.22500064756565E-02 
2204	 3.66362873676211E-02 
2205	 5.63767208447447E-02 
2206	 0.06023207002371 
2207	 0.068313703214169 
2208	 6.81992774930637E-02 
2209	 5.40642471159227E-02 
2210	 4.51143118351727E-02 
2211	 3.19764729669655E-02 
2212	 2.60713929761497E-02 
2213	 2.34841109448627E-02 
2214	 1.57923440383055E-02 
2215	 0.023508009696226 
2216	 3.76815018316073E-02 
2217	 4.35020599508888E-02 
2218	 4.99556505126191E-02 
2219	 5.54251340777045E-02 
2220	 5.70606608940826E-02 
2221	 0.05768747068692 
2222	 5.72819696818562E-02 
2223	 5.74169867889022E-02 
2224	 4.85278529656396E-02 
2225	 4.93004266746789E-02 
2226	 6.62299983699215E-02 
2227	 7.30054255001649E-02 
2228	 7.96444992565581E-02 
2229	 8.02942476377909E-02 
2230	 7.33352496648381E-02 
2231	 6.23266509035679E-02 
2232	 4.24729455928391E-02 
2233	 3.00671554997109E-02 
2234	 1.68456821071392E-02 
2235	-5.78089764582515E-04 
2236	-3.75260031053271E-04 
2237	 1.61395992253178E-02 
2238	 2.78898312456435E-02 
2239	 0.031393251020194 
2240	 3.65495769863883E-02 
2241	 3.80718877649789E-02 
2242	 0.036321293042789 
2243	 5.75800319126834E-02 
2244	 7.41372421052085E-02 
2245	 8.26165942142894E-02 
2246	 8.96545609554053E-02 
2247	 7.47644119418014E-02 
2248	 6.63488768583393E-02 
2249	 5.77868510972768E-02 
2250	 3.42785460815327E-02 
2251	 2.93329239661539E-02 
2252	 4.22589348620228E-02 
2253	 4.79624237416482E-02 
2254	 4.92214701834643E-02 
2255	 6.58057520620482E-02 
2256	 6.39756380955798E-02 
2257	 5.05005932367973E-02 
2258	 6.92705058035284E-02 
2259	 8.29975070294904E-02 
2260	 9.12707946500717E-02 
2261	 9.95604960798914E-02 
2262	 0.103982229863394 
2263	 0.106064388261916 
2264	 0.103077996020795 
2265	 9.20611167153686E-02 
2266	 8.93405384131327E-02 
2267	 8.84718824361816E-02 
2268	 7.46850565086925E-02 
2269	 6.21975616903391E-02 
2270	 4.10917213532802E-02 
2271	-5.14919415327659E-03 
2272	-2.81653338386716E-02 
2273	-5.24577711201657E-02 
2274	-4.96788542127517E-02 
2275	-9.11255716787524E-03 
2276	-2.34560705549529E-03 
2277	-1.67065130664522E-03 
2278	 1.26881142268935E-02 
2279	 1.82385882889181E-02 
2280	 2.44324450640941E-02 
2281	 4.27512050521767E-02 
2282	 7.08116580182298E-02 
2283	 7.24392616118985E-02 
2284	 6.52322227713936E-02 
2285	 9.20114124231526E-02 
2286	 9.17185579354085E-02 
2287	 5.97488858042617E-02 
2288	 6.00588059409403E-02 
2289	 4.67853329782311E-02 
2290	 2.84293531167848E-02 
2291	 5.23986541372821E-02 
2292	 6.94736315266842E-02 
2293	 5.05812973287941E-02 
2294	 3.89028167991947E-02 
2295	 3.02918521062843E-02 
2296	 5.14231927261938E-03 
2297	-1.14328121213539E-03 
2298	 0.01486647083814 
2299	 1.47725852125137E-02 
2300	 1.85242771208877E-02 
2301	 2.75343992334266E-02 
2302	 0.022524734174723 
2303	 6.34474470131906E-02 
2304	 8.73322009926083E-02 
2305	 7.18979017516926E-02 
2306	 0.104668537591 
2307	 8.16564280931163E-02 
2308	 5.04322946446673E-02 
2309	 6.54780344763943E-02 
2310	 0.031388125177686 
2311	 3.96594785471381E-03 
2312	 1.51226251324339E-02 
2313	 4.32864035058275E-02 
2314	 6.36123430805421E-02 
2315	 9.17123659557634E-02 
2316	 0.106373529127513 
2317	 7.07410836574333E-02 
2318	 6.52761531521056E-02 
2319	 8.67633686710513E-02 
2320	 0.119488633709278 
2321	 0.153430227887752 
2322	 0.173271488684941 
2323	 0.142188523211666 
2324	 8.27630559819306E-02 
2325	 9.54277666108167E-02 
2326	 0.106930276802 
2327	 0.116683753080905 
2328	 0.14525768803769 
2329	 0.109442135748423 
2330	 0.102848658136004 
2331	 0.119242039985785 
2332	 9.98882438689385E-02 
2333	 9.00199730239695E-02 
2334	 8.09034403356086E-02 
2335	 6.56423179524269E-02 
2336	 4.08444138082001E-02 
2337	 8.86450010449343E-02 
2338	 0.133395413583068 
2339	 0.151196702047983 
2340	 0.260413155156222 
2341	 0.263240842409776 
2342	 0.167162265411254 
2343	 0.167848503445931 
2344	 0.12945077857853 
2345	 0.125227450719742 
2346	 0.171846922126365 
2347	 0.101964271450642 
2348	 4.73482171767127E-03 
2349	-1.89082905857485E-02 
2350	-2.49804506500451E-02 
2351	 0.041308314751783 
2352	 5.74884296471869E-02 
2353	 0.068329698234662 
2354	 5.87715158569903E-02 
2355	-8.92273100376299E-02 
2356	-7.75145913099567E-02 
2357	-8.15240748875706E-02 
2358	-6.81343322197679E-02 
2359	 2.03857150350939E-02 
2360	 4.65915266984576E-03 
2361	-7.97098695944843E-02 
2362	-0.140415480866686 
2363	-0.160911007014316 
2364	-0.101541261224091 
2365	 6.39575299782946E-02 
2366	-6.0421842033628E-03 
2367	-0.182066046904856 
2368	-0.153588912919223 
2369	-0.695034697884189 
2370	-2.38925811694955 
2371	-0.346795214306663 
2372	-0.409107532271954 
2373	-0.439087891808638 
2374	 0.506461615974853 
2375	 0.745841236233166 
2376	 0.900456215715122 
2377	 1.46092117104822 
2378	 0.689805620456633 
2379	-0.026381407649535 
2380	-0.218890896039569 
2381	-0.110243893113999 
2382	 4.14496804438947E-02 
2383	 6.18462437577154E-02 
2384	 2.26743402392402E-02 
2385	-0.150748977979811 
2386	-0.162688522384975 
2387	 2.14313773341512E-02 
2388	 0.287406702841368 
2389	 0.399333100316702 
2390	 0.299078890890056 
2391	 0.285223659678603 
2392	 0.208170308563244 
2393	 0.108815293227333 
2394	-1.05165104585077E-02 
2395	-0.170312325986386 
2396	-5.62455614077321E-02 
2397	 0.122603860142228 
2398	 7.62638728143181E-02 
2399	-0.139681897883583 
2400	-0.164163074188844 
2401	-0.160011651299897 
2402	-0.13698296954947 
2403	 0.245849147343301 
2404	 0.535064028690235 
2405	-7.86684419710298E-02 
2406	-0.299776831805605 
2407	-4.06955969915841E-02 
2408	 9.00468658963284E-02 
2409	 0.326086732818287 
2410	 0.454773646047016 
2411	-1.43354188348391E-02 
2412	-0.188282499786579 
2413	-0.39842836636983 
2414	-0.148665303729509 
2415	 0.209739328291797 
2416	 0.62389239817604 
2417	 1.27499398539975 
2418	 4.74958309968055 
2419	 8.89114133957817 
2420	 13.6843398873484 
2421	 10.0303798454775 
2422	 4.80391908658314 
2423	 1.86923442873828 
2424	 1.15154444731649 
2425	 1.50823823589598 
2426	 3.22125147375194 
2427	-0.686883679715772 
2428	-0.242797022830371 
2429	-0.352981682378716 
2430	-0.394648950422508 
2431	 0.249340071841114 
2432	 0.410008575484561 
2433	 0.204389181072843 
2434	 0.483705407057676 
2435	 0.781941420608249 
2436	 1.63181297014089 
2437	-4.37075372548488 
2438	 10.4967530944619 
2439	 0.259670619326031 
2440	-1.13371723239325 
2441	-1.07161005843733 
2442	-0.659958478158498 
2443	-0.274282968615466 
2444	-0.488389026254763 
2445	-0.888873805894246 
2446	 8.74182510795163E-03 
2447	 3.79492663560302E-02 
2448	 0.164912204666005 
2449	 3.00191784877275 
2450	-2.79740365338257 
2451	-0.475965659716065 
2452	 3.83629987636609E-02 
2453	-5.35502798348136 
2454	 9.50996994133324 
2455	-27.9205098560197 
2456	-0.65035469055798 
2457	-2.02664554403938 
2458	-2.06568818785433 
2459	-1.37365919383249 
2460	-6.46675143002589 
2461	 28.1361433965579 
2462	-1.74827940280626 
2463	-39.1537528668731 
2464	-1.56857675828659 
2465	-0.153867065119627 
2466	-7.81844586603007 
2467	 0.572327638636268 
2468	 0.600650557079514 
2469	 0.933260268818973 
2470	 0.65632731999528 
2471	 0.17141251940145 
2472	 3.61076371111415E-02 
2473	 1.032055633078 
2474	-1.64286792428931 
2475	-1.89519201689176 
2476	-3.79078795614041 
2477	-1.8923158802642 
2478	-1.19219646378799 
2479	-1.42149572321934 
2480	-1.50445922113351 
2481	-1.58842293280808 
2482	-5.0951510182442 
2483	-10.2130980619643 
2484	 0.912149391873873 
2485	-0.50630962906806 
2486	 0.126668202156966 
2487	 0.179261195991961 
2488	 0.586794334826725 
2489	 0.911050290124703 
2490	 0.570053519491243 
2491	 0.330414726071895 
2492	 0.381592404852951 
2493	 0.198091218049304 
2494	 0.527074075661463 
2495	 0.545724222761731 
2496	 0.516038841678028 
2497	-0.998167772748328 
2498	-6.8802503390995 
2499	 3.7297966226851 
2500	 3.5634327723729 
