Wavelength	rt0629dirt00002.asd
350	 9.48863802165213E-02 
351	 9.66670263491288E-02 
352	 9.61364281177779E-02 
353	 9.59525454538607E-02 
354	 9.72132091590183E-02 
355	 9.54186998348824E-02 
356	 9.44172794215022E-02 
357	 9.50389668117936E-02 
358	 9.66447818421065E-02 
359	 9.71478823756156E-02 
360	 9.66207338062792E-02 
361	 9.60261433896615E-02 
362	 9.66577185475412E-02 
363	 9.74084334977418E-02 
364	 9.76901479258319E-02 
365	 9.74011687721942E-02 
366	 9.70136533738807E-02 
367	 9.72145248368175E-02 
368	 9.77957186287676E-02 
369	 9.83586517410958E-02 
370	 0.098917256826028 
371	 0.099220603375578 
372	 9.92389758850741E-02 
373	 9.91353061972228E-02 
374	 9.93371956521453E-02 
375	 9.95445008534797E-02 
376	 0.099809094940283 
377	 0.10075417695749 
378	 0.101260050111936 
379	 0.101408075342516 
380	 0.101555591866489 
381	 0.101860694814325 
382	 0.102427098822863 
383	 0.103186074019436 
384	 0.103987903361697 
385	 0.104935945111889 
386	 0.105426719967003 
387	 0.105291225773744 
388	 0.10493956666458 
389	 0.105968472913847 
390	 0.106988701929389 
391	 0.107126816577986 
392	 0.108374335898929 
393	 0.108183173425395 
394	 0.107802847926802 
395	 0.109085488230886 
396	 0.109058313954652 
397	 0.109402301878996 
398	 0.110331396148985 
399	 0.110637619307942 
400	 0.110812754059705 
401	 0.110818299235791 
402	 0.110848268862675 
403	 0.111921245379472 
404	 0.112195633447005 
405	 0.112136598717297 
406	 0.112809908456597 
407	 0.113294193668695 
408	 0.113623353017614 
409	 0.114012075685547 
410	 0.114750021383583 
411	 0.115035110819655 
412	 0.115267148558371 
413	 0.11585355656179 
414	 0.116775805812168 
415	 0.117042073639963 
416	 0.117156104784151 
417	 0.117988642500375 
418	 0.118452440014399 
419	 0.119009164927254 
420	 0.119737232231224 
421	 0.120208866904502 
422	 0.120821162704993 
423	 0.121586354221296 
424	 0.122425044959182 
425	 0.123250958238675 
426	 0.124052471101678 
427	 0.12478798559615 
428	 0.125462578979521 
429	 0.126465158412426 
430	 0.12750881329416 
431	 0.128449356180428 
432	 0.129392130362462 
433	 0.130124842728508 
434	 0.130847898096239 
435	 0.131741779771131 
436	 0.132662591697821 
437	 0.133579655378464 
438	 0.13441575887707 
439	 0.135122931907875 
440	 0.136119582451072 
441	 0.137052550181644 
442	 0.137801838869377 
443	 0.138712140364803 
444	 0.139561857717999 
445	 0.140366562037892 
446	 0.141123764178834 
447	 0.141454042210786 
448	 0.142192887583793 
449	 0.143223262995937 
450	 0.143768525883816 
451	 0.144360488610164 
452	 0.144854408029672 
453	 0.145238691757718 
454	 0.145971222723728 
455	 0.146648085714144 
456	 0.147185109516115 
457	 0.147630513115075 
458	 0.148055574467281 
459	 0.148595075328755 
460	 0.149203729065711 
461	 0.149650656960196 
462	 0.14979412234908 
463	 0.15010889947563 
464	 0.150848190990425 
465	 0.151331476618392 
466	 0.151733907348087 
467	 0.152147143929113 
468	 0.152629307462498 
469	 0.153162517546424 
470	 0.153712086959173 
471	 0.154195913896194 
472	 0.154470098529197 
473	 0.154961313961933 
474	 0.155503458729376 
475	 0.155931037984758 
476	 0.156719760212348 
477	 0.157220960675775 
478	 0.157609145010369 
479	 0.158526730555946 
480	 0.158953544681142 
481	 0.159442419974568 
482	 0.160286599511831 
483	 0.160803936402165 
484	 0.161580527570587 
485	 0.162458240568414 
486	 0.163125518318221 
487	 0.164005009804011 
488	 0.164862285147805 
489	 0.165641936836063 
490	 0.166492272470795 
491	 0.16733246877433 
492	 0.168079723608174 
493	 0.168749652534346 
494	 0.169634170397268 
495	 0.17055520728203 
496	 0.171528093980643 
497	 0.172631883833978 
498	 0.17370093097997 
499	 0.174452250275932 
500	 0.175076698292476 
501	 0.17650281353636 
502	 0.177556064098606 
503	 0.178443093519924 
504	 0.179562985359857 
505	 0.180284609101062 
506	 0.181430679432075 
507	 0.182874765552705 
508	 0.183776358543894 
509	 0.184813644346719 
510	 0.185953436850266 
511	 0.187103118668121 
512	 0.188325621423684 
513	 0.189541402303534 
514	 0.190752780529694 
515	 0.192010235956124 
516	 0.193501175885752 
517	 0.194773454507573 
518	 0.195828287439225 
519	 0.197281639895732 
520	 0.198710129607564 
521	 0.200004901325197 
522	 0.201188671186208 
523	 0.202386953760197 
524	 0.203822600942038 
525	 0.205389668824507 
526	 0.206770331626365 
527	 0.20803373929152 
528	 0.209364332047836 
529	 0.210846928600294 
530	 0.212381722828127 
531	 0.21368185353414 
532	 0.214958493380726 
533	 0.216516070435231 
534	 0.217994562047402 
535	 0.219263504617344 
536	 0.220489943259135 
537	 0.222135334059676 
538	 0.223611839884988 
539	 0.224997314989548 
540	 0.226467422387224 
541	 0.227973513992633 
542	 0.22942828666017 
543	 0.230816176028189 
544	 0.23219567171814 
545	 0.233807393562632 
546	 0.235292403920251 
547	 0.236534124260377 
548	 0.238032705508832 
549	 0.239514133589929 
550	 0.240967134597506 
551	 0.242426231293604 
552	 0.243635598832284 
553	 0.244986455465657 
554	 0.246484522823276 
555	 0.247663733560028 
556	 0.249042551559852 
557	 0.250438817565089 
558	 0.251641241662738 
559	 0.252977579143921 
560	 0.254197176038908 
561	 0.255251898831981 
562	 0.256259011399098 
563	 0.257541403131106 
564	 0.258701280973488 
565	 0.259542911471026 
566	 0.260454334070185 
567	 0.261155538413551 
568	 0.26196171556651 
569	 0.26318844000581 
570	 0.263900068259251 
571	 0.264580451982048 
572	 0.265418794427028 
573	 0.266192066433246 
574	 0.266963361972221 
575	 0.267671499120685 
576	 0.268262538729174 
577	 0.268777933693734 
578	 0.269441236772634 
579	 0.270034775778371 
580	 0.270156198060142 
581	 0.270464121883593 
582	 0.270798383692548 
583	 0.270993264197499 
584	 0.271063772878555 
585	 0.270967211652085 
586	 0.270761115697735 
587	 0.270539132902428 
588	 0.270384937167192 
589	 0.270007204125234 
590	 0.269574081528611 
591	 0.269680212449431 
592	 0.269636456942619 
593	 0.269441348194657 
594	 0.269178941731722 
595	 0.268724150496734 
596	 0.268267176463404 
597	 0.267767647353218 
598	 0.267096676729755 
599	 0.266567053113109 
600	 0.266240804250967 
601	 0.265987465366895 
602	 0.265385033477793 
603	 0.265073545766574 
604	 0.26511017968618 
605	 0.265292111159466 
606	 0.265186499349746 
607	 0.265051212509818 
608	 0.265018278402235 
609	 0.265053152864236 
610	 0.265241343105591 
611	 0.26535916224733 
612	 0.265287168286108 
613	 0.265406467379924 
614	 0.2654002055219 
615	 0.265385126491786 
616	 0.2656389943135 
617	 0.265556162250631 
618	 0.265463861860069 
619	 0.265547992118545 
620	 0.265607088247541 
621	 0.265651488622862 
622	 0.265714214503028 
623	 0.265778124674437 
624	 0.265511428241245 
625	 0.265349976521582 
626	 0.26535123729248 
627	 0.265210312286845 
628	 0.265502811934855 
629	 0.26570696066184 
630	 0.265487849984415 
631	 0.265540282731359 
632	 0.265535402745603 
633	 0.265456558492931 
634	 0.265431176399247 
635	 0.265544884571963 
636	 0.265628084075535 
637	 0.265536934492527 
638	 0.265182229163445 
639	 0.265284941607184 
640	 0.265527791709979 
641	 0.26543009877287 
642	 0.265280806090956 
643	 0.264838146477972 
644	 0.264302602204039 
645	 0.264178119147594 
646	 0.263351843178064 
647	 0.262811734255482 
648	 0.26311265304765 
649	 0.262855867395841 
650	 0.262638951367586 
651	 0.26227037946982 
652	 0.261465708842537 
653	 0.261088858862784 
654	 0.260425784746034 
655	 0.259279206610731 
656	 0.258461782636498 
657	 0.257622437659118 
658	 0.257023627305144 
659	 0.256743601090359 
660	 0.256006637553329 
661	 0.255447913703173 
662	 0.255072884511099 
663	 0.254509159394966 
664	 0.253678674793834 
665	 0.253132452656465 
666	 0.253063218119682 
667	 0.25294749482012 
668	 0.252357001330311 
669	 0.251758567549202 
670	 0.251701726263701 
671	 0.251423911695456 
672	 0.251138470007083 
673	 0.251005480110161 
674	 0.251061393512268 
675	 0.250627360277843 
676	 0.250243424163575 
677	 0.250312630545254 
678	 0.250337934185517 
679	 0.250160671028991 
680	 0.249894667949018 
681	 0.249772169295808 
682	 0.24974934046454 
683	 0.24959455744091 
684	 0.249235379736508 
685	 0.248789047048203 
686	 0.248116572702474 
687	 0.247657035426099 
688	 0.247638932980752 
689	 0.246976672437182 
690	 0.246469860987459 
691	 0.245933477039906 
692	 0.244689800105516 
693	 0.24387811989276 
694	 0.243370409463315 
695	 0.242850262484441 
696	 0.242040629782633 
697	 0.24077346669788 
698	 0.239334221389699 
699	 0.238184819587741 
700	 0.237116390110849 
701	 0.23580590958712 
702	 0.234303850519705 
703	 0.232902361119341 
704	 0.231839237088496 
705	 0.230367470476304 
706	 0.228299214755491 
707	 0.226844781764746 
708	 0.225098820918443 
709	 0.222988267309806 
710	 0.220748816393932 
711	 0.218546418925888 
712	 0.216186376095434 
713	 0.213539921336563 
714	 0.210508002164876 
715	 0.207524540367925 
716	 0.204064824788159 
717	 0.200018350894939 
718	 0.196665990246202 
719	 0.193780901768921 
720	 0.191477118197434 
721	 0.189277146781606 
722	 0.186623466354833 
723	 0.183197850075034 
724	 0.179575674899694 
725	 0.176385310308522 
726	 0.172881008304884 
727	 0.169312137506397 
728	 0.165897271214684 
729	 0.162018190657729 
730	 0.157663033600742 
731	 0.153725569998184 
732	 0.150796896301171 
733	 0.14796313884926 
734	 0.145339680453779 
735	 0.143045301452315 
736	 0.141086551132645 
737	 0.139533380763266 
738	 0.138374727388046 
739	 0.137589124916311 
740	 0.137201244420073 
741	 0.136338777693372 
742	 0.135439322357849 
743	 0.135402793371127 
744	 0.135016479906711 
745	 0.134623619958953 
746	 0.134381044943875 
747	 0.133991966792419 
748	 0.13369322401593 
749	 0.133422189048377 
750	 0.133134561706346 
751	 0.133126038004295 
752	 0.132816063266403 
753	 0.132396987567134 
754	 0.132368971348912 
755	 0.131930895155944 
756	 0.131645823116097 
757	 0.131682880116062 
758	 0.131435661906213 
759	 0.130559606391247 
760	 0.129810406455852 
761	 0.130417593971848 
762	 0.129825371552738 
763	 0.129564572463166 
764	 0.129890828561574 
765	 0.130462396960306 
766	 0.130931822044917 
767	 0.131160017543303 
768	 0.131182187718267 
769	 0.13116443145927 
770	 0.131434178082552 
771	 0.13157674039917 
772	 0.131399248666108 
773	 0.131719706925252 
774	 0.132137604815068 
775	 0.132437043696812 
776	 0.13256053697447 
777	 0.13288926753023 
778	 0.133306628603346 
779	 0.133748408288819 
780	 0.134229627767181 
781	 0.134458888230105 
782	 0.134808668148754 
783	 0.13541951555262 
784	 0.135597789429855 
785	 0.136206203324826 
786	 0.136852433723858 
787	 0.136946541029011 
788	 0.13748986860144 
789	 0.138021612278707 
790	 0.138541888456015 
791	 0.139412574105103 
792	 0.139978361853995 
793	 0.140624498308363 
794	 0.141408540782122 
795	 0.141576348755143 
796	 0.142137843135836 
797	 0.142802449734228 
798	 0.143182653460661 
799	 0.143803213444919 
800	 0.144374688774213 
801	 0.144823710063025 
802	 0.145210886392346 
803	 0.145481384041003 
804	 0.145758819724092 
805	 0.146056197666861 
806	 0.146244315493476 
807	 0.145884068956229 
808	 0.145672561641697 
809	 0.145942652423138 
810	 0.145422824488602 
811	 0.144730787680366 
812	 0.144118348868293 
813	 0.143633846329005 
814	 0.142768220634684 
815	 0.141591064306657 
816	 0.140753640731596 
817	 0.140903558478566 
818	 0.140035843469397 
819	 0.138831646069153 
820	 0.137759835487987 
821	 0.136801215301589 
822	 0.134603531795753 
823	 0.132119194615053 
824	 0.130334737135419 
825	 0.128568404153366 
826	 0.126516034636875 
827	 0.123486271889158 
828	 0.119498813892572 
829	 0.117675193982525 
830	 0.115611816481514 
831	 0.113188987202294 
832	 0.112006130021797 
833	 0.110348842235129 
834	 0.108761111604136 
835	 0.107711695859604 
836	 0.107218688773616 
837	 0.106199249967307 
838	 0.105668475652637 
839	 0.105952520043296 
840	 0.104395291695968 
841	 0.103400552735468 
842	 0.103173095635529 
843	 0.103054477025329 
844	 0.10253598544764 
845	 0.101914698174415 
846	 0.101293268021267 
847	 0.100645426121708 
848	 0.100226156279893 
849	 9.99836673843762E-02 
850	 0.09960057480036 
851	 9.85580120818967E-02 
852	 9.83077508632031E-02 
853	 9.82000008153559E-02 
854	 9.75102115807645E-02 
855	 9.63174528678391E-02 
856	 9.61028042987326E-02 
857	 9.62225679983935E-02 
858	 9.58347878540685E-02 
859	 9.57386755309075E-02 
860	 0.095312127505825 
861	 9.47298912474973E-02 
862	 9.44688655041365E-02 
863	 9.41753379310411E-02 
864	 9.38010862795614E-02 
865	 9.33063144004541E-02 
866	 9.26653985433514E-02 
867	 9.19384837843071E-02 
868	 9.13659949242205E-02 
869	 9.10799037340484E-02 
870	 9.10447032771924E-02 
871	 9.06895644658925E-02 
872	 8.97794841762628E-02 
873	 8.86528202113779E-02 
874	 8.86912355077753E-02 
875	 8.83036299715604E-02 
876	 8.78206109372971E-02 
877	 8.77591104244437E-02 
878	 8.70111304527221E-02 
879	 8.63544812468981E-02 
880	 8.56034756681487E-02 
881	 8.44014212390958E-02 
882	 8.41175195092289E-02 
883	 8.40934693196074E-02 
884	 8.36711321541243E-02 
885	 8.25449033336506E-02 
886	 8.24611885993818E-02 
887	 0.082015279656247 
888	 8.11560770587273E-02 
889	 8.15889407414459E-02 
890	 8.12807273854722E-02 
891	 0.080124114679882 
892	 7.89224468073899E-02 
893	 7.95384528833713E-02 
894	 7.86669885900204E-02 
895	 0.077479337843951 
896	 0.077494541798651 
897	 7.62750199500336E-02 
898	 7.52032289174536E-02 
899	 7.49854191093709E-02 
900	 7.55023869891861E-02 
901	 7.51871404990901E-02 
902	 7.56385016285026E-02 
903	 7.57620106744048E-02 
904	 7.42854575068947E-02 
905	 7.42309134725374E-02 
906	 0.074007501270284 
907	 7.32366884344313E-02 
908	 7.23892652316545E-02 
909	 6.98723970113597E-02 
910	 7.04040425372219E-02 
911	 7.23099874091095E-02 
912	 6.89461571163267E-02 
913	 6.82765782001027E-02 
914	 0.068202466367248 
915	 6.73990671862076E-02 
916	 6.68905687412095E-02 
917	 6.63771947774049E-02 
918	 6.55211771661634E-02 
919	 6.46682435655177E-02 
920	 0.064890637402469 
921	 6.37343253576282E-02 
922	 6.21241393008211E-02 
923	 0.061396028667969 
924	 6.23955237708531E-02 
925	 5.89036607747065E-02 
926	 5.64636199232958E-02 
927	 6.00262094706308E-02 
928	 5.44848756955088E-02 
929	 5.42930212391314E-02 
930	 5.83472313840355E-02 
931	 5.64362312582255E-02 
932	 5.77643662375471E-02 
933	 5.67793099455469E-02 
934	 5.90845382082983E-02 
935	 6.60396820795042E-02 
936	 0.043133622111092 
937	 4.44931652845273E-02 
938	 5.52967853991824E-02 
939	 4.95895984260931E-02 
940	 4.55122754574729E-02 
941	 0.047025089434182 
942	 4.76374936886244E-02 
943	 4.04345420278129E-02 
944	 5.29911883865868E-02 
945	 4.99477534586845E-02 
946	 3.77852112399178E-02 
947	 4.30515933554582E-02 
948	 3.71428900240683E-02 
949	 4.33085865666566E-02 
950	 5.04509344577117E-02 
951	 3.59813883817112E-02 
952	 4.45909167767389E-02 
953	 5.33539523738409E-02 
954	 5.28478943860592E-02 
955	 4.73629067995972E-02 
956	 3.69551157237026E-02 
957	 3.77887910909129E-02 
958	 4.53914186775487E-02 
959	 4.43445382108353E-02 
960	 4.61924767832963E-02 
961	 4.79885800600155E-02 
962	 4.73857089046053E-02 
963	 4.37896020045779E-02 
964	 3.66328923019078E-02 
965	 3.62586450530337E-02 
966	 3.98311293433394E-02 
967	 3.72958112326082E-02 
968	 3.62509233577923E-02 
969	 4.00123054155744E-02 
970	 4.43507669601684E-02 
971	 4.11085648175545E-02 
972	 4.01951878315933E-02 
973	 4.23322176591455E-02 
974	 4.30231548172922E-02 
975	 3.63456002906164E-02 
976	 3.72212020409509E-02 
977	 3.92640367214523E-02 
978	 0.039631866141776 
979	 4.05896375501157E-02 
980	 3.95163153756543E-02 
981	 4.02003722996814E-02 
982	 0.040878875467993 
983	 3.69281479843962E-02 
984	 3.88372744182033E-02 
985	 4.16850545066695E-02 
986	 4.06134033414291E-02 
987	 3.44816057932518E-02 
988	 3.73268039352708E-02 
989	 4.16804800175324E-02 
990	 4.20908796849853E-02 
991	 3.83771192759209E-02 
992	 4.09168627547311E-02 
993	 0.042228991406904 
994	 0.04158941110265 
995	 4.28058763455424E-02 
996	 3.99646130303311E-02 
997	 3.87618733280897E-02 
998	 4.01438032554371E-02 
999	 0.041076553760706 
1000	 3.82228628293103E-02 
1001	 3.70182541433327E-02 
1002	 3.77538824421895E-02 
1003	 3.83098189187196E-02 
1004	 3.85741356185575E-02 
1005	 3.94358134328179E-02 
1006	 4.13251697731531E-02 
1007	 4.09578207449821E-02 
1008	 4.09629739449129E-02 
1009	 4.28178958587504E-02 
1010	 4.35740550668092E-02 
1011	 4.28329990671417E-02 
1012	 4.21590865145799E-02 
1013	 4.13358821858035E-02 
1014	 4.11378930728607E-02 
1015	 4.07267214226505E-02 
1016	 4.10957673198001E-02 
1017	 4.26574686036113E-02 
1018	 4.33954973055611E-02 
1019	 4.41107549372793E-02 
1020	 4.42094199351239E-02 
1021	 4.32611021736236E-02 
1022	 0.043712935524557 
1023	 4.46246129839719E-02 
1024	 4.51165475533214E-02 
1025	 0.045115757958555 
1026	 4.45226474867142E-02 
1027	 4.40210826400211E-02 
1028	 4.17039886486068E-02 
1029	 4.17114018970512E-02 
1030	 4.34143888913696E-02 
1031	 4.39687632124609E-02 
1032	 4.52048246366429E-02 
1033	 0.045283875575122 
1034	 4.37192342653476E-02 
1035	 4.37197689735128E-02 
1036	 4.45952335843069E-02 
1037	 4.44270264102182E-02 
1038	 4.32120509345175E-02 
1039	 4.45607627263372E-02 
1040	 4.46005405060665E-02 
1041	 4.44599607319802E-02 
1042	 4.53107607421708E-02 
1043	 4.78003281422438E-02 
1044	 4.84492730074978E-02 
1045	 4.88741940248424E-02 
1046	 4.86608324156088E-02 
1047	 4.72751079711931E-02 
1048	 4.68888823941318E-02 
1049	 4.60781851412593E-02 
1050	 4.60023839543105E-02 
1051	 4.66183669386346E-02 
1052	 4.72651360532941E-02 
1053	 4.90829239134227E-02 
1054	 4.96400870777748E-02 
1055	 4.95713180421105E-02 
1056	 4.96556569866285E-02 
1057	 4.94349670340733E-02 
1058	 4.80494568151877E-02 
1059	 4.80364339527797E-02 
1060	 4.90522660538663E-02 
1061	 4.89453832497673E-02 
1062	 4.84523199652689E-02 
1063	 4.85179720584163E-02 
1064	 4.79548128466081E-02 
1065	 4.83547794063852E-02 
1066	 5.09420288248572E-02 
1067	 5.10855179556394E-02 
1068	 4.95764152448083E-02 
1069	 4.92238836409993E-02 
1070	 4.73960325404127E-02 
1071	 4.70460154975103E-02 
1072	 4.86342267305852E-02 
1073	 5.04990795308032E-02 
1074	 5.04609463356591E-02 
1075	 4.98822195551046E-02 
1076	 4.90745689478879E-02 
1077	 4.60357684328637E-02 
1078	 4.58199582390788E-02 
1079	 4.76239601337042E-02 
1080	 4.77900894213415E-02 
1081	 0.0484728465129 
1082	 0.048530306712244 
1083	 0.046105626904682 
1084	 4.63595072163119E-02 
1085	 5.02864582123589E-02 
1086	 5.05936304639875E-02 
1087	 4.94292447462416E-02 
1088	 4.89588068842629E-02 
1089	 4.61885802096063E-02 
1090	 4.34571559316086E-02 
1091	 4.32084800481588E-02 
1092	 4.62319801175686E-02 
1093	 4.67194371201959E-02 
1094	 4.72896888923104E-02 
1095	 4.71932468754484E-02 
1096	 4.55690299813663E-02 
1097	 4.52522757612633E-02 
1098	 4.53254158718825E-02 
1099	 0.045328561953233 
1100	 4.62978802813965E-02 
1101	 4.63867062839666E-02 
1102	 4.56286380607647E-02 
1103	 4.55095155262692E-02 
1104	 0.04629540325114 
1105	 0.045090336511742 
1106	 4.30449105430945E-02 
1107	 4.25292647378966E-02 
1108	 4.16389250148308E-02 
1109	 4.12252504400263E-02 
1110	 4.23209106142339E-02 
1111	 4.82438628933391E-02 
1112	 4.94731384465075E-02 
1113	 4.79607396675792E-02 
1114	 4.69549598777791E-02 
1115	 4.13219883646922E-02 
1116	 3.77536429109818E-02 
1117	 3.73180171899086E-02 
1118	 3.89798418124366E-02 
1119	 4.44286969489108E-02 
1120	 4.56462625464113E-02 
1121	 0.052459151917433 
1122	 4.52849213202805E-02 
1123	 1.75231252243851E-02 
1124	 1.85355740663673E-02 
1125	 3.36325982154122E-02 
1126	 3.55187920194611E-02 
1127	 3.79692876636057E-02 
1128	 3.52989579347629E-02 
1129	 4.24384831512513E-02 
1130	 4.79396161969666E-02 
1131	 5.12698292895339E-02 
1132	 6.09561117356896E-02 
1133	 6.61257675356752E-02 
1134	 6.34634213499449E-02 
1135	 5.95878863387822E-02 
1136	 5.90079213167447E-02 
1137	 5.71911111679504E-02 
1138	 4.88897754293808E-02 
1139	 4.66689948002047E-02 
1140	 5.20897764794438E-02 
1141	 6.07962977230058E-02 
1142	 6.31156693084869E-02 
1143	 5.65340179604259E-02 
1144	 4.30918782831421E-02 
1145	 3.70216262317584E-02 
1146	 0.040343221632176 
1147	 4.32226289856247E-02 
1148	 4.69750839096936E-02 
1149	 4.19594132693416E-02 
1150	 3.86425360819013E-02 
1151	 3.15656892818751E-02 
1152	 0.031101280100208 
1153	 3.32054369448604E-02 
1154	 3.34218563638471E-02 
1155	 3.43943340751893E-02 
1156	 3.35681131128928E-02 
1157	 3.21576057907772E-02 
1158	 3.24550154025447E-02 
1159	 3.37524531753864E-02 
1160	 3.25207121586506E-02 
1161	 3.20392882143224E-02 
1162	 3.38653905973897E-02 
1163	 3.35088736124153E-02 
1164	 3.35507658661219E-02 
1165	 0.034178553544209 
1166	 3.21754008501302E-02 
1167	 3.04762351543121E-02 
1168	 3.05885052842169E-02 
1169	 3.11559323561035E-02 
1170	 3.26844059136603E-02 
1171	 3.32341310567597E-02 
1172	 3.38109886701535E-02 
1173	 3.37385187808055E-02 
1174	 3.26619261252482E-02 
1175	 3.21572747443329E-02 
1176	 3.30216344579977E-02 
1177	 3.43389444532355E-02 
1178	 3.52096278188331E-02 
1179	 3.55925924983128E-02 
1180	 3.45161556040576E-02 
1181	 3.30818489786013E-02 
1182	 3.22961933460481E-02 
1183	 3.35481063869379E-02 
1184	 3.51783950242014E-02 
1185	 3.54637797426713E-02 
1186	 3.53250364502398E-02 
1187	 0.03444508601901 
1188	 3.37772692607114E-02 
1189	 3.39597442349124E-02 
1190	 3.35727156460516E-02 
1191	 3.22466153330898E-02 
1192	 3.21145986696616E-02 
1193	 3.17605814836187E-02 
1194	 3.21444317523644E-02 
1195	 3.33743991004545E-02 
1196	 3.43881640061909E-02 
1197	 3.41007555291842E-02 
1198	 3.45832614219919E-02 
1199	 3.52720709262692E-02 
1200	 3.52299766953222E-02 
1201	 3.54236838652011E-02 
1202	 3.46155732158901E-02 
1203	 3.26155294051889E-02 
1204	 3.24980855555893E-02 
1205	 3.41570480511705E-02 
1206	 3.43253113285634E-02 
1207	 3.36570129809698E-02 
1208	 3.36782643395625E-02 
1209	 3.38427873227167E-02 
1210	 3.41604882036486E-02 
1211	 3.47274151426053E-02 
1212	 3.54615482015217E-02 
1213	 3.51835714817643E-02 
1214	 3.48125845242797E-02 
1215	 3.38965546942398E-02 
1216	 3.40266061977558E-02 
1217	 3.33778223228685E-02 
1218	 3.29867470929464E-02 
1219	 3.32352696190915E-02 
1220	 3.33316554014242E-02 
1221	 3.44420999177784E-02 
1222	 3.45595367749025E-02 
1223	 3.36838269091102E-02 
1224	 3.43330177480279E-02 
1225	 0.035105063104447 
1226	 3.52675648605824E-02 
1227	 3.46401377846365E-02 
1228	 3.36105625810554E-02 
1229	 3.36386553338725E-02 
1230	 3.34801621371793E-02 
1231	 3.30273133083486E-02 
1232	 3.37693911659065E-02 
1233	 3.42226553914563E-02 
1234	 3.33274829502888E-02 
1235	 0.032698714494535 
1236	 0.032319306279606 
1237	 3.25092543668141E-02 
1238	 3.22204534407722E-02 
1239	 3.30669683090418E-02 
1240	 3.41699528147124E-02 
1241	 3.38252710132765E-02 
1242	 3.28973561314776E-02 
1243	 3.30672454222681E-02 
1244	 3.39562675686408E-02 
1245	 3.44618556754168E-02 
1246	 3.46065238295807E-02 
1247	 3.42430586990216E-02 
1248	 0.033498941274456 
1249	 3.37556598779359E-02 
1250	 3.43305402600613E-02 
1251	 3.39140879699702E-02 
1252	 3.41265751153145E-02 
1253	 3.45630296513222E-02 
1254	 3.40204150284542E-02 
1255	 3.34585117809302E-02 
1256	 0.033398437127926 
1257	 3.31096500767142E-02 
1258	 3.33793571612475E-02 
1259	 0.034998229261275 
1260	 3.51976836079167E-02 
1261	 3.39805158105291E-02 
1262	 3.35715819118065E-02 
1263	 3.27743150828651E-02 
1264	 0.03354549316095 
1265	 3.35676566819705E-02 
1266	 3.41771859558316E-02 
1267	 3.52280527749423E-02 
1268	 3.49960189580611E-02 
1269	 3.49497824829591E-02 
1270	 3.54209766577633E-02 
1271	 3.56277957332088E-02 
1272	 3.48655307254967E-02 
1273	 3.46641800127421E-02 
1274	 3.56209168855451E-02 
1275	 3.54280607886678E-02 
1276	 3.54597291392496E-02 
1277	 3.61186800139562E-02 
1278	 3.58697442115105E-02 
1279	 0.035232267199078 
1280	 3.46080607653929E-02 
1281	 3.43265984228225E-02 
1282	 3.37742792597736E-02 
1283	 3.37007824312858E-02 
1284	 3.44791878908126E-02 
1285	 0.034476322973045 
1286	 3.41961371177807E-02 
1287	 3.40681711616522E-02 
1288	 3.35177377043538E-02 
1289	 3.35130479571097E-02 
1290	 3.37544447480364E-02 
1291	 0.034123626189139 
1292	 3.56412672611934E-02 
1293	 3.63166176394168E-02 
1294	 3.62601968716791E-02 
1295	 3.66970067172344E-02 
1296	 3.62737625364849E-02 
1297	 3.55472717057503E-02 
1298	 3.46844023742512E-02 
1299	 3.35250752783202E-02 
1300	 3.29517949182656E-02 
1301	 3.30534115988984E-02 
1302	 3.37599797985375E-02 
1303	 3.51059032362035E-02 
1304	 3.55881871049765E-02 
1305	 0.034363688523263 
1306	 3.44373204154562E-02 
1307	 3.57645463349299E-02 
1308	 3.58877622661349E-02 
1309	 3.55141727625593E-02 
1310	 3.57177640437718E-02 
1311	 3.56095873813308E-02 
1312	 0.035586601857983 
1313	 3.61949605869782E-02 
1314	 3.62162109550593E-02 
1315	 3.51892659130499E-02 
1316	 3.51236860498849E-02 
1317	 3.67422050364438E-02 
1318	 3.61332184835992E-02 
1319	 3.34298956209421E-02 
1320	 3.28761498708979E-02 
1321	 3.20985605694167E-02 
1322	 0.030849440964805 
1323	 0.031943539523684 
1324	 3.53480662209203E-02 
1325	 3.50877411971548E-02 
1326	 3.05692562433468E-02 
1327	 3.08436320355193E-02 
1328	 3.17523031712053E-02 
1329	 2.75350670565033E-02 
1330	 2.79514023944311E-02 
1331	 2.91881850705269E-02 
1332	 0.028765990197549 
1333	 3.13085024149211E-02 
1334	 3.32910453227014E-02 
1335	 3.36604482111302E-02 
1336	 2.74067478371695E-02 
1337	 2.58691811686872E-02 
1338	 2.71080387623721E-02 
1339	 2.92819041507967E-02 
1340	 0.035823205284609 
1341	 3.72288909235372E-02 
1342	 3.49931265625537E-02 
1343	 0.037748836137369 
1344	 4.19268658120576E-02 
1345	 3.91893284557371E-02 
1346	 2.81551220075651E-02 
1347	 0.036630099617933 
1348	 7.02511869942933E-02 
1349	 7.95925668231615E-02 
1350	 9.05246660527371E-02 
1351	 0.135748240026519 
1352	 0.117216693920973 
1353	 0.10852352464928 
1354	 0.211974378335955 
1355	 0.411443210449147 
1356	 0.424271502844324 
1357	 0.375325011133847 
1358	 0.237602742955586 
1359	 0.14562668916387 
1360	 8.97760176764556E-02 
1361	-0.1174953370681 
1362	-2.41503927802008E-03 
1363	 0.214009658969697 
1364	 0.253173583693311 
1365	 0.720699944200489 
1366	 1.11542812474501 
1367	 0.554320198523533 
1368	 0.639127088499484 
1369	 0.977808670088083 
1370	 0.861513282725734 
1371	-0.0501848804258 
1372	 0.563673712473705 
1373	 1.75765605501515 
1374	 0.863753926429164 
1375	 1.59813424997966 
1376	 1.73185798909384 
1377	 0.978924970044403 
1378	 0.621018799504306 
1379	 0.617318482696874 
1380	 0.61674254510387 
1381	 0.306120351900909 
1382	 0.163635448595536 
1383	 0.182576071604599 
1384	 0.371463795642661 
1385	 1.11052880977301 
1386	 1.24399878622451 
1387	 1.72412068967335 
1388	 4.62390938850895 
1389	 3.57082390307273 
1390	 3.82837615195466 
1391	 3.14279664505945 
1392	-6.37240623856999 
1393	-4.97977488500408 
1394	 2.73307983318618 
1395	 1.36353536310094 
1396	 1.37593171062956 
1397	 0.138067000282961 
1398	-0.300760963970098 
1399	-7.39012441994097E-02 
1400	-0.259912148932944 
1401	 0.204328676221055 
1402	 0.698313987449933 
1403	 0.799913388260027 
1404	 0.576590299718606 
1405	 0.46159913430496 
1406	 0.103811880631717 
1407	 0.370195924660548 
1408	 3.9789723343744 
1409	 4.3862350542787 
1410	 2.96244230459786 
1411	 3.48554305524072 
1412	 1.75711532298017 
1413	 1.10630291999529 
1414	 1.09514798768455 
1415	 1.05524927246269 
1416	 0.930444499436557 
1417	 0.645784160359314 
1418	 0.295086053280067 
1419	 0.312610024192787 
1420	 0.356875039955516 
1421	 0.365936620876934 
1422	 0.651964995233733 
1423	 0.697127296482319 
1424	 0.507042621372374 
1425	 0.4304427645956 
1426	 0.384524078520259 
1427	 0.332074401394379 
1428	 0.264414767751501 
1429	 0.232902323416866 
1430	 0.197461076919829 
1431	 0.166187079262026 
1432	 0.15686236146793 
1433	 0.144498266514837 
1434	 0.102163646423202 
1435	 9.92030241744597E-02 
1436	 0.103642914912485 
1437	 0.205939112545503 
1438	 0.208307562888197 
1439	 0.180832976479879 
1440	 0.240266751406988 
1441	 0.237426649920691 
1442	 0.174896608037686 
1443	 0.161142548004505 
1444	 0.129096387910047 
1445	 5.79043577720704E-02 
1446	 6.31055636806635E-02 
1447	 0.117388920561511 
1448	 0.109077696725849 
1449	 7.74616020841059E-02 
1450	 8.14515068274178E-02 
1451	 6.04934183478745E-02 
1452	 2.38445300760677E-02 
1453	 3.70650285679796E-02 
1454	 0.029664985725346 
1455	 7.99571399821455E-03 
1456	 7.07409847395882E-03 
1457	 1.68680463840958E-02 
1458	 1.68217182867918E-02 
1459	 1.73076309460057E-02 
1460	 2.08887565284893E-02 
1461	 2.87595562005352E-02 
1462	 2.61242327521839E-02 
1463	 1.61972334622599E-02 
1464	 1.83410328458899E-02 
1465	 1.70114472302577E-02 
1466	 1.57296382567426E-02 
1467	 2.71509205997924E-02 
1468	 3.66093182943423E-02 
1469	 4.48865711603962E-02 
1470	 4.54927808261845E-02 
1471	 4.26076479036108E-02 
1472	 4.80546973439465E-02 
1473	 4.81828985752016E-02 
1474	 4.64986603451635E-02 
1475	 5.05100886473586E-02 
1476	 5.56208862364824E-02 
1477	 5.98980960521156E-02 
1478	 5.81160280062682E-02 
1479	 6.04295156789184E-02 
1480	 5.79562009437856E-02 
1481	 4.27536469084495E-02 
1482	 3.72472253789617E-02 
1483	 4.34082016067126E-02 
1484	 3.90612933278038E-02 
1485	 2.68543657625574E-02 
1486	 2.35721604699834E-02 
1487	 2.21779405822366E-02 
1488	 1.91465999068072E-02 
1489	 1.69044782632462E-02 
1490	 1.92555995090844E-02 
1491	 2.31196389316775E-02 
1492	 2.38757097639112E-02 
1493	 2.81340309991268E-02 
1494	 2.85068101254721E-02 
1495	 2.17117425296066E-02 
1496	 2.12860737524047E-02 
1497	 2.54945877397211E-02 
1498	 2.59607465397926E-02 
1499	 2.55545085501087E-02 
1500	 2.67225417926262E-02 
1501	 2.85333473729494E-02 
1502	 2.75094056556658E-02 
1503	 2.52302781604867E-02 
1504	 2.49760942715671E-02 
1505	 2.27811567187894E-02 
1506	 2.25937400121271E-02 
1507	 0.02346605825892 
1508	 2.38449831766992E-02 
1509	 2.41598795365005E-02 
1510	 2.44214197445683E-02 
1511	 2.37210060519893E-02 
1512	 2.37050716083829E-02 
1513	 2.44026875533435E-02 
1514	 2.23247906931075E-02 
1515	 2.02709735972078E-02 
1516	 2.16712808567239E-02 
1517	 2.27888254676871E-02 
1518	 2.22749971779279E-02 
1519	 2.22507696831278E-02 
1520	 2.38629849935542E-02 
1521	 2.53542164174137E-02 
1522	 2.48989637182653E-02 
1523	 2.53047388822628E-02 
1524	 2.62630023104278E-02 
1525	 2.66000465374007E-02 
1526	 2.70011216683541E-02 
1527	 2.56684212000361E-02 
1528	 2.45398148106729E-02 
1529	 2.48155221486044E-02 
1530	 2.48695673588295E-02 
1531	 2.61118448573495E-02 
1532	 2.80035825137643E-02 
1533	 2.81521994667879E-02 
1534	 2.74911882122874E-02 
1535	 2.72483786030534E-02 
1536	 2.71782264022546E-02 
1537	 2.67196623557049E-02 
1538	 0.025284949100023 
1539	 2.43054394548386E-02 
1540	 2.44138997024002E-02 
1541	 2.46435900564007E-02 
1542	 2.48468608384476E-02 
1543	 2.46264390136714E-02 
1544	 2.38486512450502E-02 
1545	 2.31832091154437E-02 
1546	 2.38599336220546E-02 
1547	 2.47908180010626E-02 
1548	 2.55617093618947E-02 
1549	 2.64850781977074E-02 
1550	 2.58367392800868E-02 
1551	 2.57571772803078E-02 
1552	 0.026898188106992 
1553	 2.76749518287961E-02 
1554	 2.79288700393117E-02 
1555	 2.71754099388939E-02 
1556	 2.67662312527248E-02 
1557	 2.63074542611556E-02 
1558	 2.58185969157705E-02 
1559	 2.67098239887886E-02 
1560	 2.71196266927616E-02 
1561	 2.59591228737343E-02 
1562	 2.53139428324133E-02 
1563	 2.61682708914681E-02 
1564	 2.65270149230936E-02 
1565	 2.70785723287782E-02 
1566	 2.95027533984181E-02 
1567	 3.02970429174573E-02 
1568	 2.88446031531669E-02 
1569	 2.90780097906442E-02 
1570	 2.93837003542818E-02 
1571	 2.86801315542567E-02 
1572	 0.028428710895868 
1573	 2.77639881525479E-02 
1574	 2.71182487819055E-02 
1575	 2.65529304560086E-02 
1576	 2.69540213828403E-02 
1577	 2.76096879082489E-02 
1578	 2.80633372557677E-02 
1579	 2.97878077614965E-02 
1580	 2.97324387853567E-02 
1581	 2.79459817268763E-02 
1582	 2.73585479803884E-02 
1583	 2.72566407701448E-02 
1584	 2.81432866781817E-02 
1585	 3.04570300263639E-02 
1586	 3.14317179207454E-02 
1587	 2.98853712013279E-02 
1588	 2.87479450987411E-02 
1589	 0.029134546298833 
1590	 2.93973080653412E-02 
1591	 3.11156713608017E-02 
1592	 3.27197992630245E-02 
1593	 3.10355659159287E-02 
1594	 3.02313679279404E-02 
1595	 3.01678473836625E-02 
1596	 2.86903928054226E-02 
1597	 2.94248948334109E-02 
1598	 2.96895352827855E-02 
1599	 2.69993681381112E-02 
1600	 0.027096868393298 
1601	 2.95331805680751E-02 
1602	 2.92764377420152E-02 
1603	 2.93492476509151E-02 
1604	 0.030425035715684 
1605	 2.92904849574339E-02 
1606	 2.93705656956319E-02 
1607	 3.02518647395387E-02 
1608	 2.96752958923113E-02 
1609	 2.95467683928494E-02 
1610	 3.00623217309634E-02 
1611	 3.07610272446367E-02 
1612	 3.02215348465703E-02 
1613	 2.84399046774813E-02 
1614	 2.72762368456908E-02 
1615	 2.78764688400741E-02 
1616	 2.85794169131219E-02 
1617	 2.84755575032847E-02 
1618	 2.88535974242973E-02 
1619	 2.83776712178165E-02 
1620	 0.028219343091333 
1621	 2.93302944198155E-02 
1622	 2.94479788020006E-02 
1623	 2.88584521061853E-02 
1624	 2.83508948778803E-02 
1625	 2.83909488452152E-02 
1626	 2.82584845476878E-02 
1627	 2.79194841492431E-02 
1628	 2.91218037271212E-02 
1629	 3.08692394513544E-02 
1630	 3.06374776968425E-02 
1631	 0.030175670804588 
1632	 3.12671951693475E-02 
1633	 3.08804357207677E-02 
1634	 0.030106372502789 
1635	 3.10080893725964E-02 
1636	 3.08463633833707E-02 
1637	 2.96947564433417E-02 
1638	 3.05698105260779E-02 
1639	 0.031373457839218 
1640	 2.98385237382776E-02 
1641	 2.85259187152728E-02 
1642	 2.78733676218881E-02 
1643	 2.77777033689616E-02 
1644	 2.86951921307433E-02 
1645	 0.029581616124844 
1646	 2.91969745802938E-02 
1647	 2.84425562756233E-02 
1648	 2.88477918144115E-02 
1649	 2.93606854139656E-02 
1650	 0.029729017544163 
1651	 3.02539737660341E-02 
1652	 2.93363638862436E-02 
1653	 0.027417024214965 
1654	 2.70397568354236E-02 
1655	 2.58950362162689E-02 
1656	 2.54340338216707E-02 
1657	 2.60622418296572E-02 
1658	 2.76701499449876E-02 
1659	 3.17583812638316E-02 
1660	 3.35730666454452E-02 
1661	 3.53626662500123E-02 
1662	 3.48528102950597E-02 
1663	 2.99809812510889E-02 
1664	 0.029679856053338 
1665	 3.25018019581382E-02 
1666	 3.17667413696445E-02 
1667	 3.01419098464511E-02 
1668	 2.89687288699699E-02 
1669	 2.76823754667458E-02 
1670	 2.73797601976419E-02 
1671	 2.82746839816895E-02 
1672	 0.028030973052729 
1673	 2.74071658188626E-02 
1674	 2.67813569756853E-02 
1675	 0.027471408533188 
1676	 2.93908738279883E-02 
1677	 2.89969820703052E-02 
1678	 2.86705411601736E-02 
1679	 3.10768819410826E-02 
1680	 3.16663956466857E-02 
1681	 2.97522987132314E-02 
1682	 3.10646638796519E-02 
1683	 0.032656855424766 
1684	 3.09462346494217E-02 
1685	 3.17549530279655E-02 
1686	 3.41506193064942E-02 
1687	 3.21599075795231E-02 
1688	 3.00485543264847E-02 
1689	 3.19960442097685E-02 
1690	 3.17502516730146E-02 
1691	 3.00510091647332E-02 
1692	 3.21533183395182E-02 
1693	 3.19977702199113E-02 
1694	 2.88009286165387E-02 
1695	 2.89662130424588E-02 
1696	 2.98660495326037E-02 
1697	 2.88288817180836E-02 
1698	 2.90297206554477E-02 
1699	 2.98364207556962E-02 
1700	 2.89865738936921E-02 
1701	 2.98499554150462E-02 
1702	 3.34318738026434E-02 
1703	 0.03452186303682 
1704	 3.35998203916042E-02 
1705	 0.034131817546945 
1706	 3.35279991351352E-02 
1707	 3.26151163918836E-02 
1708	 3.39024426134484E-02 
1709	 3.33167398720401E-02 
1710	 2.99608547306472E-02 
1711	 2.85638027617247E-02 
1712	 2.91810622622779E-02 
1713	 2.87706830992588E-02 
1714	 2.88338944708432E-02 
1715	 2.80900054907207E-02 
1716	 0.027259448383729 
1717	 2.86904717697912E-02 
1718	 2.86842130210196E-02 
1719	 3.14435037806423E-02 
1720	 0.034495708713978 
1721	 3.28978737910147E-02 
1722	 3.35269398089882E-02 
1723	 3.43911238339063E-02 
1724	 3.17659358174571E-02 
1725	 3.10574143489781E-02 
1726	 3.18340477040577E-02 
1727	 2.95426244188345E-02 
1728	 2.99802196116647E-02 
1729	 3.19277284551431E-02 
1730	 2.80858348591468E-02 
1731	 2.79600768895232E-02 
1732	 3.13046344188755E-02 
1733	 2.99133226370951E-02 
1734	 2.97579109539098E-02 
1735	 2.99558422840748E-02 
1736	 2.64497679022938E-02 
1737	 2.61513448546836E-02 
1738	 2.79951555195184E-02 
1739	 2.79830454935054E-02 
1740	 2.87396919147615E-02 
1741	 0.031447388252334 
1742	 0.032892591093964 
1743	 0.030491516808507 
1744	 2.89029980449758E-02 
1745	 2.79874880381127E-02 
1746	 3.15574774486383E-02 
1747	 3.26952154200926E-02 
1748	 3.10997741691693E-02 
1749	 2.99103734442673E-02 
1750	 2.76323004194384E-02 
1751	 2.68177407678499E-02 
1752	 2.55111115199531E-02 
1753	 2.56389390088253E-02 
1754	 0.028514196321751 
1755	 3.02058417701263E-02 
1756	 3.37245418454749E-02 
1757	 3.45190235953316E-02 
1758	 3.13173350447643E-02 
1759	 2.84275070985902E-02 
1760	 0.026884827335469 
1761	 2.49256758724008E-02 
1762	 2.41022317942333E-02 
1763	 2.78179234804958E-02 
1764	 2.71491668815355E-02 
1765	 2.18515129364423E-02 
1766	 2.46465023715333E-02 
1767	 2.81139788198519E-02 
1768	 2.67016867588676E-02 
1769	 2.77227378465112E-02 
1770	 2.60201189269792E-02 
1771	 2.15528170705819E-02 
1772	 2.44269181650745E-02 
1773	 3.19928915882296E-02 
1774	 3.18587940173337E-02 
1775	 2.36687477857238E-02 
1776	 2.10000168045356E-02 
1777	 1.81242674465621E-02 
1778	 1.98695382145814E-02 
1779	 2.89055623181003E-02 
1780	 3.09933869445502E-02 
1781	 3.51002184629838E-02 
1782	 3.78086878020537E-02 
1783	 3.58631235285291E-02 
1784	 3.45196701652435E-02 
1785	 0.027250623512836 
1786	 2.82827298017145E-02 
1787	 3.35375967817954E-02 
1788	 0.037249485827148 
1789	 5.35941269941946E-02 
1790	 6.04836370422551E-02 
1791	 0.055235386396485 
1792	 5.26138540740146E-02 
1793	 4.08600252596286E-02 
1794	 2.83295463606916E-02 
1795	 2.02334321329473E-02 
1796	 7.65119513268884E-03 
1797	-7.52957291204683E-04 
1798	-1.00372377946986E-02 
1799	-1.78640624818649E-02 
1800	-3.78059291906108E-02 
1801	-1.88599697668716E-02 
1802	 8.96020995781753E-02 
1803	 0.114844298204885 
1804	 0.129492732773424 
1805	 0.134251472223981 
1806	-3.00381522543496E-02 
1807	-0.126253804391561 
1808	-0.171690395660363 
1809	-0.268647716390991 
1810	-0.792413673825107 
1811	-0.799881009763446 
1812	 0.263449183428519 
1813	 0.432504924872234 
1814	 0.441411329537765 
1815	 0.539788662317065 
1816	 0.214417860901361 
1817	 0.648600606422724 
1818	 1.035395982956 
1819	 1.72821914800963 
1820	 4.75397428572049 
1821	-0.937812896218067 
1822	-4.14021356637602E-02 
1823	-5.475579355395 
1824	-2.43527078481222 
1825	-1.69855859393973E-02 
1826	 5.39311476477221E-02 
1827	-0.146686745040956 
1828	-0.366313827316808 
1829	-1.2335646295875 
1830	-1.48994960664055 
1831	-3.22346345473267 
1832	-2.13975299691044 
1833	 1.08050651079665 
1834	 1.33370985968139 
1835	-2.3008941451217 
1836	 2.19782552763828 
1837	 0.864166908186818 
1838	 0.863016542293961 
1839	 0.430205080251969 
1840	 0.120209250261735 
1841	 0.27025127838511 
1842	 0.410240141961955 
1843	 0.319297548005276 
1844	-0.182702404004418 
1845	-0.222012323354774 
1846	-0.102956146477442 
1847	-0.209829807338623 
1848	-0.200593296530184 
1849	-10.0448738337642 
1850	 0.689470272168811 
1851	 0.601590565882596 
1852	 0.919817908767294 
1853	 1.60496631393526 
1854	 2.38633345113525 
1855	-2.02390047046822 
1856	-1.36418990531167 
1857	 0.449653634325547 
1858	 5.63469577657239E-03 
1859	-0.152294788427465 
1860	 8.25823564566163E-02 
1861	 2.52244552521275E-02 
1862	 0.012933613870478 
1863	-0.23059917222837 
1864	-0.987513193861011 
1865	-1.1949193104695 
1866	-1.79164073535969 
1867	-3.15787014910394 
1868	 0.5533066801448 
1869	 0.668970131531861 
1870	-5.22186562001156E-02 
1871	-0.551172987583779 
1872	-1.22341299346981 
1873	 3.0739078149359 
1874	 1.20261747732675 
1875	 1.53521827829641 
1876	 1.27859126433486 
1877	 1.35045394574858 
1878	 1.57068875026357 
1879	 1.42212069222709 
1880	 9.33805807369855E-02 
1881	-2.55652323610277 
1882	-16.0324625981516 
1883	-18.1775807850323 
1884	 17.9008164939692 
1885	 4.81405521540163 
1886	 2.03389297949525 
1887	 5.6944168739952 
1888	-1.83347413881741 
1889	-1.61725394135768 
1890	-1.75708408328588 
1891	-3.31140703736722 
1892	 2.66612047513728 
1893	 1.50632059494048 
1894	 0.989892856584708 
1895	 0.500866795012302 
1896	 1.61185669558246 
1897	-3.63884368200309 
1898	-3.25019857712333 
1899	-2.41385414945328 
1900	-2.01683809781908 
1901	-0.939895422056319 
1902	 0.171399033672611 
1903	 1.69695809735425 
1904	 1.83309125979169 
1905	 1.55720365459379 
1906	 1.52721588208241 
1907	 1.09729452602732 
1908	-1.03070072793012E-02 
1909	-0.593885064133279 
1910	-0.397092591585658 
1911	 0.249417590257585 
1912	-4.47732253744166 
1913	-2.20516586964706 
1914	-17.6297821391582 
1915	 47.3455073533976 
1916	 47.8991112499331 
1917	-5.14881829188906 
1918	-2.30150896654269 
1919	 15.8706497574986 
1920	-3.49867623595471 
1921	 3.76269490887739 
1922	 7.06725378690273 
1923	-3.71008003361923 
1924	 1.08097993628901 
1925	 0.597356063242016 
1926	 0.90887804512665 
1927	-2.71824790663239 
1928	 8.79579827611002 
1929	-1.83911618056141 
1930	-7.42830027152774E-02 
1931	 6.24416496360854 
1932	-0.863128529019582 
1933	-1.11000388229858 
1934	-0.839154375755068 
1935	-0.51867780245553 
1936	-0.141446881114567 
1937	 0.878879749361229 
1938	 1.24347180362755 
1939	 1.1424567765673 
1940	 0.540401891636458 
1941	 0.455594552771455 
1942	-6.25327000184128E-02 
1943	-0.316385785374706 
1944	 4.96273244018842 
1945	-0.797316691019495 
1946	-0.460300575908113 
1947	-0.633977985716244 
1948	-1.115628529913 
1949	-2.87854211894339 
1950	 22.2235605751133 
1951	-2.00549967501734 
1952	 0.803422391692974 
1953	 0.88715416980748 
1954	 0.924565830093235 
1955	 0.793647789787839 
1956	 0.63342172471671 
1957	 0.727827444904789 
1958	 0.42959050090057 
1959	 0.203296573261633 
1960	 7.98727494906153E-02 
1961	-5.27345567404768E-02 
1962	-4.53365927784061E-03 
1963	 0.091526370983614 
1964	 0.100948302574274 
1965	 0.105109100125506 
1966	 7.07187358406408E-02 
1967	 9.52558184006841E-03 
1968	-5.93664195184714E-02 
1969	-8.61618638860938E-02 
1970	-8.54345252976161E-02 
1971	-0.044737845320631 
1972	-2.01706081270334E-02 
1973	-2.62934610407517E-02 
1974	-6.70434594515976E-03 
1975	-5.66332296444272E-03 
1976	-6.74945044971684E-03 
1977	 2.82776579418118E-02 
1978	 1.78990919742532E-02 
1979	 1.24492455950757E-02 
1980	-3.72186811651265E-03 
1981	 1.69670707418209E-02 
1982	 5.61558301665158E-03 
1983	-5.2811145861827E-03 
1984	 1.00634412000105E-02 
1985	 8.11919453489884E-03 
1986	 1.87174901622204E-02 
1987	 4.63668465839767E-02 
1988	 4.43740816061924E-02 
1989	 0.029068038814845 
1990	 1.25091301370215E-02 
1991	-2.70289720071212E-03 
1992	-6.23994480737674E-03 
1993	 1.29541115792988E-02 
1994	 2.69416613339801E-02 
1995	 4.60235337105606E-02 
1996	 6.08172125101849E-02 
1997	 9.79162327247374E-02 
1998	 0.099927574129438 
1999	 7.86866307438706E-02 
2000	 6.85491985049512E-02 
2001	 3.58526866565662E-02 
2002	 3.64189684235641E-02 
2003	 5.15404299380016E-02 
2004	 5.70089811191582E-02 
2005	 5.35790223439087E-02 
2006	 3.01998789187358E-04 
2007	-2.11838867361576E-02 
2008	-3.14513750625339E-02 
2009	-2.90222495507408E-02 
2010	 1.15743372739077E-03 
2011	 2.12626916905344E-02 
2012	 0.054968498719989 
2013	 7.01559162986664E-02 
2014	 1.53258685825843E-02 
2015	-2.63867813757111E-02 
2016	-7.36035595231295E-02 
2017	-0.10546599043459 
2018	-4.15765977659661E-02 
2019	-1.51868014510134E-03 
2020	-0.017719755746767 
2021	-1.56562136385386E-02 
2022	-1.52736408710984E-02 
2023	-2.35679924305541E-02 
2024	-2.48437311028164E-02 
2025	-1.12671412904469E-02 
2026	-4.01000555515391E-03 
2027	-1.68702543299013E-03 
2028	-1.29538144417719E-03 
2029	 6.11333333593274E-03 
2030	 9.48854368215807E-03 
2031	 8.50073021023202E-03 
2032	 1.69680831959605E-02 
2033	 2.31756803074608E-02 
2034	 2.81475430833337E-02 
2035	 0.035993961674503 
2036	 3.55307987657711E-02 
2037	 3.19219038052546E-02 
2038	 2.55506247136166E-02 
2039	 2.11124032959822E-02 
2040	 1.32314165736032E-02 
2041	 9.44385187078365E-03 
2042	 8.92311455511093E-03 
2043	 8.4711764707695E-03 
2044	 1.15734360592371E-02 
2045	 6.10058486868465E-03 
2046	 6.31424286158649E-04 
2047	-1.17308046717872E-04 
2048	-3.17264422185399E-03 
2049	-6.46717327427098E-03 
2050	-1.37071122051834E-03 
2051	 1.01821502199078E-02 
2052	 2.09139010749182E-02 
2053	 0.032050983552988 
2054	 3.53778706927573E-02 
2055	 2.72324496108513E-02 
2056	 2.35664536462356E-02 
2057	 1.64068902424661E-02 
2058	 1.55919013125153E-02 
2059	 1.96180511146586E-02 
2060	 1.81408494462235E-02 
2061	 1.39665376906427E-02 
2062	 1.45156384823097E-02 
2063	 2.01628840379822E-02 
2064	 2.39705018641714E-02 
2065	 2.57874108344517E-02 
2066	 1.89455257266011E-02 
2067	 8.65949846378762E-03 
2068	 3.04135192696438E-03 
2069	 1.00166837164136E-02 
2070	 0.023307363826134 
2071	 2.46839635690165E-02 
2072	 0.020405077986179 
2073	 1.64201285002201E-02 
2074	 5.81016508500875E-03 
2075	 3.12376309968836E-03 
2076	 2.49337300449631E-03 
2077	 3.4699353717367E-03 
2078	 9.84929521262889E-03 
2079	 1.10352796746859E-02 
2080	 1.07425767334562E-02 
2081	 8.82598070363855E-03 
2082	 8.29806539911296E-03 
2083	 1.13575674434987E-02 
2084	 1.26319167860977E-02 
2085	 1.98761444879523E-02 
2086	 2.16642473824805E-02 
2087	 2.11573478193733E-02 
2088	 2.61736802856683E-02 
2089	 2.76674701958128E-02 
2090	 2.34514759806659E-02 
2091	 1.82917875687696E-02 
2092	 1.58810006682641E-02 
2093	 6.23687300468869E-03 
2094	 3.06440520751205E-03 
2095	 9.81190645080087E-03 
2096	 1.22135303207029E-02 
2097	 1.32408814325598E-02 
2098	 1.72853975964074E-02 
2099	 2.66526030736849E-02 
2100	 0.025541549273828 
2101	 2.18604155223607E-02 
2102	 1.71488342131179E-02 
2103	 9.06990212027481E-03 
2104	 7.3648616952856E-03 
2105	 1.22953341525473E-02 
2106	 1.25197103005099E-02 
2107	 2.01037938459151E-02 
2108	 2.51929551726124E-02 
2109	 2.50772900469892E-02 
2110	 2.74222501003542E-02 
2111	 2.15471804373184E-02 
2112	 1.61302027911303E-02 
2113	 1.55867683309635E-02 
2114	 2.11052775220105E-02 
2115	 2.04582274855416E-02 
2116	 2.07016113480851E-02 
2117	 1.90126113430361E-02 
2118	 6.95709353034679E-03 
2119	 5.88952352924147E-03 
2120	 1.17968708776749E-02 
2121	 1.80045294088873E-02 
2122	 1.95813411370049E-02 
2123	 0.022401547954101 
2124	 1.93230295141294E-02 
2125	 1.64864143788684E-02 
2126	 1.48881632007907E-02 
2127	 1.13290736624272E-02 
2128	 1.51166398163787E-02 
2129	 1.30012843385834E-02 
2130	 1.07536213662423E-02 
2131	 1.79724487882986E-02 
2132	 1.42501279541785E-02 
2133	 6.72318713882443E-03 
2134	 5.20583135573171E-03 
2135	 3.83299414846349E-03 
2136	 4.17817108133603E-03 
2137	 1.10671103258372E-02 
2138	 1.32351215715078E-02 
2139	 1.23875948632846E-02 
2140	 1.58886309180436E-02 
2141	 0.022218116617299 
2142	 2.45523342141015E-02 
2143	 2.84555775089897E-02 
2144	 2.70330663189321E-02 
2145	 2.83215312004301E-02 
2146	 2.75741440308956E-02 
2147	 2.60242566730808E-02 
2148	 3.69345886240454E-02 
2149	 3.97971018224046E-02 
2150	 3.76032146176818E-02 
2151	 3.50702202849782E-02 
2152	 2.50648397184776E-02 
2153	 2.28286541765585E-02 
2154	 2.35657257473712E-02 
2155	 2.78320755506336E-02 
2156	 3.37452230752657E-02 
2157	 3.12119150062891E-02 
2158	 1.68580458827618E-02 
2159	 1.27838364766839E-02 
2160	 1.04576328003093E-02 
2161	 8.2221711839967E-03 
2162	 1.05868889390499E-02 
2163	 1.05093322864426E-02 
2164	 8.90228022512588E-03 
2165	 7.00953367822562E-03 
2166	 2.08922271844691E-03 
2167	 4.20867253287966E-03 
2168	 8.66666155358663E-03 
2169	 1.12537372848368E-02 
2170	 1.66929405380795E-02 
2171	 2.69803599958983E-02 
2172	 3.25961178873236E-02 
2173	 2.95868380179888E-02 
2174	 2.41514442309364E-02 
2175	 1.96018119697019E-02 
2176	 1.50962863353304E-02 
2177	 1.79515663430525E-02 
2178	 2.37065174030838E-02 
2179	 2.81810185862172E-02 
2180	 2.24937316469202E-02 
2181	 1.75810973884678E-02 
2182	 0.004457093356613 
2183	-1.04495605998945E-02 
2184	-4.52473540685112E-03 
2185	-3.66535290999842E-03 
2186	 2.3646683480825E-03 
2187	 3.03564466688453E-02 
2188	 3.41360571860092E-02 
2189	 2.22786014808059E-02 
2190	 1.85506946496268E-02 
2191	 0.007260987451306 
2192	-1.6798873725304E-03 
2193	-5.77676335383937E-03 
2194	-1.10093111247554E-02 
2195	-2.35700697627955E-02 
2196	-2.64705382041273E-02 
2197	-0.020521604209324 
2198	-1.67197267133164E-02 
2199	-7.87169890403397E-03 
2200	-3.29723583901677E-03 
2201	 4.30962137715899E-04 
2202	 2.8945314910122E-03 
2203	-1.42874610967891E-03 
2204	 2.04417271476723E-03 
2205	 1.19237466342309E-02 
2206	 6.23063194040818E-03 
2207	 1.23236171375955E-03 
2208	 9.30825304507976E-03 
2209	 1.15185475362111E-02 
2210	 6.47509583491605E-03 
2211	 7.91632256884893E-03 
2212	 4.21094472343647E-03 
2213	-8.93151028664022E-04 
2214	 2.91100665745766E-03 
2215	-4.59829799446473E-03 
2216	-6.14704652927239E-03 
2217	-5.39710027144381E-03 
2218	-7.54306159677552E-03 
2219	-2.35551542527138E-03 
2220	 0.014318367534955 
2221	 2.35506721329198E-02 
2222	 3.14044951850885E-02 
2223	 4.00903159694636E-02 
2224	 4.99210299476117E-02 
2225	 5.17664951312744E-02 
2226	 5.61824461251404E-02 
2227	 5.32126433517938E-02 
2228	 0.033582884921067 
2229	 2.54358590486473E-02 
2230	 1.92363114189655E-02 
2231	 1.20873928960919E-02 
2232	 1.30305894200874E-02 
2233	 1.10589541188632E-02 
2234	 1.45429690460696E-03 
2235	 3.86104216266695E-04 
2236	 0.00790450428604 
2237	-3.97384911611626E-03 
2238	 6.02137842605328E-03 
2239	 0.018448857987753 
2240	 2.46238474814955E-02 
2241	 3.06894526621459E-02 
2242	 1.42463665566727E-02 
2243	 4.66537285735847E-03 
2244	 4.05407198704239E-04 
2245	 5.13242664637159E-03 
2246	 1.64931811183261E-02 
2247	 6.23641810902826E-03 
2248	-1.58469865832203E-03 
2249	-3.69449834605451E-03 
2250	-1.80585853390659E-02 
2251	-1.68178890584492E-03 
2252	 2.37196493043842E-02 
2253	 1.39056019579367E-02 
2254	 1.21515404512561E-02 
2255	 6.45971658430192E-03 
2256	-8.80571092219395E-03 
2257	-9.23177141097773E-03 
2258	 2.5374470352371E-03 
2259	 1.61625213635064E-02 
2260	 1.77663868184769E-02 
2261	 7.49036534308035E-03 
2262	 5.57590003622455E-03 
2263	-3.18266009718639E-03 
2264	-5.65876820758943E-03 
2265	 7.18720441509971E-03 
2266	 8.87747472492508E-04 
2267	-2.27908650441078E-02 
2268	-0.023269431700148 
2269	-2.41140591578042E-02 
2270	-2.04545325025736E-02 
2271	 6.47694705983356E-03 
2272	 1.91325764245116E-02 
2273	 2.29342864098291E-02 
2274	 2.78231263250659E-02 
2275	 2.91775766715483E-02 
2276	 3.32075063932534E-02 
2277	 4.17279619893828E-02 
2278	 4.13005874447437E-02 
2279	 3.95803903530948E-02 
2280	 3.87295157580327E-02 
2281	 3.51277948339897E-02 
2282	 1.51213820529918E-02 
2283	 1.18153443026059E-02 
2284	-2.82248963595372E-04 
2285	 7.3691321441292E-03 
2286	 4.40995697366398E-02 
2287	 7.34515188692747E-02 
2288	 0.106477147211806 
2289	 0.103136328631115 
2290	 7.08383717879476E-02 
2291	 5.36146590800448E-02 
2292	 2.59439524980875E-02 
2293	 1.70926980394626E-02 
2294	 2.87293179284888E-02 
2295	 1.32531334488398E-02 
2296	 1.80067948942408E-02 
2297	 4.26342726151409E-02 
2298	 3.46022279376898E-02 
2299	 1.37288782175531E-02 
2300	-2.97853647664702E-03 
2301	-0.032429807920291 
2302	-4.74096236448787E-02 
2303	-3.40167529142961E-02 
2304	-3.55368768184016E-02 
2305	-1.66825658384008E-02 
2306	 1.95976717406378E-02 
2307	 2.47294083215181E-02 
2308	 3.99509590264951E-02 
2309	 4.14121561501791E-02 
2310	 1.38586733589518E-02 
2311	 2.09541915769222E-02 
2312	 2.88516848724906E-02 
2313	 3.15433989325584E-02 
2314	 3.55457362171598E-02 
2315	 4.25588444655017E-02 
2316	 6.06075432361965E-02 
2317	 0.060035818772137 
2318	 0.103822460824282 
2319	 0.138659187134971 
2320	 0.107543159179917 
2321	 0.104485351250704 
2322	 0.111412725278874 
2323	 0.084106018338873 
2324	 8.29515658989817E-02 
2325	 7.00645812881323E-02 
2326	 1.83667055142606E-02 
2327	 2.91403464846202E-03 
2328	 1.81608471939212E-02 
2329	 4.99087761677218E-02 
2330	 2.60992018615229E-02 
2331	-5.07130999796555E-02 
2332	-7.91840336013888E-02 
2333	-9.91631359154029E-02 
2334	-0.117479371524425 
2335	-6.45328333965021E-02 
2336	-5.14209526958039E-02 
2337	-0.111462766332385 
2338	-0.107165524525061 
2339	-0.11650271677408 
2340	-0.196668900829465 
2341	-0.157167269440182 
2342	-0.1352621462261 
2343	-0.18690855916741 
2344	-8.55577955369066E-02 
2345	-4.35949160170266E-02 
2346	-1.76623631635643E-02 
2347	-5.32450224778908E-02 
2348	-0.11398594805241 
2349	-0.132452830625675 
2350	-0.236730498118289 
2351	-0.217671774500883 
2352	-0.155998420759556 
2353	-0.212489687395992 
2354	-0.172355722721639 
2355	-0.129263445938504 
2356	-0.263659887461906 
2357	-0.310377281201969 
2358	-0.303196387502231 
2359	-0.291594098506147 
2360	-0.198874063648573 
2361	-6.63435054058356E-02 
2362	-3.63729237930163E-02 
2363	 1.59452648288216E-02 
2364	 2.61728574396389E-02 
2365	-0.156636110290339 
2366	-0.272221616566034 
2367	-0.386148291529284 
2368	-0.595482960818459 
2369	-1.05902514478055 
2370	-4.35473687083713 
2371	-3.00813621788746 
2372	-2.79624464686597 
2373	-2.50015106815814 
2374	-1.00533535983409 
2375	-0.378206984519855 
2376	-0.518925966789436 
2377	-1.06460162215176 
2378	-0.724051735980915 
2379	-0.518372976831056 
2380	-0.385080368437406 
2381	-3.82064238575125E-02 
2382	 0.153526691459697 
2383	 5.33044715977185E-02 
2384	 0.136944735134461 
2385	 0.34978896699812 
2386	 0.467811042052227 
2387	 0.518076683411357 
2388	 0.648975524818076 
2389	 0.187164169229151 
2390	-0.224342703322537 
2391	-9.76139358952264E-02 
2392	 0.108965412128608 
2393	-7.46668149151902E-03 
2394	 2.77012905599633E-02 
2395	-4.82130237589114E-02 
2396	-0.152647036744328 
2397	-4.36874918759244E-02 
2398	-5.26850054991682E-02 
2399	 1.71853598454116E-02 
2400	 1.65632823420097E-02 
2401	-0.107165025789393 
2402	-8.89319943763348E-02 
2403	-0.273457294234282 
2404	-0.52147161775281 
2405	-0.268844570053148 
2406	-0.044878999165878 
2407	 0.391852837253397 
2408	 0.193754954400564 
2409	-0.342725433415133 
2410	-0.592061554646126 
2411	-0.354055948624297 
2412	-4.40015314442353E-02 
2413	 0.389774942019009 
2414	 0.264737894426513 
2415	-0.137504287087437 
2416	-0.77371437975536 
2417	-0.628383528189095 
2418	-3.11750138130272 
2419	-8.41119679924319 
2420	-14.4969645654138 
2421	-12.7642736667114 
2422	-5.26110255595494 
2423	-1.16599503151936 
2424	-1.57561707907767 
2425	-6.93212602582341 
2426	-8.72105372509598 
2427	 1.59473464623855 
2428	 0.72322895715475 
2429	 0.409830173457796 
2430	 0.153620970970033 
2431	 0.199656680015695 
2432	 0.05397555251531 
2433	 3.17553933477615E-03 
2434	 0.362089075736211 
2435	 0.409358429594286 
2436	 1.25335081265504 
2437	-5.66515249642635 
2438	 10.2224287827374 
2439	 3.3054959340189 
2440	 2.27764767732335 
2441	 0.604622725901013 
2442	 0.625669424229364 
2443	 1.63905289743424 
2444	-4.67134421334688 
2445	-2.32417916663018 
2446	-1.13995675132097 
2447	-0.238254686713749 
2448	 0.158410227459178 
2449	 3.26389396690913 
2450	-5.16190796141263 
2451	-0.879665838683112 
2452	-3.34059130757372 
2453	 4.73088966770241 
2454	-9.28386622349583 
2455	 83.7852449230045 
2456	 0.709095507612307 
2457	-0.348368588973525 
2458	-2.37461549929133 
2459	-1.81128066511601 
2460	-6.46724969202888 
2461	 27.9391452618287 
2462	-1.50489173021344 
2463	-28.955098827831 
2464	-2.82772988076389 
2465	-0.389367335666498 
2466	-7.09923751303408 
2467	 0.960406315402033 
2468	 0.433836116403886 
2469	 0.441554054921826 
2470	 1.56150467625565 
2471	-1.56586481970772 
2472	-0.770489559664653 
2473	-7.09005950859921 
2474	-12.081375318734 
2475	-1.90749123866885 
2476	-4.41018312442869 
2477	-2.59132377568768 
2478	-1.67927891999823 
2479	-4.98699215188992 
2480	-3.57607309901146 
2481	-1.59998690025382 
2482	-1.18158536524603 
2483	-6.2150940794826 
2484	 2.23601503334373 
2485	 1.42454331575313 
2486	 1.55171457499759 
2487	 1.14448259848843 
2488	 0.746735197390873 
2489	 0.564372863494592 
2490	 0.370803295643188 
2491	 0.585078143731123 
2492	 0.729840474446946 
2493	 0.80656506951519 
2494	 1.37732753619403 
2495	 1.21382109474546 
2496	 1.88665304433977 
2497	 3.48217369123824 
2498	-2.71921347376701 
2499	 0.117281516322114 
2500	-2.09817721805954 
