Wavelength	rt0629dirtre00004.asd
350	 0.115085092670171 
351	 0.116670789042862 
352	 0.115681045211983 
353	 0.115104322195387 
354	 0.116424124663142 
355	 0.116009996019267 
356	 0.114627191536348 
357	 0.114737673639318 
358	 0.117598400287889 
359	 0.117355900276263 
360	 0.115759354770391 
361	 0.114959304256476 
362	 0.116646016806952 
363	 0.117260831221222 
364	 0.116908038397306 
365	 0.116484129566007 
366	 0.117302428153657 
367	 0.11783582195664 
368	 0.117586906040388 
369	 0.116877333375559 
370	 0.117724767827146 
371	 0.118987261265106 
372	 0.119520249572614 
373	 0.118596059178412 
374	 0.118564781011811 
375	 0.119272109112268 
376	 0.120238809096972 
377	 0.120979335908914 
378	 0.121157876545135 
379	 0.121149844226295 
380	 0.121454178692055 
381	 0.122352763004329 
382	 0.123064562018909 
383	 0.123165116266898 
384	 0.122833834972659 
385	 0.124724578467138 
386	 0.126239429988449 
387	 0.126191864570192 
388	 0.125546763242426 
389	 0.126056923834336 
390	 0.12708663605062 
391	 0.127884909948722 
392	 0.128834633019277 
393	 0.129100519139724 
394	 0.129149930672895 
395	 0.12971925911014 
396	 0.13017147788228 
397	 0.130384990882517 
398	 0.130600472465156 
399	 0.131274224992468 
400	 0.131513506740846 
401	 0.131739024527954 
402	 0.132263456669745 
403	 0.132706463439347 
404	 0.133142118839745 
405	 0.133657373873026 
406	 0.134248135619002 
407	 0.134312646060175 
408	 0.134607439419292 
409	 0.135415132576684 
410	 0.136437194977898 
411	 0.136704648162512 
412	 0.136812980693055 
413	 0.137354990825706 
414	 0.138241983411616 
415	 0.138883082347326 
416	 0.139305036598094 
417	 0.139783258161081 
418	 0.14025851810432 
419	 0.140957079628687 
420	 0.141740510445793 
421	 0.142101289363703 
422	 0.142980568837075 
423	 0.144014536257391 
424	 0.14479253519702 
425	 0.14555011253678 
426	 0.146430564475401 
427	 0.147326641238424 
428	 0.148091702783646 
429	 0.149304429493096 
430	 0.150485801403394 
431	 0.151395242373068 
432	 0.152195182768785 
433	 0.15331184424909 
434	 0.154581845466434 
435	 0.155670010512185 
436	 0.156073998090051 
437	 0.157079620086908 
438	 0.158430694586265 
439	 0.159148610505254 
440	 0.160138173123824 
441	 0.161234123771487 
442	 0.162225354193677 
443	 0.162995238208509 
444	 0.163914088046994 
445	 0.1648268775799 
446	 0.165541569513384 
447	 0.166322971454694 
448	 0.167197730199659 
449	 0.168003818835008 
450	 0.168500887924392 
451	 0.169202720496959 
452	 0.169864100003839 
453	 0.170351867014853 
454	 0.170995247796737 
455	 0.171544528444099 
456	 0.171985513414652 
457	 0.172415970998108 
458	 0.17304451930814 
459	 0.173610697914372 
460	 0.174059639439837 
461	 0.174553540255132 
462	 0.1748280873527 
463	 0.175225182585473 
464	 0.175943953196253 
465	 0.176486339317164 
466	 0.176902068907319 
467	 0.177193974867377 
468	 0.177436344476051 
469	 0.178251433133977 
470	 0.178826517829637 
471	 0.179034763470168 
472	 0.17983138504715 
473	 0.180318065948101 
474	 0.18060902804895 
475	 0.181067024857643 
476	 0.181989094766356 
477	 0.182568563231148 
478	 0.182900263679497 
479	 0.183661533219989 
480	 0.184451749685229 
481	 0.185092056705433 
482	 0.185591722037422 
483	 0.186268711638843 
484	 0.187034857401509 
485	 0.187856262063215 
486	 0.188732098704209 
487	 0.189812543042861 
488	 0.190690849742679 
489	 0.191414314881446 
490	 0.192462604279649 
491	 0.193271203250135 
492	 0.193916339327486 
493	 0.194618724265986 
494	 0.195654934259586 
495	 0.196728090256507 
496	 0.197773972674824 
497	 0.198838123779528 
498	 0.199848085685946 
499	 0.200841582650114 
500	 0.201814201815663 
501	 0.202663783050613 
502	 0.20388136809073 
503	 0.205192359692143 
504	 0.206212654796156 
505	 0.207057320145168 
506	 0.208105672607141 
507	 0.209437586414118 
508	 0.210858177300197 
509	 0.211931742414952 
510	 0.212939847408297 
511	 0.214166695219631 
512	 0.215666864295397 
513	 0.216981009447165 
514	 0.218213441086657 
515	 0.219650687733505 
516	 0.220937077280818 
517	 0.22222803946477 
518	 0.223605519851235 
519	 0.225007516321351 
520	 0.226602261803848 
521	 0.228049749578056 
522	 0.229157881445987 
523	 0.230572943984908 
524	 0.232061329559721 
525	 0.233495501071587 
526	 0.234858788606668 
527	 0.236342881873583 
528	 0.237954050116623 
529	 0.239580066142615 
530	 0.240931392742242 
531	 0.242306472740199 
532	 0.243849636276097 
533	 0.245547640845733 
534	 0.246883021513158 
535	 0.24823466887486 
536	 0.249776227371343 
537	 0.25137278951001 
538	 0.252873232194834 
539	 0.254369761046306 
540	 0.255953776521154 
541	 0.257500663460442 
542	 0.259063111115977 
543	 0.260586404071231 
544	 0.261989368605159 
545	 0.26356496434791 
546	 0.265157514283412 
547	 0.26664435348461 
548	 0.268074579295475 
549	 0.26959982755287 
550	 0.271153446379367 
551	 0.272615806549132 
552	 0.27405288831889 
553	 0.275501409984255 
554	 0.27693547149051 
555	 0.27825408471278 
556	 0.279660326101343 
557	 0.281093532782399 
558	 0.282440868097212 
559	 0.283702978861561 
560	 0.284889371651118 
561	 0.286107916213506 
562	 0.287484915844485 
563	 0.288594476598193 
564	 0.289556086408451 
565	 0.290524427020737 
566	 0.291586715504427 
567	 0.292515335095742 
568	 0.293386057913783 
569	 0.294344229907436 
570	 0.295226673298093 
571	 0.296151171085469 
572	 0.297009690790602 
573	 0.297454674589196 
574	 0.298224073474437 
575	 0.299069262605942 
576	 0.299676145667049 
577	 0.300336157927224 
578	 0.300872528746556 
579	 0.30135766636807 
580	 0.301966672111205 
581	 0.302290450807971 
582	 0.302446224485675 
583	 0.302603857830421 
584	 0.302940875889598 
585	 0.30280805560803 
586	 0.302400151991917 
587	 0.302150129151935 
588	 0.301811507491797 
589	 0.301542035453318 
590	 0.301350325963423 
591	 0.301054266302781 
592	 0.301072605090108 
593	 0.300993571060059 
594	 0.300498722365433 
595	 0.300039664933445 
596	 0.299660356115587 
597	 0.299231880941032 
598	 0.298571626951558 
599	 0.298029827108304 
600	 0.297619181782492 
601	 0.297264187992618 
602	 0.296801127486467 
603	 0.296520177379533 
604	 0.296523657292085 
605	 0.296740662685939 
606	 0.296611840622839 
607	 0.296410189527876 
608	 0.296319905060376 
609	 0.296384039441181 
610	 0.296561522894722 
611	 0.296657911053104 
612	 0.296601404316571 
613	 0.296786493595098 
614	 0.296751314641649 
615	 0.29662485406812 
616	 0.296817126032817 
617	 0.297010415673747 
618	 0.297023763293742 
619	 0.29686794517506 
620	 0.296817566790564 
621	 0.296896961624994 
622	 0.297014578947213 
623	 0.297026491003129 
624	 0.29678552510736 
625	 0.296733237409986 
626	 0.296791560202202 
627	 0.296419448206693 
628	 0.296616588431645 
629	 0.296878826465509 
630	 0.296761222141464 
631	 0.296743674949909 
632	 0.296766032717283 
633	 0.296814878607374 
634	 0.296878552854279 
635	 0.29689794384764 
636	 0.296858678610159 
637	 0.296733450155657 
638	 0.296452512747683 
639	 0.296599519320832 
640	 0.296766961608995 
641	 0.296500722207408 
642	 0.296487117262351 
643	 0.296207829256546 
644	 0.295622585302876 
645	 0.295091154298897 
646	 0.294405857175493 
647	 0.294062988939032 
648	 0.294256353169803 
649	 0.294249601949456 
650	 0.293835883751167 
651	 0.293299458884797 
652	 0.293012953699601 
653	 0.292235902238683 
654	 0.291304947779454 
655	 0.290377246863927 
656	 0.289395412242119 
657	 0.288805339099746 
658	 0.288214468132366 
659	 0.287339849498745 
660	 0.286780427943274 
661	 0.286214660290648 
662	 0.285627831654924 
663	 0.285183827540426 
664	 0.284688206096945 
665	 0.284305875028726 
666	 0.28404753487492 
667	 0.283575908891382 
668	 0.283195842046694 
669	 0.282882491734289 
670	 0.282523074323423 
671	 0.282118261819735 
672	 0.281843651344124 
673	 0.281686409943092 
674	 0.281463199295891 
675	 0.281344424297928 
676	 0.28122672529935 
677	 0.281029826256115 
678	 0.280844866339974 
679	 0.280782031729041 
680	 0.280714802382939 
681	 0.280434260667575 
682	 0.279990039122972 
683	 0.279798714053806 
684	 0.279726408413863 
685	 0.278813417076897 
686	 0.277950469756647 
687	 0.277469556264224 
688	 0.277302453873647 
689	 0.276858022107617 
690	 0.276309697640904 
691	 0.275524999380532 
692	 0.27424725988867 
693	 0.27323688152369 
694	 0.272518776301249 
695	 0.271951477481639 
696	 0.271345402414262 
697	 0.269987580112109 
698	 0.268367712144431 
699	 0.267253980313677 
700	 0.265879271396295 
701	 0.264542985360644 
702	 0.263187004403509 
703	 0.261459666778657 
704	 0.260198849045084 
705	 0.258769916229698 
706	 0.256846214664214 
707	 0.255120861979855 
708	 0.253087676472621 
709	 0.250786231335053 
710	 0.248424086874469 
711	 0.245950535014632 
712	 0.243291879442665 
713	 0.240464181556059 
714	 0.237498153045349 
715	 0.234093169262069 
716	 0.230138267409068 
717	 0.2260598478314 
718	 0.222149861845759 
719	 0.218971607705295 
720	 0.216597457163606 
721	 0.214178758139251 
722	 0.211175906232494 
723	 0.207581406191421 
724	 0.203991893348425 
725	 0.200465522722728 
726	 0.196510148745803 
727	 0.19257853311963 
728	 0.188891060347949 
729	 0.184218142405073 
730	 0.179573952426919 
731	 0.175569758566483 
732	 0.172104705116961 
733	 0.168904182040328 
734	 0.165906206882663 
735	 0.163235873976576 
736	 0.16119614140367 
737	 0.159495803831712 
738	 0.158167006830568 
739	 0.157264737808144 
740	 0.156658807292857 
741	 0.15578526673187 
742	 0.154919726452122 
743	 0.154625102534857 
744	 0.154027819214722 
745	 0.153618525692683 
746	 0.153502287553987 
747	 0.15309957282828 
748	 0.152728728324824 
749	 0.152434891814782 
750	 0.152181397594748 
751	 0.151862780980282 
752	 0.15164936925181 
753	 0.151474282492503 
754	 0.15116786084897 
755	 0.150878240353048 
756	 0.150663319503463 
757	 0.150481228394296 
758	 0.150086603058225 
759	 0.149191304772459 
760	 0.148337473292958 
761	 0.148624612357772 
762	 0.148227795881136 
763	 0.148375917989807 
764	 0.148809650242435 
765	 0.149013191492826 
766	 0.149535483415792 
767	 0.149892435154442 
768	 0.149980007687454 
769	 0.15001418404483 
770	 0.150115094795796 
771	 0.150203919709232 
772	 0.150266587419767 
773	 0.150601653943204 
774	 0.150906920868613 
775	 0.151193380425748 
776	 0.151578892853189 
777	 0.151917131333308 
778	 0.15221348585373 
779	 0.152600475458687 
780	 0.153286181785231 
781	 0.153621121639509 
782	 0.154023755986764 
783	 0.154727751495685 
784	 0.155081548474402 
785	 0.155624900765507 
786	 0.156232851810113 
787	 0.156609607896248 
788	 0.156909697243292 
789	 0.157449773724425 
790	 0.158220496556609 
791	 0.158951892360181 
792	 0.159673306625041 
793	 0.160471011168699 
794	 0.161269331105446 
795	 0.161662847305018 
796	 0.16216285217155 
797	 0.162801982455437 
798	 0.163501762145995 
799	 0.164257190220952 
800	 0.164832115952351 
801	 0.165182258582563 
802	 0.165434908170385 
803	 0.165851538793184 
804	 0.166217462585301 
805	 0.166408852054634 
806	 0.166448301709808 
807	 0.166217052685465 
808	 0.166215512311735 
809	 0.166550992959768 
810	 0.165946839822173 
811	 0.165248785835769 
812	 0.164752106280655 
813	 0.164370681104072 
814	 0.162957415063962 
815	 0.161988552654933 
816	 0.161657771813477 
817	 0.160903826314911 
818	 0.160050093066007 
819	 0.158821876248939 
820	 0.157311710394285 
821	 0.156183146125061 
822	 0.154202743202812 
823	 0.15187595572529 
824	 0.149828086598157 
825	 0.147525392778265 
826	 0.144868249375864 
827	 0.141736094991659 
828	 0.138412168035443 
829	 0.135740867283465 
830	 0.133105409992098 
831	 0.130646901565351 
832	 0.129062572162851 
833	 0.127313033333847 
834	 0.125793031738053 
835	 0.124695079677849 
836	 0.123751760243807 
837	 0.122949617426803 
838	 0.122228593518764 
839	 0.121488490176535 
840	 0.120481933832186 
841	 0.119839279419761 
842	 0.119330104388959 
843	 0.118609439696803 
844	 0.118438333079056 
845	 0.118076882000574 
846	 0.117379990798207 
847	 0.11665322229445 
848	 0.115901418186894 
849	 0.115492334554593 
850	 0.115229742022924 
851	 0.114241941787859 
852	 0.113774569937002 
853	 0.113649788026962 
854	 0.113443696515859 
855	 0.112930477093411 
856	 0.112025354449638 
857	 0.111476315689987 
858	 0.111654239723375 
859	 0.110832793531421 
860	 0.110242426596954 
861	 0.110194018403191 
862	 0.110342418841282 
863	 0.109722510975431 
864	 0.109164113680334 
865	 0.108702777702048 
866	 0.107666402673577 
867	 0.1071176663088 
868	 0.106528196081418 
869	 0.105901889159937 
870	 0.10616345814283 
871	 0.105911811237962 
872	 0.104921306534948 
873	 0.103663912926394 
874	 0.103513416482398 
875	 0.102918656074716 
876	 0.102344833510799 
877	 0.102367009592588 
878	 0.101598373880346 
879	 0.100784149304097 
880	 0.100174794066154 
881	 9.96893313980117E-02 
882	 9.88835717153729E-02 
883	 9.87195207435392E-02 
884	 9.86032595329952E-02 
885	 9.70964644899027E-02 
886	 0.09642403013482 
887	 0.096293100668204 
888	 9.61655873239852E-02 
889	 9.56194076977741E-02 
890	 9.50706891064852E-02 
891	 9.47459281984485E-02 
892	 0.094519651541785 
893	 9.36432478256426E-02 
894	 0.092913585557005 
895	 9.27660088310602E-02 
896	 9.28843513154229E-02 
897	 9.10293880926116E-02 
898	 8.96995734365785E-02 
899	 8.96178600788179E-02 
900	 9.02910460138337E-02 
901	 9.05490687043375E-02 
902	 8.91601809380304E-02 
903	 8.81647621006902E-02 
904	 8.96691977967602E-02 
905	 9.01554865194288E-02 
906	 0.088917372198067 
907	 8.65223497884587E-02 
908	 8.47354493840408E-02 
909	 8.48935936540517E-02 
910	 8.62733173884204E-02 
911	 8.67896602558812E-02 
912	 8.41794706668086E-02 
913	 8.24687141029253E-02 
914	 8.11535371371121E-02 
915	 8.04810372518382E-02 
916	 0.081695848720965 
917	 8.10413071626057E-02 
918	 8.05974835112485E-02 
919	 8.07243031319787E-02 
920	 7.86991653145047E-02 
921	 7.69819178423452E-02 
922	 0.076813619622277 
923	 7.78606360776761E-02 
924	 7.70274771970575E-02 
925	 7.41305059342691E-02 
926	 7.20631048643475E-02 
927	 7.31816527787395E-02 
928	 7.24268005315899E-02 
929	 7.20422486371643E-02 
930	 7.34308199773306E-02 
931	 7.67972442066214E-02 
932	 7.62973704782401E-02 
933	 7.37077614309305E-02 
934	 7.54479378711312E-02 
935	 8.05804692542785E-02 
936	 5.94034685908687E-02 
937	 6.26803176842445E-02 
938	 7.43818816536899E-02 
939	 6.89480655436345E-02 
940	 6.67413010804883E-02 
941	 6.64968865835837E-02 
942	 6.43682218036979E-02 
943	 5.85410468959561E-02 
944	 6.85905972059882E-02 
945	 7.02589711801217E-02 
946	 6.08864130230229E-02 
947	 5.42943479597688E-02 
948	 6.00822458080658E-02 
949	 7.22349170806453E-02 
950	 7.83481334736615E-02 
951	 6.90474931913831E-02 
952	 0.065500488462346 
953	 6.58430441059098E-02 
954	 6.47200872580556E-02 
955	 5.79230535606256E-02 
956	 0.053017410368766 
957	 5.58057011894315E-02 
958	 6.12222539343325E-02 
959	 5.99954197329435E-02 
960	 6.11950822401344E-02 
961	 6.50332966214351E-02 
962	 6.65225090466195E-02 
963	 6.08011812519385E-02 
964	 5.96847726875925E-02 
965	 5.64674817732173E-02 
966	 5.42260184185279E-02 
967	 6.04706740697126E-02 
968	 0.056864709688567 
969	 0.053216040934101 
970	 5.53408183016582E-02 
971	 6.18528695034297E-02 
972	 5.94015277534617E-02 
973	 5.69592543388103E-02 
974	 0.057637904820612 
975	 5.68300565459726E-02 
976	 5.96692397082368E-02 
977	 5.98128209370784E-02 
978	 5.64704218553042E-02 
979	 5.48273386974063E-02 
980	 5.91401299473317E-02 
981	 6.11624656168002E-02 
982	 5.81396352178403E-02 
983	 5.38047004501159E-02 
984	 5.68499509420832E-02 
985	 5.98248687811777E-02 
986	 5.88234969306971E-02 
987	 5.49222710445712E-02 
988	 5.22456561392781E-02 
989	 5.68380110900573E-02 
990	 6.13670893936633E-02 
991	 5.38033268743231E-02 
992	 5.73927120852834E-02 
993	 0.060204449859951 
994	 5.90621017337532E-02 
995	 5.85969347306009E-02 
996	 5.78892799273298E-02 
997	 5.67929189410645E-02 
998	 5.45377753830297E-02 
999	 5.17498862110247E-02 
1000	 5.83003532360535E-02 
1001	 6.87580591244949E-02 
1002	 6.72617688743953E-02 
1003	 6.62924067158122E-02 
1004	 6.56310814866315E-02 
1005	 6.53111790396638E-02 
1006	 6.46910585967088E-02 
1007	 6.48588658777973E-02 
1008	 6.53358337773581E-02 
1009	 6.58748690330991E-02 
1010	 6.63780569711215E-02 
1011	 6.52476960098256E-02 
1012	 6.39568038756495E-02 
1013	 6.41033285084028E-02 
1014	 6.36201839683198E-02 
1015	 6.28356442971351E-02 
1016	 6.23436604517814E-02 
1017	 6.14378157390573E-02 
1018	 6.13764475312099E-02 
1019	 6.20335502779764E-02 
1020	 6.25408544161211E-02 
1021	 6.41835234914336E-02 
1022	 6.41795358754126E-02 
1023	 6.54053999637474E-02 
1024	 0.066619997038941 
1025	 6.60990688649641E-02 
1026	 6.74889630304051E-02 
1027	 6.72387178022304E-02 
1028	 0.064765667011091 
1029	 6.47793681274407E-02 
1030	 6.61781705569247E-02 
1031	 6.62764153846505E-02 
1032	 6.66116773462992E-02 
1033	 6.68169046064002E-02 
1034	 6.57682988993671E-02 
1035	 6.60433195112534E-02 
1036	 6.80849449983096E-02 
1037	 6.86818283569267E-02 
1038	 6.90096948185705E-02 
1039	 6.89125709388829E-02 
1040	 6.86256979346378E-02 
1041	 6.79125652305452E-02 
1042	 6.77185730339491E-02 
1043	 6.78633228113619E-02 
1044	 6.81335532216436E-02 
1045	 6.82872722096125E-02 
1046	 0.069023709208043 
1047	 7.08838778226853E-02 
1048	 7.13805254528636E-02 
1049	 7.13604185757668E-02 
1050	 7.15524251655636E-02 
1051	 7.15121983840519E-02 
1052	 0.070985553033655 
1053	 6.96493694610477E-02 
1054	 6.94556362501025E-02 
1055	 6.92308290619665E-02 
1056	 6.92169949815344E-02 
1057	 6.96893780985833E-02 
1058	 7.20070685038805E-02 
1059	 7.18690166590898E-02 
1060	 7.02357899765509E-02 
1061	 6.99450164710122E-02 
1062	 6.89463013830525E-02 
1063	 6.91194659174238E-02 
1064	 7.08251986100697E-02 
1065	 7.16162671953078E-02 
1066	 7.33573643228864E-02 
1067	 7.31497922152668E-02 
1068	 7.05536712655525E-02 
1069	 6.99992777566564E-02 
1070	 6.85760114589561E-02 
1071	 6.85253423220382E-02 
1072	 0.071397307148686 
1073	 0.073498202554867 
1074	 0.07384514009813 
1075	 7.34129864012956E-02 
1076	 7.31185985794623E-02 
1077	 7.10691385713672E-02 
1078	 7.06023508318419E-02 
1079	 7.12630270139368E-02 
1080	 7.11253334179485E-02 
1081	 0.071004766611741 
1082	 7.06997584054652E-02 
1083	 6.92989079877752E-02 
1084	 0.069473579133097 
1085	 7.10354561671257E-02 
1086	 7.14832588942669E-02 
1087	 7.29159906935425E-02 
1088	 7.33817103864497E-02 
1089	 7.28958879723059E-02 
1090	 7.08447657988309E-02 
1091	 7.02996302561356E-02 
1092	 7.03975456256064E-02 
1093	 6.95730021049036E-02 
1094	 6.87384348810916E-02 
1095	 6.84281769667813E-02 
1096	 6.66399244440336E-02 
1097	 6.67366549560025E-02 
1098	 6.96482925843431E-02 
1099	 7.01337069550962E-02 
1100	 7.06100847662386E-02 
1101	 7.08272825045361E-02 
1102	 6.82475971513198E-02 
1103	 6.73542508521561E-02 
1104	 0.066675366423325 
1105	 6.84003699495351E-02 
1106	 6.90506952301099E-02 
1107	 7.01616938765817E-02 
1108	 7.27613268546114E-02 
1109	 0.072291929690862 
1110	 7.20469123512207E-02 
1111	 7.16761477008845E-02 
1112	 7.17074681197221E-02 
1113	 6.95538730136416E-02 
1114	 6.97309877094608E-02 
1115	 7.37699769911073E-02 
1116	 7.36259485171674E-02 
1117	 0.071253573012213 
1118	 6.96420253193063E-02 
1119	 6.00420760896023E-02 
1120	 5.67133874132288E-02 
1121	 6.27413610698394E-02 
1122	 6.70717053345461E-02 
1123	 7.83347054273246E-02 
1124	 9.21939026161403E-02 
1125	 8.39667721962383E-02 
1126	 0.072145601419202 
1127	 6.44686382973915E-02 
1128	 6.10857674214755E-02 
1129	 5.82701615175912E-02 
1130	 6.21739287137377E-02 
1131	 6.97727200443938E-02 
1132	 7.62673788275679E-02 
1133	 7.68265895752368E-02 
1134	 9.08435956493958E-02 
1135	 8.80143259748542E-02 
1136	 6.45327073873124E-02 
1137	 6.13577621980218E-02 
1138	 7.07185833970835E-02 
1139	 5.73776151775692E-02 
1140	 4.83783429393368E-02 
1141	 5.82695875074439E-02 
1142	 5.73082638834556E-02 
1143	 5.87591992427971E-02 
1144	 6.53025677662463E-02 
1145	 5.96695632825024E-02 
1146	 5.00300609759081E-02 
1147	 4.26888786675644E-02 
1148	 0.04608938042376 
1149	 5.62140112855563E-02 
1150	 5.60151151740043E-02 
1151	 4.90961191194855E-02 
1152	 0.052310391263545 
1153	 5.67693459867208E-02 
1154	 5.76822097509355E-02 
1155	 6.07310618676422E-02 
1156	 6.45057196659745E-02 
1157	 6.30609122340363E-02 
1158	 5.87596324297044E-02 
1159	 5.69399939861748E-02 
1160	 5.79014355028307E-02 
1161	 0.05907704910408 
1162	 5.88270178764687E-02 
1163	 5.89649733729346E-02 
1164	 5.97192607699156E-02 
1165	 5.87419648352078E-02 
1166	 5.81339985394192E-02 
1167	 5.82451716412287E-02 
1168	 5.76308325972043E-02 
1169	 5.75659152982729E-02 
1170	 5.75164834586451E-02 
1171	 5.74532047816613E-02 
1172	 5.73653384465744E-02 
1173	 5.77316787098125E-02 
1174	 5.83687251755245E-02 
1175	 0.058401099531701 
1176	 0.059211718687931 
1177	 6.02529057772593E-02 
1178	 5.96265203051282E-02 
1179	 5.97069361866952E-02 
1180	 6.02717622218503E-02 
1181	 5.97539509486523E-02 
1182	 5.96841985338522E-02 
1183	 6.01002750307591E-02 
1184	 6.00152868024549E-02 
1185	 5.87376175345667E-02 
1186	 5.76521667932265E-02 
1187	 5.86317359825379E-02 
1188	 5.92417507348338E-02 
1189	 5.83886144114289E-02 
1190	 0.058954829330557 
1191	 5.91977937689607E-02 
1192	 5.85411700198103E-02 
1193	 5.66495428995728E-02 
1194	 5.72712849317193E-02 
1195	 5.82740144812247E-02 
1196	 5.77917373141223E-02 
1197	 5.86132049131331E-02 
1198	 5.90851794140137E-02 
1199	 5.76200390278567E-02 
1200	 5.71099733414353E-02 
1201	 5.71642766346131E-02 
1202	 5.74610543246808E-02 
1203	 5.81998332787501E-02 
1204	 5.77019632187442E-02 
1205	 5.75076647809835E-02 
1206	 5.82173220072015E-02 
1207	 5.85228436065362E-02 
1208	 5.84200438288665E-02 
1209	 5.80615505511483E-02 
1210	 5.81203030688406E-02 
1211	 5.91268959912448E-02 
1212	 5.99387037429825E-02 
1213	 0.059547437890859 
1214	 5.96802913804076E-02 
1215	 5.93383867132499E-02 
1216	 5.88909007454138E-02 
1217	 5.84315144749666E-02 
1218	 5.91105237122961E-02 
1219	 5.94752852702233E-02 
1220	 5.85467770047893E-02 
1221	 5.82868442263168E-02 
1222	 5.94084627199771E-02 
1223	 6.00668022525268E-02 
1224	 5.94915774917409E-02 
1225	 5.92837959213592E-02 
1226	 5.88271428346957E-02 
1227	 5.81409142506723E-02 
1228	 5.85238896725562E-02 
1229	 5.83084519479807E-02 
1230	 5.73744691030037E-02 
1231	 5.72264668708637E-02 
1232	 5.76656270707585E-02 
1233	 5.78077436620119E-02 
1234	 5.78339978599709E-02 
1235	 0.057908442923888 
1236	 5.69631379037283E-02 
1237	 5.68770383060439E-02 
1238	 5.73691115057134E-02 
1239	 5.81831287826404E-02 
1240	 0.058353369761417 
1241	 0.05819052073382 
1242	 5.82029726870286E-02 
1243	 5.85967842476752E-02 
1244	 0.058593069999392 
1245	 5.81367277832168E-02 
1246	 5.75540836303326E-02 
1247	 5.72441133350612E-02 
1248	 5.77988780062018E-02 
1249	 5.86228075875898E-02 
1250	 5.85622135732458E-02 
1251	 5.83970702767759E-02 
1252	 5.81201331513273E-02 
1253	 5.67323083743218E-02 
1254	 0.056597076028799 
1255	 0.057005427941766 
1256	 5.72696048598247E-02 
1257	 5.83431814650036E-02 
1258	 5.88926149474706E-02 
1259	 5.91019422891484E-02 
1260	 5.89494046679333E-02 
1261	 5.78201315332272E-02 
1262	 5.75562485269343E-02 
1263	 5.74411612484637E-02 
1264	 5.78716748855244E-02 
1265	 0.058759275798311 
1266	 5.92059859260963E-02 
1267	 5.85759282962875E-02 
1268	 5.75799289102648E-02 
1269	 5.68518441356886E-02 
1270	 0.057436072495193 
1271	 5.83359265104535E-02 
1272	 5.85901786075242E-02 
1273	 0.059005940896912 
1274	 5.89964714275376E-02 
1275	 5.83712130563794E-02 
1276	 5.78402797844224E-02 
1277	 5.70055237975589E-02 
1278	 5.62600392477901E-02 
1279	 5.58980756573284E-02 
1280	 5.57768652455161E-02 
1281	 5.59425585149638E-02 
1282	 0.05659050490918 
1283	 5.64494950517625E-02 
1284	 5.61473831402257E-02 
1285	 5.65011821113029E-02 
1286	 5.70632500422181E-02 
1287	 5.71128734052374E-02 
1288	 5.68432416700336E-02 
1289	 5.70231849438179E-02 
1290	 5.68743030158013E-02 
1291	 5.74268157280535E-02 
1292	 5.78431536079947E-02 
1293	 5.82183837351705E-02 
1294	 5.81963759964336E-02 
1295	 5.74265439844672E-02 
1296	 5.79485513394061E-02 
1297	 5.94491410170079E-02 
1298	 5.98259544297966E-02 
1299	 0.058950441285594 
1300	 0.058292162591431 
1301	 5.87687882937533E-02 
1302	 5.85428824550466E-02 
1303	 5.86842765374055E-02 
1304	 0.059094589679216 
1305	 0.058052349811833 
1306	 5.76628889613097E-02 
1307	 5.77275207420157E-02 
1308	 0.058185908970304 
1309	 5.90504599557606E-02 
1310	 0.059150793480118 
1311	 5.99774806589308E-02 
1312	 5.96487356057568E-02 
1313	 5.70618128627244E-02 
1314	 5.63706835081373E-02 
1315	 0.055811948525473 
1316	 5.64451829123665E-02 
1317	 6.02458959820592E-02 
1318	 6.07075457701578E-02 
1319	 5.85533329679962E-02 
1320	 5.90233019996291E-02 
1321	 5.98547890350316E-02 
1322	 5.92789421374944E-02 
1323	 6.08532127356048E-02 
1324	 6.26673266599957E-02 
1325	 5.89896460976376E-02 
1326	 5.76532048648255E-02 
1327	 6.11517375903567E-02 
1328	 6.11013529792393E-02 
1329	 6.02904849947485E-02 
1330	 6.13408062015066E-02 
1331	 6.11618149968384E-02 
1332	 5.90348728604228E-02 
1333	 5.68003455723881E-02 
1334	 5.66405488050594E-02 
1335	 5.72835627815651E-02 
1336	 5.84789362558193E-02 
1337	 5.68639730941397E-02 
1338	 5.34087665874149E-02 
1339	 5.43419301066169E-02 
1340	 5.60950762713487E-02 
1341	 5.42152638940467E-02 
1342	 5.50502099111628E-02 
1343	 0.057935053791233 
1344	 5.48334564109073E-02 
1345	 5.34398708413894E-02 
1346	 6.23597456516574E-02 
1347	 0.0743561180942 
1348	 8.98041150078301E-02 
1349	 9.44749291768114E-02 
1350	 9.91338503631825E-02 
1351	 0.11562072263981 
1352	 8.18332703744407E-02 
1353	 8.04189011816512E-02 
1354	 0.226131894006024 
1355	 0.28913370566842 
1356	 7.85686362484109E-02 
1357	-0.117601062079139 
1358	-0.199454996678601 
1359	-0.233078676318665 
1360	-0.1753396997987 
1361	-0.125419563234916 
1362	 4.26366782246912E-02 
1363	 8.26383656179356E-02 
1364	 0.160571359440181 
1365	 0.367325362619009 
1366	-6.52853549981518E-02 
1367	-0.473688126022761 
1368	-0.591620418301007 
1369	-0.219125905566873 
1370	-0.168662098616671 
1371	-0.744844061264109 
1372	-0.286349814546086 
1373	 2.82529601406476 
1374	 2.59738539147952 
1375	 2.13874614262739 
1376	 2.00823286633229 
1377	 1.42021586637241 
1378	 1.22385025389573 
1379	 1.10808411145947 
1380	 0.91864574281318 
1381	 0.696177564571178 
1382	 0.328870177277854 
1383	-0.574971849203156 
1384	-0.793668394289245 
1385	 1.63161334619276E-02 
1386	 0.378226347030869 
1387	 2.4922473716403 
1388	 7.20607504122885 
1389	 5.30909755305493 
1390	 5.81202965544005 
1391	 1.40865954629085 
1392	 0.577571659274176 
1393	 0.749858949688685 
1394	-2.71519628825741 
1395	-0.981046239422154 
1396	 0.334882995978513 
1397	 0.663212725390743 
1398	 0.547684972911932 
1399	 0.697370362865719 
1400	 0.275998277489866 
1401	-7.42742380163824E-02 
1402	 0.245099040104649 
1403	 0.629846064670367 
1404	 0.657154510128245 
1405	 0.690291649657484 
1406	 0.672404243859384 
1407	 0.627582828258818 
1408	-0.662611577803862 
1409	-0.425094029489961 
1410	 0.562604306036224 
1411	 0.800593912685009 
1412	 1.07799330568186 
1413	 0.816811219461446 
1414	 0.558763988727362 
1415	 0.421184198194404 
1416	 0.238059320185449 
1417	 0.251810155737596 
1418	 0.318582595733942 
1419	 0.260596757135985 
1420	 0.205614173500391 
1421	 0.207717121820206 
1422	 0.180328374397016 
1423	 8.55178558083163E-02 
1424	-2.64016207927617E-02 
1425	 5.08065270535699E-03 
1426	 4.86027710119603E-02 
1427	 2.24610191895169E-02 
1428	 0.082524399682818 
1429	 9.30053862279556E-02 
1430	-0.044690520763714 
1431	-9.45965919820856E-02 
1432	-5.74415612182272E-02 
1433	-0.020725048814995 
1434	 3.06711257951244E-02 
1435	 7.29974948363013E-02 
1436	 0.194142681684136 
1437	 0.205856681557687 
1438	 0.121978960441077 
1439	 0.133223690194226 
1440	 0.127247722390682 
1441	 0.127988094515553 
1442	 0.177399607806208 
1443	 0.206078681993614 
1444	 0.158387570902583 
1445	 0.105151420673016 
1446	 0.120213634025864 
1447	 0.137007808287389 
1448	 0.166771985332655 
1449	 0.19830735753736 
1450	 0.15642630933573 
1451	 0.135514398865479 
1452	 0.137884029626957 
1453	 0.113137426843366 
1454	 9.86430479948756E-02 
1455	 8.91457384032469E-02 
1456	 7.88620321864317E-02 
1457	 5.76205706045104E-02 
1458	 5.61050049544802E-02 
1459	 7.00140732807721E-02 
1460	 6.60985303897928E-02 
1461	 6.09739920154325E-02 
1462	 5.85615870201354E-02 
1463	 4.74332811097441E-02 
1464	 3.67464186015844E-02 
1465	 0.021856304243368 
1466	 2.25904417023346E-02 
1467	 3.10494741980577E-02 
1468	 0.032042988823878 
1469	 4.73838370891083E-02 
1470	 6.00860190628261E-02 
1471	 6.53646684512023E-02 
1472	 6.30711064369233E-02 
1473	 5.75168874485988E-02 
1474	 5.83580885672578E-02 
1475	 5.82099784802228E-02 
1476	 4.47497716215024E-02 
1477	 2.54178416976828E-02 
1478	 3.15204677761736E-02 
1479	 3.84977117098528E-02 
1480	 3.53770770995358E-02 
1481	 0.047397745556558 
1482	 0.051285927414317 
1483	 3.71610619974888E-02 
1484	 0.037411307006081 
1485	 4.99402306674302E-02 
1486	 5.30400193153246E-02 
1487	 5.11587558712476E-02 
1488	 5.09764183407114E-02 
1489	 5.37375387359036E-02 
1490	 5.21856852243508E-02 
1491	 4.60317173854286E-02 
1492	 4.55954070489444E-02 
1493	 4.69435209201549E-02 
1494	 4.62670615851686E-02 
1495	 4.73200558971285E-02 
1496	 4.74259995183481E-02 
1497	 0.044727487270277 
1498	 4.42186378456819E-02 
1499	 4.41426395986296E-02 
1500	 4.58014150640992E-02 
1501	 5.15666512787338E-02 
1502	 5.22129242792742E-02 
1503	 4.95706033310143E-02 
1504	 4.97178970083832E-02 
1505	 0.048779775413723 
1506	 4.81042665223591E-02 
1507	 4.99287587248655E-02 
1508	 5.13201092673909E-02 
1509	 5.03501716499505E-02 
1510	 4.90835758549208E-02 
1511	 4.82214347918751E-02 
1512	 4.84581020303263E-02 
1513	 0.048111335891829 
1514	 4.67847954733903E-02 
1515	 4.76330495809119E-02 
1516	 0.047820073959196 
1517	 4.58986901689293E-02 
1518	 4.67807981489561E-02 
1519	 4.77902971098688E-02 
1520	 4.57280532236292E-02 
1521	 4.47173565633773E-02 
1522	 4.46359661514321E-02 
1523	 4.46685759998563E-02 
1524	 4.68729814112903E-02 
1525	 4.90537907277939E-02 
1526	 4.93653872295252E-02 
1527	 4.93203568871844E-02 
1528	 4.92993672823894E-02 
1529	 4.90224332670236E-02 
1530	 4.93888195763275E-02 
1531	 4.97566710670007E-02 
1532	 4.94369030339385E-02 
1533	 4.97388538951901E-02 
1534	 4.97155990886206E-02 
1535	 4.87223770175826E-02 
1536	 4.74675975607523E-02 
1537	 4.63451677709345E-02 
1538	 4.69299892065064E-02 
1539	 4.81978911945736E-02 
1540	 4.91521726659674E-02 
1541	 5.06985308638066E-02 
1542	 5.12828476149718E-02 
1543	 5.00565107075323E-02 
1544	 4.90126501009592E-02 
1545	 4.87287226870205E-02 
1546	 4.80477205812738E-02 
1547	 4.71865738274439E-02 
1548	 4.71235739870069E-02 
1549	 4.78660291171857E-02 
1550	 4.72421805784634E-02 
1551	 4.65484807677613E-02 
1552	 4.80118845661527E-02 
1553	 4.83856119805801E-02 
1554	 4.84897908972916E-02 
1555	 4.99282769262365E-02 
1556	 4.99806719856874E-02 
1557	 4.90817611769536E-02 
1558	 4.91278679028739E-02 
1559	 4.96455649689251E-02 
1560	 4.92675262630012E-02 
1561	 4.85868343031353E-02 
1562	 4.87060492281305E-02 
1563	 4.96891725271084E-02 
1564	 5.04493120982047E-02 
1565	 0.050376726417266 
1566	 5.08076715003795E-02 
1567	 5.07863060363599E-02 
1568	 0.05023000093707 
1569	 5.00492336001379E-02 
1570	 4.97071517348852E-02 
1571	 4.91369235385616E-02 
1572	 4.87270255238873E-02 
1573	 4.96514517542656E-02 
1574	 0.049877925192813 
1575	 4.85191205743685E-02 
1576	 4.81893362365264E-02 
1577	 4.85283531667263E-02 
1578	 4.84321601162884E-02 
1579	 4.91672595380653E-02 
1580	 5.08199178614773E-02 
1581	 5.20272185406132E-02 
1582	 0.053039217216808 
1583	 5.29859683413085E-02 
1584	 5.16637626495002E-02 
1585	 5.13872888760752E-02 
1586	 5.05316209464051E-02 
1587	 4.86647788035456E-02 
1588	 4.88146630610091E-02 
1589	 4.93240512979551E-02 
1590	 4.88484377240803E-02 
1591	 4.87460643394354E-02 
1592	 4.88572598721869E-02 
1593	 4.93381870016669E-02 
1594	 0.049530675020723 
1595	 4.90359487638319E-02 
1596	 4.84657198032625E-02 
1597	 4.79150325421941E-02 
1598	 4.80120700175592E-02 
1599	 4.78355115483621E-02 
1600	 4.81948931018474E-02 
1601	 4.88679921017505E-02 
1602	 4.73734385799182E-02 
1603	 4.72104131162337E-02 
1604	 4.84383583037918E-02 
1605	 4.69173149650617E-02 
1606	 4.56114564364749E-02 
1607	 4.64032678476115E-02 
1608	 4.73785134530617E-02 
1609	 4.73946859710064E-02 
1610	 4.70352332095821E-02 
1611	 4.82631911846254E-02 
1612	 4.93913468069476E-02 
1613	 4.89539786095454E-02 
1614	 4.87136911173871E-02 
1615	 4.87850582808688E-02 
1616	 4.83546648024523E-02 
1617	 4.84128897945555E-02 
1618	 4.90643822490697E-02 
1619	 4.86853465386759E-02 
1620	 4.70537049889029E-02 
1621	 4.65578402568906E-02 
1622	 4.73189628014945E-02 
1623	 0.047759182039208 
1624	 4.80015502106125E-02 
1625	 4.82658558803327E-02 
1626	 4.80455456381578E-02 
1627	 4.68745335320187E-02 
1628	 4.67918449402347E-02 
1629	 0.047757700835393 
1630	 0.048719776030961 
1631	 4.98163689644824E-02 
1632	 4.95829910174538E-02 
1633	 4.83231336021384E-02 
1634	 4.84454834475965E-02 
1635	 4.93420389818998E-02 
1636	 4.83790198066927E-02 
1637	 4.77712106641099E-02 
1638	 4.92361960830282E-02 
1639	 4.97347869280746E-02 
1640	 4.83756204307772E-02 
1641	 4.77126974368997E-02 
1642	 4.67355621686966E-02 
1643	 4.53770758405223E-02 
1644	 4.74645244154151E-02 
1645	 4.95621985079922E-02 
1646	 4.93380545794318E-02 
1647	 4.91633663159828E-02 
1648	 4.90070351894853E-02 
1649	 4.94899654316445E-02 
1650	 4.89559003189869E-02 
1651	 4.78071983227704E-02 
1652	 4.82779791957794E-02 
1653	 0.048950424475371 
1654	 4.89380502858474E-02 
1655	 4.83875363527311E-02 
1656	 4.85239229486131E-02 
1657	 4.91519426452177E-02 
1658	 4.91390727745636E-02 
1659	 4.91831457428858E-02 
1660	 5.00581975722852E-02 
1661	 5.05988603698902E-02 
1662	 5.08214005878669E-02 
1663	 5.27014194965792E-02 
1664	 5.21582169528529E-02 
1665	 4.84477909581574E-02 
1666	 4.82913248905412E-02 
1667	 4.95952869064586E-02 
1668	 0.049846164268016 
1669	 5.03851489482751E-02 
1670	 4.91668872063879E-02 
1671	 4.88164442410083E-02 
1672	 4.98426513346271E-02 
1673	 0.049098431428061 
1674	 4.84818352873577E-02 
1675	 0.048608406288366 
1676	 4.83605434801469E-02 
1677	 4.70925426043319E-02 
1678	 4.64886262287175E-02 
1679	 4.72930411446322E-02 
1680	 4.73584576729217E-02 
1681	 4.73582567828937E-02 
1682	 4.68717067152675E-02 
1683	 0.046280847273019 
1684	 4.58832291398541E-02 
1685	 4.63100334694751E-02 
1686	 4.87522436296126E-02 
1687	 4.98313740939201E-02 
1688	 4.80570406031057E-02 
1689	 4.76812520343533E-02 
1690	 4.87092821415691E-02 
1691	 4.73668234350208E-02 
1692	 4.71216532442576E-02 
1693	 4.66275711983139E-02 
1694	 0.044926449017738 
1695	 4.81873889252848E-02 
1696	 5.11017388176198E-02 
1697	 5.10165989626205E-02 
1698	 5.21071414521008E-02 
1699	 5.01234816427307E-02 
1700	 4.64654150140531E-02 
1701	 4.83783466804723E-02 
1702	 5.05807763720702E-02 
1703	 4.94620400086087E-02 
1704	 5.02884961058784E-02 
1705	 5.07889201395383E-02 
1706	 4.95198443014829E-02 
1707	 4.86969562594456E-02 
1708	 4.82297223269864E-02 
1709	 4.78319548386199E-02 
1710	 0.047143769519059 
1711	 4.77038493074545E-02 
1712	 4.83660659456652E-02 
1713	 4.88115207975741E-02 
1714	 4.88382723871193E-02 
1715	 4.66218903660835E-02 
1716	 0.044806086021763 
1717	 4.55036921502768E-02 
1718	 4.57983634696614E-02 
1719	 4.80455886507547E-02 
1720	 4.85289574090827E-02 
1721	 4.43239318944398E-02 
1722	 0.043838106171894 
1723	 4.72602909278623E-02 
1724	 4.87885661065054E-02 
1725	 5.07025987878726E-02 
1726	 5.10740287486319E-02 
1727	 4.62951900061498E-02 
1728	 4.48798179104751E-02 
1729	 4.61600780774499E-02 
1730	 4.55527200514406E-02 
1731	 4.69328735985905E-02 
1732	 4.66843660086438E-02 
1733	 4.53029264781263E-02 
1734	 4.43025666707024E-02 
1735	 0.042551170328493 
1736	 4.43472994881386E-02 
1737	 4.76414946255776E-02 
1738	 4.93384981067398E-02 
1739	 0.049824160013303 
1740	 4.79868724091449E-02 
1741	 4.40336007671935E-02 
1742	 4.21358420458541E-02 
1743	 4.32673679803054E-02 
1744	 4.53372488375395E-02 
1745	 4.70374839248188E-02 
1746	 4.76970190351538E-02 
1747	 4.88318418232449E-02 
1748	 4.56321305651667E-02 
1749	 4.50354187869625E-02 
1750	 4.81538386787068E-02 
1751	 4.84881893292356E-02 
1752	 4.96063978609861E-02 
1753	 5.00098198660671E-02 
1754	 4.69907498452357E-02 
1755	 4.74288487551095E-02 
1756	 5.06115076505721E-02 
1757	 4.90461356352576E-02 
1758	 4.87906890730902E-02 
1759	 4.79097869756343E-02 
1760	 0.043190469250486 
1761	 4.34911064522065E-02 
1762	 4.98197093493357E-02 
1763	 4.93945911430592E-02 
1764	 4.45878080191888E-02 
1765	 4.74719371265117E-02 
1766	 4.55865687257111E-02 
1767	 4.03051216243334E-02 
1768	 4.81947258895485E-02 
1769	 5.32341833565446E-02 
1770	 4.81311331756958E-02 
1771	 4.64718639918107E-02 
1772	 4.51376503791489E-02 
1773	 4.35650257549661E-02 
1774	 4.70399671474993E-02 
1775	 0.055167412734402 
1776	 5.58440096214134E-02 
1777	 3.87854129318611E-02 
1778	 3.57997586252183E-02 
1779	 4.28598153480364E-02 
1780	 0.046233921011684 
1781	 6.23545001615354E-02 
1782	 6.09293034253472E-02 
1783	 3.80414633794458E-02 
1784	 3.44575786716334E-02 
1785	 2.97855164290532E-02 
1786	 3.34479137983524E-02 
1787	 6.68700128075299E-02 
1788	 6.89301528693259E-02 
1789	 4.52210298231095E-02 
1790	 0.049472330912192 
1791	 3.94323679795593E-02 
1792	 0.032533187371369 
1793	 5.55437062580181E-02 
1794	 5.45617913870498E-02 
1795	 4.01474701896728E-02 
1796	 6.92607096373543E-02 
1797	 8.52049027762073E-02 
1798	 6.17031278958687E-02 
1799	 5.82718958086336E-02 
1800	-0.011629232852557 
1801	-5.03424796454287E-02 
1802	-1.64311130154781E-02 
1803	-4.6150979032827E-03 
1804	 6.16605348662587E-02 
1805	 0.112398724720397 
1806	 9.63113977555589E-02 
1807	 0.171320053301613 
1808	 0.455261310309513 
1809	 0.520994194366099 
1810	 0.420624323236793 
1811	 0.393493105247256 
1812	-0.240450415162968 
1813	-0.227297892758509 
1814	 0.584671840891694 
1815	 0.584526323300698 
1816	 0.316421010706246 
1817	 7.11770605467921E-02 
1818	 0.373450606830063 
1819	 1.26235090820523 
1820	 3.52193536686216 
1821	 8.86103113129778E-02 
1822	 0.717931463424386 
1823	-7.88877263536495 
1824	-2.99044930091668 
1825	 1.67566658256357E-02 
1826	 0.447667575181645 
1827	 2.2404087710872 
1828	 2.4065591923991 
1829	-0.144243286935488 
1830	-0.778566307963744 
1831	-0.112143321554921 
1832	 1.5599438897366 
1833	 3.17991521043201 
1834	 5.28665301446024 
1835	 18.9188909022041 
1836	-16.8013879561401 
1837	-3.04894286705969 
1838	-2.03650507036704 
1839	-1.32899831342156 
1840	-0.425170516508656 
1841	 2.12101550941348E-02 
1842	 8.01862506622352E-02 
1843	 4.16027165181453E-02 
1844	-0.320526213898731 
1845	-0.473147240011919 
1846	-0.616844042100106 
1847	-0.772678352915488 
1848	-0.642235545825298 
1849	-40.2092309114283 
1850	 0.310183121363615 
1851	 0.128990067620379 
1852	 9.87140772499122E-02 
1853	-0.382324884628293 
1854	-1.19383602045086 
1855	 3.96992000977179 
1856	 4.05308891059848 
1857	-1.88854150626 
1858	-0.878796090859535 
1859	-4.07068918726962E-02 
1860	 0.180338044450297 
1861	 0.325321229321732 
1862	 0.709087651685481 
1863	 1.56308634895022 
1864	 2.68411892568488 
1865	 2.96208712737703 
1866	 2.38910238054536 
1867	 4.20119196157173 
1868	 2.32921981740503 
1869	 1.64252016992136 
1870	 1.78884324197066 
1871	 3.99928143441737 
1872	 2.0819315864555 
1873	-2.20537706997023 
1874	-0.856601228222828 
1875	-0.719124794948416 
1876	-0.723777309501188 
1877	-1.59606711290404 
1878	-1.78041444930062 
1879	-0.20201543237015 
1880	 8.49354720156557E-02 
1881	-1.84955137276935E-02 
1882	 3.3280879947027 
1883	 0.877620164596573 
1884	-4.44007014059657 
1885	-5.00644884207327 
1886	-3.19015980292376 
1887	-9.53896260854175 
1888	 2.07757997779382 
1889	 0.894278448995363 
1890	-0.621659350346207 
1891	-0.780363425268635 
1892	-0.824918267991951 
1893	-0.656681547344974 
1894	-0.521300126652286 
1895	-0.836472069965452 
1896	-33.1520672153458 
1897	 1.76221575220034 
1898	 1.33331098883753 
1899	 1.57649403346855 
1900	 1.21904425564492 
1901	-0.620690230106617 
1902	-0.900125964202242 
1903	-0.526381036686498 
1904	-0.384816856493163 
1905	-0.572791788519212 
1906	-0.384263774492766 
1907	-1.65104218867555 
1908	-2.01543323945075 
1909	-2.61361588143399 
1910	-2.13912416134869 
1911	-0.475536930358865 
1912	-0.610680200102212 
1913	-0.341419504454463 
1914	 2.04971689019951 
1915	-2.4498575663293 
1916	-7.05002613870339 
1917	 0.948205577246425 
1918	 4.6137131262778 
1919	-23.5506641132169 
1920	-3.31114077188078 
1921	 4.26522321732419 
1922	 11.7874933323216 
1923	-6.92655880970737 
1924	 1.9232788616614 
1925	 1.2042179993053 
1926	 1.84218650038916 
1927	-1.23023740304368 
1928	-0.603938079886062 
1929	-0.603112754356065 
1930	 0.203760457294181 
1931	 18.3630180930594 
1932	-0.837727615257854 
1933	-1.07335946167396 
1934	-0.413768178429729 
1935	 8.88856140428703E-02 
1936	-0.430432650651544 
1937	-0.237133906115997 
1938	 6.71280484114981E-02 
1939	 9.77402756016425E-02 
1940	-0.167910173304947 
1941	 0.561359804294744 
1942	 2.09455743969638 
1943	 1.54359882698335 
1944	 29.3002166151353 
1945	-3.38678095905324 
1946	-0.982573054482471 
1947	 1.71910629210898E-02 
1948	 0.103376838619564 
1949	 0.285776384170066 
1950	 7.69399435679248 
1951	-5.9117090222228 
1952	-1.79912243252747 
1953	-4.73869085822497E-03 
1954	 0.27944815791361 
1955	 0.626184920090766 
1956	 0.421558240681434 
1957	 0.159688747053541 
1958	 6.01704425215523E-02 
1959	-7.18986091506942E-02 
1960	 0.028886845213592 
1961	 0.164009072317004 
1962	 0.227861043356867 
1963	 0.285530102960456 
1964	 0.267494998737324 
1965	 0.184361075824556 
1966	 0.142013213424144 
1967	 0.116795596804533 
1968	 9.02420907017601E-02 
1969	 5.82478558913002E-02 
1970	 6.84507409445906E-02 
1971	 0.058304873380339 
1972	 6.39047963525123E-02 
1973	 8.96866651657378E-02 
1974	 8.53162411422014E-02 
1975	 9.20571180840173E-02 
1976	 9.98585785127354E-02 
1977	 8.43562059490836E-02 
1978	 7.77546791805994E-02 
1979	 7.38722894635117E-02 
1980	 7.53079265691343E-02 
1981	 6.51439685977297E-02 
1982	 4.86789076814707E-02 
1983	 3.62870390101273E-02 
1984	 3.14571802028605E-02 
1985	 3.91390865628973E-02 
1986	 5.62585071007397E-02 
1987	 6.98924120670655E-02 
1988	 8.20524315516694E-02 
1989	 8.20301628354084E-02 
1990	 7.65177917594905E-02 
1991	 8.06628524791366E-02 
1992	 7.47993140633117E-02 
1993	 6.36209582933604E-02 
1994	 5.73474684038281E-02 
1995	 5.56219070965094E-02 
1996	 4.85497291566776E-02 
1997	 6.07541201546249E-02 
1998	 8.00746629018993E-02 
1999	 8.05272071577685E-02 
2000	 9.78736425447029E-02 
2001	 0.101619166723425 
2002	 7.52791050782376E-02 
2003	 7.48051295897437E-02 
2004	 0.071911373282745 
2005	 6.99419002888196E-03 
2006	-2.58512867350982E-02 
2007	 5.74921094723395E-03 
2008	-5.59568261314726E-03 
2009	-5.37065297676314E-03 
2010	 3.60848453100633E-02 
2011	 4.70903853264722E-02 
2012	 3.01203109445006E-02 
2013	 2.47370851020718E-02 
2014	 1.77026139642094E-02 
2015	 1.22113210552515E-02 
2016	 4.28903290647884E-03 
2017	 7.91256858503124E-03 
2018	 1.37544847917063E-02 
2019	 1.78640449521743E-02 
2020	 3.85117672824007E-02 
2021	 4.60881221465364E-02 
2022	 5.16034935963644E-02 
2023	 5.61592047143531E-02 
2024	 5.90035620550628E-02 
2025	 5.62146791399622E-02 
2026	 5.07221317673345E-02 
2027	 4.49673516601621E-02 
2028	 4.51384661053328E-02 
2029	 3.41328924064589E-02 
2030	 2.49475602348553E-02 
2031	 2.81718974856464E-02 
2032	 3.23289883231296E-02 
2033	 3.57277317944806E-02 
2034	 3.73570400075999E-02 
2035	 3.61146444954224E-02 
2036	 3.86348759255871E-02 
2037	 4.79494676087233E-02 
2038	 5.28522160377127E-02 
2039	 5.64160338908907E-02 
2040	 6.06035705179307E-02 
2041	 0.062340500663621 
2042	 6.53372190038229E-02 
2043	 6.10412817150279E-02 
2044	 5.04705677807617E-02 
2045	 4.48205048964234E-02 
2046	 3.44298207355756E-02 
2047	 2.55846617963054E-02 
2048	 3.14573994385732E-02 
2049	 3.32834663638128E-02 
2050	 3.03278303506251E-02 
2051	 0.026734301924273 
2052	 3.16928059353106E-02 
2053	 3.83920221972999E-02 
2054	 4.17584320977878E-02 
2055	 4.78437716469908E-02 
2056	 5.03055568655336E-02 
2057	 4.54916957917856E-02 
2058	 4.60616366216876E-02 
2059	 4.50341949748146E-02 
2060	 0.045876704183507 
2061	 4.83895947573904E-02 
2062	 5.25304689164813E-02 
2063	 5.53835535796169E-02 
2064	 0.067380957427928 
2065	 6.59555071791895E-02 
2066	 5.26948711878927E-02 
2067	 4.63438544797406E-02 
2068	 4.96255119028193E-02 
2069	 6.15745800853039E-02 
2070	 0.065924423572227 
2071	 6.36304990604677E-02 
2072	 5.58589191145051E-02 
2073	 5.01204210623207E-02 
2074	 0.040949199434406 
2075	 3.93769029987571E-02 
2076	 4.01911669021599E-02 
2077	 4.14122910703584E-02 
2078	 4.67054865148202E-02 
2079	 4.71000186923653E-02 
2080	 4.56933411467907E-02 
2081	 4.63526733573309E-02 
2082	 4.83113085909908E-02 
2083	 4.51048490034656E-02 
2084	 4.33732160759176E-02 
2085	 4.72298031803699E-02 
2086	 4.36906217265544E-02 
2087	 4.11289389553705E-02 
2088	 3.71446170193883E-02 
2089	 3.10370720049174E-02 
2090	 3.51727649565038E-02 
2091	 3.64085065124274E-02 
2092	 3.74680144162749E-02 
2093	 4.26316519075602E-02 
2094	 4.67043147190935E-02 
2095	 5.01535599965493E-02 
2096	 5.10180835556203E-02 
2097	 5.22479245135344E-02 
2098	 5.22819742774743E-02 
2099	 4.85738313156286E-02 
2100	 4.22674090000969E-02 
2101	 4.03716450289233E-02 
2102	 4.26457679935348E-02 
2103	 4.62456353092916E-02 
2104	 5.22893655788243E-02 
2105	 5.99338442906703E-02 
2106	 6.74150561986431E-02 
2107	 6.63196537003474E-02 
2108	 5.30436576919581E-02 
2109	 3.86163607499688E-02 
2110	 3.32163341208526E-02 
2111	 3.62054261932381E-02 
2112	 4.24345863908236E-02 
2113	 0.046131822166154 
2114	 5.58385822495039E-02 
2115	 5.60133089186472E-02 
2116	 4.69985484461126E-02 
2117	 0.043769041961057 
2118	 0.042727901226439 
2119	 3.77221534228603E-02 
2120	 2.98816326149119E-02 
2121	 0.025580140941218 
2122	 2.35450260696871E-02 
2123	 1.62550429896828E-02 
2124	 1.86450284563281E-02 
2125	 2.69450941261506E-02 
2126	 2.57782687862469E-02 
2127	 2.66333637850106E-02 
2128	 3.26295588164201E-02 
2129	 2.77693025846405E-02 
2130	 0.027872264700223 
2131	 3.61982536591058E-02 
2132	 3.79565418074367E-02 
2133	 4.71732764040464E-02 
2134	 5.12223790977363E-02 
2135	 5.40207094216314E-02 
2136	 5.58887607154192E-02 
2137	 5.39092321129907E-02 
2138	 5.40156994623197E-02 
2139	 5.75541376576912E-02 
2140	 5.77017924896672E-02 
2141	 5.91558663904867E-02 
2142	 5.59681216932351E-02 
2143	 4.68948311029693E-02 
2144	 4.06126793341626E-02 
2145	 3.74839871313159E-02 
2146	 2.94424517074432E-02 
2147	 0.028495274522511 
2148	 3.09218607841594E-02 
2149	 3.40182790589789E-02 
2150	 3.26904291535866E-02 
2151	 3.42318670128612E-02 
2152	 3.97926957317474E-02 
2153	 3.67578722028529E-02 
2154	 4.09641246814307E-02 
2155	 4.60400378787289E-02 
2156	 4.18774275973947E-02 
2157	 4.25475578718903E-02 
2158	 4.50943672815168E-02 
2159	 4.66311047286562E-02 
2160	 4.86793285247086E-02 
2161	 5.29388712982821E-02 
2162	 0.057706062243725 
2163	 6.23644177363588E-02 
2164	 7.22124323116021E-02 
2165	 7.19592098502062E-02 
2166	 6.45668459324498E-02 
2167	 6.11653319087237E-02 
2168	 5.46052091819269E-02 
2169	 4.88026691554684E-02 
2170	 4.20739674769316E-02 
2171	 4.43231967171204E-02 
2172	 3.96208244837999E-02 
2173	 3.07080637016135E-02 
2174	 3.35467119658317E-02 
2175	 3.59665648264717E-02 
2176	 3.71733305613634E-02 
2177	 3.49599760655126E-02 
2178	 4.12178729683435E-02 
2179	 4.25922612890129E-02 
2180	 4.12838526422328E-02 
2181	 5.22640359676422E-02 
2182	 4.49155245521834E-02 
2183	 4.30887881022105E-02 
2184	 4.94939016722217E-02 
2185	 4.27209275038737E-02 
2186	 4.61829302972072E-02 
2187	 0.060995957556501 
2188	 6.15717673900223E-02 
2189	 6.00727465534454E-02 
2190	 5.81556667840134E-02 
2191	 4.27053474710839E-02 
2192	 3.70528489203238E-02 
2193	 0.038073916866946 
2194	 3.59398694294807E-02 
2195	 0.038021027779098 
2196	 3.82835782414478E-02 
2197	 3.52115406018141E-02 
2198	 3.23355219799218E-02 
2199	 0.025732207750436 
2200	 2.85871718411395E-02 
2201	 2.77246728112334E-02 
2202	 2.28287976941597E-02 
2203	 3.00899302919348E-02 
2204	 2.40748886654144E-02 
2205	 1.98412948581065E-02 
2206	 3.65358882029477E-02 
2207	 4.39258637677451E-02 
2208	 4.48142303015222E-02 
2209	 4.65138587477567E-02 
2210	 4.12111232618576E-02 
2211	 3.76489963200805E-02 
2212	 0.0362299650579 
2213	 3.82215377743969E-02 
2214	 4.11285584959907E-02 
2215	 4.01029089907215E-02 
2216	 0.043138416376462 
2217	 4.12816357354266E-02 
2218	 3.13600722772057E-02 
2219	 3.11606175526359E-02 
2220	 3.71109800798313E-02 
2221	 3.64736968374793E-02 
2222	 3.77036058309297E-02 
2223	 3.62394401345229E-02 
2224	 2.41293839441995E-02 
2225	 1.97123438032784E-02 
2226	 2.03900009753616E-02 
2227	 2.36695790269663E-02 
2228	 3.20874451071813E-02 
2229	 3.81324919000175E-02 
2230	 5.03990521375455E-02 
2231	 5.48695221914649E-02 
2232	 4.72873920607662E-02 
2233	 4.80718825827835E-02 
2234	 5.80106845693506E-02 
2235	 5.17007766152035E-02 
2236	 3.07345947747583E-02 
2237	 2.67134923231097E-02 
2238	 5.80479680783756E-03 
2239	-1.20624117350572E-02 
2240	 4.72386079487676E-03 
2241	 1.38157958891482E-02 
2242	 1.81142592768006E-02 
2243	 1.24710245428841E-02 
2244	-9.97740317096664E-03 
2245	-1.85580977795545E-02 
2246	-4.85539757217288E-03 
2247	 8.54304604914444E-03 
2248	 0.017134740836682 
2249	 1.66477915396512E-02 
2250	 6.67515651343274E-03 
2251	 5.06750481803065E-03 
2252	 1.89786333843556E-03 
2253	 1.05009272995423E-02 
2254	 2.17211535807839E-02 
2255	 2.48272747090484E-02 
2256	 3.34143576116058E-02 
2257	 2.70412048336441E-02 
2258	 0.019997723001894 
2259	 0.017959881235713 
2260	 2.00603941834897E-02 
2261	 3.19721434592941E-02 
2262	 4.47412374622922E-02 
2263	 7.08462153920007E-02 
2264	 7.13187031285459E-02 
2265	 5.68455255810466E-02 
2266	 4.57763567887093E-02 
2267	 1.45856344734825E-02 
2268	-5.68077336839225E-03 
2269	-1.90928142259329E-02 
2270	-1.35105619547865E-02 
2271	 6.67063945115764E-03 
2272	 1.18030685545213E-02 
2273	 0.032252984315972 
2274	 3.68044859967508E-02 
2275	 8.24995474181295E-03 
2276	 4.36731839653624E-03 
2277	 1.56930928500516E-02 
2278	 1.88435577653263E-02 
2279	 2.53765335082464E-02 
2280	 3.45140602614602E-02 
2281	 4.97093335242563E-02 
2282	 4.31979282687293E-02 
2283	 6.51785515988652E-02 
2284	 8.39107939913456E-02 
2285	 0.088226999045734 
2286	 9.93551196408898E-02 
2287	 7.64755907015298E-02 
2288	 4.99286891255993E-02 
2289	 2.98757906578439E-02 
2290	-5.56042467000289E-04 
2291	-2.02632826844877E-02 
2292	-2.50590755925209E-02 
2293	-4.39488317923171E-02 
2294	-4.71230661803987E-02 
2295	-8.23952019916565E-03 
2296	 4.24652447917121E-03 
2297	 1.47157114453661E-02 
2298	 0.025959467282674 
2299	-6.30210973910695E-03 
2300	-0.034157752033894 
2301	-2.67335818988606E-02 
2302	-6.69415556978267E-03 
2303	-1.32035030146357E-02 
2304	-2.82984832634198E-02 
2305	-3.11282621488088E-02 
2306	-3.87867134582055E-02 
2307	-3.29829898413678E-03 
2308	 4.29202765634514E-02 
2309	 3.70830577237696E-02 
2310	 3.65114114359019E-02 
2311	 5.49958657713803E-02 
2312	 5.60430027704809E-02 
2313	 8.53397972112797E-02 
2314	 0.100021370702056 
2315	 2.85579025627185E-02 
2316	-3.04697088661119E-02 
2317	-4.28157933478517E-02 
2318	-6.16168580744703E-02 
2319	-4.72017027358318E-02 
2320	 2.35297916525856E-03 
2321	-2.55448971595582E-02 
2322	-0.025626311944848 
2323	 0.050365302176093 
2324	 4.15441415707646E-02 
2325	 5.37795916988004E-02 
2326	 8.01077265654098E-02 
2327	 1.66953546667538E-02 
2328	 1.20311020214041E-02 
2329	 3.54837927185667E-02 
2330	 3.64381988863793E-02 
2331	 5.83640429716148E-02 
2332	 0.056929483245905 
2333	 2.73957989413283E-02 
2334	 6.89577075345838E-03 
2335	 3.58647173354915E-02 
2336	 3.25121012134022E-02 
2337	 9.89922945788747E-03 
2338	-2.54703819400002E-02 
2339	-6.84155582438289E-02 
2340	-6.97980552727588E-02 
2341	-8.13654109498526E-02 
2342	 9.53268965790178E-03 
2343	 0.106353710191425 
2344	 0.144396509130219 
2345	 0.211497509964527 
2346	 0.140792429004895 
2347	 0.108745112490503 
2348	 9.98865365592624E-02 
2349	 1.27475953884665E-03 
2350	 4.36732477410969E-02 
2351	 1.11664135890051E-02 
2352	 4.77615506764532E-02 
2353	 0.228495115636782 
2354	 0.116864683899804 
2355	 9.31459245340824E-03 
2356	-3.08694959942473E-02 
2357	-0.133805608649699 
2358	-0.107689969927282 
2359	 5.06072823503822E-02 
2360	 7.32120480521325E-02 
2361	 4.60277917717216E-02 
2362	 0.190202390418104 
2363	 0.25601938115567 
2364	 0.141462348309741 
2365	 0.152126096351008 
2366	 0.105773665254465 
2367	 0.02809617890491 
2368	 0.161956033976156 
2369	 0.382762345043978 
2370	 0.414341503508009 
2371	-0.677900118268459 
2372	-1.11478540556407 
2373	-0.810828608419119 
2374	-0.805856520908583 
2375	-0.918810430179706 
2376	-1.2565715809014 
2377	-1.7000969759886 
2378	-1.30339591752132 
2379	-1.23870456709869 
2380	-0.36261977492769 
2381	-0.089834757933992 
2382	-0.259327268954358 
2383	-0.178704186109335 
2384	-0.229097455649236 
2385	-0.449475096833738 
2386	-0.429708594214582 
2387	-0.412989524159938 
2388	-0.483783665944455 
2389	 5.32406620421573E-02 
2390	 0.363197244945747 
2391	 0.478832833007144 
2392	 0.480356686920509 
2393	 0.343880948289384 
2394	 0.232329111748223 
2395	 0.245391271456607 
2396	 9.66511431306532E-02 
2397	-1.02547504594957E-02 
2398	-0.280312345272229 
2399	-0.450118648309852 
2400	-0.252676786671684 
2401	-0.10596212998942 
2402	 0.403750782747002 
2403	 0.634108288180419 
2404	 0.685757193531272 
2405	 0.490754174062662 
2406	-0.237177228369086 
2407	-0.822769757538454 
2408	-0.794253004030004 
2409	-0.853790769544875 
2410	-1.19478152791506 
2411	-0.945275717862855 
2412	-0.855933511286537 
2413	-0.946074626162462 
2414	-0.514357947467827 
2415	-1.10306412893911 
2416	-2.00554526288092 
2417	-2.48891765347134 
2418	-8.15298375801517 
2419	-5.28356421709842 
2420	-2.91164710415815E-02 
2421	 0.108814106493583 
2422	 3.02519421195321 
2423	 0.677016632147855 
2424	 1.52512575902963E-02 
2425	-0.295664973000349 
2426	 0.255482095091238 
2427	-0.304013202015661 
2428	-2.04449487759827E-02 
2429	-0.145487202054848 
2430	-0.174917578633377 
2431	 3.28941491911092E-02 
2432	-0.039314739844795 
2433	-1.47835165344878E-02 
2434	 4.21002845887542E-02 
2435	-9.71890654988921E-02 
2436	-0.386177076681127 
2437	 3.08651768936249 
2438	-11.4140166355149 
2439	-2.12197047078776 
2440	-2.00124184504086 
2441	-1.73074169149176 
2442	-1.17029230942985 
2443	-1.67927247394661 
2444	 2.41589142161595 
2445	 1.24351224806991 
2446	 0.386073785155646 
2447	 0.164647025786936 
2448	 0.273728711114605 
2449	 1.27631995025157 
2450	 0.336489935515628 
2451	-1.27369939231748E-02 
2452	 0.974546549850585 
2453	-3.76233287985212 
2454	 5.18992087300227 
2455	-64.6946051725422 
2456	-2.65490572418239 
2457	-7.45696124172979 
2458	-3.48784801411691 
2459	-0.425451414660455 
2460	 0.418680555135696 
2461	-23.8479370351081 
2462	 1.46112825148776 
2463	 14.8132723398024 
2464	 3.73045606781992 
2465	 0.453446140098106 
2466	-0.911990460976029 
2467	 0.524986401891613 
2468	 1.42423022194717 
2469	 1.67513866168468 
2470	 2.51099962659825 
2471	-2.15510476911594 
2472	-0.649748013062051 
2473	-4.52768554152602 
2474	-10.3845818199969 
2475	-2.22960106783536 
2476	-3.02936730057338 
2477	-0.703626133895369 
2478	-0.326878639374654 
2479	-0.728607989378807 
2480	-0.440679273060414 
2481	-1.571721411262 
2482	-5.67554953902908 
2483	-5.20674768395794 
2484	 1.41922797008205 
2485	-0.158642076411869 
2486	-0.305783668857149 
2487	-0.905169607431155 
2488	-1.18326187617768 
2489	-1.03279794520562 
2490	-0.96912953083851 
2491	-0.760677529675883 
2492	-0.416381644244677 
2493	-0.536934271396112 
2494	-1.04781245207016 
2495	-1.20861156025038 
2496	-1.62039598860036 
2497	-5.92969176747271 
2498	-8.47367484160908 
2499	 1.61757477163038 
2500	 1.85122340616561 
