Wavelength	rt0629clean00004.asd
350	 0.101723277088741 
351	 0.102218406123743 
352	 0.10206840802573 
353	 0.101747571661171 
354	 0.101592900116655 
355	 0.100937158221166 
356	 0.101016759738949 
357	 0.101173347047018 
358	 0.100631309409191 
359	 0.100714778761846 
360	 0.101046896458865 
361	 0.101298147093972 
362	 0.101234947751056 
363	 0.100743518338738 
364	 0.100480739046872 
365	 0.100567390252227 
366	 0.100196800661289 
367	 0.100077710573708 
368	 0.100433889843418 
369	 0.101100463984179 
370	 0.101132389312764 
371	 0.100863188393556 
372	 0.100591816736374 
373	 0.100559167805812 
374	 0.100707307880721 
375	 0.100715655331873 
376	 0.100469237548436 
377	 0.100170335548693 
378	 0.100619904326068 
379	 0.101212903734931 
380	 0.101297184195364 
381	 0.101150127384305 
382	 0.101354823884079 
383	 0.101656722006214 
384	 0.101511576628533 
385	 0.101519664403763 
386	 0.101667596668852 
387	 0.10176425020629 
388	 0.101521180306771 
389	 0.101803073455108 
390	 0.102135770634281 
391	 0.102185854155078 
392	 0.102629125644366 
393	 0.102928532592254 
394	 0.103052284356547 
395	 0.103122423904405 
396	 0.102962062490161 
397	 0.1026817079958 
398	 0.102484035657984 
399	 0.102597465807947 
400	 0.102617498187294 
401	 0.102719046677441 
402	 0.102933108851087 
403	 0.102717997674895 
404	 0.102830936941317 
405	 0.103130058688156 
406	 0.103234989709239 
407	 0.103503993449417 
408	 0.103750015218559 
409	 0.103758142157041 
410	 0.103368458460843 
411	 0.103564759236362 
412	 0.103935022962406 
413	 0.104065055324337 
414	 0.104155451965864 
415	 0.104358823373706 
416	 0.104555377442936 
417	 0.104582602264417 
418	 0.104790704491567 
419	 0.104914353545193 
420	 0.104935736265602 
421	 0.105134378625652 
422	 0.105315189180594 
423	 0.105553813678114 
424	 0.105855386141022 
425	 0.105840938090365 
426	 0.106138027629589 
427	 0.106652514711658 
428	 0.106973434437442 
429	 0.107242485674911 
430	 0.107441848373005 
431	 0.107612813686817 
432	 0.107872641130832 
433	 0.107987069960112 
434	 0.108097634075598 
435	 0.108382787312355 
436	 0.108915087652778 
437	 0.109320558530631 
438	 0.109546259321096 
439	 0.109739996572191 
440	 0.110065255376985 
441	 0.110364825718 
442	 0.110559642863067 
443	 0.110735771351644 
444	 0.110944705765126 
445	 0.111182756477308 
446	 0.111420249449022 
447	 0.111619478648201 
448	 0.111734267744845 
449	 0.111875715577505 
450	 0.112220686304513 
451	 0.112236006444824 
452	 0.112305350719732 
453	 0.112617708192848 
454	 0.112689953406917 
455	 0.112860096088703 
456	 0.112995622203372 
457	 0.112919872832622 
458	 0.113130885886674 
459	 0.11325564642463 
460	 0.113240995535917 
461	 0.113381918168793 
462	 0.113431607706111 
463	 0.113489064183928 
464	 0.113632814260311 
465	 0.113702273729229 
466	 0.113756173570383 
467	 0.11385028447317 
468	 0.114005795801499 
469	 0.113973063764287 
470	 0.114064770223518 
471	 0.11428873280835 
472	 0.114185719281423 
473	 0.114326349700483 
474	 0.114510335381086 
475	 0.114524400327644 
476	 0.114876319656976 
477	 0.11508156366015 
478	 0.11507121788121 
479	 0.115080858836932 
480	 0.115228534261137 
481	 0.115418391401692 
482	 0.115603493486182 
483	 0.115905357959447 
484	 0.116241951764836 
485	 0.116511932156961 
486	 0.11664704111899 
487	 0.116762485128168 
488	 0.116999701434075 
489	 0.117323676799238 
490	 0.117543884995336 
491	 0.117830328438393 
492	 0.11809236695284 
493	 0.118298356158021 
494	 0.118738213948768 
495	 0.119023059438964 
496	 0.119224857607926 
497	 0.119618708759795 
498	 0.120024952066045 
499	 0.120394153356084 
500	 0.120741862042669 
501	 0.121167946690307 
502	 0.121372844032008 
503	 0.121584733864037 
504	 0.122049569622922 
505	 0.122440425099852 
506	 0.1228235337442 
507	 0.123223834846829 
508	 0.123626761304555 
509	 0.124031773331115 
510	 0.124420188804612 
511	 0.124806148224353 
512	 0.125296551751906 
513	 0.125763867369771 
514	 0.126219337241227 
515	 0.126729407667882 
516	 0.127331835588641 
517	 0.127789461297355 
518	 0.128102549077554 
519	 0.128583983882254 
520	 0.129066265521564 
521	 0.129528710872768 
522	 0.129990155579127 
523	 0.130469116089024 
524	 0.131036272646814 
525	 0.131660725379926 
526	 0.132238202564742 
527	 0.132696734744084 
528	 0.133139335049599 
529	 0.133655915756947 
530	 0.134266510081225 
531	 0.134941551501907 
532	 0.135575050388603 
533	 0.136075252258228 
534	 0.13661744076555 
535	 0.137198464941532 
536	 0.137810645069759 
537	 0.138452129647569 
538	 0.139057228333617 
539	 0.139706634907158 
540	 0.140441883022425 
541	 0.141058865283103 
542	 0.141691197634612 
543	 0.142345173726721 
544	 0.142954556906981 
545	 0.143551675599463 
546	 0.144207657762622 
547	 0.144914204852763 
548	 0.145500331203226 
549	 0.146152637069501 
550	 0.146823798661403 
551	 0.147407423447318 
552	 0.147944991697697 
553	 0.148561268223347 
554	 0.149238465260671 
555	 0.149796440874076 
556	 0.15045049282449 
557	 0.151139005685791 
558	 0.151761497973798 
559	 0.152338406006032 
560	 0.152932198304157 
561	 0.153545853719584 
562	 0.154145000119331 
563	 0.154697568344534 
564	 0.15527823271134 
565	 0.15588360771997 
566	 0.156327549839015 
567	 0.156814946225291 
568	 0.157352779984019 
569	 0.157855361409008 
570	 0.158183635952261 
571	 0.158442081700957 
572	 0.158758193568768 
573	 0.159253776668294 
574	 0.159624340472008 
575	 0.159954306758285 
576	 0.160344869310652 
577	 0.160640735415316 
578	 0.160999590154232 
579	 0.161415851992076 
580	 0.161780970919183 
581	 0.162056285265828 
582	 0.162341584627948 
583	 0.162686700523663 
584	 0.163019408508951 
585	 0.163353372206404 
586	 0.163613390744544 
587	 0.163755840323829 
588	 0.164105628333003 
589	 0.16435483457226 
590	 0.164469931283932 
591	 0.164756784464217 
592	 0.164860913334152 
593	 0.164939862923471 
594	 0.165121804037324 
595	 0.16512659152035 
596	 0.165200449916561 
597	 0.165342056570275 
598	 0.165422663191616 
599	 0.165548719613868 
600	 0.165674903513591 
601	 0.165781262559712 
602	 0.165921132835734 
603	 0.166071725296264 
604	 0.166217043823154 
605	 0.16634907624538 
606	 0.166502342712601 
607	 0.166605474971209 
608	 0.166665489513436 
609	 0.166771677652725 
610	 0.166869447392805 
611	 0.166984609645169 
612	 0.167115811535916 
613	 0.167121417606894 
614	 0.167223434665709 
615	 0.167367418239096 
616	 0.167364824789816 
617	 0.167351373575319 
618	 0.167504309832392 
619	 0.167768297427648 
620	 0.167703997777302 
621	 0.167763370274638 
622	 0.167927689723674 
623	 0.16803887455794 
624	 0.168042292810074 
625	 0.168160580228756 
626	 0.168320520380266 
627	 0.16818867217512 
628	 0.168302785194148 
629	 0.168450075251658 
630	 0.168444307660083 
631	 0.168567611253538 
632	 0.168610232672031 
633	 0.168638474604412 
634	 0.168805482842954 
635	 0.168859985968537 
636	 0.168875786779836 
637	 0.168931934776204 
638	 0.169070912710666 
639	 0.169198289223046 
640	 0.169300683915676 
641	 0.169374898905252 
642	 0.169338121861537 
643	 0.169410354194193 
644	 0.169565955610092 
645	 0.169584985022709 
646	 0.169638236091058 
647	 0.169729828665688 
648	 0.169818046651317 
649	 0.169831513951476 
650	 0.169825465469495 
651	 0.169853832621112 
652	 0.169944445838821 
653	 0.169966859368085 
654	 0.170028434230782 
655	 0.170116420049281 
656	 0.170030675040863 
657	 0.169965795059397 
658	 0.169936902441152 
659	 0.169922761259934 
660	 0.169919901705429 
661	 0.170001029793323 
662	 0.170110135334357 
663	 0.170120510749962 
664	 0.170096258751911 
665	 0.170112422120775 
666	 0.170187604220844 
667	 0.170238919559714 
668	 0.170309955294703 
669	 0.170373768918655 
670	 0.170400902919953 
671	 0.170449937864988 
672	 0.170577214376663 
673	 0.170771345356783 
674	 0.170952071793747 
675	 0.170908952379272 
676	 0.170968427067598 
677	 0.171279019328667 
678	 0.17126607241776 
679	 0.17137175637163 
680	 0.171555868946976 
681	 0.171612663285903 
682	 0.171803053797681 
683	 0.172021509724492 
684	 0.17217009953019 
685	 0.172207365883289 
686	 0.172360206558486 
687	 0.172510093149617 
688	 0.172539509922016 
689	 0.172787164576966 
690	 0.172975897129388 
691	 0.173068062186724 
692	 0.173165983662625 
693	 0.17324391721449 
694	 0.173358822024134 
695	 0.17348119444109 
696	 0.173445810787932 
697	 0.173492420658716 
698	 0.173576566752295 
699	 0.173597123199085 
700	 0.173677152636641 
701	 0.173656993090914 
702	 0.173607495018837 
703	 0.173749800594413 
704	 0.173702340281492 
705	 0.17352933893648 
706	 0.173387840098832 
707	 0.173499536769992 
708	 0.17341309862213 
709	 0.173192184106006 
710	 0.173054287879672 
711	 0.172894570343901 
712	 0.172633383721158 
713	 0.17228899223277 
714	 0.171974736456215 
715	 0.171800653478394 
716	 0.171613603547288 
717	 0.171241474029105 
718	 0.170823343619266 
719	 0.170355983498938 
720	 0.169967110269627 
721	 0.169653872274331 
722	 0.169219971739147 
723	 0.168810534652151 
724	 0.168432856661154 
725	 0.167716116102004 
726	 0.167182760261517 
727	 0.166684602525476 
728	 0.165978775881303 
729	 0.164949697286173 
730	 0.164065381082765 
731	 0.163327314961672 
732	 0.162505328542917 
733	 0.161812590973105 
734	 0.161212312643179 
735	 0.160706909951834 
736	 0.160353860462264 
737	 0.160005768893852 
738	 0.159747792881509 
739	 0.159639235262398 
740	 0.159470076723966 
741	 0.159382010470397 
742	 0.159383388320282 
743	 0.159409727619925 
744	 0.159439151307153 
745	 0.159481036290728 
746	 0.159524856208646 
747	 0.159528907969969 
748	 0.159548726754734 
749	 0.159627233422722 
750	 0.159745090973895 
751	 0.159698766905601 
752	 0.159672913908695 
753	 0.159709237231252 
754	 0.159771277786043 
755	 0.159935789808865 
756	 0.159891846949475 
757	 0.159617368724595 
758	 0.159536944157569 
759	 0.159660941490455 
760	 0.159875881334856 
761	 0.159855799716157 
762	 0.159962918816053 
763	 0.16021524458498 
764	 0.160372779165502 
765	 0.160305540386153 
766	 0.16049079339682 
767	 0.16064636271922 
768	 0.160708919726128 
769	 0.160813582115683 
770	 0.160941792647538 
771	 0.16106695417418 
772	 0.161171934708421 
773	 0.161270794086015 
774	 0.16140014843815 
775	 0.161562427760657 
776	 0.16175074941046 
777	 0.162023688124169 
778	 0.162151121768127 
779	 0.162200249730967 
780	 0.162523617555796 
781	 0.162677186270022 
782	 0.162730611400119 
783	 0.162838864885952 
784	 0.163144587835039 
785	 0.163339209074296 
786	 0.163439894496538 
787	 0.163585906595099 
788	 0.163841274714427 
789	 0.164109255629923 
790	 0.164355107715671 
791	 0.164600537391365 
792	 0.164733346512635 
793	 0.164946949902565 
794	 0.165251120868242 
795	 0.165277754073442 
796	 0.165566728629921 
797	 0.165830744553413 
798	 0.165803250420426 
799	 0.166071177744305 
800	 0.166320407580554 
801	 0.166440749786232 
802	 0.166476247340253 
803	 0.166598363278394 
804	 0.166673121429662 
805	 0.166664865086886 
806	 0.166670885385439 
807	 0.166678971519611 
808	 0.166599655463795 
809	 0.166457965227368 
810	 0.166646990817155 
811	 0.166587206116573 
812	 0.166325161823155 
813	 0.166164965645555 
814	 0.166098449357483 
815	 0.165849181754718 
816	 0.16550448990974 
817	 0.165394296545673 
818	 0.16511856302 
819	 0.16467941219977 
820	 0.164177626878075 
821	 0.163804783707719 
822	 0.163442087998367 
823	 0.162762751653482 
824	 0.161723066664539 
825	 0.160769410724144 
826	 0.160147589214946 
827	 0.159547187584997 
828	 0.158539901876633 
829	 0.157348020485171 
830	 0.156297612486206 
831	 0.155473954976006 
832	 0.154776978122743 
833	 0.153977456304077 
834	 0.153392897787804 
835	 0.153071742577152 
836	 0.152661778415816 
837	 0.152214546402028 
838	 0.151852247749828 
839	 0.151605290233382 
840	 0.151218013554684 
841	 0.150884975988978 
842	 0.150627614232573 
843	 0.150411556231912 
844	 0.15026895754958 
845	 0.150062586476901 
846	 0.149727882621751 
847	 0.149297746427019 
848	 0.149130060017199 
849	 0.148920680197256 
850	 0.148574262078533 
851	 0.148350530335094 
852	 0.14818924539655 
853	 0.147995164262229 
854	 0.147660846351182 
855	 0.147052011026054 
856	 0.146884215501093 
857	 0.146928300877779 
858	 0.146805585407437 
859	 0.146650121168347 
860	 0.146447223202654 
861	 0.146160515535972 
862	 0.145775887702332 
863	 0.145458268465346 
864	 0.14534397259336 
865	 0.145284838835687 
866	 0.144945424141841 
867	 0.144850327829576 
868	 0.144602142215722 
869	 0.144119122732764 
870	 0.143867574442071 
871	 0.143611287293713 
872	 0.143406995761715 
873	 0.143247900323163 
874	 0.142869250202991 
875	 0.142324445989545 
876	 0.141947065483145 
877	 0.14191548308999 
878	 0.141566244352788 
879	 0.14115424447068 
880	 0.14075224749354 
881	 0.140356645247897 
882	 0.140056329072595 
883	 0.13968843216869 
884	 0.139339030595197 
885	 0.139225710527109 
886	 0.138923624868773 
887	 0.1386731322033 
888	 0.138436603902994 
889	 0.137826228970886 
890	 0.137327650145481 
891	 0.13712394481267 
892	 0.137084219180979 
893	 0.136593131957161 
894	 0.136126014761693 
895	 0.135863422298675 
896	 0.135842714405132 
897	 0.135947886766296 
898	 0.135519705293469 
899	 0.134949712747388 
900	 0.134764368405724 
901	 0.134450581031006 
902	 0.134182834488665 
903	 0.133704102058117 
904	 0.132856239000412 
905	 0.132737408111844 
906	 0.132753822453497 
907	 0.13255665490031 
908	 0.132021215358648 
909	 0.130988332250355 
910	 0.130376389206496 
911	 0.130256961272825 
912	 0.129863631850716 
913	 0.129146433411052 
914	 0.128871288985592 
915	 0.128798650198409 
916	 0.127661673096609 
917	 0.127011055682869 
918	 0.125715765666347 
919	 0.124030222618333 
920	 0.124271779070287 
921	 0.123909074392685 
922	 0.122777779267576 
923	 0.121333429086492 
924	 0.120357097595316 
925	 0.120121208254554 
926	 0.119482129013844 
927	 0.117608842386334 
928	 0.117053238447223 
929	 0.116162564541593 
930	 0.115315816643624 
931	 0.11535136889558 
932	 0.111175562378198 
933	 0.110322631151739 
934	 0.110791700830309 
935	 0.10676321229009 
936	 0.105359667697415 
937	 0.105113655084712 
938	 0.103440029313212 
939	 9.99746107434133E-02 
940	 0.103210916309414 
941	 0.103493444768686 
942	 0.100118913773398 
943	 9.71440193999741E-02 
944	 9.59243176293998E-02 
945	 9.31428750686736E-02 
946	 8.99686963188016E-02 
947	 8.96620465297602E-02 
948	 9.08115834475799E-02 
949	 8.70768291609928E-02 
950	 0.080671597191627 
951	 7.83656408150596E-02 
952	 8.03718123785706E-02 
953	 8.12717226260283E-02 
954	 7.85544543519317E-02 
955	 7.38512789984534E-02 
956	 0.077606173676861 
957	 7.85085039019826E-02 
958	 0.07480581704148 
959	 7.22927832240944E-02 
960	 7.16778164841782E-02 
961	 7.15749564626378E-02 
962	 7.20517315405123E-02 
963	 0.073604817115233 
964	 0.071514962650799 
965	 7.07341984941182E-02 
966	 7.11167483864589E-02 
967	 6.92219703678841E-02 
968	 6.85179452068322E-02 
969	 6.97451881516381E-02 
970	 0.071375595040585 
971	 7.07963836602067E-02 
972	 7.07365742262521E-02 
973	 7.02604363528103E-02 
974	 6.94591413876099E-02 
975	 6.96374642632458E-02 
976	 7.05022915544406E-02 
977	 6.97665230677031E-02 
978	 0.068490830460083 
979	 6.99341274615588E-02 
980	 7.07351824572303E-02 
981	 7.12920171147639E-02 
982	 7.16222338304426E-02 
983	 7.12176416852954E-02 
984	 7.00415072130228E-02 
985	 6.90353467472862E-02 
986	 6.92685519927475E-02 
987	 7.11194767234439E-02 
988	 7.06801851565399E-02 
989	 6.98189962837897E-02 
990	 6.94115207608435E-02 
991	 0.06935366310703 
992	 7.14457833686113E-02 
993	 7.26708733971383E-02 
994	 7.24334912311683E-02 
995	 7.22261423425904E-02 
996	 7.29441881283725E-02 
997	 7.30125204465828E-02 
998	 7.29525937086189E-02 
999	 7.42744223947997E-02 
1000	 7.57033695694616E-02 
1001	 7.39607945632364E-02 
1002	 7.42115201447944E-02 
1003	 7.46403073665167E-02 
1004	 0.075676632198735 
1005	 7.62423925431218E-02 
1006	 7.65739644085543E-02 
1007	 7.69309238121406E-02 
1008	 7.71080290667487E-02 
1009	 7.71043930583488E-02 
1010	 7.74402185570213E-02 
1011	 7.80428682924555E-02 
1012	 7.89262514621472E-02 
1013	 7.96778950891085E-02 
1014	 8.02699122560243E-02 
1015	 8.07583220462639E-02 
1016	 8.12912368189008E-02 
1017	 8.16717544628733E-02 
1018	 8.21913964527586E-02 
1019	 8.27029266331418E-02 
1020	 8.33819603000837E-02 
1021	 8.42588623713977E-02 
1022	 8.48898014613346E-02 
1023	 8.57493421031576E-02 
1024	 8.68181130851462E-02 
1025	 0.087513433882793 
1026	 8.82823813175335E-02 
1027	 0.088953807173586 
1028	 8.95393423000597E-02 
1029	 9.01114786626751E-02 
1030	 9.05521841033574E-02 
1031	 9.11923646260226E-02 
1032	 9.19044986722753E-02 
1033	 9.25566580704533E-02 
1034	 9.32232899596027E-02 
1035	 9.39967151717169E-02 
1036	 9.48184736592236E-02 
1037	 9.56133910286904E-02 
1038	 9.64609852703048E-02 
1039	 9.74742556264992E-02 
1040	 9.80902798826767E-02 
1041	 9.86028292309245E-02 
1042	 9.92994039981285E-02 
1043	 0.100024122930612 
1044	 0.100597003097946 
1045	 0.101228352330246 
1046	 0.101798581592508 
1047	 0.102090648068647 
1048	 0.102685751019663 
1049	 0.103684632358782 
1050	 0.104217709870942 
1051	 0.104491634043512 
1052	 0.104943361943902 
1053	 0.105196123008493 
1054	 0.105571253189297 
1055	 0.10626154882859 
1056	 0.106785879755421 
1057	 0.107238302172748 
1058	 0.107560764113265 
1059	 0.107938142942544 
1060	 0.108286488204147 
1061	 0.108648824792403 
1062	 0.10901786879557 
1063	 0.109358690416149 
1064	 0.109772005388889 
1065	 0.110000255061863 
1066	 0.110193780197801 
1067	 0.110228282742068 
1068	 0.109990756443763 
1069	 0.109872244952743 
1070	 0.109562870822275 
1071	 0.109509275907421 
1072	 0.109670898205268 
1073	 0.109799224417373 
1074	 0.109956975124185 
1075	 0.110353751653338 
1076	 0.110348130085215 
1077	 0.110143606665702 
1078	 0.109988606238604 
1079	 0.109692699433566 
1080	 0.109360787684439 
1081	 0.108927261553292 
1082	 0.10866215360581 
1083	 0.108467840906932 
1084	 0.108122178609253 
1085	 0.107772745935292 
1086	 0.107498741965782 
1087	 0.10721227586404 
1088	 0.106773035342832 
1089	 0.106477398181223 
1090	 0.105819189636317 
1091	 0.105409848912397 
1092	 0.104785406108889 
1093	 0.104464764880356 
1094	 0.104648018659765 
1095	 0.104268675841981 
1096	 0.103548137827498 
1097	 0.102998303447484 
1098	 0.102141486275646 
1099	 0.101627709912611 
1100	 0.101611077618125 
1101	 0.101204516621373 
1102	 0.10064953501238 
1103	 0.100092786648775 
1104	 9.93330044707398E-02 
1105	 9.84759117698953E-02 
1106	 9.77059608641778E-02 
1107	 9.76041751765742E-02 
1108	 9.78362937534686E-02 
1109	 9.75666957994356E-02 
1110	 9.69809884795939E-02 
1111	 9.58838998677863E-02 
1112	 9.53670035112918E-02 
1113	 9.44097083813019E-02 
1114	 9.38145627886914E-02 
1115	 9.45557693849106E-02 
1116	 9.45955937158559E-02 
1117	 9.37468825595517E-02 
1118	 9.33224807794566E-02 
1119	 9.37352630672145E-02 
1120	 0.093289502545256 
1121	 9.19417029437699E-02 
1122	 0.091442212691299 
1123	 8.88038660146576E-02 
1124	 8.51252077610069E-02 
1125	 8.29675994519543E-02 
1126	 8.32487259569673E-02 
1127	 8.30739272995513E-02 
1128	 8.07766857922339E-02 
1129	 0.07927215984249 
1130	 7.63580767977593E-02 
1131	 0.074488953011466 
1132	 7.51748560084426E-02 
1133	 7.39355578208199E-02 
1134	 7.05233530663101E-02 
1135	 6.87246001575075E-02 
1136	 6.80049060054198E-02 
1137	 6.62863661687699E-02 
1138	 6.34540148441516E-02 
1139	 6.30741431500431E-02 
1140	 6.37057638627774E-02 
1141	 6.20627707699807E-02 
1142	 5.92690655277831E-02 
1143	 5.85679164519426E-02 
1144	 5.86903515367877E-02 
1145	 5.75975047731261E-02 
1146	 5.75733645049946E-02 
1147	 5.66058310613723E-02 
1148	 5.28344775872605E-02 
1149	 5.03175362011078E-02 
1150	 4.90657695126717E-02 
1151	 4.92353309162875E-02 
1152	 4.86372733467943E-02 
1153	 4.82482291129217E-02 
1154	 4.77394529883995E-02 
1155	 0.046778710841358 
1156	 4.70577062913507E-02 
1157	 4.73008122910673E-02 
1158	 4.71643607507835E-02 
1159	 4.67837506527666E-02 
1160	 4.58239548081148E-02 
1161	 4.48450493865514E-02 
1162	 4.49005669189467E-02 
1163	 4.52428027839365E-02 
1164	 4.53488286449539E-02 
1165	 4.54526003819194E-02 
1166	 4.51030315436286E-02 
1167	 4.45420899606018E-02 
1168	 4.45858641056317E-02 
1169	 0.044738476356566 
1170	 4.47644560013847E-02 
1171	 4.48309201616205E-02 
1172	 4.50113301482629E-02 
1173	 4.48760470410376E-02 
1174	 4.45231177340729E-02 
1175	 4.43719038313307E-02 
1176	 4.43032863611694E-02 
1177	 4.44643566362813E-02 
1178	 4.45692989682402E-02 
1179	 4.45816280511284E-02 
1180	 4.47016116143648E-02 
1181	 0.04455649004436 
1182	 4.44934951802046E-02 
1183	 4.46862771361259E-02 
1184	 4.44088115352357E-02 
1185	 4.39650149354978E-02 
1186	 4.40987359687039E-02 
1187	 4.41463125486595E-02 
1188	 4.40529028534202E-02 
1189	 4.43599806432764E-02 
1190	 4.43054794297214E-02 
1191	 4.38896850256922E-02 
1192	 4.37714414966039E-02 
1193	 0.043902020323212 
1194	 4.38401352660226E-02 
1195	 4.35665080727903E-02 
1196	 4.36820123110169E-02 
1197	 4.38396913192387E-02 
1198	 4.37416803418561E-02 
1199	 0.043724460276582 
1200	 4.38320793801776E-02 
1201	 4.36187597664816E-02 
1202	 4.34828230323199E-02 
1203	 4.37776899288511E-02 
1204	 4.37823586880701E-02 
1205	 4.38992866831417E-02 
1206	 4.42175480570036E-02 
1207	 4.41319905849245E-02 
1208	 4.40466397340297E-02 
1209	 4.41573227359652E-02 
1210	 0.04402717766541 
1211	 4.38545769236625E-02 
1212	 4.42205233805125E-02 
1213	 4.45365674725165E-02 
1214	 4.45716194479203E-02 
1215	 0.044511710784671 
1216	 4.45746296407722E-02 
1217	 4.43537551198762E-02 
1218	 4.40681484752511E-02 
1219	 4.42476698728015E-02 
1220	 4.46690449856771E-02 
1221	 4.47459410052178E-02 
1222	 4.44705629419361E-02 
1223	 0.044427197757159 
1224	 4.44888274730695E-02 
1225	 4.45309808433055E-02 
1226	 4.48317761601733E-02 
1227	 4.50576238310168E-02 
1228	 4.50265553305121E-02 
1229	 4.49231852604711E-02 
1230	 4.49771405588225E-02 
1231	 4.49985812868459E-02 
1232	 4.49400262327441E-02 
1233	 4.51365807849259E-02 
1234	 4.53680474791663E-02 
1235	 4.54476110962388E-02 
1236	 4.53928218774015E-02 
1237	 4.55385014545584E-02 
1238	 4.57255991048779E-02 
1239	 4.57629783955579E-02 
1240	 4.57544287475838E-02 
1241	 4.58760514279387E-02 
1242	 4.58920333410653E-02 
1243	 4.56740851173308E-02 
1244	 0.045855052329586 
1245	 4.62225032509101E-02 
1246	 4.62887562928766E-02 
1247	 4.64022914463649E-02 
1248	 4.64542233775468E-02 
1249	 4.63280687350677E-02 
1250	 4.60521322764333E-02 
1251	 4.58880951281294E-02 
1252	 4.60582684871401E-02 
1253	 4.61965296070745E-02 
1254	 4.63589464439548E-02 
1255	 4.67265604735764E-02 
1256	 4.68615121788815E-02 
1257	 4.67005226476747E-02 
1258	 4.67981082146397E-02 
1259	 4.70476548961097E-02 
1260	 4.70093538261691E-02 
1261	 4.69999872547687E-02 
1262	 4.70893051489177E-02 
1263	 4.70625531177728E-02 
1264	 0.046734077665831 
1265	 4.69766140622609E-02 
1266	 4.72468709872159E-02 
1267	 4.69854629107277E-02 
1268	 4.68669500837569E-02 
1269	 4.71334264816245E-02 
1270	 0.047078364197542 
1271	 4.69178192061669E-02 
1272	 4.70457010528078E-02 
1273	 4.70931708261572E-02 
1274	 4.67794828303501E-02 
1275	 0.04647637595726 
1276	 4.64599303104413E-02 
1277	 4.63788026695764E-02 
1278	 4.62476497977836E-02 
1279	 4.63037463816624E-02 
1280	 4.63788527573708E-02 
1281	 4.63607969244497E-02 
1282	 4.61596885158827E-02 
1283	 0.046072730919715 
1284	 4.60255107170147E-02 
1285	 4.60260668872941E-02 
1286	 4.61567573993254E-02 
1287	 4.60829325104264E-02 
1288	 0.045987728761545 
1289	 4.58165559509977E-02 
1290	 4.54980394040525E-02 
1291	 4.49900778718218E-02 
1292	 4.48102551128405E-02 
1293	 4.46878860974809E-02 
1294	 4.45021711051089E-02 
1295	 0.044400010297306 
1296	 4.43132562617599E-02 
1297	 4.41420151009519E-02 
1298	 4.38034654053959E-02 
1299	 4.36374501523624E-02 
1300	 4.34905157729028E-02 
1301	 4.31081172441022E-02 
1302	 4.28557191650463E-02 
1303	 4.28088304197422E-02 
1304	 4.24804224100841E-02 
1305	 4.19070344701283E-02 
1306	 4.17106277134936E-02 
1307	 4.17496900726161E-02 
1308	 4.15143954209583E-02 
1309	 4.14662921166326E-02 
1310	 4.12507689330918E-02 
1311	 0.040543715635339 
1312	 4.01517966388389E-02 
1313	 4.00588435904619E-02 
1314	 3.98617933256898E-02 
1315	 3.97127912474779E-02 
1316	 3.94003641686339E-02 
1317	 3.88264998447441E-02 
1318	 0.038558000035113 
1319	 3.84904045308209E-02 
1320	 3.82761472492042E-02 
1321	 3.82355237525941E-02 
1322	 3.80429665052421E-02 
1323	 3.77530125995439E-02 
1324	 3.74054635600286E-02 
1325	 0.037050831137719 
1326	 3.65290141039063E-02 
1327	 3.60962602120602E-02 
1328	 3.59228265745157E-02 
1329	 3.54387487184027E-02 
1330	 3.53970567689385E-02 
1331	 3.57657685074226E-02 
1332	 3.49522950452962E-02 
1333	 3.41298135483665E-02 
1334	 3.49299851013997E-02 
1335	 3.47194725282458E-02 
1336	 3.34745994685511E-02 
1337	 3.30290052008644E-02 
1338	 3.29536025179618E-02 
1339	 3.28012360016623E-02 
1340	 3.33395261281284E-02 
1341	 3.33602421058415E-02 
1342	 3.29294405553713E-02 
1343	 3.24722479496906E-02 
1344	 3.06807836606764E-02 
1345	 3.03748067082372E-02 
1346	 3.24549656228503E-02 
1347	 3.34462488619277E-02 
1348	 3.44334580697061E-02 
1349	 3.71475803861731E-02 
1350	 4.31159729196552E-02 
1351	 4.69264708298444E-02 
1352	 4.67925112163056E-02 
1353	 0.053096512364178 
1354	 5.33675897565619E-02 
1355	 5.85704384875329E-02 
1356	 9.60691240369254E-02 
1357	 0.148474810556626 
1358	 0.16907439690631 
1359	 0.121308914787106 
1360	 5.21049809664866E-03 
1361	-2.1751651597863E-03 
1362	 0.112518856774663 
1363	 0.166018955882446 
1364	 0.210877020653642 
1365	 0.325908070206811 
1366	 0.302340611289255 
1367	 0.10341927457254 
1368	 9.23206416716739E-02 
1369	 0.182567421227345 
1370	 0.204843967240548 
1371	 0.354099112047345 
1372	 0.351514835850353 
1373	 0.217692660908729 
1374	 0.121637614140117 
1375	-5.79265079456218E-02 
1376	-1.87782300679675E-02 
1377	 0.150818490954632 
1378	 0.180623086642816 
1379	 0.184190265520612 
1380	 0.286106000410886 
1381	 0.5109241577871 
1382	 0.566332100315737 
1383	 0.542765765507441 
1384	 0.530793438571376 
1385	 0.332303823965418 
1386	 0.216157568566473 
1387	 0.148719139714728 
1388	 0.239309843730253 
1389	 0.673296827919834 
1390	 0.639298827076736 
1391	 0.375575286454125 
1392	 0.237044558275519 
1393	 6.76554359054913E-02 
1394	 4.03605497783602E-02 
1395	 0.417476193128623 
1396	 0.762446153316849 
1397	 0.66000249520874 
1398	 0.453852282811895 
1399	 0.403173170091269 
1400	 0.33044275254288 
1401	 0.260650971359365 
1402	 0.157543023242813 
1403	-7.0821849882761E-03 
1404	 0.115840174691784 
1405	 0.265104498015967 
1406	 0.603123069629071 
1407	 0.499581582686797 
1408	 0.323380478238796 
1409	 0.351203136446663 
1410	 0.329058777465485 
1411	 0.204770187979792 
1412	 0.106920361187806 
1413	 0.165636725130833 
1414	 0.244913350286071 
1415	 0.195999149843361 
1416	 0.218209110158718 
1417	 0.202953362291679 
1418	 6.12784491032923E-02 
1419	 2.12532512688872E-02 
1420	 0.05589710477724 
1421	 5.82167365226046E-02 
1422	 3.79014637976425E-02 
1423	 0.042973662171724 
1424	 6.73004190667028E-02 
1425	 6.85860971319372E-02 
1426	 6.98613963274108E-02 
1427	 5.83887775299295E-02 
1428	 2.66998993585589E-02 
1429	 2.18142948400278E-02 
1430	 2.54365926667203E-02 
1431	 2.46053259134903E-02 
1432	 3.81839024615038E-02 
1433	 3.85309910044849E-02 
1434	 0.020236753498894 
1435	 1.47505615765358E-02 
1436	 1.00872674572766E-02 
1437	 1.26420594462158E-02 
1438	 2.22406831210484E-02 
1439	 2.07461427123304E-02 
1440	 2.19598606850045E-02 
1441	 2.66900024236898E-02 
1442	 2.30811736313744E-02 
1443	 2.56646787028393E-02 
1444	 2.72092987790836E-02 
1445	 2.30016085468734E-02 
1446	 1.98588181034399E-02 
1447	 1.91410399807838E-02 
1448	 2.05934913894475E-02 
1449	 1.79691986735997E-02 
1450	 1.49193249792102E-02 
1451	 1.58433623542488E-02 
1452	 1.71080490122132E-02 
1453	 1.81174506554471E-02 
1454	 1.79014146287988E-02 
1455	 1.84279161691545E-02 
1456	 1.85053760632077E-02 
1457	 0.016741992685955 
1458	 1.71350335194871E-02 
1459	 1.96837752097897E-02 
1460	 0.01948323442331 
1461	 1.75529168554014E-02 
1462	 1.82968512623254E-02 
1463	 2.03864768827059E-02 
1464	 2.03578017220407E-02 
1465	 2.04978764136679E-02 
1466	 2.07270698321067E-02 
1467	 1.85511092555101E-02 
1468	 1.75851102675247E-02 
1469	 1.84399408306681E-02 
1470	 2.00224781416372E-02 
1471	 2.23708886499016E-02 
1472	 2.15829153284143E-02 
1473	 2.04445393485925E-02 
1474	 2.00968208758984E-02 
1475	 1.71593936498914E-02 
1476	 1.64241450311351E-02 
1477	 1.85956643502943E-02 
1478	 1.87849990240486E-02 
1479	 1.72227041428576E-02 
1480	 1.73195756667774E-02 
1481	 1.89694025350145E-02 
1482	 1.87486515377452E-02 
1483	 1.73579400528385E-02 
1484	 0.017707823007237 
1485	 1.85302212499812E-02 
1486	 1.81928986334993E-02 
1487	 1.78278535829915E-02 
1488	 1.81931172710321E-02 
1489	 1.82389773231865E-02 
1490	 0.018176889509911 
1491	 1.89065197592006E-02 
1492	 1.91002153824452E-02 
1493	 1.86426765383671E-02 
1494	 1.83504829078369E-02 
1495	 1.79484417668566E-02 
1496	 1.80224206398144E-02 
1497	 1.84261052343961E-02 
1498	 1.84210917149469E-02 
1499	 1.83419991635108E-02 
1500	 1.85429335203402E-02 
1501	 1.88083021384324E-02 
1502	 1.87608607799228E-02 
1503	 1.86622795012421E-02 
1504	 1.87813740670573E-02 
1505	 1.87792337457747E-02 
1506	 1.87357854217872E-02 
1507	 1.86732313819452E-02 
1508	 1.89790676503697E-02 
1509	 0.019280180144203 
1510	 1.91018794186206E-02 
1511	 1.89815906168247E-02 
1512	 1.92050410887454E-02 
1513	 1.93173092810494E-02 
1514	 0.019194954345615 
1515	 1.90963497297719E-02 
1516	 1.91554350820794E-02 
1517	 1.91842200991689E-02 
1518	 1.91608190748554E-02 
1519	 1.92335480158879E-02 
1520	 1.94047195015621E-02 
1521	 1.94301503949133E-02 
1522	 1.92363507648282E-02 
1523	 1.92421549500467E-02 
1524	 0.019326504400063 
1525	 1.92448087267821E-02 
1526	 1.92396856300905E-02 
1527	 1.95140448067591E-02 
1528	 1.98413743771286E-02 
1529	 1.99942433254818E-02 
1530	 2.01524416910195E-02 
1531	 0.020334716521566 
1532	 0.020311863308101 
1533	 2.01882823145684E-02 
1534	 2.03688525931003E-02 
1535	 2.07195214597058E-02 
1536	 2.07305436711669E-02 
1537	 2.08257901520682E-02 
1538	 2.10107895614338E-02 
1539	 2.07170784083446E-02 
1540	 2.05219654167189E-02 
1541	 2.06761191160916E-02 
1542	 2.08626502191253E-02 
1543	 2.10331130479907E-02 
1544	 2.11047037832405E-02 
1545	 2.08922824530652E-02 
1546	 2.08233144935398E-02 
1547	 2.10175154610599E-02 
1548	 2.10290370116155E-02 
1549	 2.11612908367178E-02 
1550	 2.14627530761393E-02 
1551	 0.021591804089774 
1552	 2.16557026668315E-02 
1553	 2.17564750192755E-02 
1554	 2.16718014871317E-02 
1555	 2.17137253247856E-02 
1556	 2.19997278953938E-02 
1557	 2.20837678826901E-02 
1558	 2.18948464803123E-02 
1559	 2.15026436401508E-02 
1560	 2.12338482934666E-02 
1561	 2.11462091444375E-02 
1562	 2.09462479889382E-02 
1563	 2.09093351931459E-02 
1564	 2.11344041338741E-02 
1565	 2.12040858782417E-02 
1566	 2.12808421782597E-02 
1567	 2.14035791789685E-02 
1568	 2.12436214819682E-02 
1569	 0.021247418290707 
1570	 2.15429478947504E-02 
1571	 2.18344099953427E-02 
1572	 2.19884114175265E-02 
1573	 2.17740848208308E-02 
1574	 2.17254546775119E-02 
1575	 2.19370163435537E-02 
1576	 2.20583123087181E-02 
1577	 2.23206632646541E-02 
1578	 2.24890018242579E-02 
1579	 2.26678182346484E-02 
1580	 2.28259406303584E-02 
1581	 2.26933697155276E-02 
1582	 2.28087446365197E-02 
1583	 2.27767818498571E-02 
1584	 2.25148510878007E-02 
1585	 2.27903397809732E-02 
1586	 2.29230377260601E-02 
1587	 2.27341406853583E-02 
1588	 2.29444643318787E-02 
1589	 2.29471340858235E-02 
1590	 2.28970619822495E-02 
1591	 2.32829465841516E-02 
1592	 2.34678029352888E-02 
1593	 2.36307040822882E-02 
1594	 2.39372587522132E-02 
1595	 2.41313857372349E-02 
1596	 2.40903025592793E-02 
1597	 2.40230528519931E-02 
1598	 2.39818801708511E-02 
1599	 2.38241383415158E-02 
1600	 2.37612796001132E-02 
1601	 2.35363183695454E-02 
1602	 2.32754840667545E-02 
1603	 2.35068564120744E-02 
1604	 2.37246293167135E-02 
1605	 2.34919101242578E-02 
1606	 2.35215187651276E-02 
1607	 2.37779781236497E-02 
1608	 2.37104669893801E-02 
1609	 2.37447052064376E-02 
1610	 0.023960831541327 
1611	 2.38863181163299E-02 
1612	 2.37327371837637E-02 
1613	 2.41373322731137E-02 
1614	 2.46839873667743E-02 
1615	 2.47529495092087E-02 
1616	 2.45248200002704E-02 
1617	 2.42182562868098E-02 
1618	 2.39536837789016E-02 
1619	 2.36770351150664E-02 
1620	 2.36474916719732E-02 
1621	 2.38700645231049E-02 
1622	 2.40512084942759E-02 
1623	 2.41454571036912E-02 
1624	 0.024275282127453 
1625	 2.45202848016539E-02 
1626	 2.45053334752964E-02 
1627	 2.46040357350589E-02 
1628	 0.024695365779105 
1629	 2.42915960978488E-02 
1630	 0.024165733005242 
1631	 2.42717837714787E-02 
1632	 0.024239449037416 
1633	 2.43012683862201E-02 
1634	 2.42182011658114E-02 
1635	 2.40661412359638E-02 
1636	 2.41714517977025E-02 
1637	 2.43289368034116E-02 
1638	 2.44838703222091E-02 
1639	 2.45780188318458E-02 
1640	 2.45681958635674E-02 
1641	 2.46067227415279E-02 
1642	 2.47515454090051E-02 
1643	 2.50361528454411E-02 
1644	 2.49352705719586E-02 
1645	 2.46565503789246E-02 
1646	 2.48682384584734E-02 
1647	 0.024718736500708 
1648	 2.44724899657651E-02 
1649	 0.025059410490447 
1650	 2.52355723147309E-02 
1651	 0.024911304572473 
1652	 2.51911988635976E-02 
1653	 2.53239274408118E-02 
1654	 2.52324267995005E-02 
1655	 2.54211871118017E-02 
1656	 0.025494889348788 
1657	 2.50588916403984E-02 
1658	 2.48830165674502E-02 
1659	 2.50490441287883E-02 
1660	 2.50390349990718E-02 
1661	 2.48774978710458E-02 
1662	 2.48715161486929E-02 
1663	 2.49908723677707E-02 
1664	 2.48977712421545E-02 
1665	 2.46520950825189E-02 
1666	 2.46631701633587E-02 
1667	 2.46713745491876E-02 
1668	 2.46671586158982E-02 
1669	 0.025015918973284 
1670	 2.49671906916571E-02 
1671	 2.46387625901717E-02 
1672	 2.46226484435323E-02 
1673	 2.47611418672815E-02 
1674	 2.46843612868579E-02 
1675	 2.47105344373804E-02 
1676	 0.025114789338075 
1677	 2.49887365013767E-02 
1678	 0.024539723799744 
1679	 2.46532573433175E-02 
1680	 2.47199424058703E-02 
1681	 2.44545929157594E-02 
1682	 0.024624806724796 
1683	 0.024629345885671 
1684	 2.40142406385568E-02 
1685	 0.024337885333683 
1686	 2.51508963295805E-02 
1687	 2.52485131612753E-02 
1688	 2.52233568958439E-02 
1689	 2.50644229504765E-02 
1690	 2.45184371842634E-02 
1691	 2.43968820672207E-02 
1692	 2.49702506723183E-02 
1693	 2.49973166186253E-02 
1694	 2.46033714842795E-02 
1695	 0.024677606662154 
1696	 2.46356647849468E-02 
1697	 2.45658910124178E-02 
1698	 2.47949854471214E-02 
1699	 2.46830304395666E-02 
1700	 2.41279179014933E-02 
1701	 2.40915183155269E-02 
1702	 2.44167150273423E-02 
1703	 2.44767234918217E-02 
1704	 2.47328764095989E-02 
1705	 2.46546667069853E-02 
1706	 0.024256330612382 
1707	 0.024190278604883 
1708	 0.02433587626269 
1709	 2.45325459345554E-02 
1710	 2.42004997542848E-02 
1711	 2.38952576392624E-02 
1712	 2.39240173003638E-02 
1713	 2.38770567063361E-02 
1714	 2.40024695754667E-02 
1715	 2.41269898341019E-02 
1716	 2.41029895324045E-02 
1717	 2.41504421945806E-02 
1718	 0.02377946082984 
1719	 2.37844415599434E-02 
1720	 2.37286072282224E-02 
1721	 2.36111938997407E-02 
1722	 0.023898091915585 
1723	 2.36648036073944E-02 
1724	 0.023660947967293 
1725	 2.38436533693355E-02 
1726	 2.35915138274033E-02 
1727	 2.37687969003055E-02 
1728	 2.38186252424925E-02 
1729	 2.32188122039167E-02 
1730	 2.29106863222446E-02 
1731	 2.30112626630976E-02 
1732	 2.30904991543055E-02 
1733	 0.023399441859499 
1734	 2.35810272887963E-02 
1735	 2.34601561989234E-02 
1736	 2.36817338396272E-02 
1737	 2.38509885343966E-02 
1738	 2.38478801321829E-02 
1739	 2.42556543578085E-02 
1740	 2.41031672533795E-02 
1741	 2.34355146460119E-02 
1742	 2.33683531274127E-02 
1743	 2.30239754016545E-02 
1744	 0.0224478113867 
1745	 2.28017346406464E-02 
1746	 2.30064717704374E-02 
1747	 2.31025933437098E-02 
1748	 2.35631969286527E-02 
1749	 2.35246705385797E-02 
1750	 2.31376882868049E-02 
1751	 2.29243727978661E-02 
1752	 2.22188596200474E-02 
1753	 2.21768231542363E-02 
1754	 2.28751092531951E-02 
1755	 2.30066883523777E-02 
1756	 2.31865617142418E-02 
1757	 2.26860608330356E-02 
1758	 2.20218066946484E-02 
1759	 2.24836644520377E-02 
1760	 2.33301810861998E-02 
1761	 2.33047984708234E-02 
1762	 2.37331445542611E-02 
1763	 2.31105403718609E-02 
1764	 2.16847860737875E-02 
1765	 2.23514985293968E-02 
1766	 2.23318060128895E-02 
1767	 2.20387174613116E-02 
1768	 2.31928975697972E-02 
1769	 2.26758542704721E-02 
1770	 0.022238858720405 
1771	 2.27406231642488E-02 
1772	 2.21188560454317E-02 
1773	 2.27030303339337E-02 
1774	 2.37866338361458E-02 
1775	 2.40051894274774E-02 
1776	 2.43374627349506E-02 
1777	 2.38090326156991E-02 
1778	 0.023827994100525 
1779	 2.48457966313817E-02 
1780	 2.46825108620135E-02 
1781	 2.39717030568422E-02 
1782	 2.38945350592516E-02 
1783	 0.02297696888028 
1784	 2.23878052884971E-02 
1785	 2.24310286573802E-02 
1786	 2.25746895046446E-02 
1787	 2.28605390192611E-02 
1788	 2.33408453814644E-02 
1789	 2.51340903199503E-02 
1790	 2.36658496293914E-02 
1791	 2.17725568885221E-02 
1792	 2.04805257107235E-02 
1793	 2.00200140582599E-02 
1794	 2.23662399254441E-02 
1795	 0.024303551569566 
1796	 2.44684471923003E-02 
1797	 2.43933672672333E-02 
1798	 0.021802863718398 
1799	 1.77905692454042E-02 
1800	 1.08602855008811E-02 
1801	 0.01122581061276 
1802	 3.02399268214939E-02 
1803	 3.91088498560829E-02 
1804	 5.58578586979482E-02 
1805	 6.07793321703204E-02 
1806	 1.04740075710292E-02 
1807	-5.77783758646866E-03 
1808	-4.95006495320893E-03 
1809	 0.013510275922466 
1810	 0.165083123589964 
1811	 0.235500140761351 
1812	 0.21039915688882 
1813	 0.157545367483989 
1814	-7.14336621930562E-02 
1815	-0.141568644392418 
1816	-0.241498008083181 
1817	-7.02305318239815E-02 
1818	 0.116673016317895 
1819	 0.16481663469117 
1820	 0.84781468727685 
1821	-0.887017542346917 
1822	 3.06300347915907E-03 
1823	-3.3055708499188 
1824	-0.335646671434091 
1825	-0.112291249627821 
1826	-5.48119354472957E-02 
1827	 1.83121327326134E-02 
1828	-1.06228044825773E-03 
1829	-8.29739843780471E-02 
1830	-0.134537095778097 
1831	 0.485612851297139 
1832	 0.474807107345102 
1833	 0.610242213197098 
1834	-129.704241205986 
1835	-1.74947301711333 
1836	-1.98110762257713 
1837	-48.7151143174135 
1838	 5.90974449244338 
1839	 0.667963708145026 
1840	-0.175858408218223 
1841	-0.260512664996441 
1842	-1.3842391855977 
1843	-0.839789439423578 
1844	-0.402411332348003 
1845	-0.282697794040265 
1846	 0.313666325343569 
1847	 0.534348276340878 
1848	-5.22878087876744 
1849	-0.687511257706791 
1850	-0.209262135813362 
1851	 1.28305054365076 
1852	-1.7296482104674 
1853	-0.346012289930764 
1854	-0.25182435536091 
1855	-0.224688946534395 
1856	-4.58215843237785E-02 
1857	 0.694876366693189 
1858	 0.997158860796562 
1859	 1.79304109819935 
1860	 0.220643636647186 
1861	-6.11467305344727E-02 
1862	 1.24057230411174 
1863	 4.6997779538012 
1864	-0.277988185668457 
1865	-0.476743349424551 
1866	 7.47260542347917 
1867	 6.78432548140317 
1868	-31.5041121718644 
1869	 7.08005897021738 
1870	 4.09793135575138 
1871	 1.47871067257614 
1872	 3.08473481828086 
1873	-5.61466608466662 
1874	-10.6103928908684 
1875	 6.08306767663288 
1876	 5.74399923717045 
1877	-4.55852944887753 
1878	-1.46777087839465 
1879	 0.355786960650049 
1880	 0.73633825874178 
1881	-2.3124299294981 
1882	 0.352590257258966 
1883	-0.205890146256822 
1884	-0.916325785240579 
1885	 0.187805288013885 
1886	 0.611924197363249 
1887	 21.7300370234422 
1888	-8.11240528045746 
1889	-3.88918607237603 
1890	 0.806206585419485 
1891	 0.797661867303776 
1892	 0.401165454917781 
1893	 1.26792574293673 
1894	-2.20429354712631 
1895	-0.415126061621576 
1896	 0.316920899002917 
1897	 0.633318474891708 
1898	-1.98381380622277 
1899	-0.230016349761076 
1900	-0.148722563558781 
1901	 0.144175782936503 
1902	 0.264516156366061 
1903	-0.09133850884916 
1904	-0.865776126336953 
1905	-2.95120452799936 
1906	-0.860975051671872 
1907	-0.576921979173599 
1908	-0.824168580934327 
1909	-0.39466854639225 
1910	-0.536478394071344 
1911	-0.398928503464195 
1912	 2.04269209981444E-02 
1913	 0.262064594900481 
1914	 0.728181202943411 
1915	 0.823371422611236 
1916	 0.640429202256762 
1917	 1.19930179617643 
1918	 1.3174087062206 
1919	 0.609660485198764 
1920	 0.803055331270803 
1921	 1.00805034806594 
1922	 0.681601721551585 
1923	 1.92939976281739 
1924	-1.15600675100154 
1925	-0.793018127312104 
1926	-0.598264209529245 
1927	-0.355682263734399 
1928	-0.275787275072639 
1929	 7.05717417456344 
1930	 0.429296824644223 
1931	-0.167083179089863 
1932	 2.56938417234492E-02 
1933	 0.161341413433475 
1934	 0.297773863507045 
1935	 0.477869063940566 
1936	 0.33070520749552 
1937	 0.127988211265049 
1938	-5.32493699553072E-03 
1939	-4.24530150501804E-02 
1940	-5.34736853477537E-02 
1941	 2.98104730518411E-03 
1942	 9.45598828290622E-02 
1943	 0.106835155335892 
1944	 2.97435137375404E-02 
1945	-1.66365829626796E-02 
1946	-5.22864236872311E-02 
1947	-6.86084771800074E-02 
1948	-5.99666388019728E-02 
1949	-7.63572944986924E-02 
1950	-9.40773804163668E-02 
1951	-8.44639879603363E-02 
1952	-6.39743176683618E-02 
1953	-2.71329276956507E-02 
1954	 7.20962753967984E-03 
1955	 2.42337370876721E-02 
1956	 2.10358765611485E-02 
1957	 1.07649262648915E-02 
1958	 1.12409941051433E-02 
1959	 1.16807265338712E-02 
1960	 7.76084797347704E-03 
1961	 3.19889656473504E-03 
1962	-1.8503435335575E-04 
1963	 6.27488615879774E-04 
1964	 5.88447881447769E-03 
1965	 1.03597353281801E-02 
1966	 1.26136281744444E-02 
1967	 1.43942394887498E-02 
1968	 1.54167493817014E-02 
1969	 0.015975886060699 
1970	 1.77705063691635E-02 
1971	 1.85137620111229E-02 
1972	 1.73870076326448E-02 
1973	 1.72436280848002E-02 
1974	 1.62484841925663E-02 
1975	 1.50121737665084E-02 
1976	 1.59070044586913E-02 
1977	 1.65493586610478E-02 
1978	 1.61141697317584E-02 
1979	 1.55132267883409E-02 
1980	 1.49572703028754E-02 
1981	 0.014110212250339 
1982	 1.32442579338338E-02 
1983	 1.26271786855537E-02 
1984	 1.28261760519403E-02 
1985	 1.33671004898752E-02 
1986	 1.25932796393768E-02 
1987	 0.01225024030349 
1988	 1.32328588807259E-02 
1989	 1.40419957017178E-02 
1990	 1.47265761096626E-02 
1991	 1.51989873332165E-02 
1992	 1.52739124407426E-02 
1993	 1.48535471394196E-02 
1994	 1.45616460996658E-02 
1995	 1.45093427422387E-02 
1996	 1.50652268894013E-02 
1997	 1.48538813818135E-02 
1998	 1.39810962438956E-02 
1999	 1.39159303611933E-02 
2000	 1.49454268667121E-02 
2001	 1.51777867629455E-02 
2002	 0.016365350653601 
2003	 0.016464298903514 
2004	 1.25267680980182E-02 
2005	 1.07755249587476E-02 
2006	 1.27301493522829E-02 
2007	 1.34217222727112E-02 
2008	 1.27646162552983E-02 
2009	 1.33519147914205E-02 
2010	 1.31558155855421E-02 
2011	 1.24857453955419E-02 
2012	 1.13369809321326E-02 
2013	 1.42755317828797E-02 
2014	 1.44247680453299E-02 
2015	 1.13716419409271E-02 
2016	 1.17082555155801E-02 
2017	 1.18436165069961E-02 
2018	 1.15507194687226E-02 
2019	 1.42481919049368E-02 
2020	 1.61280472508562E-02 
2021	 1.71937645378213E-02 
2022	 1.68365339476754E-02 
2023	 0.014121937387301 
2024	 1.39365184149423E-02 
2025	 0.014131997036034 
2026	 0.014137930978272 
2027	 1.48359611953011E-02 
2028	 1.62610099146958E-02 
2029	 0.015678062524509 
2030	 1.47096675434383E-02 
2031	 1.46593231660594E-02 
2032	 1.44933346109013E-02 
2033	 1.50161144506714E-02 
2034	 1.54380018201788E-02 
2035	 1.50092692634977E-02 
2036	 1.47482708930606E-02 
2037	 1.43269286634047E-02 
2038	 1.41067412332663E-02 
2039	 1.41326475295498E-02 
2040	 1.47999660298494E-02 
2041	 0.014910767627572 
2042	 1.49087877752746E-02 
2043	 1.46845764234169E-02 
2044	 1.39210451533663E-02 
2045	 0.013542619181264 
2046	 1.42898404912369E-02 
2047	 1.52727800186986E-02 
2048	 1.54362194429473E-02 
2049	 1.55478347948123E-02 
2050	 1.47201339161442E-02 
2051	 1.43856800293869E-02 
2052	 1.49107291024762E-02 
2053	 0.014696524525197 
2054	 0.015342604150975 
2055	 1.50682777240574E-02 
2056	 1.50012503654527E-02 
2057	 1.56325673280312E-02 
2058	 0.015934469719436 
2059	 1.55029475039518E-02 
2060	 1.53624888489596E-02 
2061	 1.50711381728422E-02 
2062	 1.51525870249166E-02 
2063	 1.58369656054235E-02 
2064	 1.62559403086483E-02 
2065	 1.65867664069571E-02 
2066	 1.61931995862229E-02 
2067	 1.55651630194313E-02 
2068	 1.62953070803157E-02 
2069	 1.60819186798078E-02 
2070	 1.52344916699444E-02 
2071	 1.53867732778414E-02 
2072	 1.49899357414213E-02 
2073	 1.49589295354894E-02 
2074	 1.60205487831642E-02 
2075	 0.016502621989534 
2076	 0.016496784497497 
2077	 1.62614613033048E-02 
2078	 1.59409830172365E-02 
2079	 1.58213381961536E-02 
2080	 0.015251331643772 
2081	 1.53827728219339E-02 
2082	 1.58208153488681E-02 
2083	 1.58815438939842E-02 
2084	 1.59256007333923E-02 
2085	 1.59948412665681E-02 
2086	 1.64142415019579E-02 
2087	 1.62263053176679E-02 
2088	 1.62599178441155E-02 
2089	 1.70879941670645E-02 
2090	 1.73432837243052E-02 
2091	 1.79087440904746E-02 
2092	 1.80967610602784E-02 
2093	 1.79826481847112E-02 
2094	 1.75064829351593E-02 
2095	 1.62176453471765E-02 
2096	 1.60133790140973E-02 
2097	 1.63983047194446E-02 
2098	 0.016426970005883 
2099	 0.016945348088904 
2100	 1.71824707753911E-02 
2101	 1.65222032698674E-02 
2102	 1.56812252314154E-02 
2103	 1.48902351986075E-02 
2104	 1.49888963370903E-02 
2105	 0.015897548318058 
2106	 1.61543131217444E-02 
2107	 1.64302056433721E-02 
2108	 1.70148957183795E-02 
2109	 1.74773553903221E-02 
2110	 1.75746755603354E-02 
2111	 1.69044099251318E-02 
2112	 1.65476920324562E-02 
2113	 0.01676689037037 
2114	 1.71525774192002E-02 
2115	 1.70455655010663E-02 
2116	 1.75982743009504E-02 
2117	 1.77140423759235E-02 
2118	 1.63777647172059E-02 
2119	 1.62817033050716E-02 
2120	 1.70824172798618E-02 
2121	 1.81212381919135E-02 
2122	 1.80446897457966E-02 
2123	 1.77923751867664E-02 
2124	 1.76553342897696E-02 
2125	 1.73018540378122E-02 
2126	 1.68532648094966E-02 
2127	 1.70207637715441E-02 
2128	 1.74876117919574E-02 
2129	 1.66872016038702E-02 
2130	 1.61422243654069E-02 
2131	 1.64164341909419E-02 
2132	 1.66969930970175E-02 
2133	 1.69523750583443E-02 
2134	 1.71525621144578E-02 
2135	 1.80843592394338E-02 
2136	 1.80406255603843E-02 
2137	 1.66863843327263E-02 
2138	 1.64729664021247E-02 
2139	 1.69186214771847E-02 
2140	 0.016647096023915 
2141	 1.62239693353546E-02 
2142	 1.65133185963564E-02 
2143	 1.71735925028454E-02 
2144	 1.64372420974818E-02 
2145	 1.72359769230413E-02 
2146	 0.017534181025331 
2147	 1.62856095558846E-02 
2148	 1.61125459269705E-02 
2149	 0.015804209632742 
2150	 1.60370354421434E-02 
2151	 1.69346398558108E-02 
2152	 1.71911007778139E-02 
2153	 1.73922470575268E-02 
2154	 1.73863570774901E-02 
2155	 1.73713649739897E-02 
2156	 1.75314303819215E-02 
2157	 1.77546863745357E-02 
2158	 0.018288557253142 
2159	 1.81346574136931E-02 
2160	 1.75908075586269E-02 
2161	 1.73968266370142E-02 
2162	 0.016814232626595 
2163	 1.65266521367255E-02 
2164	 1.69549640778542E-02 
2165	 1.67186852860345E-02 
2166	 1.55058363790169E-02 
2167	 1.54830507043995E-02 
2168	 1.60609677657572E-02 
2169	 1.64205783927795E-02 
2170	 1.76965661184801E-02 
2171	 1.81495966024423E-02 
2172	 1.69513849090508E-02 
2173	 1.66928720165601E-02 
2174	 1.65303506215389E-02 
2175	 1.64555981781646E-02 
2176	 1.73612016731012E-02 
2177	 0.017440060687096 
2178	 1.68366783534374E-02 
2179	 1.66162785274813E-02 
2180	 0.017026200795353 
2181	 0.017315100850274 
2182	 1.69801085239327E-02 
2183	 1.63506069208399E-02 
2184	 1.54447797210496E-02 
2185	 1.50436192810814E-02 
2186	 1.50567384102044E-02 
2187	 1.62766562940764E-02 
2188	 1.65618105762197E-02 
2189	 0.016723086666737 
2190	 0.016662148919878 
2191	 1.59317652831251E-02 
2192	 1.57648845437743E-02 
2193	 1.54194299538185E-02 
2194	 1.56346762716162E-02 
2195	 1.72072301589326E-02 
2196	 1.74916219681981E-02 
2197	 1.73521307542492E-02 
2198	 1.75498218820985E-02 
2199	 1.71307494236187E-02 
2200	 1.61822765012152E-02 
2201	 1.77879740049103E-02 
2202	 1.85716798868603E-02 
2203	 1.73557083814847E-02 
2204	 1.72993609858481E-02 
2205	 1.56158609590608E-02 
2206	 1.34764104047143E-02 
2207	 1.46382361393598E-02 
2208	 1.47389937705982E-02 
2209	 1.37080105413083E-02 
2210	 1.40545826160133E-02 
2211	 0.014913642464157 
2212	 1.59427181721718E-02 
2213	 1.64406122630298E-02 
2214	 1.63489344050147E-02 
2215	 1.56115978308199E-02 
2216	 0.0140041087272 
2217	 0.014000109996862 
2218	 1.67017579458289E-02 
2219	 1.68713635657061E-02 
2220	 1.54156330701481E-02 
2221	 0.016059843111664 
2222	 1.74167406380805E-02 
2223	 1.75898353302371E-02 
2224	 1.88560338021233E-02 
2225	 1.84836023832449E-02 
2226	 1.52618601220133E-02 
2227	 1.43793617396457E-02 
2228	 1.42683565219175E-02 
2229	 1.43800301518264E-02 
2230	 0.016037563762041 
2231	 1.63035886808971E-02 
2232	 1.59693513174181E-02 
2233	 1.56870806238202E-02 
2234	 1.48836334837062E-02 
2235	 1.39693988518671E-02 
2236	 1.39395012187026E-02 
2237	 1.46137227837445E-02 
2238	 1.49964561820062E-02 
2239	 1.43336870883641E-02 
2240	 1.31509384249896E-02 
2241	 1.35431758577957E-02 
2242	 1.38909171124893E-02 
2243	 1.40924458469429E-02 
2244	 1.47190187792821E-02 
2245	 1.39980935569467E-02 
2246	 1.46490446799489E-02 
2247	 1.68731107653371E-02 
2248	 1.80949378341152E-02 
2249	 0.019151850307699 
2250	 1.94313658628896E-02 
2251	 1.77062191813637E-02 
2252	 1.59485779474449E-02 
2253	 1.51113412893577E-02 
2254	 0.015448822608929 
2255	 1.53177420051105E-02 
2256	 1.41329753542278E-02 
2257	 1.36409575067023E-02 
2258	 1.26027254516055E-02 
2259	 1.28834636790065E-02 
2260	 1.36492091410553E-02 
2261	 1.68537067384719E-02 
2262	 1.75232966382807E-02 
2263	 1.68461504027644E-02 
2264	 1.67009901149802E-02 
2265	 1.62896720096012E-02 
2266	 0.015940322611412 
2267	 1.51655830021417E-02 
2268	 1.50803652285658E-02 
2269	 1.58935474968053E-02 
2270	 1.54165978022381E-02 
2271	 1.39596327444397E-02 
2272	 1.48308115999859E-02 
2273	 1.65467751437342E-02 
2274	 1.68443656436835E-02 
2275	 1.81266034057888E-02 
2276	 1.85366198679676E-02 
2277	 1.69880256996852E-02 
2278	 1.63946940899419E-02 
2279	 1.63665030304113E-02 
2280	 1.73383462030066E-02 
2281	 1.96535095486607E-02 
2282	 1.90759200377245E-02 
2283	 1.88506117980715E-02 
2284	 2.10986947109316E-02 
2285	 2.17650636758632E-02 
2286	 2.03403411506766E-02 
2287	 2.12932985198816E-02 
2288	 2.30774037740981E-02 
2289	 2.30383644832048E-02 
2290	 2.37955950382577E-02 
2291	 2.35285678537754E-02 
2292	 1.87304674414346E-02 
2293	 1.66220636152308E-02 
2294	 1.75267275236773E-02 
2295	 1.76510600502642E-02 
2296	 1.85792903351374E-02 
2297	 1.55648306969383E-02 
2298	 0.014653825005972 
2299	 1.62808041699271E-02 
2300	 1.52719383662408E-02 
2301	 1.64925928874913E-02 
2302	 1.39761239839745E-02 
2303	 9.29169063221111E-03 
2304	 9.90308366800229E-03 
2305	 1.10207107554948E-02 
2306	 0.013473141901674 
2307	 1.68613042819762E-02 
2308	 1.69443191790295E-02 
2309	 1.61342074533696E-02 
2310	 1.25485835658207E-02 
2311	 8.79075160453149E-03 
2312	 0.010068937482498 
2313	 1.26601999565885E-02 
2314	 1.44532025665275E-02 
2315	 1.49516398693975E-02 
2316	 1.38768336837541E-02 
2317	 1.26792490835947E-02 
2318	 1.20231651603933E-02 
2319	 1.24917876391877E-02 
2320	 1.40654690183337E-02 
2321	 1.30851928765928E-02 
2322	 1.23720270341862E-02 
2323	 1.25069740746047E-02 
2324	 1.19567675417503E-02 
2325	 1.36699707345654E-02 
2326	 1.44906103785649E-02 
2327	 1.48590119133607E-02 
2328	 1.81495616090512E-02 
2329	 2.16377288520304E-02 
2330	 1.99188769322256E-02 
2331	 0.017635126144262 
2332	 1.64181932197716E-02 
2333	 1.34038827151915E-02 
2334	 0.013460845135801 
2335	 1.48107758357212E-02 
2336	 0.013358424371179 
2337	 1.07023187484989E-02 
2338	 7.36040719899254E-03 
2339	 3.55427661131552E-03 
2340	 4.0857029923346E-03 
2341	 7.87872777619964E-03 
2342	 1.01764798561009E-02 
2343	 1.39664450076214E-02 
2344	 1.76517398956112E-02 
2345	 1.71938854816384E-02 
2346	 1.44193515782749E-02 
2347	 9.55040685627329E-03 
2348	 5.70394301981076E-03 
2349	 5.25362515596213E-03 
2350	 8.35356766619028E-03 
2351	 1.85281983437716E-02 
2352	 1.98857098923976E-02 
2353	 1.12443263397527E-02 
2354	 1.37349473654559E-02 
2355	 9.36124979579182E-03 
2356	 1.14252754588141E-03 
2357	 8.71439759216932E-03 
2358	 9.01738503538342E-03 
2359	 5.89638525379495E-03 
2360	 1.02541202943019E-02 
2361	 4.97973514024582E-03 
2362	-1.16548552894013E-03 
2363	 1.23360946349532E-04 
2364	 5.84195134342855E-03 
2365	 2.04800881779895E-02 
2366	 0.026411938055058 
2367	 2.05187879168433E-02 
2368	 1.80649192726937E-02 
2369	-5.31905929776161E-04 
2370	-0.015410245871405 
2371	-8.01358179875961E-03 
2372	-3.47006146792844E-03 
2373	 9.08429337320897E-03 
2374	 9.05021230937859E-03 
2375	 4.65717501633781E-03 
2376	-1.98468294419446E-04 
2377	-2.41600589320623E-02 
2378	-1.92099160481059E-02 
2379	-2.37798358434863E-02 
2380	-4.81728921139197E-02 
2381	-4.02673579773874E-02 
2382	-3.84252229204868E-02 
2383	-5.39094984389622E-02 
2384	-4.43332932547156E-02 
2385	-4.56521999986184E-02 
2386	-7.30477611571206E-02 
2387	-7.11586759695276E-02 
2388	-6.89324768242584E-02 
2389	-5.79439981431016E-02 
2390	-2.58369361590137E-02 
2391	-2.68168180815713E-02 
2392	-1.43362395308389E-02 
2393	 1.11087455884163E-02 
2394	 3.07780852904793E-03 
2395	 2.24517553072775E-03 
2396	-7.3421324530463E-03 
2397	-5.48226234757589E-02 
2398	-6.63653599483099E-02 
2399	-3.65913249320252E-02 
2400	-2.22821689968369E-02 
2401	-8.07282312195548E-03 
2402	 6.44862187770432E-04 
2403	-1.19284691481701E-02 
2404	-1.88465888060673E-02 
2405	-3.14312633178254E-02 
2406	-3.80827756596855E-02 
2407	-3.27315709614648E-02 
2408	-3.75938431676773E-02 
2409	-4.46354255570451E-02 
2410	-5.94446825463757E-02 
2411	-0.084835524633113 
2412	-0.121537161074703 
2413	-0.100810930175755 
2414	-3.05306701838212E-02 
2415	-7.36246151020187E-03 
2416	 1.69029819970241E-02 
2417	 3.19022723165994E-02 
2418	 2.83570187193932E-02 
2419	 7.95426542968725E-02 
2420	 0.145853904748946 
2421	 0.126928837553135 
2422	 4.83359972424228E-02 
2423	-5.68857662307081E-02 
2424	-0.104979100997926 
2425	-7.16187587312613E-02 
2426	-8.62360142364973E-03 
2427	 7.76904933800079E-02 
2428	 8.10983208064358E-02 
2429	 6.86647306668471E-02 
2430	 6.69136482156704E-02 
2431	 3.67718827962849E-03 
2432	-7.53858616416141E-02 
2433	-4.85989508457578E-02 
2434	-0.039193441408359 
2435	-0.104316688647514 
2436	-0.051991698908421 
2437	-4.88482943404145E-02 
2438	-0.158050708058056 
2439	-0.118432277424837 
2440	-1.23798336670078E-02 
2441	 6.31372215390409E-02 
2442	 0.18192915560133 
2443	 0.232580934094826 
2444	 0.184384649401931 
2445	 6.67910054520749E-02 
2446	-6.33552440930513E-02 
2447	-0.129722019478758 
2448	-0.237560742999011 
2449	-0.454745151260994 
2450	-0.649177860209697 
2451	-0.944228763197429 
2452	-0.502440355984681 
2453	-0.325157618697891 
2454	-0.526930765008639 
2455	-0.340513544783416 
2456	-0.365465934092413 
2457	-0.413246969473171 
2458	-0.190306487241982 
2459	-3.33935242844472E-02 
2460	-4.76803119015748E-02 
2461	-0.22069361494245 
2462	-0.444141834619523 
2463	-0.554078453151468 
2464	-0.443271860545999 
2465	-4.06432427484528E-02 
2466	 0.224819981958553 
2467	 0.187535354869556 
2468	-0.113756289875308 
2469	-3.28028867867254E-02 
2470	-4.12502362093758 
2471	-0.670905321083699 
2472	 7.26874475892018 
2473	-1.0031882918963 
2474	-1.02376688344193 
2475	-0.061316928267694 
2476	 1.61486645252975 
2477	 1.20561051121673 
2478	 0.925248463922231 
2479	 0.505207077783844 
2480	 0.775611411695928 
2481	-0.385990170255296 
2482	-1.27147444609516 
2483	 25.1271934047642 
2484	-18.3225399135831 
2485	-1.60399551083975 
2486	-3.58289195324557 
2487	 4.93539537003685 
2488	-1.2154179184353 
2489	 0.252334103054691 
2490	 1.39199339861346 
2491	-2.012999404562 
2492	-0.204885212278548 
2493	 0.250843315924547 
2494	 0.827376159178415 
2495	-1.55656128132028 
2496	 1.62656512998976E-02 
2497	 0.045885815269428 
2498	 3.28787860994058E-02 
2499	-0.265153432923744 
2500	 1.0178782331001 
