Wavelength	rt0629dirtre00001.asd
350	 0.137373318561016 
351	 0.138102337372526 
352	 0.138638075200632 
353	 0.138573854332541 
354	 0.13805302420202 
355	 0.137854554013192 
356	 0.137833122715621 
357	 0.138084445585734 
358	 0.138573785690412 
359	 0.138568552763831 
360	 0.138387517901384 
361	 0.138423416228714 
362	 0.138939170736697 
363	 0.138665975744763 
364	 0.138501860229311 
365	 0.138911023712643 
366	 0.13930757783476 
367	 0.139438815295293 
368	 0.139805484360037 
369	 0.140620880307978 
370	 0.140248249106848 
371	 0.140596065482811 
372	 0.141436917304041 
373	 0.14143132207579 
374	 0.141686428304353 
375	 0.142356723223367 
376	 0.14320119984494 
377	 0.143616208328355 
378	 0.14347712727851 
379	 0.143769469416044 
380	 0.144977184949096 
381	 0.145165598652694 
382	 0.145997117387001 
383	 0.146844373584461 
384	 0.146531322356058 
385	 0.148368413893638 
386	 0.149588446471519 
387	 0.149464395397041 
388	 0.150056434496449 
389	 0.151146036104309 
390	 0.152284012727047 
391	 0.153015285846384 
392	 0.152929442634184 
393	 0.153347581442235 
394	 0.154283579521753 
395	 0.155157998902406 
396	 0.155332481169616 
397	 0.155844244826191 
398	 0.15671316590077 
399	 0.157061618205153 
400	 0.157329854960455 
401	 0.157568746355565 
402	 0.157821038485999 
403	 0.158259190921006 
404	 0.15870028035749 
405	 0.159192816916255 
406	 0.159777876080661 
407	 0.159933098179734 
408	 0.160240031908662 
409	 0.160886064627133 
410	 0.161595726572055 
411	 0.162027614816898 
412	 0.162293997675979 
413	 0.162656336079667 
414	 0.163550795017055 
415	 0.164219521251025 
416	 0.164611875676622 
417	 0.164983636308303 
418	 0.165421927048972 
419	 0.166001682664295 
420	 0.166724391865428 
421	 0.167518116570292 
422	 0.168197520186678 
423	 0.168836632477875 
424	 0.169550981382463 
425	 0.170398804203928 
426	 0.171315860007649 
427	 0.172168770678496 
428	 0.172888970265457 
429	 0.174112613946741 
430	 0.175171478821416 
431	 0.175977575289061 
432	 0.177252128934442 
433	 0.178313139762174 
434	 0.179169897799282 
435	 0.179973290168014 
436	 0.180759913116808 
437	 0.181820533167037 
438	 0.182990752277167 
439	 0.183905106838912 
440	 0.184900664279351 
441	 0.185807078811742 
442	 0.186663999071048 
443	 0.187911297258012 
444	 0.188616312128117 
445	 0.189214451693425 
446	 0.190242042462501 
447	 0.191058907070105 
448	 0.191960203654812 
449	 0.192777636566435 
450	 0.19308436783455 
451	 0.193740397807971 
452	 0.194511602922816 
453	 0.195147058759198 
454	 0.195690600271283 
455	 0.196305031293649 
456	 0.19695263893634 
457	 0.197511292784196 
458	 0.19786738363213 
459	 0.198251998055119 
460	 0.198801594044011 
461	 0.199511610093999 
462	 0.199901548590667 
463	 0.200208994466707 
464	 0.200704810140158 
465	 0.201352227456251 
466	 0.201762896471796 
467	 0.202041429883492 
468	 0.202503774803786 
469	 0.202915849046315 
470	 0.203400046969104 
471	 0.204009472438609 
472	 0.204664336080243 
473	 0.205278551391801 
474	 0.205863484036418 
475	 0.206476760050611 
476	 0.207243360553756 
477	 0.207793078867879 
478	 0.208296194907198 
479	 0.209232688452078 
480	 0.21002996954551 
481	 0.210846991340615 
482	 0.211775096130955 
483	 0.212559571202381 
484	 0.213355458945096 
485	 0.21418567530442 
486	 0.215070080253213 
487	 0.216239509636396 
488	 0.21747742815165 
489	 0.218634491334975 
490	 0.219666267441586 
491	 0.220575405916632 
492	 0.221475544064698 
493	 0.222475168313204 
494	 0.223616330056562 
495	 0.224957361032675 
496	 0.22635186873065 
497	 0.227570833031556 
498	 0.228709112936057 
499	 0.229880668697113 
500	 0.231172701043869 
501	 0.232631101235811 
502	 0.233853741858587 
503	 0.235036735553419 
504	 0.236417743320813 
505	 0.23758944837269 
506	 0.238928881630532 
507	 0.240467270810273 
508	 0.241952522597824 
509	 0.243416193657016 
510	 0.244936355757217 
511	 0.246505231815921 
512	 0.247918596646119 
513	 0.249183529426373 
514	 0.250507840864641 
515	 0.25211557025033 
516	 0.253651619566675 
517	 0.255224202734211 
518	 0.25680402726252 
519	 0.258155684915075 
520	 0.25966176573488 
521	 0.26124983567583 
522	 0.262791025675434 
523	 0.264293940437549 
524	 0.265921392888735 
525	 0.267596012818218 
526	 0.269101535525245 
527	 0.270616596383304 
528	 0.272203783066128 
529	 0.273877799485781 
530	 0.275633757547001 
531	 0.277243612844185 
532	 0.278756323412201 
533	 0.280306744870928 
534	 0.281825084314426 
535	 0.283485280959738 
536	 0.285264666905505 
537	 0.286900512828664 
538	 0.288444631683719 
539	 0.290045279623903 
540	 0.291809600675594 
541	 0.293649275722329 
542	 0.295405322869446 
543	 0.297015126015552 
544	 0.298530576240319 
545	 0.300362246228149 
546	 0.302211391617507 
547	 0.303854860117867 
548	 0.30537981912917 
549	 0.307065462899615 
550	 0.30886000261751 
551	 0.310588588682212 
552	 0.31215763856727 
553	 0.313732802512358 
554	 0.315343912189002 
555	 0.316842881589872 
556	 0.318498029607219 
557	 0.32021458335512 
558	 0.321823688344176 
559	 0.323305362363054 
560	 0.324622630249434 
561	 0.325910209913032 
562	 0.327378886441002 
563	 0.32873736008474 
564	 0.330008292060486 
565	 0.331201058284583 
566	 0.332208801707829 
567	 0.333175229493026 
568	 0.334182270633439 
569	 0.335264613139559 
570	 0.336359080128699 
571	 0.337426816851739 
572	 0.338421992481674 
573	 0.339291487144956 
574	 0.340127671970996 
575	 0.341035960807897 
576	 0.342003768304815 
577	 0.342666997880648 
578	 0.343284234578195 
579	 0.343959089466485 
580	 0.344669633884358 
581	 0.345193874152542 
582	 0.345611086137458 
583	 0.345981020373986 
584	 0.346265678309088 
585	 0.346228128035294 
586	 0.34593960055088 
587	 0.345598920236031 
588	 0.345350718623806 
589	 0.345222380267004 
590	 0.345235025224645 
591	 0.345395777119162 
592	 0.34548312630969 
593	 0.345588420473851 
594	 0.34574511449288 
595	 0.345608317313353 
596	 0.34543076198596 
597	 0.345251868764299 
598	 0.345000743760059 
599	 0.344754797251188 
600	 0.34458671747675 
601	 0.344520193758094 
602	 0.344507047572832 
603	 0.344420522460579 
604	 0.344410656401627 
605	 0.344604015018135 
606	 0.344496911055468 
607	 0.344480124995814 
608	 0.344612270797818 
609	 0.3445791431104 
610	 0.344685158181146 
611	 0.344879115191452 
612	 0.345028430634905 
613	 0.344971297442848 
614	 0.344990272758532 
615	 0.34513659097408 
616	 0.345306441368093 
617	 0.345365147552286 
618	 0.345350892393532 
619	 0.345333218044333 
620	 0.34539510502715 
621	 0.345460738239691 
622	 0.345537782409108 
623	 0.345606603525881 
624	 0.345373592951091 
625	 0.345311676112751 
626	 0.345413475325448 
627	 0.345219142980571 
628	 0.345325123867483 
629	 0.345555088722806 
630	 0.345686660019965 
631	 0.345815616226216 
632	 0.345596431066198 
633	 0.34544832356466 
634	 0.345976143662206 
635	 0.346178049082488 
636	 0.346099224578084 
637	 0.345925713560557 
638	 0.345878242393299 
639	 0.34600269691168 
640	 0.346143413491883 
641	 0.346115842429486 
642	 0.345922456534093 
643	 0.345712736866175 
644	 0.345416715016954 
645	 0.344788197781532 
646	 0.343843036520614 
647	 0.343358442844725 
648	 0.343636333800188 
649	 0.343574298052538 
650	 0.343362377938497 
651	 0.343096564437125 
652	 0.342816792710983 
653	 0.342120454389125 
654	 0.341370162119968 
655	 0.340716985597984 
656	 0.340033360606981 
657	 0.339421495137788 
658	 0.33895068587684 
659	 0.338572021611725 
660	 0.33794310026499 
661	 0.337383793077384 
662	 0.336908675330243 
663	 0.336355158522891 
664	 0.335708519426612 
665	 0.335192346534364 
666	 0.334886785938766 
667	 0.33458670413681 
668	 0.334299449192121 
669	 0.333996814494479 
670	 0.333636911728247 
671	 0.333066827592316 
672	 0.333001298781705 
673	 0.33319544291745 
674	 0.332569693110872 
675	 0.332305419631683 
676	 0.332310560280142 
677	 0.332286425369604 
678	 0.332030717227502 
679	 0.331906961492609 
680	 0.331807613486402 
681	 0.331492541834143 
682	 0.331434946226766 
683	 0.33140154237967 
684	 0.331088842532414 
685	 0.330102909407239 
686	 0.329364107869684 
687	 0.329065174018189 
688	 0.328984889039639 
689	 0.328730009540488 
690	 0.328381715609954 
691	 0.327788404795053 
692	 0.326713117509306 
693	 0.325808002546058 
694	 0.325475323867502 
695	 0.325538748807022 
696	 0.325146147371633 
697	 0.324057878017043 
698	 0.322600649380307 
699	 0.321350306910527 
700	 0.320258733353803 
701	 0.319369646727236 
702	 0.318480194801286 
703	 0.317232930848378 
704	 0.316181123666825 
705	 0.31491348087671 
706	 0.313270204150992 
707	 0.311828542384061 
708	 0.310233629395974 
709	 0.308462411366181 
710	 0.306585898228891 
711	 0.304521879868757 
712	 0.302198162669692 
713	 0.29954414372473 
714	 0.296416760221135 
715	 0.292964804997473 
716	 0.288945817644676 
717	 0.284668690352788 
718	 0.281042836286422 
719	 0.278417260426371 
720	 0.276753168123949 
721	 0.275168187944369 
722	 0.272068114060817 
723	 0.26822968233966 
724	 0.264666115010444 
725	 0.261097834544363 
726	 0.25774497369577 
727	 0.254175913524406 
728	 0.250132588187881 
729	 0.246067904388833 
730	 0.241833235938133 
731	 0.238111835117743 
732	 0.235250103763295 
733	 0.231996704452819 
734	 0.228915338178861 
735	 0.226386652094993 
736	 0.224401503528602 
737	 0.222735533889953 
738	 0.221395923216699 
739	 0.220475021573197 
740	 0.220129889421677 
741	 0.219408478617343 
742	 0.218584442587269 
743	 0.218398741367847 
744	 0.217827668557391 
745	 0.217330832760806 
746	 0.217094525636803 
747	 0.216748465009264 
748	 0.216300891969975 
749	 0.215965775969796 
750	 0.215849790634748 
751	 0.215513041879263 
752	 0.215203183353113 
753	 0.2149114905653 
754	 0.214526931439866 
755	 0.214345878894318 
756	 0.214052863059153 
757	 0.213500432383752 
758	 0.212695246813635 
759	 0.211313875249757 
760	 0.209802391872362 
761	 0.209657281694441 
762	 0.209456560389211 
763	 0.209705816679304 
764	 0.210396747798222 
765	 0.211286198030803 
766	 0.212077950680715 
767	 0.212572350883749 
768	 0.212827774428715 
769	 0.213089073398661 
770	 0.213234434892788 
771	 0.213302112688196 
772	 0.213416024582352 
773	 0.213866916329458 
774	 0.214267959025024 
775	 0.214453207607786 
776	 0.214487404858765 
777	 0.215088685581386 
778	 0.215600781484556 
779	 0.215881945658601 
780	 0.21638643252937 
781	 0.216701690133888 
782	 0.217107726699073 
783	 0.217710319794266 
784	 0.217919810555463 
785	 0.218400707053582 
786	 0.219075421494453 
787	 0.219586387229534 
788	 0.219676402378033 
789	 0.22013463974134 
790	 0.221003401116803 
791	 0.221714398469552 
792	 0.222652072694683 
793	 0.223546336021972 
794	 0.224126150388057 
795	 0.224184124348007 
796	 0.224610862743411 
797	 0.225318361320955 
798	 0.225971383921907 
799	 0.226374795161471 
800	 0.227091387888598 
801	 0.227761440233087 
802	 0.227714364447795 
803	 0.228084358983533 
804	 0.228625598830201 
805	 0.229011097746234 
806	 0.228987882129 
807	 0.228507801523971 
808	 0.228385222994679 
809	 0.228778777425902 
810	 0.227604479950317 
811	 0.226352717750122 
812	 0.225452828882487 
813	 0.224811898501462 
814	 0.223729390423198 
815	 0.222214107699531 
816	 0.221061434487023 
817	 0.221179961407401 
818	 0.220570969311175 
819	 0.219745549231679 
820	 0.218736230400931 
821	 0.216679888609065 
822	 0.214305294008514 
823	 0.211963377424257 
824	 0.209783475677511 
825	 0.207505676028166 
826	 0.20444277848372 
827	 0.200696046151885 
828	 0.197071313223575 
829	 0.194205901956378 
830	 0.191501010776416 
831	 0.188978671717208 
832	 0.187146631626225 
833	 0.184980868295359 
834	 0.183312910208886 
835	 0.182342435812205 
836	 0.181241253565362 
837	 0.180307128155689 
838	 0.179567833128995 
839	 0.178922510259615 
840	 0.178040460717728 
841	 0.177421300726614 
842	 0.176811931809438 
843	 0.175920176861745 
844	 0.175686240173561 
845	 0.174824866443341 
846	 0.173630542257851 
847	 0.173349772499169 
848	 0.172943666322568 
849	 0.172176552426472 
850	 0.171170849213929 
851	 0.170369615423451 
852	 0.170076455892338 
853	 0.169795081666294 
854	 0.169009175363082 
855	 0.167510867506873 
856	 0.16718355933256 
857	 0.167232807900689 
858	 0.166615356077796 
859	 0.166320915087992 
860	 0.165731849340276 
861	 0.165202496401159 
862	 0.165231828338291 
863	 0.164034853959349 
864	 0.163285054577026 
865	 0.163009930948068 
866	 0.161743581434785 
867	 0.161243073395035 
868	 0.16067527249327 
869	 0.159922576107129 
870	 0.160174959352412 
871	 0.159239811060254 
872	 0.157988724688278 
873	 0.157326392247929 
874	 0.156667102939437 
875	 0.155883950081161 
876	 0.155152316521436 
877	 0.154546015550946 
878	 0.153318959186335 
879	 0.15255195384426 
880	 0.151961103049029 
881	 0.15077160430086 
882	 0.149477077387044 
883	 0.149051428288401 
884	 0.148914106542757 
885	 0.14761669067877 
886	 0.147107960798099 
887	 0.14635559134301 
888	 0.145338105244229 
889	 0.145372338929125 
890	 0.144270860108174 
891	 0.142849245100514 
892	 0.141997222155371 
893	 0.141636750266471 
894	 0.140132389909762 
895	 0.138441850574817 
896	 0.137768882160522 
897	 0.136971726962172 
898	 0.135735133014712 
899	 0.134699147973358 
900	 0.13436149137632 
901	 0.133371172314333 
902	 0.13375314820797 
903	 0.134311485861495 
904	 0.133318409806579 
905	 0.132693495090349 
906	 0.131568221041038 
907	 0.129817580484486 
908	 0.128145865058751 
909	 0.127917694216401 
910	 0.127580639852454 
911	 0.126655229525447 
912	 0.125811673599863 
913	 0.12363076311995 
914	 0.121512135505644 
915	 0.120286958395944 
916	 0.119555561665673 
917	 0.119189286702942 
918	 0.11897352553885 
919	 0.118484211451657 
920	 0.117049486706737 
921	 0.114008934254576 
922	 0.111694908286259 
923	 0.111513883582197 
924	 0.11176502514342 
925	 0.107773714940407 
926	 0.104635881457465 
927	 0.106940190114236 
928	 0.102170496023007 
929	 9.92042259870287E-02 
930	 0.100619947821836 
931	 0.103513622850402 
932	 9.62487641541475E-02 
933	 9.43531658081054E-02 
934	 0.101049066637072 
935	 0.103134640000286 
936	 0.077234712180037 
937	 0.078522824776758 
938	 8.99705278376749E-02 
939	 8.41191193339364E-02 
940	 8.50495221878321E-02 
941	 8.15401271647125E-02 
942	 7.63476802192445E-02 
943	 7.82047668327374E-02 
944	 8.44840655224893E-02 
945	 7.71444654115923E-02 
946	 6.87949763867207E-02 
947	 8.08451940425644E-02 
948	 7.46202205353894E-02 
949	 7.58442283815613E-02 
950	 8.24382702053211E-02 
951	 7.74191829650526E-02 
952	 7.28823946373967E-02 
953	 7.63846728718997E-02 
954	 8.12081754271845E-02 
955	 7.52177024595402E-02 
956	 7.13775628052112E-02 
957	 6.86577032045889E-02 
958	 6.95425911375338E-02 
959	 7.65784967046104E-02 
960	 7.31690752456198E-02 
961	 7.32645761602499E-02 
962	 7.53764217221818E-02 
963	 6.92326261958842E-02 
964	 6.91039883032966E-02 
965	 6.95922752384543E-02 
966	 6.88373800542938E-02 
967	 6.84460527902015E-02 
968	 6.72211352767228E-02 
969	 6.97200423004259E-02 
970	 7.36061793726641E-02 
971	 7.17208757061261E-02 
972	 6.92263846725979E-02 
973	 0.06882960851742 
974	 6.91921682507085E-02 
975	 6.63289709853772E-02 
976	 6.64030468872807E-02 
977	 6.71348857404872E-02 
978	 6.84125378175408E-02 
979	 7.17629140699583E-02 
980	 6.97419186991571E-02 
981	 6.96283185512764E-02 
982	 7.09307652124238E-02 
983	 6.75017506504153E-02 
984	 6.67333051394007E-02 
985	 6.83728917335748E-02 
986	 7.00523945961723E-02 
987	 6.88598032974759E-02 
988	 6.48803960012522E-02 
989	 6.90569303148496E-02 
990	 7.49348570347212E-02 
991	 6.78155139418774E-02 
992	 7.11326734158104E-02 
993	 7.21108340200316E-02 
994	 6.91889455023522E-02 
995	 6.97717711770448E-02 
996	 7.24580043608215E-02 
997	 7.09595962479998E-02 
998	 6.73526253546512E-02 
999	 6.80869539707262E-02 
1000	 7.10273787068105E-02 
1001	 0.072175314634219 
1002	 7.48916584604616E-02 
1003	 7.55433855851679E-02 
1004	 7.41970557407941E-02 
1005	 7.42988009259671E-02 
1006	 7.50525802460728E-02 
1007	 7.43807133687937E-02 
1008	 7.43204045035163E-02 
1009	 7.52128478670996E-02 
1010	 7.50469080325184E-02 
1011	 7.44528242715307E-02 
1012	 7.38224593459472E-02 
1013	 7.26100680983317E-02 
1014	 7.22726551273294E-02 
1015	 7.18391817548253E-02 
1016	 7.24495028119175E-02 
1017	 7.45911527610891E-02 
1018	 7.57125348168056E-02 
1019	 7.71386071169885E-02 
1020	 7.79473348817388E-02 
1021	 7.88407756496858E-02 
1022	 7.80191989542053E-02 
1023	 7.67726944259672E-02 
1024	 7.57843872243659E-02 
1025	 7.44774862351021E-02 
1026	 7.41963452382717E-02 
1027	 7.41569463314823E-02 
1028	 0.074788703486905 
1029	 7.59264710773391E-02 
1030	 7.74603025615737E-02 
1031	 7.89947167271261E-02 
1032	 8.21358162640277E-02 
1033	 8.32760725685175E-02 
1034	 8.37891405068175E-02 
1035	 8.34599945175695E-02 
1036	 0.080494533972691 
1037	 8.01315034062345E-02 
1038	 8.02783863951254E-02 
1039	 8.10481403114831E-02 
1040	 8.35133541523702E-02 
1041	 8.45279523052687E-02 
1042	 8.48126024419458E-02 
1043	 8.36423424553057E-02 
1044	 8.36259287783863E-02 
1045	 8.30061128882637E-02 
1046	 8.36467645173751E-02 
1047	 8.55427826022832E-02 
1048	 8.66871974352903E-02 
1049	 8.85328117641988E-02 
1050	 0.089459950521231 
1051	 8.93009684955218E-02 
1052	 8.97049191569527E-02 
1053	 9.08291996443887E-02 
1054	 9.06096378747039E-02 
1055	 8.86682396006422E-02 
1056	 8.85215242524848E-02 
1057	 8.87589657134867E-02 
1058	 8.83433600781767E-02 
1059	 8.92656847558006E-02 
1060	 9.29569339380415E-02 
1061	 9.36018785803237E-02 
1062	 9.28913351804621E-02 
1063	 9.27131835312648E-02 
1064	 9.10689571425702E-02 
1065	 9.10450055330339E-02 
1066	 9.24810182490563E-02 
1067	 9.28261818800047E-02 
1068	 9.35130980071034E-02 
1069	 9.36388165320901E-02 
1070	 9.25932811518915E-02 
1071	 9.21076070024687E-02 
1072	 9.20314301402255E-02 
1073	 9.14460948232158E-02 
1074	 9.11190395227138E-02 
1075	 9.10650778095438E-02 
1076	 9.05532284238303E-02 
1077	 8.96164463332547E-02 
1078	 8.93490269791005E-02 
1079	 8.89411557810615E-02 
1080	 8.89999841714866E-02 
1081	 9.00440488952009E-02 
1082	 9.01009399323879E-02 
1083	 0.089930205008225 
1084	 8.98580235723239E-02 
1085	 8.92395864608553E-02 
1086	 0.089010661361566 
1087	 8.93652733451707E-02 
1088	 8.88531432192433E-02 
1089	 8.74350430353149E-02 
1090	 8.72228463213676E-02 
1091	 8.60805034156624E-02 
1092	 8.36369737854896E-02 
1093	 8.37318003981494E-02 
1094	 8.52738795891986E-02 
1095	 8.54310509155953E-02 
1096	 8.72761954766811E-02 
1097	 8.70991223679539E-02 
1098	 0.083769808802952 
1099	 8.23294645567021E-02 
1100	 8.09282746250634E-02 
1101	 8.02646681818447E-02 
1102	 8.14685211231271E-02 
1103	 8.18496572022854E-02 
1104	 8.37092916781825E-02 
1105	 8.19368632497662E-02 
1106	 8.04241906956258E-02 
1107	 8.06287339117269E-02 
1108	 7.95446014393642E-02 
1109	 7.93499531432949E-02 
1110	 0.079315080787245 
1111	 7.92644189749373E-02 
1112	 7.88359983356608E-02 
1113	 7.96190767812833E-02 
1114	 7.85895465363781E-02 
1115	 7.34528941314718E-02 
1116	 7.10995494084348E-02 
1117	 7.26185555096388E-02 
1118	 7.21108481677996E-02 
1119	 7.01825369492607E-02 
1120	 6.94671589077127E-02 
1121	 7.02086137767576E-02 
1122	 0.062300014092203 
1123	 5.39536165999806E-02 
1124	 6.81955056661563E-02 
1125	 8.35270286962553E-02 
1126	 7.33590129979361E-02 
1127	 7.00841358283533E-02 
1128	 8.03073861031265E-02 
1129	 7.01199691949423E-02 
1130	 4.11028057725848E-02 
1131	 4.14590504355863E-02 
1132	 5.01964682535254E-02 
1133	 5.10925660882613E-02 
1134	 6.51175608893166E-02 
1135	 6.75029627719601E-02 
1136	 5.22026617627086E-02 
1137	 5.11023874434228E-02 
1138	 5.49709203938562E-02 
1139	 6.13327417746854E-02 
1140	 0.068939744829752 
1141	 0.066887876986713 
1142	 6.44641919565405E-02 
1143	 6.34645729955718E-02 
1144	 5.94757868654054E-02 
1145	 6.07373748775094E-02 
1146	 5.86407755616332E-02 
1147	 5.59836561351984E-02 
1148	 5.47621763250375E-02 
1149	 5.06125079672857E-02 
1150	 0.050226004247333 
1151	 5.23782513050974E-02 
1152	 5.30595882445069E-02 
1153	 5.32665408849163E-02 
1154	 5.46446435606974E-02 
1155	 5.76801605850151E-02 
1156	 5.61944863008205E-02 
1157	 5.24846900228131E-02 
1158	 5.49348704251627E-02 
1159	 5.79530399867155E-02 
1160	 5.83900095558328E-02 
1161	 5.94462123495842E-02 
1162	 5.92106011459036E-02 
1163	 5.69625877668255E-02 
1164	 5.67213641899466E-02 
1165	 5.72397928841532E-02 
1166	 5.68329184695403E-02 
1167	 5.79008660217847E-02 
1168	 5.86037584008381E-02 
1169	 5.85832409526487E-02 
1170	 5.92830312590174E-02 
1171	 5.93676323640984E-02 
1172	 5.75582233611752E-02 
1173	 5.75458489237523E-02 
1174	 5.83137617937884E-02 
1175	 5.95833000447566E-02 
1176	 6.03175053766027E-02 
1177	 6.07594561594671E-02 
1178	 5.97926957674082E-02 
1179	 5.85616505901433E-02 
1180	 5.86396140705945E-02 
1181	 5.91146406783599E-02 
1182	 5.91798056872687E-02 
1183	 5.90877204654294E-02 
1184	 5.89054544666704E-02 
1185	 5.85258593805449E-02 
1186	 5.89469320723593E-02 
1187	 5.89496665335439E-02 
1188	 5.89782363943647E-02 
1189	 6.02616516039256E-02 
1190	 6.05170604469179E-02 
1191	 0.060944733070277 
1192	 6.13131915515127E-02 
1193	 6.17948120897853E-02 
1194	 6.03304040146648E-02 
1195	 5.97657753073063E-02 
1196	 6.05434256988855E-02 
1197	 6.09726971052541E-02 
1198	 0.06046548675017 
1199	 6.01956743443237E-02 
1200	 6.11227056631276E-02 
1201	 6.06514776212895E-02 
1202	 6.01922388308555E-02 
1203	 6.16047169346909E-02 
1204	 0.061522177318259 
1205	 6.01592105310772E-02 
1206	 6.02459692365053E-02 
1207	 6.02284126813281E-02 
1208	 5.91272243264177E-02 
1209	 5.91969656634902E-02 
1210	 5.91594863260944E-02 
1211	 5.86164117575802E-02 
1212	 6.00431600232303E-02 
1213	 6.08326308174645E-02 
1214	 6.03517389231662E-02 
1215	 5.91636724290965E-02 
1216	 5.91043178415412E-02 
1217	 5.90913732448321E-02 
1218	 5.84652198815487E-02 
1219	 5.93974639634123E-02 
1220	 0.06063377270171 
1221	 5.95529049954692E-02 
1222	 5.87755035852462E-02 
1223	 5.92960047209822E-02 
1224	 5.96397824909968E-02 
1225	 6.00637830542785E-02 
1226	 6.06269364080557E-02 
1227	 6.09223167843138E-02 
1228	 6.12077834493929E-02 
1229	 6.10473611444603E-02 
1230	 6.06535379249149E-02 
1231	 6.13570821150161E-02 
1232	 6.15748184654166E-02 
1233	 6.05338568339602E-02 
1234	 6.02846834016456E-02 
1235	 0.060691399432579 
1236	 6.17166021829035E-02 
1237	 0.061431891141406 
1238	 0.061023778682257 
1239	 6.15025635190857E-02 
1240	 6.18051685720628E-02 
1241	 6.12199047607684E-02 
1242	 0.061360527435171 
1243	 6.18213754341681E-02 
1244	 6.08807928123794E-02 
1245	 6.03168878678732E-02 
1246	 6.14074989711693E-02 
1247	 6.18828963361607E-02 
1248	 6.11236927271218E-02 
1249	 6.06741603839993E-02 
1250	 6.02610744518484E-02 
1251	 5.93985630603502E-02 
1252	 5.98703738485373E-02 
1253	 6.05755879035827E-02 
1254	 5.97059332909211E-02 
1255	 5.94899967648865E-02 
1256	 5.97594517794503E-02 
1257	 5.95721818333529E-02 
1258	 5.94559220287288E-02 
1259	 6.08037708229012E-02 
1260	 6.10008076270639E-02 
1261	 5.92935184773966E-02 
1262	 5.91046855034685E-02 
1263	 5.95720525990306E-02 
1264	 6.05065884616216E-02 
1265	 6.09558197519807E-02 
1266	 6.14434031072496E-02 
1267	 6.12265382023172E-02 
1268	 6.05903802366684E-02 
1269	 6.11538449691521E-02 
1270	 6.11439670017603E-02 
1271	 6.09193659774728E-02 
1272	 6.24541587985046E-02 
1273	 6.24909591398814E-02 
1274	 6.12747255762936E-02 
1275	 6.06290571675092E-02 
1276	 5.93779829433834E-02 
1277	 5.89549465414291E-02 
1278	 6.00140359908037E-02 
1279	 0.061241921684516 
1280	 0.061613939919319 
1281	 6.18204764493648E-02 
1282	 6.13410818727291E-02 
1283	 6.11918594605357E-02 
1284	 6.07474455797638E-02 
1285	 6.05498741393435E-02 
1286	 6.07375443237183E-02 
1287	 6.02816818127911E-02 
1288	 5.95054747045291E-02 
1289	 0.059693887902508 
1290	 6.04122759376408E-02 
1291	 5.94937871682066E-02 
1292	 5.94816503260405E-02 
1293	 5.99541801907541E-02 
1294	 6.04662761070892E-02 
1295	 6.03111476687798E-02 
1296	 5.89555675728322E-02 
1297	 5.83042201461813E-02 
1298	 5.80409801644367E-02 
1299	 5.77634063153725E-02 
1300	 5.92229007435569E-02 
1301	 6.05385655484647E-02 
1302	 6.01003581038106E-02 
1303	 5.94923594743597E-02 
1304	 5.98330713796253E-02 
1305	 6.02987284408211E-02 
1306	 5.99875260916236E-02 
1307	 0.058820610098985 
1308	 5.85101438026506E-02 
1309	 5.81865401269099E-02 
1310	 5.72033429954852E-02 
1311	 5.61257304599013E-02 
1312	 5.57481712646251E-02 
1313	 5.48629787053168E-02 
1314	 5.46997543554884E-02 
1315	 5.56017680478336E-02 
1316	 5.60901107514365E-02 
1317	 5.76017565653957E-02 
1318	 5.81016441871565E-02 
1319	 5.74750040288868E-02 
1320	 5.73438794148104E-02 
1321	 5.68046157144153E-02 
1322	 5.58860435394125E-02 
1323	 5.47824282331263E-02 
1324	 5.53355296571478E-02 
1325	 0.054861227769329 
1326	 5.38421377088402E-02 
1327	 5.34301063196719E-02 
1328	 5.49696068156154E-02 
1329	 5.87524776738207E-02 
1330	 5.94856196024593E-02 
1331	 0.054998545978615 
1332	 5.20371264394442E-02 
1333	 5.40204671888256E-02 
1334	 5.26421769007807E-02 
1335	 5.09268763987166E-02 
1336	 5.26984688520657E-02 
1337	 0.054338513038046 
1338	 5.06544472376352E-02 
1339	 5.06115908957392E-02 
1340	 5.89818517945741E-02 
1341	 5.98334441037045E-02 
1342	 5.32903369316593E-02 
1343	 5.34743993557612E-02 
1344	 5.37484543948928E-02 
1345	 5.49292239067018E-02 
1346	 6.92652697984057E-02 
1347	 7.34574648704387E-02 
1348	 0.051650306252847 
1349	 5.81118759924073E-02 
1350	 0.124840510660132 
1351	 0.137960505697996 
1352	 6.87294910981582E-02 
1353	 8.11792447057666E-02 
1354	 7.31145304991893E-02 
1355	-8.88179616405999E-04 
1356	-1.55175170620515E-02 
1357	 0.240035778215565 
1358	 0.340534620892638 
1359	 0.162993181873953 
1360	 0.142529511977527 
1361	 0.329670957296037 
1362	 0.485753657047173 
1363	 0.421300333273713 
1364	 0.759156126523678 
1365	 1.38070352724179 
1366	 1.08816547848514 
1367	 0.33708747869646 
1368	 0.150542189293346 
1369	-7.69048583135551E-02 
1370	-0.193167436304711 
1371	 0.597137364916723 
1372	 1.45182321750691 
1373	 1.10930494240786 
1374	 0.621756151887577 
1375	 0.333527081165265 
1376	 0.38334205868431 
1377	 0.776298655681119 
1378	 0.687084488034472 
1379	 0.242628414273105 
1380	 0.314494217768873 
1381	 1.02217922976292 
1382	 0.718168775630379 
1383	-0.142773735541184 
1384	-0.115993637080818 
1385	 0.128783290149315 
1386	 2.08406252289901E-02 
1387	 1.10751221101233 
1388	 4.52151781488914 
1389	 1.86600932928922 
1390	 1.82549366683205 
1391	 2.56444620083283 
1392	-6.20695616177904 
1393	-3.37714320775671 
1394	 0.717027568242379 
1395	 0.248415863354331 
1396	 0.686832816577467 
1397	 0.938375736393954 
1398	 1.57480389987942 
1399	 1.79119114709278 
1400	 0.749314228930556 
1401	 0.380010755835016 
1402	 0.579042469605054 
1403	 0.452985876044602 
1404	-1.96821256961045E-02 
1405	-0.274018091287737 
1406	-0.363878638891984 
1407	-0.540845393108195 
1408	-1.86111060418672 
1409	-2.30563344319637 
1410	-1.99054441996937 
1411	-2.17623192386675 
1412	-1.0360338268951 
1413	-0.401356328676644 
1414	 0.409613692127272 
1415	 0.497082954671293 
1416	 4.24915579004358E-02 
1417	 4.63580907835879E-02 
1418	-1.67982011582388E-02 
1419	 7.13951869746302E-02 
1420	 0.428781311771057 
1421	 0.442899755412906 
1422	 0.407292363592962 
1423	 0.388441214889762 
1424	 0.264493252323372 
1425	 0.194882150255845 
1426	 0.132485764206641 
1427	 0.132444295401382 
1428	 0.191199974974127 
1429	 0.162338594973388 
1430	 0.111068871880412 
1431	 0.105076740937872 
1432	 6.23882838791611E-02 
1433	 1.33359895229187E-02 
1434	-3.97032918154806E-02 
1435	-1.94516636492748E-02 
1436	 6.90642481969542E-02 
1437	 0.118520836829917 
1438	 8.86538766990334E-02 
1439	 0.131060458135655 
1440	 0.10364954967973 
1441	 0.019344945095529 
1442	 2.81638833166645E-02 
1443	 2.49020221362219E-02 
1444	 1.06159345422094E-02 
1445	 1.15848673289414E-02 
1446	-5.80268483750836E-03 
1447	 3.22449213475693E-02 
1448	 3.97881524612059E-02 
1449	-1.52295351693442E-02 
1450	-9.35243570633181E-03 
1451	-4.18405399407584E-03 
1452	-2.60729273741346E-03 
1453	 2.78118483232724E-02 
1454	 3.28647287986843E-02 
1455	 3.09594764304716E-02 
1456	 3.56230500819224E-02 
1457	 4.23904039895371E-02 
1458	 3.34712755852084E-02 
1459	 1.81756506023602E-02 
1460	 1.44130549006991E-02 
1461	-1.49731339268089E-03 
1462	 2.80432410137321E-04 
1463	 3.08765206336387E-02 
1464	 3.29635492679907E-02 
1465	 1.61005192871541E-02 
1466	 2.24413674845511E-02 
1467	 3.46053615214634E-02 
1468	 0.035274286655983 
1469	 4.04778485369149E-02 
1470	 5.58628243163659E-02 
1471	 7.21656715653854E-02 
1472	 6.55865549710015E-02 
1473	 6.12851008318194E-02 
1474	 5.58059541687545E-02 
1475	 2.21581382260731E-02 
1476	 1.72488523829183E-02 
1477	 3.99457787186628E-02 
1478	 4.23042675544445E-02 
1479	 0.035777041954238 
1480	 3.34505241766228E-02 
1481	 2.72183691347401E-02 
1482	 2.81878878776571E-02 
1483	 3.41894027219956E-02 
1484	 3.81804516893751E-02 
1485	 4.48860679230142E-02 
1486	 4.71974845763042E-02 
1487	 0.047323595634927 
1488	 4.66600999459707E-02 
1489	 4.45491297925532E-02 
1490	 4.33735990139111E-02 
1491	 4.27563699751972E-02 
1492	 4.11193470391245E-02 
1493	 3.83287148028747E-02 
1494	 3.75165982602235E-02 
1495	 3.54106715173101E-02 
1496	 3.63646651360411E-02 
1497	 0.040573219236946 
1498	 4.28385928900781E-02 
1499	 4.68063300316367E-02 
1500	 4.77868810784486E-02 
1501	 4.63285040263779E-02 
1502	 4.58207078177262E-02 
1503	 4.29074091493405E-02 
1504	 4.25965788531073E-02 
1505	 4.46027027686766E-02 
1506	 4.58112179673281E-02 
1507	 4.56478849398788E-02 
1508	 4.73904341134631E-02 
1509	 4.78483692893269E-02 
1510	 4.65333128043973E-02 
1511	 4.44189369725554E-02 
1512	 4.31516677589777E-02 
1513	 0.043456388082601 
1514	 4.32045328489305E-02 
1515	 4.32685051598977E-02 
1516	 4.39990960040128E-02 
1517	 4.29512105194334E-02 
1518	 4.30256233684903E-02 
1519	 4.46187512953103E-02 
1520	 4.48255767928878E-02 
1521	 4.56058053317153E-02 
1522	 4.60684239463274E-02 
1523	 4.63785657083147E-02 
1524	 4.76983105898201E-02 
1525	 4.76205687792524E-02 
1526	 4.65544564421589E-02 
1527	 4.50478371516146E-02 
1528	 4.42413909475165E-02 
1529	 4.49858833029452E-02 
1530	 4.55544816413375E-02 
1531	 4.75944601587385E-02 
1532	 4.91683769809154E-02 
1533	 4.76612963435272E-02 
1534	 4.67833427272938E-02 
1535	 4.68367550522153E-02 
1536	 4.67470598288701E-02 
1537	 4.71374080204764E-02 
1538	 4.82359664086407E-02 
1539	 4.93268632780834E-02 
1540	 4.98110897463635E-02 
1541	 4.97534824587806E-02 
1542	 4.85298257144497E-02 
1543	 4.78007133048726E-02 
1544	 4.80084407068121E-02 
1545	 0.04828872402369 
1546	 0.049201912201558 
1547	 4.96684588948773E-02 
1548	 4.87412205421837E-02 
1549	 4.79909512440639E-02 
1550	 4.82345980954499E-02 
1551	 4.79686705903009E-02 
1552	 4.67463189323664E-02 
1553	 0.045646830692432 
1554	 4.60850468185979E-02 
1555	 4.72023252658654E-02 
1556	 4.69727064751577E-02 
1557	 4.69210373200682E-02 
1558	 4.71753787226403E-02 
1559	 4.68973732241937E-02 
1560	 4.80931779762679E-02 
1561	 4.95411825268568E-02 
1562	 0.04919228328788 
1563	 4.88435814205959E-02 
1564	 4.97379238746674E-02 
1565	 5.04238087007802E-02 
1566	 0.050050197160303 
1567	 4.91004881208757E-02 
1568	 4.83222873760899E-02 
1569	 4.83858574243236E-02 
1570	 4.93606048572258E-02 
1571	 5.15198527844611E-02 
1572	 5.24794869644239E-02 
1573	 0.050898574060788 
1574	 5.02381553378487E-02 
1575	 5.11836354932816E-02 
1576	 5.15286409442308E-02 
1577	 0.050969630348471 
1578	 5.15906376407975E-02 
1579	 5.31750347223128E-02 
1580	 5.25593699458677E-02 
1581	 5.09946960921615E-02 
1582	 5.09905741120852E-02 
1583	 5.08525205682551E-02 
1584	 5.01595812212149E-02 
1585	 5.07962885830607E-02 
1586	 5.17788509799109E-02 
1587	 5.13397624610049E-02 
1588	 5.02862405102569E-02 
1589	 4.93861349574299E-02 
1590	 4.94318803343426E-02 
1591	 4.98297205092585E-02 
1592	 0.049388196806889 
1593	 5.03242646573722E-02 
1594	 5.10695375168057E-02 
1595	 5.11231725224803E-02 
1596	 0.052487602284098 
1597	 5.17644829504851E-02 
1598	 4.99504152486148E-02 
1599	 4.99362533612606E-02 
1600	 4.97611548725158E-02 
1601	 4.97181818887637E-02 
1602	 5.06988883668832E-02 
1603	 5.10385287959447E-02 
1604	 5.02952980734452E-02 
1605	 4.94142143137866E-02 
1606	 4.92874726331519E-02 
1607	 4.85747472504323E-02 
1608	 4.82509780721458E-02 
1609	 5.01794089715445E-02 
1610	 5.13215036375839E-02 
1611	 5.06615001704502E-02 
1612	 4.94174976326078E-02 
1613	 4.82855236371177E-02 
1614	 4.89218087707481E-02 
1615	 5.14018959498769E-02 
1616	 5.24740779647577E-02 
1617	 5.23924944614262E-02 
1618	 5.27638791249944E-02 
1619	 5.14127387213208E-02 
1620	 4.97997052967762E-02 
1621	 4.96020829444954E-02 
1622	 4.88201689308107E-02 
1623	 4.81521171171693E-02 
1624	 4.91366230272101E-02 
1625	 5.03183574358633E-02 
1626	 4.98462008205599E-02 
1627	 4.86691564148125E-02 
1628	 4.93812441061683E-02 
1629	 0.0506123981334 
1630	 0.050877288241732 
1631	 5.18052572913632E-02 
1632	 5.26896563250228E-02 
1633	 5.13975571253361E-02 
1634	 5.05502719780869E-02 
1635	 5.20178337167926E-02 
1636	 5.17631313369149E-02 
1637	 5.13581537468971E-02 
1638	 0.052510116680527 
1639	 5.26378985564998E-02 
1640	 5.21028043073015E-02 
1641	 0.051996009774692 
1642	 5.22121141448881E-02 
1643	 5.11536030432487E-02 
1644	 5.10060286330607E-02 
1645	 5.26564907307289E-02 
1646	 5.15821160956993E-02 
1647	 4.97944181187638E-02 
1648	 5.06185338674058E-02 
1649	 0.050615721091122 
1650	 4.93447892251181E-02 
1651	 4.94632326347734E-02 
1652	 5.02987758670624E-02 
1653	 5.06520548104287E-02 
1654	 5.06535086834109E-02 
1655	 5.07473467504465E-02 
1656	 5.11571365386455E-02 
1657	 5.09901488196715E-02 
1658	 5.11243232407784E-02 
1659	 5.27376220481283E-02 
1660	 5.29618056624147E-02 
1661	 5.22241420978766E-02 
1662	 5.15472027273748E-02 
1663	 4.96857297556734E-02 
1664	 4.93970046481567E-02 
1665	 4.98245709257069E-02 
1666	 0.049998025221837 
1667	 5.16546839857844E-02 
1668	 5.16054050236541E-02 
1669	 5.12410201799853E-02 
1670	 5.15673122429492E-02 
1671	 5.17947691707651E-02 
1672	 5.30522238285797E-02 
1673	 5.21574048539427E-02 
1674	 5.11215482175766E-02 
1675	 5.21824721040111E-02 
1676	 5.15501788597049E-02 
1677	 5.15574896290727E-02 
1678	 5.22481814727337E-02 
1679	 5.10730304273737E-02 
1680	 5.07498645215116E-02 
1681	 5.09758840698214E-02 
1682	 5.08439319982958E-02 
1683	 5.21857124705216E-02 
1684	 5.15335044134563E-02 
1685	 5.01556552680177E-02 
1686	 5.16885147855685E-02 
1687	 5.14679279738566E-02 
1688	 5.01106517709031E-02 
1689	 5.03924576167499E-02 
1690	 4.92262759346019E-02 
1691	 4.74181985144734E-02 
1692	 4.78955850611516E-02 
1693	 4.79564749786062E-02 
1694	 4.77413845315699E-02 
1695	 4.89552010817576E-02 
1696	 4.88471052449455E-02 
1697	 5.01165438328213E-02 
1698	 5.18328302786309E-02 
1699	 5.02128853522043E-02 
1700	 4.97801395739076E-02 
1701	 5.03108186158241E-02 
1702	 0.050741596655836 
1703	 5.23593905084943E-02 
1704	 0.053263641456324 
1705	 5.41666808613212E-02 
1706	 5.40704159468448E-02 
1707	 5.19704613466981E-02 
1708	 0.052186094531953 
1709	 5.26348694914004E-02 
1710	 4.92360966919418E-02 
1711	 0.04971789878325 
1712	 5.22718646953994E-02 
1713	 0.050868495517484 
1714	 5.13053208571739E-02 
1715	 5.00115701372543E-02 
1716	 4.89163969433897E-02 
1717	 0.050919814416861 
1718	 5.27346868710606E-02 
1719	 5.48255110498762E-02 
1720	 5.36507867322392E-02 
1721	 5.09231272997271E-02 
1722	 5.01816457586394E-02 
1723	 4.65947755229066E-02 
1724	 4.71727585394285E-02 
1725	 5.12651502390826E-02 
1726	 5.03571370761436E-02 
1727	 5.03650359875755E-02 
1728	 5.03822821892247E-02 
1729	 4.62299463866139E-02 
1730	 4.51133822873717E-02 
1731	 4.71281459189386E-02 
1732	 4.77414461224376E-02 
1733	 4.99740839102876E-02 
1734	 5.16740697662494E-02 
1735	 4.95810057413537E-02 
1736	 4.93914878149533E-02 
1737	 0.052871053828467 
1738	 5.38556700913353E-02 
1739	 5.28642200574588E-02 
1740	 5.10406210163827E-02 
1741	 4.68053712046948E-02 
1742	 4.63981032998275E-02 
1743	 4.96436475921918E-02 
1744	 5.16376562567291E-02 
1745	 5.35786574047901E-02 
1746	 5.06591523638525E-02 
1747	 4.99739800038354E-02 
1748	 5.21742788715478E-02 
1749	 0.050839006381423 
1750	 4.69533155362544E-02 
1751	 4.70513901946431E-02 
1752	 4.72010981917347E-02 
1753	 4.49903528063332E-02 
1754	 4.50542249677609E-02 
1755	 0.046918387207283 
1756	 0.045873799983147 
1757	 5.15344536758444E-02 
1758	 5.45808030082025E-02 
1759	 5.22609429527228E-02 
1760	 5.26120905491685E-02 
1761	 5.80297278052308E-02 
1762	 0.059485967246867 
1763	 5.47238019730873E-02 
1764	 5.39223817116994E-02 
1765	 5.31224056258926E-02 
1766	 4.88753433137003E-02 
1767	 5.26763843912854E-02 
1768	 5.83917635303351E-02 
1769	 5.31204918271044E-02 
1770	 5.05610422874309E-02 
1771	 5.63644140671034E-02 
1772	 5.54893454050573E-02 
1773	 5.89219933602317E-02 
1774	 6.75469197284384E-02 
1775	 5.91427099855436E-02 
1776	 5.60497876615657E-02 
1777	 4.85269740211302E-02 
1778	 4.62919919882269E-02 
1779	 5.54338443673135E-02 
1780	 5.74478493625497E-02 
1781	 6.07410254397763E-02 
1782	 5.64433580830443E-02 
1783	 3.44482293950098E-02 
1784	 3.15013957087198E-02 
1785	 3.69256696337509E-02 
1786	 0.04144439617632 
1787	 6.34418354082864E-02 
1788	 7.52107979643674E-02 
1789	 8.10720119239527E-02 
1790	 7.04041549317679E-02 
1791	 5.31017965831674E-02 
1792	 3.93707163826193E-02 
1793	 2.70754799275565E-02 
1794	 4.52173907029062E-02 
1795	 9.57180653582763E-02 
1796	 0.119764682736274 
1797	 0.106905917871375 
1798	 9.98272680923799E-02 
1799	 8.87678488451528E-02 
1800	 0.164482157088228 
1801	 0.224157188037944 
1802	 0.293031175621242 
1803	 0.296390842619588 
1804	 0.11677182392395 
1805	 0.02804542677041 
1806	-7.71351985170883E-02 
1807	-4.09382817189405E-02 
1808	 0.393763060379969 
1809	 0.585512165484937 
1810	 1.03048975489979 
1811	 1.29390873190091 
1812	 0.097282579829736 
1813	 4.80534263693203E-02 
1814	 0.69357116233081 
1815	 0.546688859481722 
1816	 0.337465860632496 
1817	 0.12639776724306 
1818	-0.279878410793502 
1819	 0.318377105362634 
1820	 3.61092608476327 
1821	-2.88358674867131 
1822	-2.47895413472239 
1823	 5.4729182037148 
1824	 1.14956487691281 
1825	 0.127959842903574 
1826	-7.87827870324276E-02 
1827	-3.86708821777732E-02 
1828	-0.20481335050916 
1829	-0.125470795985223 
1830	-0.270981554070698 
1831	-0.511976441820516 
1832	-0.53267580121585 
1833	-0.548548754380235 
1834	-0.813323548100087 
1835	-3.39063987994951 
1836	 2.84991087044098 
1837	 0.449408969625793 
1838	 0.314998248126945 
1839	 0.035971596226133 
1840	 5.74136426614892E-02 
1841	 0.406216095234133 
1842	 0.815881537782106 
1843	 0.794218073414956 
1844	 0.470759954973052 
1845	 0.295904198287868 
1846	-0.204698762398696 
1847	-0.381761129544919 
1848	-8.74703951318047E-02 
1849	-2.53142335723291 
1850	 5.28627003671462E-02 
1851	 0.040845105408484 
1852	 0.288711114732254 
1853	 0.369020581762864 
1854	 0.733094301775428 
1855	-2.06616594953346 
1856	-2.37154292569752 
1857	 1.01179620458331 
1858	 0.52783957002255 
1859	 0.219271733466417 
1860	 0.23400821399963 
1861	 0.125819018279491 
1862	 0.402618808435986 
1863	 0.696935874235474 
1864	-0.257098551222737 
1865	-0.781253901614305 
1866	-1.83537601917079 
1867	-3.80856753547919 
1868	-1.05399320763029 
1869	-0.488466573645915 
1870	-0.262152659646885 
1871	-0.159187019563905 
1872	 0.552453635978108 
1873	-1.90029918752989 
1874	-0.566544209902252 
1875	-0.167894016270051 
1876	 0.168865599248811 
1877	 1.01030830096205 
1878	 1.72449521304837 
1879	 2.61932483391864 
1880	 2.83608844150682 
1881	 2.14887144319686 
1882	 15.8983357871303 
1883	 18.3260484400827 
1884	-13.4630901181947 
1885	-3.42841872710627 
1886	 0.35317123588024 
1887	 8.80354325156728 
1888	-3.1461544279982 
1889	-2.18172048623478 
1890	 1.48830729208232 
1891	 4.53321076402326 
1892	-3.01842906535432 
1893	-1.95820684030226 
1894	-1.57525870749012 
1895	-0.389469999625764 
1896	-7.95545308068137 
1897	 0.141457550468045 
1898	-1.08000158714993 
1899	-0.889315844973053 
1900	-0.956131469734315 
1901	-1.66060237229807 
1902	-0.776884896313586 
1903	 0.799103677699156 
1904	 1.56810372269919 
1905	 3.11696254453275 
1906	 5.51162483061751 
1907	 3.09669002560934 
1908	 1.23603943123365 
1909	 1.07133998753548 
1910	 1.02542408095797 
1911	-0.138270345412972 
1912	 2.60996250375008 
1913	 1.28178586420609 
1914	 8.42280198762455 
1915	-21.0666676853526 
1916	-2.69361184243549 
1917	 2.03198782537229 
1918	-2.67894577832513 
1919	 7.17004901340114 
1920	 0.286833894513353 
1921	 3.69346631054928 
1922	 17.731579945324 
1923	-10.1872377080419 
1924	 3.43531350878702 
1925	 1.89229771061896 
1926	 1.13197016054615 
1927	 3.76174979982678 
1928	-14.3041059267639 
1929	 6.75804077746878 
1930	 1.89524320540679 
1931	 34.0093764124465 
1932	-0.185232035687815 
1933	 0.135510674524223 
1934	 6.50593636753868E-02 
1935	 0.451365790564701 
1936	 0.783091199191035 
1937	 0.311779127046112 
1938	 0.322595372821702 
1939	 0.174631703021882 
1940	-6.87377760288522E-02 
1941	-0.471358199109597 
1942	-0.654694461473414 
1943	-0.254042510294646 
1944	 11.9014307108315 
1945	-2.31418181464695 
1946	-1.19963885115671 
1947	-0.676540461321109 
1948	-0.339228603756204 
1949	-0.40074709621483 
1950	 10.146299434306 
1951	-6.65215345268833 
1952	-2.73557311595547 
1953	-1.20319823208076 
1954	-0.965028325604673 
1955	-0.561915890687757 
1956	-0.480917306191804 
1957	-0.114361574511035 
1958	 0.180442011321595 
1959	 0.136538722217278 
1960	 0.103415391413965 
1961	 2.63357751865355E-02 
1962	-3.63622249544235E-02 
1963	 0.110732486437329 
1964	 0.22245337207239 
1965	 0.169696556951916 
1966	 0.145401892084648 
1967	 0.117129550351493 
1968	 6.59419581686386E-02 
1969	 2.41996473349573E-02 
1970	 7.94352600022267E-03 
1971	-0.019559790251421 
1972	-5.48027459843779E-02 
1973	-9.86993325050646E-02 
1974	-8.25571371064258E-02 
1975	-0.040086477667327 
1976	-2.55883878393749E-02 
1977	-5.51634231622665E-03 
1978	 2.20789908401133E-02 
1979	 3.75686332648668E-02 
1980	 4.28185342852987E-02 
1981	 4.02313012000435E-02 
1982	 5.13362850051038E-02 
1983	 5.13101405835252E-02 
1984	 3.69338079341894E-02 
1985	 0.051918886542974 
1986	 5.43927589839564E-02 
1987	 3.31114076207289E-02 
1988	 3.02191197890675E-02 
1989	 0.020790490718761 
1990	-1.99983094260174E-03 
1991	 1.37387719416586E-03 
1992	 0.015082122455188 
1993	 2.51740681897723E-02 
1994	 3.08979742574848E-02 
1995	 5.25192714420932E-02 
1996	 5.26429284169545E-02 
1997	 2.61026014299938E-02 
1998	 9.4563438606515E-03 
1999	 8.12769929611337E-03 
2000	 2.23069742986413E-03 
2001	 4.3243321513154E-03 
2002	-1.50917444917543E-03 
2003	-1.55064313859196E-02 
2004	 2.65234521159661E-02 
2005	 5.27277023440422E-02 
2006	 3.43152077225295E-02 
2007	 1.33052348475723E-02 
2008	-2.85377327891378E-02 
2009	-4.15312425208514E-02 
2010	-1.99448527335344E-02 
2011	-1.52605748394517E-02 
2012	 3.55762199312629E-04 
2013	-1.95434766297818E-02 
2014	-1.85507706878783E-02 
2015	 7.21403201833129E-03 
2016	 1.68478863974731E-02 
2017	 6.38736995198481E-02 
2018	 0.097391357446883 
2019	 8.25370188755057E-02 
2020	 9.00269464585459E-02 
2021	 0.100987579771355 
2022	 9.37753745316359E-02 
2023	 8.83124320618322E-02 
2024	 7.82548280220864E-02 
2025	 5.61250940347275E-02 
2026	 5.00272713476259E-02 
2027	 4.62788813242689E-02 
2028	 4.79417334587391E-02 
2029	 5.21728749069967E-02 
2030	 5.16022310325488E-02 
2031	 5.76781191255917E-02 
2032	 5.84491320496969E-02 
2033	 5.82783294329942E-02 
2034	 6.14117020927537E-02 
2035	 5.17917695664714E-02 
2036	 4.66187631401929E-02 
2037	 4.35392810087244E-02 
2038	 4.21088100160941E-02 
2039	 4.22077095638593E-02 
2040	 4.34507999583633E-02 
2041	 4.58307946318237E-02 
2042	 5.23283915384181E-02 
2043	 5.16263471444242E-02 
2044	 4.75406008707033E-02 
2045	 4.90265830613471E-02 
2046	 0.044417126382892 
2047	 4.89559506177897E-02 
2048	 5.64161844902213E-02 
2049	 0.058877570141568 
2050	 5.50485699139059E-02 
2051	 4.44129850664136E-02 
2052	 3.78735481523806E-02 
2053	 2.78166142924774E-02 
2054	 2.16192533832801E-02 
2055	 3.61451595054322E-02 
2056	 4.09073742487456E-02 
2057	 4.38218931376973E-02 
2058	 4.68967085456335E-02 
2059	 5.44542642790087E-02 
2060	 4.76785974708805E-02 
2061	 3.01072651565602E-02 
2062	 0.026011343991384 
2063	 1.35761855086433E-02 
2064	-2.75086262681694E-03 
2065	 3.41112861553909E-03 
2066	 1.65914732929094E-02 
2067	 2.88078718241367E-02 
2068	 3.41070064340042E-02 
2069	 3.32961942826828E-02 
2070	 3.81682963325351E-02 
2071	 4.26919750657478E-02 
2072	 4.19354694348395E-02 
2073	 3.93975420608406E-02 
2074	 3.17319914305731E-02 
2075	 3.31846845358122E-02 
2076	 3.55833837406056E-02 
2077	 4.01540598552617E-02 
2078	 5.01094424238867E-02 
2079	 5.02976016166396E-02 
2080	 4.52556732358465E-02 
2081	 4.75214602215046E-02 
2082	 3.92622700185433E-02 
2083	 4.18046034717666E-02 
2084	 4.42052470935276E-02 
2085	 4.14392548734057E-02 
2086	 4.06063228574714E-02 
2087	 4.14499420838539E-02 
2088	 4.66946249502957E-02 
2089	 4.73282769832163E-02 
2090	 4.52525859026224E-02 
2091	 4.88295422944085E-02 
2092	 0.04792897093049 
2093	 3.87294434923307E-02 
2094	 3.85906280905219E-02 
2095	 4.44857420188494E-02 
2096	 4.47912608269301E-02 
2097	 4.87454971262673E-02 
2098	 4.79677221030299E-02 
2099	 4.20767052105997E-02 
2100	 3.35870301760316E-02 
2101	 3.77865811799787E-02 
2102	 3.61490306690261E-02 
2103	 3.14357097825407E-02 
2104	 3.69338452253426E-02 
2105	 3.20358328164543E-02 
2106	 3.14932180661518E-02 
2107	 3.71347091295619E-02 
2108	 4.20857737096112E-02 
2109	 5.20211170786251E-02 
2110	 5.38365541557761E-02 
2111	 5.17893905816233E-02 
2112	 5.20142395517458E-02 
2113	 5.21038736447073E-02 
2114	 4.93368767420058E-02 
2115	 4.63588528278866E-02 
2116	 4.54321666232212E-02 
2117	 4.34029841353942E-02 
2118	 3.59541102375135E-02 
2119	 3.41654426703653E-02 
2120	 3.65391547418634E-02 
2121	 3.97838943566887E-02 
2122	 4.26217796897665E-02 
2123	 4.15553502702689E-02 
2124	 3.80344181781835E-02 
2125	 3.31858633742317E-02 
2126	 3.30481629728879E-02 
2127	 3.64539194393461E-02 
2128	 3.69208576948657E-02 
2129	 3.55298399739565E-02 
2130	 0.02547774555782 
2131	 1.51694749697802E-02 
2132	 2.05459893897924E-02 
2133	 2.83728095961194E-02 
2134	 2.99855926285392E-02 
2135	 0.032652456568344 
2136	 3.67840185429082E-02 
2137	 0.034302740124738 
2138	 3.65738463815591E-02 
2139	 0.050619560579809 
2140	 5.24937825747275E-02 
2141	 4.48699470358809E-02 
2142	 4.27302086848804E-02 
2143	 3.89775946982405E-02 
2144	 3.49769771481013E-02 
2145	 3.50705073892395E-02 
2146	 3.64701495537187E-02 
2147	 3.48131452385158E-02 
2148	 3.03928419387276E-02 
2149	 3.52222924477905E-02 
2150	 4.33635254758189E-02 
2151	 4.53959452507798E-02 
2152	 4.90360720268864E-02 
2153	 4.82842716281417E-02 
2154	 4.97054482298909E-02 
2155	 5.40146245918317E-02 
2156	 6.14582693382629E-02 
2157	 6.49773070458787E-02 
2158	 6.72132215783758E-02 
2159	 0.060601086723406 
2160	 4.53034504337145E-02 
2161	 4.13410344281434E-02 
2162	 3.52443661964707E-02 
2163	 3.07245131816739E-02 
2164	 3.78515750998982E-02 
2165	 3.80138333335363E-02 
2166	 2.74314841050668E-02 
2167	 2.63674544274991E-02 
2168	 0.032254893711537 
2169	 3.46578811485975E-02 
2170	 3.74361837586587E-02 
2171	 4.41306998267355E-02 
2172	 0.042552470238111 
2173	 3.69178219320853E-02 
2174	 0.047240144552821 
2175	 5.91622634961928E-02 
2176	 6.77548088030598E-02 
2177	 8.11846200893639E-02 
2178	 8.24066805358397E-02 
2179	 0.077745672946963 
2180	 6.78720164864895E-02 
2181	 5.65566080165273E-02 
2182	 4.38456326705757E-02 
2183	 2.19562399338974E-02 
2184	 1.25048529143497E-02 
2185	 1.67256855022454E-02 
2186	 2.08738140578712E-02 
2187	 3.42691650865454E-02 
2188	 3.72667946107285E-02 
2189	 4.05980593196809E-02 
2190	 3.92144899688605E-02 
2191	 2.57636192624421E-02 
2192	 2.33697311240474E-02 
2193	 0.029379117648937 
2194	 2.68149025679669E-02 
2195	 1.93282550678933E-02 
2196	 1.81201858707696E-02 
2197	 0.017098208401409 
2198	 1.59718167604836E-02 
2199	 2.05973956557585E-02 
2200	 2.33654589153879E-02 
2201	 2.42179422624032E-02 
2202	 8.64359850284825E-03 
2203	-7.67370943717661E-03 
2204	-6.32068313061483E-03 
2205	-6.32507168725106E-04 
2206	 2.03511641842333E-02 
2207	 4.42693771732054E-02 
2208	 4.92307497176364E-02 
2209	 4.26314305200373E-02 
2210	 3.44144929274922E-02 
2211	 2.77993367478089E-02 
2212	 2.62903989244617E-02 
2213	 2.50992694825749E-02 
2214	 2.24931652668608E-02 
2215	 1.98618219928447E-02 
2216	 1.73568950915447E-02 
2217	 1.71583341742601E-02 
2218	 1.95253712046967E-02 
2219	 1.85716409907076E-02 
2220	 1.82959264014906E-02 
2221	 1.59697761131759E-02 
2222	 5.93124617562515E-03 
2223	 1.06869086383046E-02 
2224	 2.36106335807719E-02 
2225	 2.93429531031585E-02 
2226	 4.53957825260485E-02 
2227	 0.047057860511349 
2228	 3.58203964905174E-02 
2229	 3.30630807254244E-02 
2230	 2.28878108111577E-02 
2231	 2.12962733742934E-02 
2232	 3.06455448875352E-02 
2233	 3.28327178440938E-02 
2234	 3.20258827617169E-02 
2235	 3.91954834518173E-02 
2236	 5.91953091156821E-02 
2237	 5.58592061074723E-02 
2238	 6.18159372037427E-02 
2239	 6.78560841526929E-02 
2240	 5.41879105412424E-02 
2241	 6.11600596889624E-02 
2242	 5.42181215224381E-02 
2243	 4.89753723398815E-02 
2244	 3.91291498761123E-02 
2245	 2.06012570069701E-02 
2246	 2.88579031930195E-02 
2247	 3.23668422235852E-02 
2248	 3.80679982482186E-02 
2249	 5.28598753116993E-02 
2250	 4.87532718658852E-02 
2251	 3.36039659403206E-02 
2252	 3.00987913111173E-02 
2253	 1.23642543109462E-02 
2254	-1.64619684054709E-02 
2255	-7.08878072942009E-03 
2256	 1.03360767303932E-02 
2257	 1.51251110244904E-02 
2258	 2.92474414041034E-02 
2259	 3.50607433632943E-02 
2260	 3.88895102352765E-02 
2261	 3.09008860374132E-02 
2262	 0.022006495628822 
2263	 1.31494777188421E-02 
2264	 1.73289206724427E-02 
2265	 1.84131597678048E-02 
2266	 2.61077839791686E-02 
2267	 5.16720347441908E-02 
2268	 5.62950123670001E-02 
2269	 0.046155218353026 
2270	 4.37179995908922E-02 
2271	 0.045993686765919 
2272	 4.56442262611961E-02 
2273	 4.25519014586714E-02 
2274	 4.07186662652194E-02 
2275	 4.13061960953352E-02 
2276	 3.22128585965809E-02 
2277	 6.96347353956088E-03 
2278	 3.46824879163101E-03 
2279	 1.77796603532742E-02 
2280	 8.20510562608113E-03 
2281	-4.38155695970445E-03 
2282	-0.014298033641465 
2283	-3.79754046886161E-02 
2284	-0.048258847850896 
2285	-5.34277197651533E-02 
2286	-4.42901073700484E-02 
2287	-3.39821751843743E-02 
2288	-4.50372855147882E-02 
2289	-1.93880005945376E-02 
2290	 6.89850477928787E-03 
2291	 7.56091459916526E-03 
2292	 1.11711358008985E-02 
2293	 0.009493196713131 
2294	 3.23014766274763E-02 
2295	 7.88165750585357E-02 
2296	 9.34722722706648E-02 
2297	 7.47982590287825E-02 
2298	 5.23235183787415E-02 
2299	 3.45690851967702E-03 
2300	-0.014631263317531 
2301	-1.23812260989028E-02 
2302	-3.57726495379842E-02 
2303	-4.49372620717601E-02 
2304	-6.95380908715964E-02 
2305	-4.52621411445762E-02 
2306	-3.09493029216344E-02 
2307	-2.22851145569766E-02 
2308	 3.45118852307141E-02 
2309	 1.79971571649533E-02 
2310	 3.48163585376853E-02 
2311	 0.106184289467498 
2312	 0.0954744507555 
2313	 8.66853696123635E-02 
2314	 7.93566887114477E-02 
2315	 0.033872292592011 
2316	 1.04826723474026E-02 
2317	-2.32317714150667E-02 
2318	-0.051304187942741 
2319	-5.48344465112471E-02 
2320	-1.74657556334349E-02 
2321	 0.105843727962334 
2322	 0.18885345710562 
2323	 0.182297940030726 
2324	 0.140464924730036 
2325	 6.71529490202166E-02 
2326	 2.73736856732103E-02 
2327	 6.25268247455334E-02 
2328	 5.08548316917125E-02 
2329	 1.29152271485348E-02 
2330	-2.13319191195412E-02 
2331	-0.119442599097869 
2332	-0.118487265615079 
2333	-5.83789510667755E-02 
2334	-7.13346319228959E-02 
2335	-2.08792699394377E-02 
2336	 1.18658418471432E-02 
2337	 2.23527253171611E-02 
2338	 9.22791984238978E-02 
2339	 0.114683048895426 
2340	 0.114755301164356 
2341	 5.12169022053887E-02 
2342	-4.06171902352844E-02 
2343	-7.59192810521101E-04 
2344	 2.81350955453329E-02 
2345	 9.82574261400309E-02 
2346	 0.211905861955344 
2347	 0.172463626541284 
2348	 0.155241208699451 
2349	 7.03849942898158E-02 
2350	 6.76656026324422E-03 
2351	-8.63926271048317E-03 
2352	-0.140297465563783 
2353	-0.134804300855478 
2354	-0.191122980640192 
2355	-0.368681120714369 
2356	-0.31325309056493 
2357	-0.255483493664148 
2358	-0.295326274825894 
2359	-0.235218019793957 
2360	-0.240231013183406 
2361	-0.276402411427061 
2362	-0.317247871664721 
2363	-0.464233726796343 
2364	-0.532408824329251 
2365	-0.638834344664733 
2366	-0.747353482034735 
2367	-0.628979010345283 
2368	-0.536816776448886 
2369	-0.825327404009378 
2370	-1.74400302333062 
2371	-1.25606045193873 
2372	-1.35890282693688 
2373	-0.765470858997282 
2374	-0.692035722646563 
2375	-0.468921524524451 
2376	-0.250330536552347 
2377	-0.531821280577229 
2378	 6.43303211740997E-02 
2379	 0.600562160420286 
2380	 0.462682679874456 
2381	 0.114699553893826 
2382	-1.05898541525106E-03 
2383	-0.109353669956475 
2384	-0.24900130030046 
2385	-0.417539402027193 
2386	-0.598679976167513 
2387	-0.850772388111877 
2388	-1.3868479544951 
2389	-0.724718956907573 
2390	-0.296320776471089 
2391	-0.238668629483409 
2392	-0.293481985716454 
2393	-0.285582543092134 
2394	-0.22670459026152 
2395	-0.20945791414286 
2396	-0.186856282385259 
2397	-0.12927961044895 
2398	-0.154815231002906 
2399	-0.281710516350622 
2400	-0.341552032525199 
2401	-0.343531545704382 
2402	-0.223705020357556 
2403	-0.218199478031629 
2404	-0.361101813479423 
2405	-0.559969349059578 
2406	-0.788889353511871 
2407	-0.30126547450098 
2408	 0.196596652939944 
2409	 0.232776668054134 
2410	 1.86503591195237E-02 
2411	-0.45083493886381 
2412	-0.673714469778758 
2413	-0.70998646805444 
2414	-0.49163114447661 
2415	-0.47339248472963 
2416	-1.24677173875868 
2417	-2.47425283503099 
2418	-4.73292232392624 
2419	-6.51106563505905 
2420	-9.91989353241942 
2421	-3.8751496712776 
2422	 0.09472669764584 
2423	-0.371479673869205 
2424	-0.587503678820365 
2425	-2.89506813554402 
2426	-4.78398431066878 
2427	 0.906789628432687 
2428	 0.468477716798151 
2429	 0.483447362767011 
2430	 0.268267754532017 
2431	-7.94092025506869E-02 
2432	-0.314000474404834 
2433	-0.266524161230146 
2434	 9.73010745457315E-02 
2435	 0.716579321279561 
2436	 3.11411247167049 
2437	-11.592010427842 
2438	 17.6580527863231 
2439	 1.73398682496379 
2440	 0.445242609646408 
2441	-0.894524569902597 
2442	-1.23386671871636 
2443	-0.564573843128139 
2444	-1.37922136155454 
2445	-1.6656837826126 
2446	-1.23719347124947 
2447	-0.934725061377077 
2448	-1.36796804845763 
2449	-9.70536116634606 
2450	 13.1557704417186 
2451	 2.03046270166054 
2452	 3.77632570710625 
2453	-9.22233286615893 
2454	 20.7986470583211 
2455	-125.351064745236 
2456	-2.50964520730467 
2457	-8.70348629975937 
2458	-6.62835412029405 
2459	-2.19993537596593 
2460	-8.82821205779829 
2461	 47.3292822059146 
2462	-5.19765945594719 
2463	-91.803172190264 
2464	-8.57569447554707 
2465	-1.51701985877512 
2466	-10.6611885096548 
2467	 0.904296200462862 
2468	 0.184416093401606 
2469	-0.536673703507281 
2470	-0.619734448310807 
2471	 0.929287550983322 
2472	 0.650361294786698 
2473	 0.481281781004395 
2474	 4.59182456363919 
2475	 1.67013025543633 
2476	 0.142403785338306 
2477	-1.46401138638904E-02 
2478	 0.066897234114303 
2479	-1.33285984082421 
2480	 0.97937597240828 
2481	 0.832979387455208 
2482	-12.6177978848997 
2483	-9.76011594053413 
2484	 2.12879305973549 
2485	 0.948276126053958 
2486	 0.908794943167979 
2487	 0.97010207710798 
2488	 0.946579365368063 
2489	 1.05722065008472 
2490	 0.976432666875921 
2491	 0.759604897330422 
2492	 0.703386473295447 
2493	 0.415085475548319 
2494	-0.138533639677172 
2495	-0.811143517214311 
2496	-1.41437372112513 
2497	-2.90574976028583 
2498	-1.83471447326013 
2499	-3.02519816133149 
2500	-5.41628315618288 
