Wavelength	rt0629clean00006.asd
350	 4.38723721989357E-02 
351	 4.42540741908203E-02 
352	 0.043801507817565 
353	 4.35921712955535E-02 
354	 0.044005132766762 
355	 4.33188023735824E-02 
356	 4.32739081721307E-02 
357	 4.34943170330589E-02 
358	 4.32276151460196E-02 
359	 4.30185134978211E-02 
360	 4.31991169908931E-02 
361	 4.36279035624235E-02 
362	 4.38399896402989E-02 
363	 4.34519372322172E-02 
364	 4.32593994297489E-02 
365	 4.34940930956797E-02 
366	 0.043333697904417 
367	 4.35605654051743E-02 
368	 4.37788873864426E-02 
369	 0.043632058976988 
370	 4.40415079396454E-02 
371	 4.40214446602609E-02 
372	 4.37128096849851E-02 
373	 4.38309404833291E-02 
374	 4.38073778972613E-02 
375	 4.36892378881149E-02 
376	 4.36653761650491E-02 
377	 4.40123205487299E-02 
378	 4.43450859469104E-02 
379	 4.44672764939094E-02 
380	 4.44203265624226E-02 
381	 4.48269614661701E-02 
382	 4.47946344487633E-02 
383	 4.44558691537975E-02 
384	 4.44748559631429E-02 
385	 4.54168634855094E-02 
386	 4.55738916801586E-02 
387	 4.48741854561849E-02 
388	 4.51585999072159E-02 
389	 4.53686816745236E-02 
390	 4.54378086082329E-02 
391	 4.55229323876986E-02 
392	 4.58789159254738E-02 
393	 4.60843940093573E-02 
394	 4.61268186711607E-02 
395	 4.61498352815062E-02 
396	 0.046161920742135 
397	 4.62451042102568E-02 
398	 4.63269632470752E-02 
399	 4.62299179233319E-02 
400	 4.63575696765134E-02 
401	 4.64871934465852E-02 
402	 4.64645799314463E-02 
403	 4.64908320733503E-02 
404	 0.04652832915266 
405	 4.66646395063242E-02 
406	 4.69310341198549E-02 
407	 4.67919239266241E-02 
408	 4.68733034097827E-02 
409	 4.71271417689864E-02 
410	 4.68528319363676E-02 
411	 4.72589880844608E-02 
412	 4.76754615918153E-02 
413	 4.75977522474825E-02 
414	 4.77091015381644E-02 
415	 4.78206407751502E-02 
416	 0.047934275989708 
417	 4.80963408461848E-02 
418	 4.82146152065157E-02 
419	 4.82753685930332E-02 
420	 4.83643864645056E-02 
421	 4.86551272845983E-02 
422	 4.89651446268089E-02 
423	 4.92433793824316E-02 
424	 4.94445091471137E-02 
425	 4.94194443714749E-02 
426	 4.96091609812678E-02 
427	 4.99717431557666E-02 
428	 5.02408240988922E-02 
429	 5.04598225169371E-02 
430	 5.06863656347275E-02 
431	 5.09520257792681E-02 
432	 5.12528658966779E-02 
433	 0.051479482882144 
434	 5.16939853997183E-02 
435	 5.19824388655557E-02 
436	 5.24251305624488E-02 
437	 5.25790882277198E-02 
438	 5.25990193422707E-02 
439	 5.29228297713836E-02 
440	 5.33325698784996E-02 
441	 5.36604131971322E-02 
442	 5.38552372116889E-02 
443	 5.40199711319414E-02 
444	 5.43046083123748E-02 
445	 5.45752954729112E-02 
446	 5.47177459921951E-02 
447	 5.50470424522783E-02 
448	 0.055218530863723 
449	 5.52966122184521E-02 
450	 5.56127728342948E-02 
451	 5.57278805967061E-02 
452	 5.58840985331049E-02 
453	 5.62069306770912E-02 
454	 5.63888349574369E-02 
455	 5.65698983539098E-02 
456	 5.67275315850436E-02 
457	 5.68244332255665E-02 
458	 5.70341503673028E-02 
459	 5.71910415001579E-02 
460	 5.72732233255482E-02 
461	 5.74134310319452E-02 
462	 5.75359316914481E-02 
463	 5.76157551115539E-02 
464	 5.76841408946974E-02 
465	 5.79072450641887E-02 
466	 5.80770171880816E-02 
467	 0.058233565796788 
468	 5.84885971129132E-02 
469	 5.84954215105229E-02 
470	 5.86117911724499E-02 
471	 5.88875555970739E-02 
472	 0.058884338527563 
473	 5.89993514358671E-02 
474	 5.92095764856592E-02 
475	 0.059415049406093 
476	 5.96740873589763E-02 
477	 5.97522734525603E-02 
478	 5.97800314251496E-02 
479	 6.00875992451586E-02 
480	 6.02290315576195E-02 
481	 6.03874599249422E-02 
482	 6.06744618779014E-02 
483	 0.060887928539686 
484	 6.11035812604741E-02 
485	 6.12865448974812E-02 
486	 6.14109941068083E-02 
487	 6.16774164142168E-02 
488	 6.19507339041011E-02 
489	 6.21888607626328E-02 
490	 6.24565197153159E-02 
491	 6.27011740848721E-02 
492	 0.062970657139513 
493	 6.32753834508839E-02 
494	 6.34689142238002E-02 
495	 6.37102949869432E-02 
496	 6.40313318148708E-02 
497	 6.43877231846182E-02 
498	 0.064695797678347 
499	 6.49875685795721E-02 
500	 6.52985861304548E-02 
501	 6.56517524947268E-02 
502	 6.58806252763541E-02 
503	 6.60978888583747E-02 
504	 6.64410318381434E-02 
505	 6.68054277685611E-02 
506	 6.70974445124091E-02 
507	 6.73622608169033E-02 
508	 6.77393812660916E-02 
509	 6.80516688429009E-02 
510	 6.83298728963172E-02 
511	 6.86413117238988E-02 
512	 6.90700070952583E-02 
513	 6.94816655845013E-02 
514	 0.069849319296814 
515	 7.02010924535789E-02 
516	 0.070598014992243 
517	 7.10586304555101E-02 
518	 7.15253900279184E-02 
519	 0.071862467691487 
520	 7.22186910091146E-02 
521	 7.25975957574531E-02 
522	 7.29956118197307E-02 
523	 7.35229910327476E-02 
524	 7.39274497700395E-02 
525	 7.42494759877765E-02 
526	 7.47200162966347E-02 
527	 7.51333167733357E-02 
528	 7.55335154820636E-02 
529	 7.59723447898989E-02 
530	 7.64587814185671E-02 
531	 0.076894073644713 
532	 7.73080544867911E-02 
533	 7.77565789520913E-02 
534	 7.81310751390476E-02 
535	 7.85217638093749E-02 
536	 7.89622319108951E-02 
537	 7.94066958165205E-02 
538	 7.98845354767581E-02 
539	 8.03952251140338E-02 
540	 8.09178571360239E-02 
541	 8.13931702555513E-02 
542	 8.18601036469667E-02 
543	 8.23275202097497E-02 
544	 8.27846547699409E-02 
545	 8.31956654102904E-02 
546	 8.36683416725311E-02 
547	 8.42134872551991E-02 
548	 8.46175283026601E-02 
549	 8.51133061348274E-02 
550	 0.08562985495865 
551	 8.60273851235399E-02 
552	 8.64081843269531E-02 
553	 8.68841024759798E-02 
554	 8.74161469948476E-02 
555	 8.78003950853051E-02 
556	 8.82837038534334E-02 
557	 8.87781199114639E-02 
558	 8.91737084625575E-02 
559	 8.95668766955528E-02 
560	 9.00318492175575E-02 
561	 0.090499720777343 
562	 9.08374056584356E-02 
563	 9.12390285682834E-02 
564	 0.091648903212444 
565	 9.20130556176066E-02 
566	 9.23466361281061E-02 
567	 9.26559517144373E-02 
568	 9.29728412386913E-02 
569	 9.33137463354155E-02 
570	 9.35698325571298E-02 
571	 9.37706528328707E-02 
572	 9.39790359632044E-02 
573	 9.42767398868069E-02 
574	 9.45025906230447E-02 
575	 9.47202065271096E-02 
576	 9.49789562922081E-02 
577	 9.51110656384037E-02 
578	 9.52505211879277E-02 
579	 9.54078408947679E-02 
580	 9.55172401610146E-02 
581	 9.55637138709015E-02 
582	 9.56567495533654E-02 
583	 9.57858772956845E-02 
584	 9.56771213205691E-02 
585	 9.57297618427431E-02 
586	 9.58242958199747E-02 
587	 9.57298572367072E-02 
588	 9.57856296626362E-02 
589	 9.57791411648193E-02 
590	 9.56744596240894E-02 
591	 9.56509515481053E-02 
592	 9.55096122701071E-02 
593	 9.53029462383231E-02 
594	 9.50918939115437E-02 
595	 0.094792326225065 
596	 9.44538146154272E-02 
597	 0.094084833102332 
598	 0.093682954993471 
599	 9.33493000677255E-02 
600	 9.30168860938339E-02 
601	 0.092692006735318 
602	 9.25452281356337E-02 
603	 9.24071568723038E-02 
604	 0.09228083131349 
605	 9.22188239558595E-02 
606	 9.22231255757178E-02 
607	 9.22349052823459E-02 
608	 9.22190009944284E-02 
609	 9.21723436411211E-02 
610	 9.21794470181782E-02 
611	 0.092238947075215 
612	 9.22936852602766E-02 
613	 9.21720787719689E-02 
614	 9.21352736972007E-02 
615	 0.092151238555486 
616	 9.20493577009564E-02 
617	 0.092027260349831 
618	 9.20941711229472E-02 
619	 9.21782579036521E-02 
620	 9.21103451091991E-02 
621	 9.20514343864439E-02 
622	 9.20415812748252E-02 
623	 9.20787045921906E-02 
624	 9.21551080049299E-02 
625	 9.22564622356774E-02 
626	 9.22861195675932E-02 
627	 9.20944544260161E-02 
628	 0.092088120728798 
629	 9.21306777688039E-02 
630	 9.20867882052327E-02 
631	 9.21289840589954E-02 
632	 9.21091532706306E-02 
633	 9.20663000584342E-02 
634	 9.20939841203312E-02 
635	 9.19692368641922E-02 
636	 9.18403363949838E-02 
637	 9.18059774515046E-02 
638	 9.18479864758462E-02 
639	 9.17761370181911E-02 
640	 9.16853039557711E-02 
641	 9.16943020091755E-02 
642	 9.16361561037954E-02 
643	 9.15705287051506E-02 
644	 9.15266797173538E-02 
645	 9.15018685348862E-02 
646	 9.14335991430407E-02 
647	 9.13083604757846E-02 
648	 9.11351409875629E-02 
649	 9.09292080138968E-02 
650	 9.07687314740462E-02 
651	 9.06074842913065E-02 
652	 9.03767701531809E-02 
653	 9.01644198267703E-02 
654	 8.99830165155351E-02 
655	 8.97343989625341E-02 
656	 8.92259972279659E-02 
657	 8.88255079440159E-02 
658	 8.85049354545213E-02 
659	 8.81654977565032E-02 
660	 0.087789083171166 
661	 8.75957920498286E-02 
662	 8.75073398900764E-02 
663	 8.72801537953452E-02 
664	 8.70430269129644E-02 
665	 8.68792263000276E-02 
666	 8.67976130566633E-02 
667	 8.66889422480651E-02 
668	 8.66360547687021E-02 
669	 8.66185639503322E-02 
670	 8.65775777135325E-02 
671	 8.64168273935434E-02 
672	 8.64332489820702E-02 
673	 8.66193201528609E-02 
674	 8.66744948308137E-02 
675	 8.65783672584808E-02 
676	 8.65208481254566E-02 
677	 8.66151587007357E-02 
678	 8.66713495176902E-02 
679	 8.67718388314411E-02 
680	 8.68958337300613E-02 
681	 8.69878094054287E-02 
682	 8.70680511759246E-02 
683	 8.72260352775853E-02 
684	 8.74472075126949E-02 
685	 8.75878234500954E-02 
686	 8.78196123882932E-02 
687	 8.79820933583987E-02 
688	 8.79452913388987E-02 
689	 8.80315915508848E-02 
690	 8.81640303461941E-02 
691	 8.83039636396601E-02 
692	 0.088414278804334 
693	 8.82778657715805E-02 
694	 8.80710029705953E-02 
695	 8.79055620725923E-02 
696	 8.76496782318044E-02 
697	 8.74631130174333E-02 
698	 8.72963166954571E-02 
699	 8.70609736528162E-02 
700	 8.67688327811324E-02 
701	 8.63156206066935E-02 
702	 0.085803131765571 
703	 0.085441822783998 
704	 8.49070024875909E-02 
705	 8.42899233031297E-02 
706	 0.083699334357788 
707	 8.31073229797154E-02 
708	 8.23403023807813E-02 
709	 8.14811486010633E-02 
710	 8.06689759144496E-02 
711	 7.97526496034518E-02 
712	 7.86731893334122E-02 
713	 7.75380449335766E-02 
714	 0.076592813526164 
715	 7.58482096994581E-02 
716	 7.48730115415709E-02 
717	 7.33354975597386E-02 
718	 7.18716363804017E-02 
719	 7.02823361233256E-02 
720	 0.068852016558442 
721	 6.75768852974617E-02 
722	 6.63669706646965E-02 
723	 6.49609262223357E-02 
724	 6.34501919679775E-02 
725	 6.19526919583919E-02 
726	 6.04311043432956E-02 
727	 5.87250731653688E-02 
728	 5.67597834424057E-02 
729	 0.054698317861032 
730	 5.26557876722073E-02 
731	 5.07201818175864E-02 
732	 4.88639704509789E-02 
733	 4.74289755937639E-02 
734	 4.61863610022978E-02 
735	 4.50781898707853E-02 
736	 4.42735280910672E-02 
737	 4.35437142120363E-02 
738	 4.29360748717349E-02 
739	 4.25180476782024E-02 
740	 4.21734025891434E-02 
741	 0.041930565437944 
742	 4.17591292693703E-02 
743	 4.16036686482561E-02 
744	 4.14985351571376E-02 
745	 4.13969100847617E-02 
746	 4.12691078867118E-02 
747	 4.11163993654352E-02 
748	 4.10679425608795E-02 
749	 4.10813179993327E-02 
750	 4.10823773627794E-02 
751	 4.10669052109314E-02 
752	 4.09942190093963E-02 
753	 4.08834212450659E-02 
754	 4.07998117140126E-02 
755	 4.08861486124501E-02 
756	 4.08834266819912E-02 
757	 4.07542165527054E-02 
758	 4.08594581190123E-02 
759	 4.11186342054369E-02 
760	 4.12460170447933E-02 
761	 4.09806428613324E-02 
762	 4.10250909893282E-02 
763	 4.11247186772092E-02 
764	 4.10977013102001E-02 
765	 4.09339070657298E-02 
766	 4.10843493966918E-02 
767	 4.11893016915902E-02 
768	 0.041156897252491 
769	 0.041137369285643 
770	 4.12551489314005E-02 
771	 4.14160371809221E-02 
772	 4.15202474464933E-02 
773	 4.15847219408079E-02 
774	 4.16790947368359E-02 
775	 4.18688412782445E-02 
776	 4.21799442399381E-02 
777	 4.24631475633511E-02 
778	 4.26185337784199E-02 
779	 4.27539721434603E-02 
780	 0.04315228943333 
781	 4.34483959655801E-02 
782	 4.36516813401464E-02 
783	 4.38562639931661E-02 
784	 4.41834855687784E-02 
785	 4.45541938135809E-02 
786	 4.48890559036755E-02 
787	 4.51445597249117E-02 
788	 4.54749837716334E-02 
789	 0.045833401168806 
790	 4.61753253980181E-02 
791	 4.64883587414221E-02 
792	 4.69289070357654E-02 
793	 4.73636646847588E-02 
794	 4.76949311872841E-02 
795	 4.79231008762664E-02 
796	 4.83747184259816E-02 
797	 0.048781327076764 
798	 4.89302161270504E-02 
799	 0.049332365955563 
800	 4.97839031417011E-02 
801	 5.00739102444145E-02 
802	 0.050082067492639 
803	 5.02417590014078E-02 
804	 5.04935567614699E-02 
805	 5.07130037597006E-02 
806	 5.07705492099975E-02 
807	 5.07051036797164E-02 
808	 5.07177764343775E-02 
809	 5.08672002885456E-02 
810	 5.07533340785507E-02 
811	 5.06037750975664E-02 
812	 0.050491016108501 
813	 5.03956266296542E-02 
814	 5.00898850634998E-02 
815	 4.98458214703045E-02 
816	 4.95638144482859E-02 
817	 4.88905324785076E-02 
818	 4.81847427505526E-02 
819	 0.047661902886173 
820	 4.72303078737597E-02 
821	 4.65138375683369E-02 
822	 4.55488770986135E-02 
823	 4.44251993892744E-02 
824	 4.32568636905091E-02 
825	 4.19607981120405E-02 
826	 4.07013597522188E-02 
827	 3.93501295066984E-02 
828	 3.78281699646185E-02 
829	 3.64279078494181E-02 
830	 3.52287003050387E-02 
831	 3.41535721816828E-02 
832	 3.30905666666725E-02 
833	 3.22970842459037E-02 
834	 3.16073725752265E-02 
835	 3.10120963671312E-02 
836	 0.030767301173615 
837	 3.03928595530679E-02 
838	 2.99569045946246E-02 
839	 2.95803590472163E-02 
840	 2.91606708140226E-02 
841	 2.90411878081866E-02 
842	 0.028929853695071 
843	 2.84688723548037E-02 
844	 2.81530522998042E-02 
845	 2.80093649524892E-02 
846	 2.78757487931957E-02 
847	 2.75235600995117E-02 
848	 2.72865791035506E-02 
849	 2.70931107164175E-02 
850	 2.68731720116172E-02 
851	 2.66209998269198E-02 
852	 2.64055744572312E-02 
853	 2.62339647921594E-02 
854	 0.026035266643956 
855	 0.025602525234355 
856	 2.52995743363215E-02 
857	 2.52044203360901E-02 
858	 2.52121417132802E-02 
859	 0.024900822577082 
860	 2.47959897482954E-02 
861	 0.024799375379542 
862	 2.45259599456758E-02 
863	 2.39726489455142E-02 
864	 2.37672762668562E-02 
865	 2.38595676033608E-02 
866	 0.023621081167244 
867	 2.37960478055367E-02 
868	 2.35524947191109E-02 
869	 2.28650124464096E-02 
870	 2.29404904465602E-02 
871	 2.26196590879585E-02 
872	 2.23094803630159E-02 
873	 2.23312604153471E-02 
874	 2.20819138220784E-02 
875	 2.15272309490199E-02 
876	 2.12734412278776E-02 
877	 2.16471805451915E-02 
878	 2.12478082409635E-02 
879	 2.09394974780652E-02 
880	 2.08009557604576E-02 
881	 2.05570720337549E-02 
882	 2.03234971988071E-02 
883	 1.99289828941098E-02 
884	 1.96440173967498E-02 
885	 1.99191954707167E-02 
886	 0.019795434455664 
887	 1.94643889196943E-02 
888	 1.91715209833008E-02 
889	 1.90447990248205E-02 
890	 1.88993966684578E-02 
891	 0.018823177229268 
892	 1.87395863185643E-02 
893	 1.81737215283118E-02 
894	 1.80122518642344E-02 
895	 1.83197013344844E-02 
896	 1.87366315903257E-02 
897	 1.85608376044356E-02 
898	 0.018062924163492 
899	 0.01762138783987 
900	 1.75497432049546E-02 
901	 1.78987787606626E-02 
902	 1.76024309303809E-02 
903	 1.68755851111987E-02 
904	 1.64270265686512E-02 
905	 1.67594093425512E-02 
906	 1.68639731363015E-02 
907	 1.65444442639037E-02 
908	 1.62764277833291E-02 
909	 1.62040569539006E-02 
910	 1.59199784744599E-02 
911	 1.55455421027821E-02 
912	 1.55900582818749E-02 
913	 1.49938675627768E-02 
914	 1.48768522192929E-02 
915	 1.51671615610922E-02 
916	 1.43858421718593E-02 
917	 1.42420660208646E-02 
918	 1.40213287960839E-02 
919	 0.013665452764074 
920	 1.43146921435585E-02 
921	 1.45102669119342E-02 
922	 1.37771831617804E-02 
923	 0.012545738914359 
924	 1.27182718378956E-02 
925	 1.38322850919299E-02 
926	 1.42148771859461E-02 
927	 1.27742147815222E-02 
928	 1.26504927335814E-02 
929	 1.33237596616629E-02 
930	 1.45153376941779E-02 
931	 1.52584590261985E-02 
932	 1.19706775211913E-02 
933	 1.20325712783001E-02 
934	 1.37405749989335E-02 
935	 1.13875969692843E-02 
936	 1.12175723223806E-02 
937	 1.08908937255522E-02 
938	 1.01669903640452E-02 
939	 1.00541548976039E-02 
940	 1.40092133344081E-02 
941	 1.32611966619056E-02 
942	 1.01517017745029E-02 
943	 1.15271673050611E-02 
944	 0.0128061172533 
945	 1.18107282606332E-02 
946	 1.07178618104821E-02 
947	 1.30559264603895E-02 
948	 1.50908259228755E-02 
949	 1.37546284713188E-02 
950	 1.04445586322276E-02 
951	 9.11256498008877E-03 
952	 1.19188159388124E-02 
953	 1.41594712927403E-02 
954	 0.012702510887224 
955	 8.0166633376462E-03 
956	 1.15495868851944E-02 
957	 1.20822694018112E-02 
958	 8.3578765407603E-03 
959	 6.96399124681457E-03 
960	 9.97713715566345E-03 
961	 9.87349032255774E-03 
962	 8.26643453066334E-03 
963	 1.15656847776309E-02 
964	 1.15649230042026E-02 
965	 1.07449738383625E-02 
966	 9.73532951030603E-03 
967	 7.65374651027886E-03 
968	 7.15898214939705E-03 
969	 8.65505973038537E-03 
970	 1.05141978489284E-02 
971	 1.02233102748885E-02 
972	 1.06020647212708E-02 
973	 1.11126827638556E-02 
974	 1.15037841528515E-02 
975	 1.19567973612336E-02 
976	 1.08936159445868E-02 
977	 9.2840089297943E-03 
978	 8.50178792030497E-03 
979	 9.47471210129124E-03 
980	 1.06624597903559E-02 
981	 1.11640498691153E-02 
982	 1.08154119538958E-02 
983	 1.00714375872799E-02 
984	 9.60685664233921E-03 
985	 8.89361150968591E-03 
986	 8.68424659519582E-03 
987	 1.02004232466929E-02 
988	 1.03041883839085E-02 
989	 1.00028287023583E-02 
990	 9.58450285450149E-03 
991	 8.87552503843841E-03 
992	 1.03850379235034E-02 
993	 1.10033471767368E-02 
994	 1.03360150220667E-02 
995	 1.01996254209887E-02 
996	 1.12192718808284E-02 
997	 1.04563568979999E-02 
998	 8.53483762036548E-03 
999	 8.36975805488056E-03 
1000	 1.09283421973884E-02 
1001	 8.07697117052986E-03 
1002	 7.90134994846044E-03 
1003	 7.89105219574225E-03 
1004	 7.98362721249056E-03 
1005	 8.05890739341195E-03 
1006	 8.19994654986967E-03 
1007	 8.33294712933033E-03 
1008	 8.51100209121973E-03 
1009	 8.59175804293364E-03 
1010	 8.57351695532681E-03 
1011	 8.58075900966241E-03 
1012	 8.55677927603987E-03 
1013	 8.53491167628832E-03 
1014	 8.4296506786197E-03 
1015	 8.29229554835257E-03 
1016	 8.17950402639621E-03 
1017	 7.96271912566894E-03 
1018	 7.79609023313152E-03 
1019	 7.58402408304901E-03 
1020	 7.64392303283134E-03 
1021	 7.88714400191432E-03 
1022	 8.03441534571788E-03 
1023	 8.26336306687858E-03 
1024	 8.43390564468438E-03 
1025	 8.29767008421765E-03 
1026	 0.008137306309296 
1027	 7.95660816606946E-03 
1028	 7.61183297587351E-03 
1029	 7.67783542905604E-03 
1030	 7.94277242000537E-03 
1031	 8.00031700661809E-03 
1032	 8.2930988682047E-03 
1033	 8.35913330034562E-03 
1034	 8.04950716922255E-03 
1035	 8.0202057700681E-03 
1036	 8.20291109412208E-03 
1037	 8.27208496112682E-03 
1038	 8.39392501743986E-03 
1039	 8.38228181056438E-03 
1040	 8.25365138694558E-03 
1041	 8.06928978856727E-03 
1042	 8.11863903088888E-03 
1043	 8.24358247838029E-03 
1044	 8.29350382560148E-03 
1045	 8.53827604730937E-03 
1046	 8.62757978865047E-03 
1047	 8.54851646487206E-03 
1048	 8.5213989572404E-03 
1049	 8.55692751924237E-03 
1050	 8.4664833121368E-03 
1051	 8.09335483145907E-03 
1052	 8.07479264479797E-03 
1053	 8.26751946657815E-03 
1054	 8.35254789685271E-03 
1055	 8.71272090769635E-03 
1056	 8.86033499523886E-03 
1057	 8.88298037200858E-03 
1058	 8.68634546031419E-03 
1059	 8.56876721845142E-03 
1060	 8.28918286840293E-03 
1061	 8.29143179447328E-03 
1062	 8.45718557264277E-03 
1063	 8.46641788398324E-03 
1064	 8.47855081625472E-03 
1065	 8.62169462566282E-03 
1066	 8.85795810610159E-03 
1067	 8.87269184684189E-03 
1068	 9.00547384718649E-03 
1069	 8.97705356761446E-03 
1070	 8.35885897935261E-03 
1071	 8.20269248616105E-03 
1072	 8.24776547548831E-03 
1073	 8.48822844927224E-03 
1074	 8.5733824793122E-03 
1075	 8.87619603453287E-03 
1076	 8.90168645191883E-03 
1077	 8.67457803666183E-03 
1078	 8.5879876004351E-03 
1079	 8.50205280873757E-03 
1080	 8.4499900692899E-03 
1081	 8.41720355178901E-03 
1082	 8.39771373659326E-03 
1083	 8.36464655801828E-03 
1084	 8.37920157640538E-03 
1085	 8.58616851697822E-03 
1086	 8.52295155597882E-03 
1087	 8.13994216771317E-03 
1088	 8.08290466962759E-03 
1089	 7.96842125402006E-03 
1090	 8.11598046397169E-03 
1091	 8.05298490073598E-03 
1092	 8.13911293120177E-03 
1093	 8.16215694135993E-03 
1094	 7.89163059799681E-03 
1095	 7.87897790168229E-03 
1096	 8.46169162042945E-03 
1097	 8.38854298367326E-03 
1098	 7.59622024912128E-03 
1099	 7.5301184471922E-03 
1100	 7.66175836946186E-03 
1101	 7.51662164382442E-03 
1102	 7.80492984079056E-03 
1103	 7.92190253935994E-03 
1104	 0.007427825071196 
1105	 7.19201623446938E-03 
1106	 7.98662040471855E-03 
1107	 8.19446022591884E-03 
1108	 7.92437984932703E-03 
1109	 7.98615340702226E-03 
1110	 8.01609715510649E-03 
1111	 7.75267048734744E-03 
1112	 7.64000135035243E-03 
1113	 7.75970269730653E-03 
1114	 7.74952739202878E-03 
1115	 7.38695226220717E-03 
1116	 7.04201181700447E-03 
1117	 7.35039803539635E-03 
1118	 7.73004459808357E-03 
1119	 7.08137386766603E-03 
1120	 6.69191572589666E-03 
1121	 7.61131119973323E-03 
1122	 7.65078302173207E-03 
1123	 4.92122740039825E-03 
1124	 7.11087918735916E-03 
1125	 8.16655623302963E-03 
1126	 4.40293451718844E-03 
1127	 3.7903896251586E-03 
1128	 5.25790817618789E-03 
1129	 5.81399726068961E-03 
1130	 7.34780054607509E-03 
1131	 7.98180883349005E-03 
1132	 7.55585139525985E-03 
1133	 7.66403534290799E-03 
1134	 9.13252806457249E-03 
1135	 8.51555426914381E-03 
1136	 5.53966114985161E-03 
1137	 5.85323607833983E-03 
1138	 7.15918602892952E-03 
1139	 7.61810532802024E-03 
1140	 8.68770284622198E-03 
1141	 8.93320027002354E-03 
1142	 6.91365879127537E-03 
1143	 5.28933817286272E-03 
1144	 5.65350564402082E-03 
1145	 7.22221089466449E-03 
1146	 8.07332844200073E-03 
1147	 6.0716418534817E-03 
1148	 4.06895672898045E-03 
1149	 5.1944313272157E-03 
1150	 5.89174881120214E-03 
1151	 7.90743648888292E-03 
1152	 8.03047174145152E-03 
1153	 7.54777245762217E-03 
1154	 6.97032789481266E-03 
1155	 5.1591864922404E-03 
1156	 5.79924077425344E-03 
1157	 7.1024280125399E-03 
1158	 6.89528065048016E-03 
1159	 7.08269286096246E-03 
1160	 7.25967283774944E-03 
1161	 6.34052951072105E-03 
1162	 5.99447687280683E-03 
1163	 6.32455570427261E-03 
1164	 6.45096184519736E-03 
1165	 6.5486619068473E-03 
1166	 6.65360988278531E-03 
1167	 6.58892977346005E-03 
1168	 6.54849070893981E-03 
1169	 6.54860478774136E-03 
1170	 6.56473038774958E-03 
1171	 6.57527807329488E-03 
1172	 6.33200100013232E-03 
1173	 6.34409819837987E-03 
1174	 6.49059694999924E-03 
1175	 6.82796849274048E-03 
1176	 6.76838714066489E-03 
1177	 6.65831712677407E-03 
1178	 6.47925944529219E-03 
1179	 6.30616989423231E-03 
1180	 6.48415753349979E-03 
1181	 6.64181737125888E-03 
1182	 6.56195646432393E-03 
1183	 6.51377385519232E-03 
1184	 6.40056198301612E-03 
1185	 6.3454964175772E-03 
1186	 6.51781792432616E-03 
1187	 6.46853195837617E-03 
1188	 6.44841200628045E-03 
1189	 6.64920000127182E-03 
1190	 6.59277116177006E-03 
1191	 6.44211726618734E-03 
1192	 6.4111599818736E-03 
1193	 6.39360091044777E-03 
1194	 6.27785400102358E-03 
1195	 6.20614912524975E-03 
1196	 6.44842298342406E-03 
1197	 6.7078265608386E-03 
1198	 6.70162012210773E-03 
1199	 6.73134474944031E-03 
1200	 6.67273985623493E-03 
1201	 6.5620597858911E-03 
1202	 6.59171906114245E-03 
1203	 6.65571884062344E-03 
1204	 6.69802297192869E-03 
1205	 6.56999828266018E-03 
1206	 6.37125232002118E-03 
1207	 6.22435494924595E-03 
1208	 6.21824293550135E-03 
1209	 6.3729226294106E-03 
1210	 6.40591452528102E-03 
1211	 6.4034227614536E-03 
1212	 6.44371818697096E-03 
1213	 6.22507560648806E-03 
1214	 6.19537627860787E-03 
1215	 6.24767338702078E-03 
1216	 6.55605448535326E-03 
1217	 6.37599743555713E-03 
1218	 6.16577458997499E-03 
1219	 6.35286318449562E-03 
1220	 6.30716193622808E-03 
1221	 6.22585995876184E-03 
1222	 6.46574581535413E-03 
1223	 6.55254155672799E-03 
1224	 6.33987530560472E-03 
1225	 6.28182866696144E-03 
1226	 6.45323850381202E-03 
1227	 6.38140995064434E-03 
1228	 6.29723142990119E-03 
1229	 6.45011960281285E-03 
1230	 0.006355570308092 
1231	 6.18456522799665E-03 
1232	 6.19990264978301E-03 
1233	 6.23474840934494E-03 
1234	 6.33534348829448E-03 
1235	 6.37598905199549E-03 
1236	 6.40136478774934E-03 
1237	 6.40229977711558E-03 
1238	 6.34814368641789E-03 
1239	 6.32497437988855E-03 
1240	 6.24648889673087E-03 
1241	 6.13254557542757E-03 
1242	 6.05506326422256E-03 
1243	 6.05517766558965E-03 
1244	 6.12374153537078E-03 
1245	 6.2584150562005E-03 
1246	 6.26315516916082E-03 
1247	 6.20855751917596E-03 
1248	 6.28507139398939E-03 
1249	 6.23918601471452E-03 
1250	 6.13862658696092E-03 
1251	 6.20346348673702E-03 
1252	 6.24139424706696E-03 
1253	 6.18224627143165E-03 
1254	 6.19766304463624E-03 
1255	 6.17274762885048E-03 
1256	 6.13756081667596E-03 
1257	 6.04568838895005E-03 
1258	 6.05787721282556E-03 
1259	 6.08275429174253E-03 
1260	 6.10339018064049E-03 
1261	 6.24271978872381E-03 
1262	 6.2596374440345E-03 
1263	 6.21142103494501E-03 
1264	 6.17456200388744E-03 
1265	 6.16780681967029E-03 
1266	 6.13562647426535E-03 
1267	 6.0611217337288E-03 
1268	 6.07896839476893E-03 
1269	 6.26576557079681E-03 
1270	 6.21995654287264E-03 
1271	 6.10515151026166E-03 
1272	 6.1410897348609E-03 
1273	 6.07583643976383E-03 
1274	 6.01072438105985E-03 
1275	 6.03711980242454E-03 
1276	 6.1073069329055E-03 
1277	 6.12502869254904E-03 
1278	 6.05199129386282E-03 
1279	 6.00687270228822E-03 
1280	 6.02569786509104E-03 
1281	 6.05486485934573E-03 
1282	 6.09743400361328E-03 
1283	 6.09928012232504E-03 
1284	 6.13536329002108E-03 
1285	 6.12190205671374E-03 
1286	 6.00148616170399E-03 
1287	 6.00567640747596E-03 
1288	 6.09369434954774E-03 
1289	 6.08576291496358E-03 
1290	 6.02707667800905E-03 
1291	 6.12310515760654E-03 
1292	 6.21424170946548E-03 
1293	 6.10180201620419E-03 
1294	 6.05634591962458E-03 
1295	 6.08166263835397E-03 
1296	 6.05350685963141E-03 
1297	 6.05715504606863E-03 
1298	 6.04511238674153E-03 
1299	 6.02485361151987E-03 
1300	 5.83935032191285E-03 
1301	 5.7288607877195E-03 
1302	 5.85156110482485E-03 
1303	 5.75817095212087E-03 
1304	 5.73491842560755E-03 
1305	 5.91095482105716E-03 
1306	 5.90803380746469E-03 
1307	 5.87700979759023E-03 
1308	 5.9660712507951E-03 
1309	 6.09958819821652E-03 
1310	 5.99080698823142E-03 
1311	 5.71308916526982E-03 
1312	 5.70388546851939E-03 
1313	 5.6801494416198E-03 
1314	 5.57102172650643E-03 
1315	 5.67837030122333E-03 
1316	 5.81823187890494E-03 
1317	 5.72422051083314E-03 
1318	 5.69682063420478E-03 
1319	 6.14177181221799E-03 
1320	 6.21253229952965E-03 
1321	 5.91062506202522E-03 
1322	 5.55861728523928E-03 
1323	 5.68449330736824E-03 
1324	 5.67560092190715E-03 
1325	 5.59096567219649E-03 
1326	 5.64511485395064E-03 
1327	 5.90562949821446E-03 
1328	 6.33195283809243E-03 
1329	 6.16085392634916E-03 
1330	 5.65700811886449E-03 
1331	 5.48934410063422E-03 
1332	 5.19196203804409E-03 
1333	 5.20846506546443E-03 
1334	 6.14226595977575E-03 
1335	 6.49514127404154E-03 
1336	 5.80120413355969E-03 
1337	 5.66589358737459E-03 
1338	 6.06048805405497E-03 
1339	 6.28863656195065E-03 
1340	 6.65696475623337E-03 
1341	 6.43654361038177E-03 
1342	 5.74865950789449E-03 
1343	 5.44443631639631E-03 
1344	 4.2027283076345E-03 
1345	 3.42096180588487E-03 
1346	 4.4120039422388E-03 
1347	 4.22615791821639E-03 
1348	 1.57130062531713E-03 
1349	 6.88870454921438E-04 
1350	 8.20760241434612E-04 
1351	 4.61407133015279E-04 
1352	 0.010836949305183 
1353	 1.65181612553632E-02 
1354	 1.05706212682031E-02 
1355	-5.3446862933268E-03 
1356	-1.40563522270799E-02 
1357	-6.09592023018155E-02 
1358	-5.75056195999618E-02 
1359	-1.22069903062549E-02 
1360	-3.16659862947388E-02 
1361	-5.35992121527477E-02 
1362	-4.28641734305309E-02 
1363	-2.77796570337624E-02 
1364	 2.44377996767266E-02 
1365	 0.10537669020634 
1366	 0.115154988493897 
1367	 0.153656090769735 
1368	 8.48080741492129E-02 
1369	 6.90466513339251E-03 
1370	-0.043110184300259 
1371	-0.187164864075624 
1372	-0.240976574385858 
1373	-0.231244905202846 
1374	-0.308769306542383 
1375	-0.431157476236495 
1376	-0.356423740776416 
1377	-0.258399954122469 
1378	-0.202738526736607 
1379	 7.73752051323609E-02 
1380	 0.132976578133639 
1381	 0.12397781407532 
1382	 9.90034424994162E-03 
1383	-0.492200901799108 
1384	-0.472065240958148 
1385	-9.74985123102694E-02 
1386	-8.92621183676626E-02 
1387	-4.83160877260012E-02 
1388	 7.10264035950654E-02 
1389	 4.93995975174663E-02 
1390	-7.94965522088915E-02 
1391	-0.164289300293602 
1392	-0.150923790073041 
1393	-1.27990946517631E-02 
1394	-5.10108634331852E-03 
1395	-3.17300144453904E-02 
1396	 0.364843990320934 
1397	 0.289793027475247 
1398	-0.216683173518177 
1399	-0.106944143579403 
1400	 1.39173259911379E-02 
1401	-0.269965965848968 
1402	-0.402271677520295 
1403	-0.146370750327345 
1404	 3.10092028498564E-03 
1405	 5.14650337944606E-02 
1406	 0.183353316613147 
1407	 0.144416415076346 
1408	-6.58514267847428E-02 
1409	-5.19818477377938E-02 
1410	 0.11334813198889 
1411	 8.44867071086838E-02 
1412	 6.00771887768563E-02 
1413	 2.00945047304362E-02 
1414	-0.146786226341434 
1415	-0.135000485731418 
1416	-1.55346838356561E-02 
1417	-1.28320833828193E-02 
1418	-4.63385133666467E-02 
1419	-3.16889719145988E-02 
1420	-1.04787540512561E-02 
1421	-2.89244149340782E-02 
1422	-5.47433958369649E-02 
1423	-4.05919391488098E-02 
1424	-3.68509096807815E-02 
1425	-3.10231723095252E-02 
1426	 7.52735963604037E-03 
1427	 1.38615376394979E-02 
1428	-4.79743079001231E-03 
1429	-0.010046032390222 
1430	-1.59224929184506E-02 
1431	-1.68675459566368E-02 
1432	-1.20090709823388E-02 
1433	-7.55096938761625E-03 
1434	 7.80007529263647E-04 
1435	 3.25556377091738E-03 
1436	 3.70834016554215E-03 
1437	 1.68177570629641E-03 
1438	-2.29208244733805E-03 
1439	 3.91161409398297E-04 
1440	-4.11449138538839E-03 
1441	-9.68288030992479E-03 
1442	-3.97783967054942E-03 
1443	 3.79144481357332E-04 
1444	 4.26369102081403E-04 
1445	-1.39326602154817E-03 
1446	-4.74340607306663E-03 
1447	-1.69439889799846E-03 
1448	 3.38497376054756E-03 
1449	 5.55264040152012E-03 
1450	 4.25904079420067E-03 
1451	 7.05809612973037E-04 
1452	 2.52639496089901E-03 
1453	 5.88771074373349E-03 
1454	 4.99080035725386E-03 
1455	 3.00019103082591E-03 
1456	 4.09539636547731E-03 
1457	 4.3611856290007E-03 
1458	 4.63220684255323E-03 
1459	 7.97453391802175E-03 
1460	 7.95397353176869E-03 
1461	 4.23278209219715E-03 
1462	 3.93698860904717E-03 
1463	 5.57067197386199E-03 
1464	 5.38488503093979E-03 
1465	 4.66413925922389E-03 
1466	 4.5971299385211E-03 
1467	 4.13713619324875E-03 
1468	 3.85404082185943E-03 
1469	 4.22862955233563E-03 
1470	 5.34634314590239E-03 
1471	 6.63274481174985E-03 
1472	 6.44981157311595E-03 
1473	 6.46305219641158E-03 
1474	 7.16608295555467E-03 
1475	 7.02997613005394E-03 
1476	 6.52228183482096E-03 
1477	 7.12008759095989E-03 
1478	 7.20796102530986E-03 
1479	 5.86636763226576E-03 
1480	 5.19384099804942E-03 
1481	 4.78152832831193E-03 
1482	 5.22419883096468E-03 
1483	 6.93357916526205E-03 
1484	 6.29941374890346E-03 
1485	 4.86960043454509E-03 
1486	 4.50023799753605E-03 
1487	 2.89244520976743E-03 
1488	 2.84447727649089E-03 
1489	 4.60359248077281E-03 
1490	 5.03780084499503E-03 
1491	 4.73452536612256E-03 
1492	 5.01735015643407E-03 
1493	 5.79574203532627E-03 
1494	 5.78269464689894E-03 
1495	 5.52941082795796E-03 
1496	 5.42254019255946E-03 
1497	 4.86223671697952E-03 
1498	 4.64604779563173E-03 
1499	 4.7818251713757E-03 
1500	 4.76920959891966E-03 
1501	 4.73088034838259E-03 
1502	 4.66550309431187E-03 
1503	 4.59233001823025E-03 
1504	 4.55499145407734E-03 
1505	 4.45337021734877E-03 
1506	 4.40689958316532E-03 
1507	 4.63953109620225E-03 
1508	 4.83468894790614E-03 
1509	 5.08756555907901E-03 
1510	 5.0716346690943E-03 
1511	 4.71112243485962E-03 
1512	 4.75494516640185E-03 
1513	 4.83273839346234E-03 
1514	 4.70108553059127E-03 
1515	 4.85079321872218E-03 
1516	 4.90779338145681E-03 
1517	 4.77858374336662E-03 
1518	 4.85847813229535E-03 
1519	 4.87028766241954E-03 
1520	 4.71372662512021E-03 
1521	 4.62074979182325E-03 
1522	 4.63647890913887E-03 
1523	 4.81375618402756E-03 
1524	 4.87400285689331E-03 
1525	 4.80702989339753E-03 
1526	 4.84466824122983E-03 
1527	 4.77576230569237E-03 
1528	 4.66444925328138E-03 
1529	 4.64861340873486E-03 
1530	 4.72111163288606E-03 
1531	 4.87456498647069E-03 
1532	 4.89635586552864E-03 
1533	 4.85601731195038E-03 
1534	 4.90850798031223E-03 
1535	 4.81565971192604E-03 
1536	 4.7006371042878E-03 
1537	 4.7527879194784E-03 
1538	 4.77883160793524E-03 
1539	 4.84300959162694E-03 
1540	 4.95646158404551E-03 
1541	 5.02815038516084E-03 
1542	 4.99693365399661E-03 
1543	 4.84387396194036E-03 
1544	 4.70875142586793E-03 
1545	 4.66764286158444E-03 
1546	 4.68104918929642E-03 
1547	 4.74116715077299E-03 
1548	 4.78916910071897E-03 
1549	 4.75336042482794E-03 
1550	 4.78519819054293E-03 
1551	 4.76669112998528E-03 
1552	 4.68645819148274E-03 
1553	 4.79105895865575E-03 
1554	 4.80643226664957E-03 
1555	 4.65661470699365E-03 
1556	 4.70447315338192E-03 
1557	 4.85257440855275E-03 
1558	 4.82258539694912E-03 
1559	 4.77459313472598E-03 
1560	 4.84333741434176E-03 
1561	 4.76510743509557E-03 
1562	 4.63771744515075E-03 
1563	 4.67351669296263E-03 
1564	 4.63653139299611E-03 
1565	 4.58613946348395E-03 
1566	 4.58177118975711E-03 
1567	 4.66245743893254E-03 
1568	 4.84284579001624E-03 
1569	 4.86161439641115E-03 
1570	 4.83637223685032E-03 
1571	 4.97101826697877E-03 
1572	 5.0000779461415E-03 
1573	 4.75497595504635E-03 
1574	 4.82569665583863E-03 
1575	 5.05358686837484E-03 
1576	 4.90025702028417E-03 
1577	 4.71775105445514E-03 
1578	 4.58359372623509E-03 
1579	 4.4734927865933E-03 
1580	 4.54203780097808E-03 
1581	 4.76689886011759E-03 
1582	 4.89218621965631E-03 
1583	 4.84459875832562E-03 
1584	 4.77951014422119E-03 
1585	 4.72791738837024E-03 
1586	 4.82191323790122E-03 
1587	 4.9019082450094E-03 
1588	 4.77215802824683E-03 
1589	 4.77504622537639E-03 
1590	 4.89995186831104E-03 
1591	 4.84293563987229E-03 
1592	 4.75110989841895E-03 
1593	 4.72372329502377E-03 
1594	 4.68915828848738E-03 
1595	 4.67237179260967E-03 
1596	 4.65562283725209E-03 
1597	 0.004673300248906 
1598	 4.73421065510821E-03 
1599	 4.72432875874083E-03 
1600	 4.72388807104364E-03 
1601	 4.72686365727317E-03 
1602	 4.58351628908702E-03 
1603	 4.46713792349462E-03 
1604	 4.47339126202647E-03 
1605	 4.61231442990869E-03 
1606	 4.76357417318874E-03 
1607	 4.65771240778733E-03 
1608	 4.62822650442486E-03 
1609	 4.76501825088786E-03 
1610	 4.71197064034389E-03 
1611	 4.63094482174726E-03 
1612	 4.65527314947762E-03 
1613	 4.59938703677472E-03 
1614	 4.59442404872698E-03 
1615	 4.83115390390066E-03 
1616	 5.00370024937988E-03 
1617	 4.93696143348622E-03 
1618	 4.77260378919989E-03 
1619	 4.63150092369626E-03 
1620	 4.54493850035658E-03 
1621	 4.48008648729571E-03 
1622	 4.48676891972961E-03 
1623	 4.59633653851195E-03 
1624	 4.67165109164854E-03 
1625	 4.66012531701633E-03 
1626	 4.71910936629967E-03 
1627	 4.65112358417513E-03 
1628	 4.56506099516218E-03 
1629	 4.71672941705513E-03 
1630	 4.68387445442089E-03 
1631	 4.62435926764117E-03 
1632	 4.64646319244585E-03 
1633	 4.47910421630292E-03 
1634	 4.46228994330415E-03 
1635	 4.53491409020271E-03 
1636	 4.47538916095953E-03 
1637	 4.50382602096581E-03 
1638	 4.56696241374144E-03 
1639	 4.46014203106782E-03 
1640	 4.46496694093961E-03 
1641	 4.56072429512676E-03 
1642	 4.53236280988038E-03 
1643	 4.68373937515821E-03 
1644	 4.78289712005333E-03 
1645	 4.7600615590212E-03 
1646	 4.76525690926074E-03 
1647	 4.4962742667288E-03 
1648	 4.2108087120476E-03 
1649	 4.27125399121526E-03 
1650	 4.50497541702022E-03 
1651	 4.60838658035112E-03 
1652	 4.61959021352096E-03 
1653	 4.63845285608418E-03 
1654	 4.51289064561653E-03 
1655	 4.29414088504702E-03 
1656	 4.2847831759904E-03 
1657	 4.25338655262719E-03 
1658	 4.32515071934096E-03 
1659	 4.63490039012495E-03 
1660	 4.72736598467306E-03 
1661	 4.75301257559819E-03 
1662	 4.64759173540931E-03 
1663	 4.36586361039351E-03 
1664	 4.38473161623076E-03 
1665	 4.39428296428943E-03 
1666	 4.45368433458744E-03 
1667	 4.82418458935421E-03 
1668	 4.48089407700934E-03 
1669	 4.33449007224346E-03 
1670	 4.22047690523765E-03 
1671	 4.13381837042654E-03 
1672	 4.32531172607272E-03 
1673	 4.5003067008673E-03 
1674	 4.59338029267863E-03 
1675	 4.48793774362786E-03 
1676	 4.3603893817166E-03 
1677	 4.48389558153041E-03 
1678	 4.43217381194481E-03 
1679	 4.23404980231378E-03 
1680	 4.31366748985906E-03 
1681	 4.42100606764285E-03 
1682	 4.48089381524476E-03 
1683	 4.68005591022254E-03 
1684	 4.61587577359891E-03 
1685	 4.20734977367199E-03 
1686	 4.08413356539922E-03 
1687	 4.38108456065086E-03 
1688	 4.58753634259272E-03 
1689	 4.57004240071744E-03 
1690	 4.61175422468305E-03 
1691	 4.65176865714463E-03 
1692	 4.55062145906901E-03 
1693	 4.58007064789419E-03 
1694	 4.69769157196502E-03 
1695	 4.42076833674333E-03 
1696	 4.21409849699618E-03 
1697	 4.59637059768821E-03 
1698	 4.63131456378703E-03 
1699	 4.27242483914443E-03 
1700	 4.38669022290543E-03 
1701	 4.59495437536456E-03 
1702	 4.5953056118041E-03 
1703	 4.5396007147876E-03 
1704	 4.34545170879953E-03 
1705	 4.06410070932414E-03 
1706	 3.96496066589093E-03 
1707	 4.30962237096355E-03 
1708	 4.57068984967247E-03 
1709	 4.34268551846189E-03 
1710	 4.31308278259028E-03 
1711	 4.44858581116128E-03 
1712	 4.12306711517702E-03 
1713	 3.9941940749258E-03 
1714	 4.15983060686494E-03 
1715	 4.58964705855298E-03 
1716	 5.2827212060308E-03 
1717	 4.84625612412238E-03 
1718	 3.91348414598799E-03 
1719	 3.75480316235677E-03 
1720	 3.79199011184963E-03 
1721	 3.96882825408337E-03 
1722	 4.4184211246883E-03 
1723	 4.38796992400533E-03 
1724	 3.94872604262042E-03 
1725	 3.96149605597809E-03 
1726	 4.29677028411099E-03 
1727	 4.26223128763682E-03 
1728	 4.34438441573602E-03 
1729	 4.49200991594193E-03 
1730	 4.30435190596764E-03 
1731	 4.46616087221276E-03 
1732	 4.74542653758901E-03 
1733	 4.73831202577991E-03 
1734	 4.64241777816155E-03 
1735	 4.37233203554773E-03 
1736	 3.95875121531517E-03 
1737	 3.9315736223121E-03 
1738	 4.26674410242609E-03 
1739	 4.41620353934034E-03 
1740	 4.33095042514056E-03 
1741	 3.96318469836723E-03 
1742	 3.96388565205095E-03 
1743	 4.21036823393032E-03 
1744	 4.12573251530429E-03 
1745	 4.44880172220923E-03 
1746	 4.12410658040818E-03 
1747	 3.86050057286487E-03 
1748	 4.12964629127936E-03 
1749	 4.32259163550949E-03 
1750	 0.004289349605487 
1751	 4.24340087722998E-03 
1752	 4.22408013853392E-03 
1753	 4.18834630360912E-03 
1754	 3.96512149559998E-03 
1755	 4.13634816154382E-03 
1756	 4.86038265157697E-03 
1757	 4.55620693820537E-03 
1758	 4.20961141128701E-03 
1759	 4.20974617301986E-03 
1760	 4.02477527159671E-03 
1761	 3.65431731834974E-03 
1762	 3.88237720726558E-03 
1763	 3.72360264335542E-03 
1764	 3.54122179630378E-03 
1765	 4.0435209825732E-03 
1766	 3.63464413762796E-03 
1767	 3.11488857511544E-03 
1768	 3.21333368607262E-03 
1769	 3.6497508870493E-03 
1770	 4.9622396424302E-03 
1771	 5.83262339920239E-03 
1772	 5.28939289271657E-03 
1773	 4.37231255306482E-03 
1774	 3.3376817522668E-03 
1775	 2.79371517587598E-03 
1776	 2.97133580615772E-03 
1777	 4.46727697691929E-03 
1778	 4.54680988326407E-03 
1779	 4.13260166005543E-03 
1780	 3.88206965561147E-03 
1781	 1.9522218379911E-03 
1782	 2.34253558474675E-03 
1783	 5.34613359333659E-03 
1784	 5.77249547831571E-03 
1785	 6.21094141293098E-03 
1786	 5.70987042761033E-03 
1787	 1.8406368663951E-03 
1788	 1.47870629181575E-03 
1789	 3.26430942816137E-03 
1790	 6.27918271133059E-03 
1791	 9.97926456849286E-03 
1792	 8.56917184810417E-03 
1793	 2.54531316410844E-03 
1794	-2.77318620239592E-03 
1795	-8.8874081755101E-03 
1796	-4.40167765447035E-03 
1797	 5.34970395566012E-03 
1798	 5.41999766404398E-03 
1799	 7.12947190752335E-03 
1800	 2.53199465870081E-03 
1801	-1.70304659897996E-03 
1802	-3.95251796506966E-03 
1803	-4.26820587176545E-03 
1804	-3.98752734927018E-03 
1805	-5.46342066697917E-03 
1806	 1.31339307076488E-03 
1807	 9.98671885620678E-03 
1808	 4.62693212522068E-03 
1809	 2.74116408331701E-02 
1810	 0.153892817826814 
1811	 0.172011043066751 
1812	 7.37208078476508E-02 
1813	-4.45666915156353E-02 
1814	-0.384532748286205 
1815	-0.446036771890101 
1816	-0.354163631575213 
1817	 0.019176849641226 
1818	 0.350531365018583 
1819	 0.12256808327918 
1820	-0.18493616853823 
1821	 0.545355408726834 
1822	 0.313814177361123 
1823	 44.2069416482645 
1824	 2.19419927307233 
1825	-0.550678736516405 
1826	-0.685484709768807 
1827	-0.618302315057867 
1828	-0.720268931771236 
1829	-0.745673304341288 
1830	-0.662456828247265 
1831	 2.52466788619669 
1832	 3.23247009991773 
1833	 1.23056342519768 
1834	 40.3482520542216 
1835	 1.13013015318415 
1836	 1.30243658886329 
1837	-1.06767049957245 
1838	 1.9007440773786 
1839	 1.17779401173216 
1840	 0.75758247995986 
1841	 0.640795994940372 
1842	 0.977980689117563 
1843	 0.335455714964002 
1844	 0.239339604837314 
1845	-3.30766439238373E-03 
1846	-0.601316716845271 
1847	-0.87772199048874 
1848	 12.3871025003324 
1849	 0.992460538249872 
1850	 0.203018728374496 
1851	-0.727100764100448 
1852	 0.872784482640864 
1853	 0.170270037016436 
1854	 0.198837028155975 
1855	 0.376534565613651 
1856	 0.474542779993712 
1857	 1.0452439352222 
1858	 2.02049792531419 
1859	-3.19193775536629 
1860	-0.63605132570885 
1861	 0.777769084066543 
1862	 1.17459913647617 
1863	 4.86430788044142 
1864	-0.376216663245255 
1865	-0.440329517723618 
1866	 2.57305696404694 
1867	 1.05234167830664 
1868	 8.03968324141052 
1869	-4.4321278676214 
1870	 13.2689811848798 
1871	 1.97249400897181 
1872	 2.05846993574289 
1873	-0.849466308540758 
1874	 0.953399712474845 
1875	-1.09639642212638 
1876	-1.62747496222125 
1877	 3.15600592784652 
1878	 2.20285392219511 
1879	 0.839579876924025 
1880	 1.18786537620484 
1881	 28.6102619952954 
1882	-0.987966887009265 
1883	-0.614212841167787 
1884	-0.553741668047052 
1885	 0.704058142556962 
1886	 0.523988177363869 
1887	 23.0637310764357 
1888	-10.5517657790053 
1889	-3.72385943792295 
1890	 2.82110203967241E-02 
1891	-0.215209420512902 
1892	-2.19780302752664 
1893	 1.88734853292473 
1894	-3.15394877087972 
1895	-1.2876125547429 
1896	-1.05544600400099 
1897	-0.820856094334435 
1898	 9.57127585131339 
1899	 0.969542358773715 
1900	 0.653076457124089 
1901	 0.464906248407621 
1902	 0.543570521087333 
1903	 0.820693056508998 
1904	-0.925097868279144 
1905	-2.10541390967123 
1906	-0.799870322323005 
1907	-0.336065229670641 
1908	 0.26089042404003 
1909	 0.46641829456534 
1910	-7.49887519068623E-02 
1911	-0.240080436916168 
1912	-0.175996684352918 
1913	-0.42598501709956 
1914	-0.504070328653651 
1915	-0.411032538476936 
1916	-0.486054786927857 
1917	-0.92562174858358 
1918	-0.268239320616465 
1919	-0.341693192413443 
1920	-0.55883122121232 
1921	-0.757302286855386 
1922	-0.481277281005003 
1923	-0.514626486792057 
1924	 0.158083366485943 
1925	 0.6445598743929 
1926	 0.757198186096315 
1927	 1.05392327312117 
1928	 0.638920883143793 
1929	-9.39619458421068 
1930	-0.11598541222684 
1931	 1.61517155304501 
1932	 2.13833312867084E-02 
1933	-0.366056546427391 
1934	-0.296894360175277 
1935	-0.39403753250128 
1936	-0.285188545761779 
1937	-6.11273424858473E-03 
1938	 2.70379786005006E-02 
1939	 4.90421886775475E-02 
1940	 0.058529764430231 
1941	 6.34501390362283E-02 
1942	-0.038200426519863 
1943	-4.71632915317583E-02 
1944	-4.46835863251737E-02 
1945	-7.90441457954771E-02 
1946	-6.19624943098035E-02 
1947	-6.85722806374162E-02 
1948	-7.43979676499783E-02 
1949	-6.33854530637094E-02 
1950	-0.058384637857239 
1951	-3.53984366812456E-02 
1952	-0.023124559382697 
1953	-1.15909147702688E-02 
1954	-5.18759844191691E-03 
1955	-9.33033901656016E-03 
1956	-1.52573275770033E-02 
1957	-1.21730659551739E-02 
1958	-0.012432784537678 
1959	-5.07287119797331E-03 
1960	-6.10127016066981E-03 
1961	-7.4831962513321E-03 
1962	-7.54942169915201E-04 
1963	-8.48463371813132E-04 
1964	-1.76722205328325E-03 
1965	 2.1922772684783E-03 
1966	 2.73603124441672E-03 
1967	 8.42430570449824E-04 
1968	-1.23202943401896E-03 
1969	-5.17737789279409E-04 
1970	-1.4177449448113E-03 
1971	-2.35683098771681E-03 
1972	-1.25510489874252E-03 
1973	-2.76490439586606E-04 
1974	-8.01049433029186E-04 
1975	-6.60279459446218E-04 
1976	 6.09693391465217E-04 
1977	 1.36793781367949E-03 
1978	 2.13057166906551E-03 
1979	 2.54686716011446E-03 
1980	 2.78654173810364E-03 
1981	 2.36610601856541E-03 
1982	 2.23724226140316E-03 
1983	 2.70248600248137E-03 
1984	 3.36525104365332E-03 
1985	 3.56653983515203E-03 
1986	 3.95827126523283E-03 
1987	 4.2512591980686E-03 
1988	 3.82005194857623E-03 
1989	 3.53295397616746E-03 
1990	 3.6124983818254E-03 
1991	 3.33727931611302E-03 
1992	 2.80663266462508E-03 
1993	 2.28505602297538E-03 
1994	 1.68915278769057E-03 
1995	 2.54198371678125E-04 
1996	-8.86888519905522E-04 
1997	-3.18779546033524E-04 
1998	 1.15670417842771E-03 
1999	 2.00350527803422E-03 
2000	 1.05663953388525E-03 
2001	-9.43021865681968E-04 
2002	-3.45912035132001E-03 
2003	-4.0768514681023E-03 
2004	-1.1801765971258E-03 
2005	 1.27006782259996E-03 
2006	 2.8997634986266E-03 
2007	 2.21179070947271E-03 
2008	 1.66392716303497E-03 
2009	 6.97632828804111E-04 
2010	-2.61561367849963E-03 
2011	-0.003500538389273 
2012	-4.01850383830848E-03 
2013	-1.60265073341818E-03 
2014	-4.66286423994737E-04 
2015	 3.34814843071261E-03 
2016	 7.52795531498003E-03 
2017	 6.52076802073049E-03 
2018	 5.53853312256494E-03 
2019	 5.26197420893232E-03 
2020	 4.21759732376758E-03 
2021	 3.61985001920069E-03 
2022	 2.5719153426455E-03 
2023	 2.27881875695916E-03 
2024	 2.16902219476937E-03 
2025	 1.39529171377468E-03 
2026	 1.64055158678455E-03 
2027	 2.78757020068554E-03 
2028	 3.5897005792358E-03 
2029	 3.85030115032732E-03 
2030	 3.9363577745292E-03 
2031	 2.92216216650949E-03 
2032	 2.35578531164699E-03 
2033	 2.05491005850097E-03 
2034	 1.92120314077717E-03 
2035	 2.09021973864676E-03 
2036	 1.48427939114513E-03 
2037	 1.43575266955624E-03 
2038	 1.61490210443067E-03 
2039	 1.60189524768587E-03 
2040	 2.09201726927633E-03 
2041	 2.30427753928489E-03 
2042	 1.8688280792303E-03 
2043	 1.71460361400074E-03 
2044	 1.71812267545722E-03 
2045	 1.88632520283127E-03 
2046	 1.60594390745535E-03 
2047	 1.84519458412251E-03 
2048	 2.50810550034965E-03 
2049	 2.34595188004279E-03 
2050	 2.57527314505905E-03 
2051	 3.30529773694141E-03 
2052	 2.9015277855586E-03 
2053	 2.55564244989564E-03 
2054	 2.63004529129228E-03 
2055	 2.17320666658211E-03 
2056	 1.83800367663183E-03 
2057	 1.52059477957809E-03 
2058	 1.72272938874856E-03 
2059	 2.49027082577884E-03 
2060	 2.71642302518359E-03 
2061	 3.0861787711711E-03 
2062	 3.50410965177878E-03 
2063	 3.13814562447196E-03 
2064	 1.85827006257343E-03 
2065	 1.69190812269244E-03 
2066	 1.41661565725155E-03 
2067	 2.06765090990665E-03 
2068	 3.24776543190138E-03 
2069	 2.35946000678786E-03 
2070	 2.21521833425015E-03 
2071	 2.72507894793109E-03 
2072	 1.91138078180638E-03 
2073	 1.89173482549333E-03 
2074	 3.16172619781988E-03 
2075	 3.46118408108919E-03 
2076	 3.03652586683247E-03 
2077	 3.17954763344379E-03 
2078	 3.66613952221084E-03 
2079	 3.69750657356829E-03 
2080	 3.54513385996359E-03 
2081	 3.45788274742596E-03 
2082	 3.52378977398981E-03 
2083	 3.58286006202283E-03 
2084	 3.70424769788468E-03 
2085	 3.08360944602018E-03 
2086	 2.57292107316074E-03 
2087	 2.66954442625917E-03 
2088	 2.96081013638758E-03 
2089	 3.9859729142625E-03 
2090	 4.40072972008963E-03 
2091	 3.8635464947151E-03 
2092	 3.81691073535162E-03 
2093	 3.55941677905079E-03 
2094	 3.31127214151202E-03 
2095	 3.54697266437143E-03 
2096	 3.56104043028111E-03 
2097	 2.91719016203882E-03 
2098	 2.74506955920747E-03 
2099	 3.14695683764553E-03 
2100	 2.70081100487027E-03 
2101	 2.33851406802166E-03 
2102	 3.0963290440629E-03 
2103	 2.99860768760649E-03 
2104	 2.62123263383131E-03 
2105	 3.24426074686963E-03 
2106	 3.1624688081764E-03 
2107	 3.10483174160652E-03 
2108	 4.12248673739708E-03 
2109	 4.06582724984356E-03 
2110	 3.02002063175248E-03 
2111	 3.06667075976358E-03 
2112	 3.60010739888219E-03 
2113	 3.4953080659731E-03 
2114	 3.3384867827167E-03 
2115	 3.54773892429176E-03 
2116	 3.40295184532072E-03 
2117	 3.18465852326339E-03 
2118	 3.43151297126398E-03 
2119	 3.49136622509459E-03 
2120	 3.11905028168887E-03 
2121	 2.97040106795599E-03 
2122	 3.44856966139621E-03 
2123	 4.0163092693831E-03 
2124	 4.52048422870699E-03 
2125	 4.28194078577312E-03 
2126	 3.26099339896799E-03 
2127	 2.45285689814574E-03 
2128	 2.32920244148247E-03 
2129	 3.30775256745565E-03 
2130	 4.33136994393188E-03 
2131	 4.39328515421409E-03 
2132	 4.14821036653159E-03 
2133	 3.32059374256123E-03 
2134	 2.78058750882202E-03 
2135	 2.44537347784796E-03 
2136	 2.30847134879592E-03 
2137	 1.77698114597436E-03 
2138	 1.9608557079464E-03 
2139	 2.87957267047446E-03 
2140	 3.20991978339302E-03 
2141	 3.96875512002265E-03 
2142	 4.25573400612993E-03 
2143	 4.01000566322308E-03 
2144	 3.61228587952084E-03 
2145	 3.74326933887542E-03 
2146	 4.2563720149788E-03 
2147	 4.66032382115503E-03 
2148	 4.79537301723592E-03 
2149	 4.50573040448189E-03 
2150	 4.61169419435336E-03 
2151	 5.19814403220396E-03 
2152	 5.45605030333659E-03 
2153	 5.98776667997153E-03 
2154	 5.52123416743874E-03 
2155	 4.47400884296605E-03 
2156	 4.87828827076082E-03 
2157	 4.43695758186041E-03 
2158	 3.38872088405442E-03 
2159	 3.32637079428563E-03 
2160	 4.04302813804192E-03 
2161	 3.30272801248254E-03 
2162	 1.99049783731492E-03 
2163	 1.95552328737946E-03 
2164	 1.6984298330467E-03 
2165	 1.16533848030057E-03 
2166	 1.68827540244806E-03 
2167	 1.85671852799025E-03 
2168	 5.74525370541356E-04 
2169	 3.1679538608123E-04 
2170	 8.69038231385703E-04 
2171	 2.27875798869461E-03 
2172	 2.46057796508034E-03 
2173	 2.46645970706779E-03 
2174	 2.5371793152548E-03 
2175	 2.50700875901881E-03 
2176	 2.62912207146751E-03 
2177	 2.63687040568665E-03 
2178	 2.81851700180466E-03 
2179	 2.94867290644503E-03 
2180	 3.70230701833654E-03 
2181	 4.04243241954959E-03 
2182	 3.81252012541615E-03 
2183	 3.66410976338111E-03 
2184	 2.25176918677606E-03 
2185	 1.84203158663023E-03 
2186	 2.00813712367528E-03 
2187	 2.77425967538219E-03 
2188	 3.31944870286789E-03 
2189	 4.74650056706183E-03 
2190	 5.2201195684146E-03 
2191	 5.27036966551977E-03 
2192	 4.88200374980887E-03 
2193	 3.64825710763085E-03 
2194	 3.64866509946852E-03 
2195	 3.99208314992881E-03 
2196	 3.66846316107732E-03 
2197	 3.89233069664522E-03 
2198	 3.80123138688151E-03 
2199	 2.28898550956663E-03 
2200	 2.30044868998895E-03 
2201	 3.26748482551828E-03 
2202	 3.12615289070253E-03 
2203	 2.83607488011833E-03 
2204	 2.64145107053911E-03 
2205	 3.9108644760149E-03 
2206	 4.58673647771846E-03 
2207	 3.48580922607177E-03 
2208	 3.69402045993368E-03 
2209	 3.62049961545366E-03 
2210	 2.22539545274252E-03 
2211	 3.25975204243052E-03 
2212	 4.93373782476706E-03 
2213	 5.11621440167728E-03 
2214	 5.22140674640892E-03 
2215	 4.59598033516388E-03 
2216	 4.96631776101045E-03 
2217	 4.69088335749876E-03 
2218	 3.90677290953319E-03 
2219	 3.16999084583611E-03 
2220	 1.5240542813896E-03 
2221	 1.47156803137542E-03 
2222	 2.82944596132873E-03 
2223	 3.35889348071249E-03 
2224	 4.57009197496585E-03 
2225	 5.2280529860309E-03 
2226	 4.61384624580775E-03 
2227	 4.11653375380847E-03 
2228	 4.30815020979699E-03 
2229	 4.36394568362237E-03 
2230	 4.07397391836274E-03 
2231	 3.66135838285984E-03 
2232	 3.11208255808431E-03 
2233	 2.83838482295441E-03 
2234	 2.33664907340071E-03 
2235	 1.40707297899732E-03 
2236	 1.98393852304151E-03 
2237	 2.1241888087596E-03 
2238	 2.02157159861416E-03 
2239	 2.50082814401757E-03 
2240	 1.64475777204264E-03 
2241	 1.09705069446424E-03 
2242	 1.09542519343741E-03 
2243	 6.0724769865088E-04 
2244	 8.51690672355791E-04 
2245	 1.11557718789687E-03 
2246	-1.65670224685082E-04 
2247	-1.32078184839517E-03 
2248	-3.64307458607903E-04 
2249	 6.14105007728941E-04 
2250	 1.19378013724956E-03 
2251	 1.80585915168148E-03 
2252	 1.1995903419626E-03 
2253	 3.26849289983136E-04 
2254	 1.04725177228531E-03 
2255	 1.7288007721665E-03 
2256	 2.22372066916393E-03 
2257	 2.50087990535954E-03 
2258	 1.81001380522836E-03 
2259	 3.00403718361557E-03 
2260	 3.03338004049527E-03 
2261	 2.36191026879794E-03 
2262	 2.52008087727964E-03 
2263	 2.60225078780607E-03 
2264	 2.37933692525045E-03 
2265	 3.09186882963768E-03 
2266	 3.51597978536552E-03 
2267	 2.67215982382422E-03 
2268	 2.62434888812747E-03 
2269	 3.79583721770611E-03 
2270	 3.9660379987488E-03 
2271	 4.17942923672863E-03 
2272	 3.59125792408331E-03 
2273	 1.82884151100103E-03 
2274	 7.70350032771783E-04 
2275	-1.65028488752667E-03 
2276	-1.83481799993516E-03 
2277	 5.50714656027633E-04 
2278	 1.28742509372214E-03 
2279	 2.51413119044345E-03 
2280	 3.2302162888689E-03 
2281	 3.15912991236615E-03 
2282	 2.3753262290076E-03 
2283	 2.93511828085066E-03 
2284	 4.38312308494868E-03 
2285	 5.43788898383379E-03 
2286	 7.11960250161958E-03 
2287	 8.44918451365287E-03 
2288	 8.53606516478411E-03 
2289	 8.00638793626962E-03 
2290	 3.92547754607745E-03 
2291	-1.95485161100223E-03 
2292	-5.68519994088645E-03 
2293	-5.21047457455484E-03 
2294	-3.06580139318645E-03 
2295	-1.71909278743115E-03 
2296	-3.30905559227328E-04 
2297	-1.18742762320415E-03 
2298	-1.57469216308648E-03 
2299	-2.94433842106608E-04 
2300	 7.49789132271519E-04 
2301	 3.51724951067068E-03 
2302	 4.25759142479911E-03 
2303	 8.16209145281233E-04 
2304	-1.84107333659516E-04 
2305	-1.38186396691048E-03 
2306	-4.01904520148904E-03 
2307	-1.60515431002727E-03 
2308	 3.6611698636462E-04 
2309	-7.9284893857554E-04 
2310	-1.77781851271214E-04 
2311	 1.07263022265031E-03 
2312	 2.0866393586507E-03 
2313	 3.19096723170387E-03 
2314	 2.0828699914931E-03 
2315	-9.54481257082068E-04 
2316	-4.65777680011623E-03 
2317	-7.61538079279585E-03 
2318	-4.29658933986449E-03 
2319	 8.98061239936875E-04 
2320	 1.05484341858709E-03 
2321	 5.2551280481401E-05 
2322	-3.88590780745305E-03 
2323	-6.83980550528134E-03 
2324	-4.03071008026368E-03 
2325	-6.10884198096869E-04 
2326	 6.31121966086181E-04 
2327	-1.01048046935766E-03 
2328	-1.67163073588403E-03 
2329	-6.94088401964587E-04 
2330	 1.26805704097359E-03 
2331	 1.02942767459313E-03 
2332	-1.04831347834057E-03 
2333	-1.72154238908413E-03 
2334	-2.77706381269265E-03 
2335	 1.44288800747381E-03 
2336	 5.4026329099588E-03 
2337	 4.04648149458757E-03 
2338	 4.21905848685521E-03 
2339	 1.93174984959322E-04 
2340	-7.73982000604817E-03 
2341	-1.16117415059256E-02 
2342	-1.38104258707269E-02 
2343	-7.85991189007996E-03 
2344	 4.27003582771368E-03 
2345	 6.31921460330664E-03 
2346	 3.28567757156107E-03 
2347	-1.10733289074762E-03 
2348	-1.49642512799325E-02 
2349	-2.14072852218578E-02 
2350	-1.43609277407955E-02 
2351	-1.30616529544255E-02 
2352	-9.94137398919206E-03 
2353	-9.29330841903015E-03 
2354	-1.71564379053294E-02 
2355	-1.67793666993804E-02 
2356	-1.16750049299752E-02 
2357	-3.16998506240513E-03 
2358	-4.14278929273107E-03 
2359	-1.19695468102093E-02 
2360	-1.33017017312501E-02 
2361	-0.017822887962952 
2362	-9.83155437818084E-03 
2363	 3.32116950940509E-03 
2364	-4.04501234317654E-05 
2365	 1.10364325741137E-03 
2366	 3.22401737116771E-03 
2367	-3.55845771666648E-03 
2368	 0.001528516305014 
2369	 1.08941805507542E-02 
2370	 8.41528338979309E-03 
2371	 1.55355906915703E-03 
2372	 3.6000960423397E-03 
2373	-5.08245635501732E-03 
2374	-1.47554641785727E-02 
2375	-4.30355568975364E-03 
2376	-7.00081080543115E-03 
2377	-3.23929697682949E-03 
2378	 0.010745222545716 
2379	 6.25160587890518E-03 
2380	-6.95731789690331E-03 
2381	-1.61551586163986E-02 
2382	-2.37908990555956E-02 
2383	-2.84694444472623E-02 
2384	-3.06850168127116E-02 
2385	-3.55059021731755E-02 
2386	-3.60465125936939E-02 
2387	-4.16480649774251E-02 
2388	-3.74957114863167E-02 
2389	-1.36560048316888E-02 
2390	-5.54836762254668E-03 
2391	-1.46575213333446E-02 
2392	-1.20617691444921E-02 
2393	-4.40378706523752E-03 
2394	-9.64029278204232E-03 
2395	-1.88550670072808E-02 
2396	-2.76631714628153E-02 
2397	-5.28687047278458E-02 
2398	-7.51014813984594E-02 
2399	-5.47918214211918E-02 
2400	-2.68992927021187E-02 
2401	-2.48892212137051E-02 
2402	-2.62659683598818E-02 
2403	-6.08406748321136E-02 
2404	-9.60797623184402E-02 
2405	-9.16790643356779E-02 
2406	-8.33566944431613E-02 
2407	-5.86155807699022E-02 
2408	-3.75359718214347E-02 
2409	-4.65141442976682E-02 
2410	-1.97654108747555E-02 
2411	 3.01242296628107E-02 
2412	-2.15580172395214E-03 
2413	-1.27044036046249E-02 
2414	-8.74621468557149E-03 
2415	-3.85499043712395E-02 
2416	-0.010923948469996 
2417	-4.41926950636966E-02 
2418	-9.25520539065502E-02 
2419	-0.170435054557934 
2420	-0.241570914241855 
2421	-0.146584735697552 
2422	-0.146099374443801 
2423	-0.199313810732402 
2424	-0.147760031774878 
2425	-0.15137374378354 
2426	-0.120773727845715 
2427	-1.62242550821215E-02 
2428	 1.17825196072696E-02 
2429	 0.00754015493823 
2430	-3.27543695102244E-02 
2431	-7.15259245058537E-02 
2432	-0.100783876548195 
2433	-9.24605109812475E-02 
2434	-3.97137354781293E-02 
2435	-5.72305201431902E-02 
2436	-0.111365505514947 
2437	-5.76571798931895E-02 
2438	 5.48676051384158E-02 
2439	 0.102271417335237 
2440	 4.49625930472032E-02 
2441	 1.96259996619029E-02 
2442	-9.82257172663131E-02 
2443	-0.259537250560933 
2444	-8.25012886993173E-02 
2445	-2.00626787701867E-02 
2446	-4.71199903558378E-02 
2447	 0.145723617727647 
2448	 0.215117289044288 
2449	 0.412673002113891 
2450	 0.338181148329981 
2451	-0.693805263057444 
2452	-1.42278896426993 
2453	-1.51333144370394 
2454	-1.18513911443732 
2455	-0.306625635331762 
2456	-8.70523210066473E-02 
2457	-2.81375086518157E-02 
2458	 0.123292230361452 
2459	 3.89903887033484E-02 
2460	-0.237875281662279 
2461	-0.450412369478551 
2462	-0.448515823960078 
2463	-0.747198254487313 
2464	-0.981953412615384 
2465	-1.13685487268661 
2466	-1.55769090179477 
2467	-1.34185387793008 
2468	-1.09363984388446 
2469	-1.5074639599914 
2470	 3.62755740142969 
2471	 0.204479830922443 
2472	 15.6052566855687 
2473	-1.12374237385677 
2474	-0.816611294339575 
2475	-2.37655906378989 
2476	-2.10024433617265 
2477	-0.257036668553233 
2478	 0.510800766676333 
2479	 1.55227394566827 
2480	 4.32122704033298 
2481	-0.639593495068232 
2482	 0.47210559596326 
2483	-16.1719615652811 
2484	 25.9902648974185 
2485	 3.18990605842994 
2486	-5.92172406861238 
2487	 4.28504969364893 
2488	-4.0953607234702 
2489	-0.402337783298619 
2490	-6.44726329604465E-02 
2491	-0.722451933479747 
2492	-0.931234993289172 
2493	-0.28227744750849 
2494	 4.45994145659564E-02 
2495	-1.07953427133728 
2496	-0.431932370241802 
2497	-0.375784678862765 
2498	-0.651637443463346 
2499	-3.43395223030653 
2500	-0.155769082105713 
