Wavelength	rt0629dirtre00002.asd
350	 0.11280853398256 
351	 0.112173839409354 
352	 0.11209452492673 
353	 0.112413086086476 
354	 0.112675659800159 
355	 0.112301083157367 
356	 0.111994211379809 
357	 0.112359790308517 
358	 0.113467514070876 
359	 0.113518503108579 
360	 0.113457367608036 
361	 0.11333066952509 
362	 0.11268629089296 
363	 0.113316945778643 
364	 0.11355269532096 
365	 0.112922148932743 
366	 0.113386295563265 
367	 0.113870818968619 
368	 0.113908864303299 
369	 0.113539208619734 
370	 0.113953071986921 
371	 0.1146807252414 
372	 0.115235271484434 
373	 0.115250394771819 
374	 0.115386486371309 
375	 0.115747093884526 
376	 0.116148416085493 
377	 0.116133602803641 
378	 0.116345573518705 
379	 0.116700001529347 
380	 0.117084585455785 
381	 0.117912764033084 
382	 0.118633878517324 
383	 0.118888877523658 
384	 0.118747089137826 
385	 0.120349402922448 
386	 0.12104759498105 
387	 0.120446351834136 
388	 0.121019125389834 
389	 0.122403253074435 
390	 0.12335421423586 
391	 0.123296318708021 
392	 0.123656863624525 
393	 0.123586532491801 
394	 0.123879550305606 
395	 0.125318334884836 
396	 0.125545165686034 
397	 0.125711798093784 
398	 0.1261859957091 
399	 0.126489159829886 
400	 0.126748394571892 
401	 0.12689418566655 
402	 0.127032911577197 
403	 0.127770810391586 
404	 0.128285710850603 
405	 0.128538218656666 
406	 0.128789541209507 
407	 0.129155795885296 
408	 0.129396751134173 
409	 0.129701686925619 
410	 0.130637574748376 
411	 0.13119245708731 
412	 0.131636592630427 
413	 0.132235498053427 
414	 0.132653800154487 
415	 0.132976473446984 
416	 0.13333109498478 
417	 0.133843015901865 
418	 0.134484013378567 
419	 0.135078624364996 
420	 0.135670916765858 
421	 0.136535782917941 
422	 0.137242866774606 
423	 0.137958270807885 
424	 0.138814394564509 
425	 0.139483318268165 
426	 0.1401917121544 
427	 0.140990813587375 
428	 0.14186333397935 
429	 0.142997346380441 
430	 0.143951198909162 
431	 0.14466717385863 
432	 0.145594904373942 
433	 0.146625277350765 
434	 0.147621940791548 
435	 0.148531569530564 
436	 0.14959197698614 
437	 0.150519584984519 
438	 0.151294164033983 
439	 0.152060014014127 
440	 0.152988386987971 
441	 0.15394404415275 
442	 0.154857871671552 
443	 0.155813442378896 
444	 0.156669880707534 
445	 0.15737766353864 
446	 0.157971309663995 
447	 0.15865862394158 
448	 0.159543326668289 
449	 0.160402395260786 
450	 0.160850661485908 
451	 0.161579392031428 
452	 0.162284183456131 
453	 0.162755066203717 
454	 0.163269709483867 
455	 0.163719798975469 
456	 0.16419440376247 
457	 0.164790475968505 
458	 0.165295052758845 
459	 0.165777934811394 
460	 0.166249356944981 
461	 0.166642185325926 
462	 0.166912939515015 
463	 0.167273468304903 
464	 0.167861353481769 
465	 0.168518688083931 
466	 0.16886877068687 
467	 0.169067295440441 
468	 0.169517812790744 
469	 0.170154974731812 
470	 0.17070359842208 
471	 0.171137639094581 
472	 0.171787200512015 
473	 0.172243128133984 
474	 0.17271686326596 
475	 0.173409263945378 
476	 0.173877861323668 
477	 0.174375722725261 
478	 0.174952791792843 
479	 0.17551811734018 
480	 0.176085278786819 
481	 0.176712779617141 
482	 0.177443131670304 
483	 0.178287765928288 
484	 0.178989582422676 
485	 0.179718066713086 
486	 0.180662269513884 
487	 0.181138897293596 
488	 0.181903553036752 
489	 0.183035519476233 
490	 0.18391153991129 
491	 0.184615574940467 
492	 0.185353525235612 
493	 0.186270418066998 
494	 0.187300117653412 
495	 0.188160355921645 
496	 0.188979809894165 
497	 0.190059687946253 
498	 0.191194956250017 
499	 0.192162924511742 
500	 0.193013536457638 
501	 0.194219127743311 
502	 0.195028632380433 
503	 0.195849402232559 
504	 0.197148782875642 
505	 0.198218599090772 
506	 0.19919834220837 
507	 0.20026410906328 
508	 0.201565879568229 
509	 0.202602682757341 
510	 0.203718435124712 
511	 0.20510031186088 
512	 0.206273604485364 
513	 0.20733559327805 
514	 0.208556059024425 
515	 0.210164471593469 
516	 0.211498323102107 
517	 0.212695333801337 
518	 0.213924500973035 
519	 0.215293092461939 
520	 0.216842871479028 
521	 0.218266610488283 
522	 0.219403459067569 
523	 0.220797650101487 
524	 0.2223010708428 
525	 0.223787772449267 
526	 0.225179213612901 
527	 0.226637933778019 
528	 0.228114913673575 
529	 0.229563885734271 
530	 0.231008561049194 
531	 0.232515532216329 
532	 0.234032533844939 
533	 0.235464790198154 
534	 0.23678580175141 
535	 0.238313309045355 
536	 0.240030620102234 
537	 0.241521561385467 
538	 0.242944957451438 
539	 0.244419153691284 
540	 0.245990076925348 
541	 0.247488608738658 
542	 0.249021750239509 
543	 0.250570425138439 
544	 0.252055412575397 
545	 0.253560019577317 
546	 0.255086709886709 
547	 0.256621705378081 
548	 0.258147665965658 
549	 0.259681215178731 
550	 0.261229700086184 
551	 0.262778831661642 
552	 0.264185737063706 
553	 0.265599527200847 
554	 0.267067088055503 
555	 0.268492072674272 
556	 0.269962990531953 
557	 0.2714958697029 
558	 0.273009597941901 
559	 0.274241960221919 
560	 0.275321610730853 
561	 0.276440693858982 
562	 0.277787605551243 
563	 0.279002013187415 
564	 0.280148178097075 
565	 0.281242233934426 
566	 0.282089329230458 
567	 0.282804067272235 
568	 0.283653978662313 
569	 0.284820461789223 
570	 0.285681791025965 
571	 0.286484232959853 
572	 0.287318609183779 
573	 0.288048343002623 
574	 0.288636917906456 
575	 0.289358447477353 
576	 0.290314187458601 
577	 0.290842289255843 
578	 0.291343782093311 
579	 0.291851098221143 
580	 0.292198902801486 
581	 0.292651662730044 
582	 0.292958399860238 
583	 0.293042264720077 
584	 0.293268521073765 
585	 0.293257508733095 
586	 0.292952432351422 
587	 0.292477969709596 
588	 0.292310548035314 
589	 0.292092149517382 
590	 0.291747416780328 
591	 0.291546245150103 
592	 0.291448404651478 
593	 0.291357998878872 
594	 0.291148238380511 
595	 0.290633781272916 
596	 0.290037654233448 
597	 0.289448453163863 
598	 0.288889747872627 
599	 0.288534955945843 
600	 0.288119551527289 
601	 0.287549945159206 
602	 0.287089304027678 
603	 0.286950761248057 
604	 0.287015668042904 
605	 0.287038513606372 
606	 0.28679901604525 
607	 0.286698812821516 
608	 0.286765159374115 
609	 0.286623192916027 
610	 0.286653790655873 
611	 0.286674197262986 
612	 0.286556854826273 
613	 0.286706044671518 
614	 0.286730888888962 
615	 0.286613927266178 
616	 0.286563681769218 
617	 0.286738216948684 
618	 0.286793896035813 
619	 0.286604646650516 
620	 0.286459898056763 
621	 0.286559008789347 
622	 0.286768627323044 
623	 0.286831515152561 
624	 0.286558172670572 
625	 0.286397520843114 
626	 0.286378580755663 
627	 0.286140111105007 
628	 0.286398257905881 
629	 0.28666817046551 
630	 0.28654642594044 
631	 0.286433496454998 
632	 0.286371214076744 
633	 0.286390542501543 
634	 0.286478558528735 
635	 0.28647577400179 
636	 0.286412731788066 
637	 0.286309159543938 
638	 0.286127564637436 
639	 0.286292958397737 
640	 0.286502693543112 
641	 0.286388352100639 
642	 0.286321397393001 
643	 0.285882945171439 
644	 0.285266154568045 
645	 0.285115656107496 
646	 0.284429264034193 
647	 0.283833549997349 
648	 0.283770276686259 
649	 0.283503176117903 
650	 0.283208793533994 
651	 0.28278872838808 
652	 0.282151856806111 
653	 0.281731816697453 
654	 0.280907560574719 
655	 0.279537056994565 
656	 0.278433283077363 
657	 0.277618564550083 
658	 0.277058737472313 
659	 0.276596590597269 
660	 0.275806605917165 
661	 0.275091475385607 
662	 0.274521272742259 
663	 0.273966235674912 
664	 0.273390311920243 
665	 0.272854870648581 
666	 0.272377239480475 
667	 0.271875119223603 
668	 0.271557606160122 
669	 0.271312200247739 
670	 0.270959717891322 
671	 0.270541530246859 
672	 0.270385057795401 
673	 0.270385501837477 
674	 0.270067093346515 
675	 0.270036688163107 
676	 0.270020209462241 
677	 0.269753678031217 
678	 0.269386732736415 
679	 0.269181659483226 
680	 0.269114839379005 
681	 0.26901697744935 
682	 0.268810411081892 
683	 0.268715797908025 
684	 0.268629464662282 
685	 0.267937123311949 
686	 0.267184625216548 
687	 0.266730233586513 
688	 0.26664853049549 
689	 0.266394584597101 
690	 0.26606386099951 
691	 0.265494996481982 
692	 0.264436042156288 
693	 0.263665102176208 
694	 0.263204368258873 
695	 0.262841495963069 
696	 0.262235211289994 
697	 0.261134654296244 
698	 0.259784844254199 
699	 0.258624766412517 
700	 0.257496613143087 
701	 0.256216848289778 
702	 0.254821263727763 
703	 0.253460024907191 
704	 0.252186190330755 
705	 0.250564490541397 
706	 0.248562958604517 
707	 0.247046842420735 
708	 0.245246494929769 
709	 0.243094240062705 
710	 0.240771885843468 
711	 0.238310624032142 
712	 0.235609560809216 
713	 0.232612950206484 
714	 0.229246611191569 
715	 0.225824377008452 
716	 0.221961195181539 
717	 0.217675095846022 
718	 0.213593471728271 
719	 0.210571225427531 
720	 0.20845364201611 
721	 0.20609182834193 
722	 0.202777102481326 
723	 0.198862622272058 
724	 0.195185197183736 
725	 0.191648101171571 
726	 0.187806180218162 
727	 0.183779994445343 
728	 0.179671728020184 
729	 0.174927161199488 
730	 0.170276939699596 
731	 0.16637142381783 
732	 0.163185102260532 
733	 0.159957355706928 
734	 0.156931672005992 
735	 0.154297524253302 
736	 0.152069836348821 
737	 0.150360235660017 
738	 0.149166933274968 
739	 0.148415940339529 
740	 0.147911683857697 
741	 0.147061049874351 
742	 0.146165404265684 
743	 0.1458650283659 
744	 0.145525313535185 
745	 0.145184398976518 
746	 0.144847951409624 
747	 0.144388480910545 
748	 0.144147115941762 
749	 0.144023087407548 
750	 0.143823606571118 
751	 0.143440303570403 
752	 0.143217132990897 
753	 0.143055025435897 
754	 0.142651820802847 
755	 0.142235433306017 
756	 0.14192693749116 
757	 0.141685467739465 
758	 0.141158657348549 
759	 0.140446886146131 
760	 0.139915617630198 
761	 0.140014654373124 
762	 0.139586898665519 
763	 0.139843262166313 
764	 0.140300510138229 
765	 0.140317119277748 
766	 0.14080063606425 
767	 0.141345300897143 
768	 0.14171824353256 
769	 0.141817920322568 
770	 0.141833575609833 
771	 0.141873020898048 
772	 0.142022879842423 
773	 0.142360197743421 
774	 0.142899588560748 
775	 0.143276678413281 
776	 0.143182789077133 
777	 0.143632245374629 
778	 0.144072654349446 
779	 0.144360480927055 
780	 0.144857819937209 
781	 0.145261720963261 
782	 0.145808217314878 
783	 0.146518271915617 
784	 0.146689577209801 
785	 0.14706531918794 
786	 0.147646270505822 
787	 0.148179688465273 
788	 0.148650600507796 
789	 0.14916704859248 
790	 0.149847546238019 
791	 0.150778624729972 
792	 0.15173639259067 
793	 0.152435655701015 
794	 0.15284872012658 
795	 0.153308515599918 
796	 0.154201264685968 
797	 0.154983308515034 
798	 0.155216754418981 
799	 0.155601379041841 
800	 0.156228997435989 
801	 0.156962631587393 
802	 0.157510145183528 
803	 0.157596987941049 
804	 0.157865372069765 
805	 0.158337358736351 
806	 0.158318183008078 
807	 0.158079465131262 
808	 0.157975307470263 
809	 0.158049956357761 
810	 0.157458761465033 
811	 0.156609272254176 
812	 0.155924953279081 
813	 0.15566654677196 
814	 0.154657420774867 
815	 0.153283933951228 
816	 0.152346503183575 
817	 0.152409456607954 
818	 0.151366436175109 
819	 0.150140804895494 
820	 0.149121449823036 
821	 0.14779311096986 
822	 0.145441393480194 
823	 0.142825308740657 
824	 0.140688400930555 
825	 0.13849693053926 
826	 0.135614056739523 
827	 0.132126975768407 
828	 0.128758886767642 
829	 0.12595043363723 
830	 0.123508300758404 
831	 0.121402129731678 
832	 0.119753539803191 
833	 0.117633909991998 
834	 0.116030938117952 
835	 0.115314229120402 
836	 0.114814728374744 
837	 0.113859455725629 
838	 0.113044471915733 
839	 0.112625435030914 
840	 0.111148290329341 
841	 0.110337486687733 
842	 0.109999758207987 
843	 0.109454812522892 
844	 0.109424032813009 
845	 0.10888558498393 
846	 0.107825565391243 
847	 0.106989368298529 
848	 0.106840823201869 
849	 0.106572241247419 
850	 0.105802765369726 
851	 0.104921451543964 
852	 0.104524291186737 
853	 0.104084089858169 
854	 0.103326235671989 
855	 0.103024214085707 
856	 0.102712175024816 
857	 0.102289567462795 
858	 0.101826392426249 
859	 0.101656310060666 
860	 0.101151273798243 
861	 0.100546445041951 
862	 0.100340749538873 
863	 9.96803791921574E-02 
864	 9.94842618371176E-02 
865	 9.94748479867673E-02 
866	 9.83877149602751E-02 
867	 9.76084622837466E-02 
868	 9.70010922039866E-02 
869	 9.65016194858131E-02 
870	 0.096400436026441 
871	 0.095686154300055 
872	 9.49572433912147E-02 
873	 0.094677658325355 
874	 9.42067277979423E-02 
875	 9.33781134963965E-02 
876	 9.28464860617473E-02 
877	 9.29298508026144E-02 
878	 9.18034049968284E-02 
879	 9.04741486869867E-02 
880	 8.96643274033309E-02 
881	 8.96227389242784E-02 
882	 8.91067725082194E-02 
883	 8.85317923555684E-02 
884	 8.79994978943483E-02 
885	 8.73716224819549E-02 
886	 8.72561752337023E-02 
887	 8.63132107111584E-02 
888	 8.50135057165883E-02 
889	 8.58014868472327E-02 
890	 8.52437354543297E-02 
891	 8.40241298885907E-02 
892	 8.31322501502123E-02 
893	 8.26626649044539E-02 
894	 8.23140683693338E-02 
895	 8.16913700856082E-02 
896	 0.080630185796546 
897	 7.98151077560251E-02 
898	 7.89487154162844E-02 
899	 7.82149772664604E-02 
900	 7.79956080706184E-02 
901	 7.89307894334291E-02 
902	 7.84693559046496E-02 
903	 0.077768132506788 
904	 0.078487614539347 
905	 0.077389504676152 
906	 7.64374384663357E-02 
907	 7.58761692077894E-02 
908	 7.47280240254354E-02 
909	 7.39395060809004E-02 
910	 7.35351785182758E-02 
911	 7.32047001283701E-02 
912	 7.25166131848719E-02 
913	 7.19404542660159E-02 
914	 7.10416452354782E-02 
915	 6.97915455742512E-02 
916	 6.87152885568217E-02 
917	 6.79691931303455E-02 
918	 6.76970759784085E-02 
919	 6.76988899080558E-02 
920	 6.73969063379404E-02 
921	 6.61417718656615E-02 
922	 6.48445203927741E-02 
923	 6.38985394248653E-02 
924	 6.19090206998718E-02 
925	 6.09353604527822E-02 
926	 6.09965782199599E-02 
927	 0.060841179239224 
928	 0.057009207787772 
929	 5.64765549650132E-02 
930	 5.74736025239111E-02 
931	 5.44219128331879E-02 
932	 6.39448209616509E-02 
933	 5.93698393379127E-02 
934	 5.47289094469784E-02 
935	 7.02637345017449E-02 
936	 4.62448530578374E-02 
937	 5.10191163745195E-02 
938	 5.91880386413784E-02 
939	 3.80319251198447E-02 
940	 4.08006166931427E-02 
941	 4.43862652583166E-02 
942	 4.44661551242201E-02 
943	 4.54811827761597E-02 
944	 4.30491984917257E-02 
945	 3.62086819043615E-02 
946	 3.34817191553966E-02 
947	 0.041963133103697 
948	 3.30950591307993E-02 
949	 3.80796583294012E-02 
950	 5.09895640041647E-02 
951	 0.04820633881692 
952	 5.34944763068085E-02 
953	 5.03878380030317E-02 
954	 4.28807165303459E-02 
955	 4.59306687705175E-02 
956	 4.19272935566396E-02 
957	 3.97619190339132E-02 
958	 4.22914401840119E-02 
959	 4.60993433586022E-02 
960	 4.58767825572377E-02 
961	 4.59491032819222E-02 
962	 0.046422742998637 
963	 4.42381800254139E-02 
964	 3.84386450679896E-02 
965	 3.70430046492828E-02 
966	 3.98760727445922E-02 
967	 4.12615376312816E-02 
968	 4.10103527447496E-02 
969	 3.99259667432936E-02 
970	 4.03898428865871E-02 
971	 4.46093209728724E-02 
972	 4.30072809489578E-02 
973	 4.34338486918789E-02 
974	 4.56000263078245E-02 
975	 4.11862577625851E-02 
976	 0.039538108713929 
977	 3.99045557461987E-02 
978	 4.04441266075567E-02 
979	 0.04017209634329 
980	 0.043076495895356 
981	 4.37939282872277E-02 
982	 4.18779767110492E-02 
983	 4.11766986339523E-02 
984	 4.14271164079335E-02 
985	 4.31652285948948E-02 
986	 4.30019633300524E-02 
987	 3.70797102093785E-02 
988	 3.90813178233059E-02 
989	 4.28986627291342E-02 
990	 4.37859215274237E-02 
991	 4.11772872857386E-02 
992	 4.27655159795913E-02 
993	 0.044215219751096 
994	 4.38857044654806E-02 
995	 4.27069949324049E-02 
996	 3.96073169005031E-02 
997	 4.02261051619204E-02 
998	 4.24524177870394E-02 
999	 4.07876631421605E-02 
1000	 4.10142885124519E-02 
1001	 4.46250903624832E-02 
1002	 4.18517626572552E-02 
1003	 0.041132968910885 
1004	 3.98661002499055E-02 
1005	 3.98179200927554E-02 
1006	 4.18316823083651E-02 
1007	 4.25401842318205E-02 
1008	 4.38563297401395E-02 
1009	 4.52781749470567E-02 
1010	 4.51520621093188E-02 
1011	 4.42733604940307E-02 
1012	 4.37189700592773E-02 
1013	 4.34430053394922E-02 
1014	 4.36624654795673E-02 
1015	 4.59978720416795E-02 
1016	 4.63106769242806E-02 
1017	 4.52893952285271E-02 
1018	 4.48365758637846E-02 
1019	 4.29107923094608E-02 
1020	 4.26233180669207E-02 
1021	 0.043424718292193 
1022	 4.47080313510608E-02 
1023	 4.60910374921486E-02 
1024	 0.047860244564608 
1025	 4.83854532403981E-02 
1026	 4.86920190736678E-02 
1027	 4.87552370229433E-02 
1028	 4.77412031378129E-02 
1029	 4.77800987981917E-02 
1030	 4.88637203425354E-02 
1031	 4.84483088121639E-02 
1032	 4.80015821665278E-02 
1033	 4.70624800114762E-02 
1034	 4.31745383275369E-02 
1035	 0.042445414996558 
1036	 4.30322804018851E-02 
1037	 4.39980947783674E-02 
1038	 4.58091664914479E-02 
1039	 5.03591708172433E-02 
1040	 5.27404889079209E-02 
1041	 5.40797803867076E-02 
1042	 5.39483482552568E-02 
1043	 5.21004644429639E-02 
1044	 5.12023962870268E-02 
1045	 4.86913407237436E-02 
1046	 4.80803049166324E-02 
1047	 4.87234304000198E-02 
1048	 4.89744921182821E-02 
1049	 4.99135439029675E-02 
1050	 5.03601247971021E-02 
1051	 5.06039497018522E-02 
1052	 5.09911945953745E-02 
1053	 0.051282961065943 
1054	 5.15986705167807E-02 
1055	 5.21077867420319E-02 
1056	 5.24053596009588E-02 
1057	 5.26105806436425E-02 
1058	 5.27326457290537E-02 
1059	 5.27330789795629E-02 
1060	 5.25693547477503E-02 
1061	 5.24948961050113E-02 
1062	 0.052420828241319 
1063	 5.21459225378403E-02 
1064	 5.15935722320307E-02 
1065	 5.14569304602463E-02 
1066	 5.14160537217851E-02 
1067	 0.051304015592066 
1068	 0.050929964184183 
1069	 5.14572062482431E-02 
1070	 5.35651821469094E-02 
1071	 5.36743503317769E-02 
1072	 5.28141676725533E-02 
1073	 0.052672958827407 
1074	 5.23471128223843E-02 
1075	 0.050348961506039 
1076	 5.02254307976416E-02 
1077	 0.052099628549245 
1078	 5.22866745456783E-02 
1079	 5.15817311485723E-02 
1080	 5.16191216780205E-02 
1081	 5.20768393299501E-02 
1082	 5.16715211412935E-02 
1083	 5.05127337282467E-02 
1084	 5.06368745449283E-02 
1085	 5.12631994568991E-02 
1086	 5.11853334529386E-02 
1087	 5.20312090501485E-02 
1088	 5.21077960637185E-02 
1089	 5.05403761694584E-02 
1090	 4.92287119707025E-02 
1091	 4.89758778401771E-02 
1092	 4.97596723007436E-02 
1093	 0.049976598745455 
1094	 0.050825662263032 
1095	 5.06034116397013E-02 
1096	 0.049509763242202 
1097	 4.88276951124445E-02 
1098	 4.77212776197457E-02 
1099	 4.70584565583844E-02 
1100	 4.66236262686465E-02 
1101	 4.63880396725646E-02 
1102	 4.66460121697535E-02 
1103	 4.65217295914835E-02 
1104	 4.70993164183555E-02 
1105	 4.57271364934137E-02 
1106	 4.63731157149322E-02 
1107	 4.69690262146052E-02 
1108	 0.042757927485842 
1109	 4.36974610881846E-02 
1110	 4.44480994320751E-02 
1111	 4.32054965902563E-02 
1112	 4.40328652901072E-02 
1113	 0.052581669473446 
1114	 0.05395635128201 
1115	 4.88107335302433E-02 
1116	 4.90662906314866E-02 
1117	 0.047595942951323 
1118	 4.76820683639954E-02 
1119	 5.73068243090277E-02 
1120	 5.99038539034691E-02 
1121	 5.49056365208597E-02 
1122	 4.91060875741822E-02 
1123	 0.040619751790945 
1124	 0.050957438157805 
1125	 7.71241209497412E-02 
1126	 0.085116606054656 
1127	 8.79120845669951E-02 
1128	 6.63597720025754E-02 
1129	 5.51155496125253E-02 
1130	 3.91989449567598E-02 
1131	 4.05072515117916E-02 
1132	 4.68435968559834E-02 
1133	 5.06580887202842E-02 
1134	 6.87755969037613E-02 
1135	 6.38994299316698E-02 
1136	 3.58785270433506E-02 
1137	 3.45190433325402E-02 
1138	 3.98992667329174E-02 
1139	 0.04054098250902 
1140	 4.54203450595547E-02 
1141	 4.79083548025195E-02 
1142	 4.49319005348298E-02 
1143	 4.26459057990418E-02 
1144	 4.23716295929034E-02 
1145	 6.20969502929596E-02 
1146	 6.93600390461713E-02 
1147	 4.89156173261973E-02 
1148	 3.88221006028764E-02 
1149	 4.15035200703675E-02 
1150	 0.040761591853213 
1151	 4.47802050583965E-02 
1152	 4.52834880087435E-02 
1153	 4.47033427812038E-02 
1154	 4.30227318718342E-02 
1155	 4.01322313960086E-02 
1156	 4.13967206755014E-02 
1157	 3.86736927358434E-02 
1158	 3.28653304694061E-02 
1159	 3.21897576549818E-02 
1160	 3.40216171179438E-02 
1161	 3.68835471969471E-02 
1162	 3.77902822392937E-02 
1163	 3.73907370283927E-02 
1164	 3.71204959715906E-02 
1165	 3.63377352110641E-02 
1166	 3.79206048598157E-02 
1167	 3.93068956768273E-02 
1168	 3.80534060105797E-02 
1169	 3.66067621292416E-02 
1170	 3.56383215868157E-02 
1171	 3.54738386718778E-02 
1172	 3.59584995024431E-02 
1173	 3.64440657412768E-02 
1174	 3.80128831438994E-02 
1175	 3.79846863432415E-02 
1176	 3.69274185219213E-02 
1177	 3.66643837154928E-02 
1178	 3.75851750426509E-02 
1179	 3.84393820641722E-02 
1180	 3.91073536087194E-02 
1181	 3.83309254427755E-02 
1182	 3.59631138969078E-02 
1183	 3.54168359097151E-02 
1184	 3.57011899733992E-02 
1185	 3.56432782467031E-02 
1186	 3.69227028025845E-02 
1187	 3.70981229151562E-02 
1188	 3.61785487413367E-02 
1189	 3.63190939556802E-02 
1190	 3.70920035420849E-02 
1191	 0.037074287218038 
1192	 3.68319676882611E-02 
1193	 3.66112560688871E-02 
1194	 3.74821730006712E-02 
1195	 3.74063294975332E-02 
1196	 3.73682361965362E-02 
1197	 0.038241349481295 
1198	 3.75357502404108E-02 
1199	 3.68750685039442E-02 
1200	 3.72848928480319E-02 
1201	 3.77892940161112E-02 
1202	 0.038351719422201 
1203	 3.74461878984245E-02 
1204	 3.62301837317681E-02 
1205	 3.64939348231929E-02 
1206	 3.60324647579972E-02 
1207	 3.52384982154035E-02 
1208	 3.50344073811192E-02 
1209	 3.44229026113178E-02 
1210	 3.43898058037974E-02 
1211	 3.60121928950089E-02 
1212	 3.76603268600946E-02 
1213	 3.72918642018919E-02 
1214	 3.72331961295768E-02 
1215	 3.68092257048774E-02 
1216	 3.69315816842114E-02 
1217	 3.66122061438862E-02 
1218	 3.71852151995257E-02 
1219	 3.81065198576514E-02 
1220	 3.77713204449729E-02 
1221	 3.67862341805202E-02 
1222	 0.036815010412531 
1223	 3.66778504500109E-02 
1224	 3.59674631704913E-02 
1225	 3.68245382679801E-02 
1226	 3.77166241585021E-02 
1227	 3.68588921926781E-02 
1228	 3.53435239014599E-02 
1229	 3.50741967728521E-02 
1230	 3.53070680320962E-02 
1231	 3.51831356238646E-02 
1232	 3.65693428781366E-02 
1233	 3.75751621142137E-02 
1234	 3.65375408668577E-02 
1235	 3.64842215535968E-02 
1236	 3.75567509853809E-02 
1237	 3.79875477754877E-02 
1238	 3.81849552017409E-02 
1239	 3.81435527169342E-02 
1240	 3.79236430304636E-02 
1241	 3.69745774129058E-02 
1242	 0.036665817378973 
1243	 3.71128931673433E-02 
1244	 3.76117772459472E-02 
1245	 3.79562405176926E-02 
1246	 3.68400711838055E-02 
1247	 3.57631390744985E-02 
1248	 3.62749131880881E-02 
1249	 0.036239756274235 
1250	 3.56348993006339E-02 
1251	 3.61497353254936E-02 
1252	 3.66204268697655E-02 
1253	 3.65431524229207E-02 
1254	 3.77570933762343E-02 
1255	 3.84472846289663E-02 
1256	 3.82150217275662E-02 
1257	 3.62990921085396E-02 
1258	 3.59728689068503E-02 
1259	 3.55872165556358E-02 
1260	 3.55833968736452E-02 
1261	 3.70271056236079E-02 
1262	 3.72156134482092E-02 
1263	 3.66378965626795E-02 
1264	 3.64510211737175E-02 
1265	 0.037023624136539 
1266	 3.68141034756932E-02 
1267	 0.036754001857333 
1268	 3.72018788426619E-02 
1269	 3.69375244979907E-02 
1270	 3.63279976672658E-02 
1271	 3.63111594918589E-02 
1272	 3.69345904936621E-02 
1273	 3.77034411987091E-02 
1274	 3.75362421294684E-02 
1275	 3.62742572081668E-02 
1276	 3.53990459646702E-02 
1277	 3.49891689164082E-02 
1278	 3.48859383726499E-02 
1279	 3.59097319081463E-02 
1280	 3.68769475543239E-02 
1281	 3.72215949657993E-02 
1282	 3.68616954430199E-02 
1283	 3.69712483193779E-02 
1284	 3.67660961505072E-02 
1285	 3.68572222337075E-02 
1286	 3.73120875288677E-02 
1287	 3.74657011321052E-02 
1288	 3.81871597529691E-02 
1289	 3.79595466860779E-02 
1290	 3.71412989030096E-02 
1291	 3.57652575762105E-02 
1292	 3.48241065309763E-02 
1293	 3.49213186129018E-02 
1294	 3.53077323030887E-02 
1295	 3.48744030891285E-02 
1296	 3.50617612829539E-02 
1297	 0.035474208627236 
1298	 3.47677284603756E-02 
1299	 3.51085288255445E-02 
1300	 3.58072699610764E-02 
1301	 3.58119321448393E-02 
1302	 3.67892796163597E-02 
1303	 3.72287713565484E-02 
1304	 0.037015184893675 
1305	 3.67518500902431E-02 
1306	 3.66881590691208E-02 
1307	 3.71611179721352E-02 
1308	 3.75420065574764E-02 
1309	 3.78834142007012E-02 
1310	 3.77584530408095E-02 
1311	 3.69252845049542E-02 
1312	 3.70568246716445E-02 
1313	 3.83744905660022E-02 
1314	 3.83817960840507E-02 
1315	 3.77415924210419E-02 
1316	 3.74372861457286E-02 
1317	 3.63417068184388E-02 
1318	 3.53399923137642E-02 
1319	 3.48138744869367E-02 
1320	 3.43701565698262E-02 
1321	 3.41787746899987E-02 
1322	 3.26273229047609E-02 
1323	 3.17425443550537E-02 
1324	 0.032699722818356 
1325	 3.18856529412558E-02 
1326	 3.12145532601211E-02 
1327	 0.033120905257637 
1328	 3.51411751686971E-02 
1329	 3.50077032294051E-02 
1330	 3.63590019037796E-02 
1331	 3.78720464876367E-02 
1332	 3.43840439092599E-02 
1333	 3.07647692775201E-02 
1334	 2.89097313101016E-02 
1335	 2.83943974106521E-02 
1336	 2.52116096820275E-02 
1337	 2.67506442364145E-02 
1338	 3.83093734838476E-02 
1339	 3.80646458866724E-02 
1340	 2.71202102975477E-02 
1341	 2.82017776661181E-02 
1342	 3.26590912011971E-02 
1343	 0.032858160599444 
1344	 4.11309835295332E-02 
1345	 5.02663383448393E-02 
1346	 5.76402902135297E-02 
1347	 0.05630944174435 
1348	 4.18562758282316E-02 
1349	 5.12944550954674E-02 
1350	 6.58444268708009E-02 
1351	 7.58976397813394E-02 
1352	 0.193423851730426 
1353	 0.288287153464497 
1354	 0.234224881813705 
1355	 0.158611465020554 
1356	 0.134244303279615 
1357	-1.77481659929776E-02 
1358	-0.11193925656266 
1359	-0.136311693669634 
1360	-0.16744061575331 
1361	-0.148590423868861 
1362	 3.83808850703274E-02 
1363	 0.171217809593351 
1364	 8.29561789218608E-02 
1365	 0.186113288850691 
1366	 0.430876409201602 
1367	-1.51762868454169E-02 
1368	-0.135420944944353 
1369	-4.37766183051153E-02 
1370	 3.95801752695737E-02 
1371	 9.50490377804768E-02 
1372	 0.220081017240144 
1373	 0.446500565960833 
1374	 0.731861133605724 
1375	 0.697304751000567 
1376	 0.644753848506859 
1377	 0.746467270363492 
1378	 0.736763648520155 
1379	 0.382414126171182 
1380	 0.392450909341493 
1381	 1.04056084928641 
1382	 0.992185685484633 
1383	 0.312738914036206 
1384	 0.459675589895129 
1385	 1.36151778003231 
1386	 1.19484285379799 
1387	 0.24900830292551 
1388	 0.896907411882005 
1389	 0.851314447073128 
1390	-6.30625284957082E-02 
1391	 1.2256293404822 
1392	-6.10202918586812 
1393	-4.07936858932248 
1394	 2.05488246836879 
1395	 0.739763148014137 
1396	 0.447067967510872 
1397	 0.225990338477284 
1398	 8.13287361923453E-02 
1399	-0.1125460879298 
1400	 0.248474962614131 
1401	 0.36710991896427 
1402	 0.322369945096539 
1403	 0.902409318863432 
1404	 1.71184891109172 
1405	 1.95511967791745 
1406	 1.26739234102827 
1407	 1.58117444049123 
1408	 7.08337182965744 
1409	 5.05178877410081 
1410	 0.704785210458257 
1411	 1.26898386782012 
1412	 2.07839778170898 
1413	 1.17424384527505 
1414	 1.24553815494323 
1415	 1.31711274161954 
1416	 0.354649858140386 
1417	 0.101629815463008 
1418	 0.391646854462902 
1419	 0.406344194617254 
1420	-3.60035388770183E-02 
1421	-2.40738605166379E-02 
1422	 0.320907992933232 
1423	 0.344013736207078 
1424	 0.178207002586226 
1425	 0.240252471090073 
1426	 0.395435656992824 
1427	 0.372216488475553 
1428	 0.329849512900335 
1429	 0.312364233118481 
1430	 0.168862164199838 
1431	 8.87727414018412E-02 
1432	 0.131466010720323 
1433	 0.132901995525344 
1434	 7.21755210880982E-02 
1435	 3.37762227530132E-02 
1436	-2.71643638914005E-02 
1437	 3.35787090541434E-02 
1438	 0.132904386847263 
1439	 5.93193951796331E-02 
1440	-6.37857073757943E-02 
1441	 2.99419991806089E-02 
1442	 0.158074427562641 
1443	 0.113720658436777 
1444	 5.03480524744389E-02 
1445	 7.96578046467765E-02 
1446	 7.62483245172981E-02 
1447	 5.64523496365417E-02 
1448	 8.81221970516921E-02 
1449	 0.119139052386545 
1450	 0.103748740954102 
1451	 9.79893829913547E-02 
1452	 0.105495496174288 
1453	 8.42848996392304E-02 
1454	 7.15256013138125E-02 
1455	 0.052623216319796 
1456	 4.39427873350704E-02 
1457	 0.038810198772006 
1458	 3.59614550167087E-02 
1459	 0.031213592595584 
1460	 3.10341131309699E-02 
1461	 3.45335855688818E-02 
1462	 3.78049984729996E-02 
1463	 0.05051719803878 
1464	 4.77628772847588E-02 
1465	 3.15762773232961E-02 
1466	 3.67829855452219E-02 
1467	 4.05146052163392E-02 
1468	 4.40636428831198E-02 
1469	 7.75432027038963E-02 
1470	 0.074061338558121 
1471	 3.58497827310982E-02 
1472	 2.75536479029254E-02 
1473	 2.17736941823385E-02 
1474	 2.16738631154264E-02 
1475	 0.036855979643829 
1476	 3.74519441808548E-02 
1477	 3.05183252330138E-02 
1478	 3.05075694493363E-02 
1479	 3.18352630354408E-02 
1480	 2.75102672042198E-02 
1481	 2.15917931899594E-02 
1482	 2.31297583430133E-02 
1483	 2.38790996922197E-02 
1484	 2.30187277003018E-02 
1485	 2.74178226935649E-02 
1486	 3.04288052253417E-02 
1487	 3.00738276378874E-02 
1488	 2.89729703888569E-02 
1489	 2.85304376437891E-02 
1490	 2.94906734555271E-02 
1491	 2.98682877563465E-02 
1492	 2.85089256830014E-02 
1493	 2.81391207110114E-02 
1494	 2.81451394077846E-02 
1495	 2.52036791755394E-02 
1496	 2.55007266937256E-02 
1497	 3.08885202633764E-02 
1498	 3.08786224902845E-02 
1499	 2.65655976172261E-02 
1500	 2.59928718564243E-02 
1501	 2.64790190517885E-02 
1502	 0.026043208643678 
1503	 2.71549842250946E-02 
1504	 0.027554249748107 
1505	 2.68308619244887E-02 
1506	 2.50965561642478E-02 
1507	 0.02444222643226 
1508	 2.49350187975122E-02 
1509	 2.68535693730984E-02 
1510	 2.80396350878204E-02 
1511	 2.92735536462591E-02 
1512	 3.05976190857037E-02 
1513	 2.83780333352636E-02 
1514	 2.75254912772154E-02 
1515	 0.028028148450012 
1516	 0.02631459320751 
1517	 2.79392966569203E-02 
1518	 2.81580619068157E-02 
1519	 2.49139506255573E-02 
1520	 0.025421239254218 
1521	 2.65201182667426E-02 
1522	 2.60175362641278E-02 
1523	 2.60068862433971E-02 
1524	 2.67491609404321E-02 
1525	 2.78667896173152E-02 
1526	 2.84689442823246E-02 
1527	 2.83968798418658E-02 
1528	 2.79574744471035E-02 
1529	 2.84155740083034E-02 
1530	 2.83467442179319E-02 
1531	 2.68949247602202E-02 
1532	 2.71302860786621E-02 
1533	 2.85322140399162E-02 
1534	 2.85507879755845E-02 
1535	 2.85899838307643E-02 
1536	 2.97253196389642E-02 
1537	 2.97996427407852E-02 
1538	 2.91656411611844E-02 
1539	 2.97412681685416E-02 
1540	 3.03957600047356E-02 
1541	 2.96597890241555E-02 
1542	 2.89040786004692E-02 
1543	 2.86662576350398E-02 
1544	 2.83862984655898E-02 
1545	 2.86977877750069E-02 
1546	 2.84655571997906E-02 
1547	 2.72725316446964E-02 
1548	 2.67269936614292E-02 
1549	 2.76536714645931E-02 
1550	 2.80362889723379E-02 
1551	 2.78637810314855E-02 
1552	 2.96526744218085E-02 
1553	 3.07897844514062E-02 
1554	 3.03847129284249E-02 
1555	 2.95218371524325E-02 
1556	 2.87810231900313E-02 
1557	 2.89529775669749E-02 
1558	 2.87786249064253E-02 
1559	 3.01364447593746E-02 
1560	 3.14678413384959E-02 
1561	 0.030398998863957 
1562	 2.99772758767429E-02 
1563	 2.94144987371846E-02 
1564	 0.029026773632953 
1565	 3.07089057638542E-02 
1566	 0.030933844289093 
1567	 2.89635895901142E-02 
1568	 2.88968290148344E-02 
1569	 3.00203504174733E-02 
1570	 2.93771483022842E-02 
1571	 2.95551347763975E-02 
1572	 3.10182957305565E-02 
1573	 3.14944995984657E-02 
1574	 3.17560617969124E-02 
1575	 3.18232073824825E-02 
1576	 3.12704585055463E-02 
1577	 3.02254224532121E-02 
1578	 2.96859709211904E-02 
1579	 3.02284072233716E-02 
1580	 3.10170631921516E-02 
1581	 3.16818014704979E-02 
1582	 3.17649039029719E-02 
1583	 3.12183476248565E-02 
1584	 3.12033768375949E-02 
1585	 3.18468324245475E-02 
1586	 3.21569079880854E-02 
1587	 3.23631348461024E-02 
1588	 3.33390209791791E-02 
1589	 3.37490352639507E-02 
1590	 3.20808275554353E-02 
1591	 3.12105759052153E-02 
1592	 3.19043791728365E-02 
1593	 3.11652965136869E-02 
1594	 3.08707950826933E-02 
1595	 3.22118500517221E-02 
1596	 3.23168873073868E-02 
1597	 0.03206276335547 
1598	 3.16249677055027E-02 
1599	 2.97014660954379E-02 
1600	 2.96362357324323E-02 
1601	 3.08670326987985E-02 
1602	 3.04450503906928E-02 
1603	 3.10625416980779E-02 
1604	 3.08715953680163E-02 
1605	 2.90323087801415E-02 
1606	 2.98501157978262E-02 
1607	 0.030084517670447 
1608	 2.84759963215008E-02 
1609	 2.91168206875219E-02 
1610	 0.030312185976424 
1611	 2.95435761861195E-02 
1612	 2.91416177888131E-02 
1613	 2.88831206021185E-02 
1614	 2.80617513969499E-02 
1615	 2.93614985103174E-02 
1616	 3.12890452558418E-02 
1617	 3.10496324120561E-02 
1618	 2.91116056374078E-02 
1619	 2.82571667415128E-02 
1620	 2.86461803730559E-02 
1621	 2.83589651071444E-02 
1622	 2.95633602118125E-02 
1623	 3.13132215969884E-02 
1624	 3.01618824758281E-02 
1625	 2.87386173824524E-02 
1626	 2.93808413023868E-02 
1627	 3.00523549286907E-02 
1628	 3.00746417694306E-02 
1629	 3.07791611029394E-02 
1630	 3.11133720804379E-02 
1631	 3.02655154998434E-02 
1632	 3.01688896183644E-02 
1633	 3.06494209180333E-02 
1634	 2.98692196260012E-02 
1635	 2.79332012336498E-02 
1636	 2.68368467371637E-02 
1637	 2.84163692550488E-02 
1638	 0.03090436046075 
1639	 0.031903337891359 
1640	 3.21677054798583E-02 
1641	 3.05565077022549E-02 
1642	 2.94640641520961E-02 
1643	 3.07149638670526E-02 
1644	 3.06683968096184E-02 
1645	 3.04539435660121E-02 
1646	 2.95674395788978E-02 
1647	 2.84322360902639E-02 
1648	 0.029451922154668 
1649	 3.17426850831714E-02 
1650	 3.32620180957138E-02 
1651	 3.15436179562584E-02 
1652	 3.09211570929786E-02 
1653	 3.08445467543039E-02 
1654	 3.01932326926334E-02 
1655	 3.12489931861235E-02 
1656	 3.08692676543942E-02 
1657	 2.82129231708528E-02 
1658	 2.82184115359832E-02 
1659	 2.95450575929553E-02 
1660	 2.95800831120948E-02 
1661	 3.06628449724381E-02 
1662	 2.99601093574979E-02 
1663	 2.74247174483406E-02 
1664	 2.77030689618556E-02 
1665	 2.75575037286718E-02 
1666	 2.80748348156018E-02 
1667	 3.14216524025336E-02 
1668	 3.04721949301503E-02 
1669	 3.08863475967854E-02 
1670	 0.031565072143444 
1671	 3.14173603055853E-02 
1672	 3.13405153776179E-02 
1673	 3.10990815315609E-02 
1674	 0.03108613515857 
1675	 2.95143039156311E-02 
1676	 2.84979309575751E-02 
1677	 2.89564858412118E-02 
1678	 2.88915664705916E-02 
1679	 2.90527522691987E-02 
1680	 2.98933490447599E-02 
1681	 3.11026588952457E-02 
1682	 3.17336597700487E-02 
1683	 3.21035541563984E-02 
1684	 3.28763147809534E-02 
1685	 3.35552972422112E-02 
1686	 0.033889233022985 
1687	 3.34030889611105E-02 
1688	 3.23753047338792E-02 
1689	 3.17354053031228E-02 
1690	 3.13044979559122E-02 
1691	 3.25302145797787E-02 
1692	 3.48316499680845E-02 
1693	 3.59546132397594E-02 
1694	 3.69304596608806E-02 
1695	 3.66116043205106E-02 
1696	 0.03622675350273 
1697	 3.62335652723779E-02 
1698	 3.45347719345256E-02 
1699	 3.27479881730101E-02 
1700	 0.030723244549324 
1701	 0.029089169383402 
1702	 2.91680089413364E-02 
1703	 3.01576590433152E-02 
1704	 3.08948406806177E-02 
1705	 2.99961638653635E-02 
1706	 2.92891521622691E-02 
1707	 3.10584890337404E-02 
1708	 3.19658506824303E-02 
1709	 3.02309244169808E-02 
1710	 2.91020230325622E-02 
1711	 2.95119876834341E-02 
1712	 2.89521532753208E-02 
1713	 2.92634341467088E-02 
1714	 3.01103424147052E-02 
1715	 0.02660451721646 
1716	 2.99740328318635E-02 
1717	 3.37223760492309E-02 
1718	 3.11159830720874E-02 
1719	 2.97327127313904E-02 
1720	 3.03142828396138E-02 
1721	 2.84258507295275E-02 
1722	 2.81597773230086E-02 
1723	 3.03819302786815E-02 
1724	 2.99100643987081E-02 
1725	 2.79095432913603E-02 
1726	 2.71345971670572E-02 
1727	 2.75613911555848E-02 
1728	 2.90747429199375E-02 
1729	 3.11227290333228E-02 
1730	 3.05028628897243E-02 
1731	 3.00506519488608E-02 
1732	 3.00943004694391E-02 
1733	 2.82532897445516E-02 
1734	 3.06365809864079E-02 
1735	 3.33619003664123E-02 
1736	 2.95336522353312E-02 
1737	 2.51562214950092E-02 
1738	 2.58704489961858E-02 
1739	 0.0277615346362 
1740	 3.03494333511792E-02 
1741	 3.43375730743251E-02 
1742	 3.07808064947435E-02 
1743	 0.025037411681914 
1744	 2.57081068715324E-02 
1745	 2.64727691920119E-02 
1746	 0.034008994409742 
1747	 3.57457033033282E-02 
1748	 0.029809977187006 
1749	 0.029667520988233 
1750	 3.11204124786409E-02 
1751	 3.07335975677651E-02 
1752	 3.50021943854241E-02 
1753	 3.61045446381978E-02 
1754	 3.12165136815351E-02 
1755	 2.98595473146462E-02 
1756	 2.82975886756495E-02 
1757	 2.89839638678757E-02 
1758	 3.33573439088351E-02 
1759	 3.55782389736026E-02 
1760	 3.54494736689462E-02 
1761	 0.028256940978283 
1762	 2.24002432874005E-02 
1763	 2.48206414801144E-02 
1764	 2.40054895621352E-02 
1765	 2.70292415500109E-02 
1766	 0.036989044682163 
1767	 3.43747405411577E-02 
1768	 3.29247916605681E-02 
1769	 3.72462635655248E-02 
1770	 3.07271198060298E-02 
1771	 2.64499078657443E-02 
1772	 2.85987055908503E-02 
1773	 2.99972819820979E-02 
1774	 3.04951834666784E-02 
1775	 3.56238227052405E-02 
1776	 3.84793737831274E-02 
1777	 3.92641502010206E-02 
1778	 3.92259060577975E-02 
1779	 3.65529436755263E-02 
1780	 3.55468239785702E-02 
1781	 3.36222497294605E-02 
1782	 3.31413301519407E-02 
1783	 3.53220433484798E-02 
1784	 3.60565773001032E-02 
1785	 3.56208388162642E-02 
1786	 3.47047095376612E-02 
1787	 3.63561091128419E-02 
1788	 3.54387166119507E-02 
1789	 2.70471858420569E-02 
1790	 2.40541535140809E-02 
1791	 0.034273424896565 
1792	 5.03631433269742E-02 
1793	 6.51295526426073E-02 
1794	 5.58968832836259E-02 
1795	 3.49079732475003E-02 
1796	 3.88393553950793E-02 
1797	 0.04306893372757 
1798	 6.56319549962997E-02 
1799	 7.56884338417919E-02 
1800	-0.055400481932577 
1801	-7.15541337341293E-02 
1802	 0.137872360919013 
1803	 0.187100347237026 
1804	 0.275469488673496 
1805	 0.30655858618499 
1806	-5.01958542060122E-02 
1807	-0.149639911420594 
1808	-4.97894427372115E-02 
1809	 3.28629069614066E-02 
1810	 0.614248340112032 
1811	 0.916745765043165 
1812	 0.582507586325433 
1813	 0.589226450929912 
1814	 0.106704683045085 
1815	 0.125939618090049 
1816	 0.510726197372626 
1817	 0.388628428690695 
1818	 0.343003884867477 
1819	 0.70771298450496 
1820	 2.50968179963611 
1821	-2.10731156784479 
1822	-1.69668642506313 
1823	 1.8345329438135 
1824	-0.12663416589097 
1825	-0.523325453884448 
1826	-0.338634971935908 
1827	 1.05392937683692 
1828	 1.73591576531119 
1829	 1.29451827985874 
1830	 1.4565038188607 
1831	 1.51846471299557 
1832	 1.55829568589748 
1833	 0.769054133371299 
1834	 1.27675245955002 
1835	 4.16338509594778 
1836	-3.81091316021639 
1837	-1.49735430695105 
1838	-1.07451171935268 
1839	-0.358612211304545 
1840	 0.361022992830174 
1841	 0.605178851342233 
1842	 0.947282526190826 
1843	 0.914426993355407 
1844	-0.222847361080371 
1845	-0.331133432306399 
1846	-3.83293746607823E-02 
1847	-1.64280805686583E-02 
1848	 0.184426557407178 
1849	 52.3285305038069 
1850	-0.549887011234897 
1851	-0.122908623308047 
1852	-0.311594986987627 
1853	-0.374978899856759 
1854	-0.370601075428717 
1855	 0.566795940020391 
1856	 0.510092435061215 
1857	-5.88003426108956E-03 
1858	 0.304167372641304 
1859	 0.157377294342641 
1860	 0.399799973914008 
1861	 0.91275504337107 
1862	 1.02327831105542 
1863	 1.16891126339383 
1864	 1.2631657643717 
1865	 0.882551220840134 
1866	-0.727624344235811 
1867	-1.94062677974965 
1868	 0.118428240128082 
1869	 0.555475874196015 
1870	 1.04391328273334 
1871	 4.28022643959001 
1872	 4.29443874246019 
1873	-7.82765859495738 
1874	-2.19604509803364 
1875	-1.88527525837451 
1876	-1.46537928929131 
1877	-1.19484108546678 
1878	-1.23407235679523 
1879	-1.70650341430696 
1880	-1.28861820229066 
1881	-0.357027938087585 
1882	 2.21009926830493 
1883	-1.81162211787919 
1884	 4.08818742186361 
1885	 2.12884694040558 
1886	 2.73494362408386 
1887	 7.77767108891669 
1888	-1.20196144223517 
1889	-0.446509078780033 
1890	 1.36614808786963 
1891	 2.26334412454647 
1892	 0.893948610116387 
1893	 0.88677417560364 
1894	 0.188059601678706 
1895	 0.152922920346206 
1896	-15.5338355204164 
1897	 4.28507937742891 
1898	 2.56613779815055 
1899	 1.67135051897205 
1900	 1.18290335682265 
1901	 0.953490602236779 
1902	 0.349106963425499 
1903	-1.1502257780975 
1904	-1.55817617765053 
1905	-1.51616234763547 
1906	-4.37963826619557 
1907	-3.85136643110461 
1908	-1.73896223875749 
1909	-2.83092439120428 
1910	-2.06889998264463 
1911	-0.558701587968054 
1912	 2.48444107971715 
1913	 0.38493221969092 
1914	-3.80324779956383 
1915	 12.7361810112404 
1916	 9.68759277704202 
1917	 1.22345028124165 
1918	-0.520884932203421 
1919	 13.4466394766194 
1920	 4.23786609986289 
1921	-0.792565954019757 
1922	-4.14537355999757 
1923	 4.03398801869292 
1924	-1.21357376204734 
1925	-1.18078607873343 
1926	-2.72811377518919 
1927	 3.49179094612006 
1928	-7.54767281115539 
1929	 6.44281870027937 
1930	 1.95547910769853 
1931	 44.2442181582212 
1932	-1.39906884958722 
1933	-0.55124700368729 
1934	-0.185371538881955 
1935	-8.23752452482836E-02 
1936	 0.171291029239761 
1937	 0.311013085007359 
1938	 0.395671859056631 
1939	 0.562539534808378 
1940	 0.845083748241397 
1941	 1.28248511641449 
1942	 1.69810750534786 
1943	 1.58871099784699 
1944	 25.926687290094 
1945	-1.11717223284017 
1946	-0.125146373677745 
1947	 0.252248920578803 
1948	 0.606008377677342 
1949	 0.4175063375998 
1950	-0.895867912478953 
1951	 2.92629465814895 
1952	 1.45777841549403 
1953	 1.11726786085559 
1954	 1.06620678241363 
1955	 0.530085022707811 
1956	 0.10320577114244 
1957	-8.24027576097059E-02 
1958	-6.48094154833572E-02 
1959	-0.111991682337107 
1960	-0.135966944894247 
1961	-0.077903285311595 
1962	-3.27103182853778E-02 
1963	 6.73541996021374E-02 
1964	 0.126689989909549 
1965	 0.104901872230279 
1966	 8.58562193297241E-02 
1967	 4.02367931202409E-02 
1968	 7.01189924359577E-03 
1969	-1.16458308431144E-02 
1970	-1.63294633578293E-02 
1971	-6.52661015683235E-03 
1972	-1.61076436316722E-02 
1973	 1.20789621034296E-02 
1974	 3.86952361205682E-02 
1975	 3.51588012639637E-02 
1976	 0.045130351437588 
1977	 1.28826609843796E-02 
1978	-1.42519830448072E-02 
1979	-1.36618636817427E-02 
1980	 4.58525547600413E-03 
1981	 4.04380211079559E-03 
1982	 1.95730007746417E-02 
1983	 3.70435643201928E-02 
1984	 2.13537519506777E-02 
1985	 9.2914476737742E-03 
1986	 1.49826583966095E-02 
1987	 1.31600279162659E-02 
1988	 2.36411496690442E-02 
1989	 0.039909616042255 
1990	 4.15113511271766E-02 
1991	 0.042113553377553 
1992	 4.15346339532557E-02 
1993	 4.32359588071039E-02 
1994	 3.80245329828424E-02 
1995	 3.51177942878312E-02 
1996	 1.30300760689683E-02 
1997	-7.22502209599026E-03 
1998	-5.84321764090576E-03 
1999	-7.37975497146399E-03 
2000	 3.13449684969945E-03 
2001	 1.34755483696889E-02 
2002	-9.67655532087979E-03 
2003	 8.58868408650549E-03 
2004	 5.28116691988442E-02 
2005	 8.77592339085435E-02 
2006	 0.130516436885794 
2007	 0.130474021066539 
2008	 0.101997706691096 
2009	 7.69203983103768E-02 
2010	 0.030224959693508 
2011	 1.60692404120173E-02 
2012	 4.68430852195897E-03 
2013	 1.83341096740161E-02 
2014	 0.02222968965001 
2015	 1.47125943520438E-02 
2016	 6.38164607581716E-03 
2017	-3.92741330681546E-02 
2018	-6.17711537498029E-02 
2019	-5.49425917488495E-02 
2020	-3.46193474748244E-02 
2021	-1.96605074572903E-02 
2022	 1.14058083419283E-03 
2023	 2.11081292953958E-02 
2024	 2.02796932217729E-02 
2025	-7.52891856918829E-03 
2026	-5.49824964671239E-03 
2027	 2.55137516675173E-03 
2028	 6.2178584821709E-03 
2029	 0.014574916878072 
2030	 3.15220000161586E-02 
2031	 2.97563747041591E-02 
2032	 2.29832177143937E-02 
2033	 2.35472919051642E-02 
2034	 1.44112193044546E-02 
2035	 8.07123720877197E-03 
2036	 2.27844634689129E-03 
2037	 3.70188643149663E-03 
2038	 1.31605585241874E-02 
2039	 1.31410976821142E-02 
2040	 9.8064369486816E-03 
2041	 0.013648849605282 
2042	 1.47602687226162E-02 
2043	 0.016601104459398 
2044	 2.74396631629813E-02 
2045	 3.46207452768343E-02 
2046	 3.15735845684857E-02 
2047	 2.64849207557711E-02 
2048	 2.10271386316045E-02 
2049	 2.26243728983759E-02 
2050	 2.41320902704418E-02 
2051	 2.04621118017758E-02 
2052	 2.05692289812732E-02 
2053	 2.66045034773423E-02 
2054	 2.23758106570488E-02 
2055	 1.38695968485331E-02 
2056	 1.24626899031067E-02 
2057	 9.99062370032086E-03 
2058	 5.05495547916069E-03 
2059	 4.36119385039601E-03 
2060	 8.45796729539445E-03 
2061	 1.23630773589807E-02 
2062	 1.42024221274152E-02 
2063	 1.83839529326332E-02 
2064	 0.01926063590069 
2065	 1.76969759344417E-02 
2066	 3.47136551131201E-02 
2067	 4.92401171049331E-02 
2068	 5.49169602096992E-02 
2069	 5.41762945908739E-02 
2070	 2.38813179559222E-02 
2071	 9.27501665857078E-03 
2072	 7.50744588067374E-03 
2073	 4.23929367281669E-03 
2074	 9.82170149745169E-03 
2075	 1.66318622167024E-02 
2076	 0.022723214254108 
2077	 2.65666254131911E-02 
2078	 3.23297607886602E-02 
2079	 3.35248275606432E-02 
2080	 2.96559833139514E-02 
2081	 3.11823895040576E-02 
2082	 3.43988871545987E-02 
2083	 3.47929304205918E-02 
2084	 0.029596100783378 
2085	 0.027789345475284 
2086	 2.77762327617458E-02 
2087	 3.13388566987297E-02 
2088	 3.74591710462721E-02 
2089	 3.85549410433727E-02 
2090	 3.94408575773934E-02 
2091	 3.76136938621372E-02 
2092	 3.61079599395687E-02 
2093	 3.54990163739797E-02 
2094	 3.35416579459612E-02 
2095	 3.09898250292729E-02 
2096	 2.77388957359681E-02 
2097	 2.41557916437732E-02 
2098	 2.02212267247104E-02 
2099	 1.46419093739512E-02 
2100	 5.99715202475739E-03 
2101	 1.20565943657894E-02 
2102	 1.77148121638221E-02 
2103	 2.27642022050279E-02 
2104	 2.55169699701022E-02 
2105	 2.26742070345556E-02 
2106	 2.13263574551699E-02 
2107	 2.12541479537068E-02 
2108	 0.02807773422344 
2109	 0.032364197114695 
2110	 3.07742858687435E-02 
2111	 2.86512159094741E-02 
2112	 2.47803121422234E-02 
2113	 2.31451465289237E-02 
2114	 1.95119073977181E-02 
2115	 1.77018761776734E-02 
2116	 2.15717253375451E-02 
2117	 2.28166597926422E-02 
2118	 2.30456818766582E-02 
2119	 2.16572168560307E-02 
2120	 2.29617938596428E-02 
2121	 1.13657357586203E-02 
2122	 1.77887523563345E-03 
2123	 5.12246270215048E-03 
2124	 8.85350261353703E-03 
2125	 9.08777733966337E-03 
2126	 1.25061396903959E-02 
2127	 1.41280147538068E-02 
2128	 0.011505830299974 
2129	 1.36925438032543E-02 
2130	 1.88108123446947E-02 
2131	 2.03352973310352E-02 
2132	 1.60420940665499E-02 
2133	 1.32095718205241E-02 
2134	 1.33783157228772E-02 
2135	 1.13656625595414E-02 
2136	 1.26748503854677E-02 
2137	 1.89869367116188E-02 
2138	 2.54016580072974E-02 
2139	 0.035362374449567 
2140	 3.84118200389135E-02 
2141	 4.22634037301804E-02 
2142	 4.35169755576279E-02 
2143	 3.89718929145506E-02 
2144	 3.20301298659909E-02 
2145	 3.02494154273641E-02 
2146	 2.74428707487691E-02 
2147	 2.79586551676158E-02 
2148	 2.75268533271137E-02 
2149	 2.87276944020726E-02 
2150	 2.78116183728827E-02 
2151	 2.09349855972466E-02 
2152	 1.84011096962815E-02 
2153	 1.77418926499167E-02 
2154	 2.52706597637809E-02 
2155	 2.76040346980925E-02 
2156	 2.46061250970207E-02 
2157	 2.54282001642973E-02 
2158	 2.32992278211994E-02 
2159	 2.28467662656434E-02 
2160	 2.63531549298812E-02 
2161	 2.71918202912195E-02 
2162	 2.50119524581277E-02 
2163	 2.33192220771353E-02 
2164	 2.06057189303751E-02 
2165	 2.52842819119974E-02 
2166	 3.77562472377994E-02 
2167	 4.16025738119013E-02 
2168	 4.16404963425449E-02 
2169	 4.36611105547274E-02 
2170	 4.36677468979539E-02 
2171	 4.23213972035447E-02 
2172	 3.44095487767223E-02 
2173	 3.54588030474548E-02 
2174	 3.26076014456622E-02 
2175	 1.89062730730178E-02 
2176	 0.016147733207575 
2177	 1.98717570376776E-02 
2178	 2.46852957402357E-02 
2179	 3.18544737557659E-02 
2180	 3.14266449737496E-02 
2181	 3.44859592357492E-02 
2182	 3.79627596866848E-02 
2183	 0.027140660320666 
2184	 2.18673438563987E-02 
2185	 2.63507920116067E-02 
2186	 2.25769423488066E-02 
2187	 1.09801940742081E-02 
2188	 6.46677633274349E-03 
2189	-4.04707868885051E-03 
2190	-1.9552363431766E-03 
2191	 1.21397895818826E-02 
2192	 2.39177311902017E-02 
2193	 5.44068408117544E-02 
2194	 5.97677689784894E-02 
2195	 4.13599487639156E-02 
2196	 3.59204362564957E-02 
2197	 2.40078850319435E-02 
2198	 1.90543651052839E-02 
2199	 2.26650935612586E-02 
2200	 3.52466708510705E-02 
2201	 3.00696241075876E-02 
2202	 1.85290019576752E-02 
2203	 0.016136669234824 
2204	 5.72416403762022E-03 
2205	 3.92252550851311E-03 
2206	 1.48375082710875E-02 
2207	 2.35312092512587E-02 
2208	 3.33568526475995E-02 
2209	 4.62282527943978E-02 
2210	 4.27262726747339E-02 
2211	 0.028386271110291 
2212	 2.60296338420666E-02 
2213	 0.011714781017584 
2214	-3.33347584271384E-03 
2215	 5.35205354103978E-03 
2216	 7.01569496657535E-03 
2217	 7.03210743927232E-03 
2218	 1.67396545119086E-02 
2219	 1.34270744313403E-02 
2220	-7.7423859023448E-03 
2221	-1.14423776160533E-02 
2222	-1.47527601664585E-02 
2223	-8.49645832200047E-03 
2224	 1.52090668665414E-02 
2225	 2.39585151210679E-02 
2226	 3.51281991067502E-02 
2227	 4.02886860651986E-02 
2228	 2.71739213803898E-02 
2229	 2.87866714829939E-02 
2230	 4.17454904917803E-02 
2231	 4.12486236986635E-02 
2232	 3.93758458488678E-02 
2233	 4.32584178774024E-02 
2234	 4.66377042606752E-02 
2235	 3.70923327134836E-02 
2236	 3.65346734971914E-02 
2237	 4.46303898289697E-02 
2238	 3.38209495565782E-02 
2239	 2.20578977414879E-02 
2240	 3.05729783004389E-02 
2241	 0.026741256032518 
2242	 3.08576111833069E-02 
2243	 0.038680488818134 
2244	 0.019494597804476 
2245	-6.78973854469091E-04 
2246	-1.68828099531536E-02 
2247	-0.017673240035999 
2248	 3.02495121348137E-03 
2249	 3.07995881518259E-02 
2250	 4.58598442287649E-02 
2251	 3.51005219693021E-02 
2252	 2.54253885305969E-02 
2253	 1.38953723852343E-02 
2254	 1.20869879281086E-02 
2255	 2.73409993254497E-02 
2256	 2.95997198913787E-02 
2257	 2.28879997076847E-02 
2258	 1.52704829964589E-02 
2259	 1.09897908055773E-02 
2260	 8.57026160339865E-03 
2261	 5.73089331664576E-03 
2262	 1.45547296066077E-02 
2263	 3.04199481163435E-02 
2264	 3.95451260368158E-02 
2265	 6.38219103360893E-02 
2266	 7.32223126959957E-02 
2267	 0.063292142610987 
2268	 0.076284248688864 
2269	 0.107793940459871 
2270	 0.107010145778798 
2271	 9.84223832749868E-02 
2272	 8.90275369121913E-02 
2273	 0.051728701638119 
2274	 3.37246485888307E-02 
2275	 3.11217707565107E-02 
2276	 0.023537874529984 
2277	 1.17260279225229E-02 
2278	-1.78640411976744E-05 
2279	 4.13104928753554E-03 
2280	-5.59970525794776E-03 
2281	-2.89522946043018E-02 
2282	-5.07822736741733E-02 
2283	-6.10737864972212E-02 
2284	-7.21854116700921E-02 
2285	-5.82098086654803E-02 
2286	-2.71509779398941E-02 
2287	-1.75948058185754E-02 
2288	-0.034922751411793 
2289	-0.028496330800994 
2290	-0.024634979121216 
2291	-1.08399033827264E-02 
2292	 2.21814230018605E-02 
2293	 1.31555724774881E-02 
2294	 1.31674550917886E-02 
2295	 0.027003392273109 
2296	 4.93185599771272E-02 
2297	 7.53676676562291E-02 
2298	 8.39291485193413E-02 
2299	 7.50044521006687E-02 
2300	 0.042697728062964 
2301	 0.034966382733805 
2302	 3.69907431255302E-02 
2303	 1.89989314717093E-02 
2304	 1.18324001967768E-02 
2305	 2.70189393659179E-02 
2306	 2.20431909777645E-02 
2307	 1.48674945657279E-02 
2308	 2.96345515226073E-02 
2309	 2.94703648656817E-02 
2310	 2.79274719976316E-02 
2311	 6.16062194864497E-02 
2312	 8.91546117542202E-02 
2313	 8.59612352205287E-02 
2314	 8.04396447854693E-02 
2315	 5.86095520628834E-02 
2316	 3.15406337019894E-03 
2317	-5.49684405193182E-02 
2318	-5.34531728900981E-02 
2319	-3.71943814020951E-02 
2320	-3.50762982998958E-02 
2321	-1.95670138922581E-02 
2322	-1.47381594933989E-02 
2323	 2.06721664091006E-03 
2324	 2.12293285203752E-02 
2325	 5.53977641353802E-02 
2326	 0.051261129293782 
2327	 5.19525162886527E-03 
2328	-1.98835659155134E-03 
2329	-3.94448921033638E-02 
2330	-6.65609430608218E-02 
2331	-4.63004427551725E-02 
2332	-2.68130748028873E-02 
2333	 1.27584930994292E-02 
2334	 3.77833182660348E-02 
2335	 0.029328428739872 
2336	-2.31326220661737E-02 
2337	-4.95714418152535E-02 
2338	-1.75925859222278E-02 
2339	-4.29819915787291E-02 
2340	-9.41425393075808E-02 
2341	-0.101960199305843 
2342	-8.30034007567425E-02 
2343	-0.111073778759411 
2344	-9.94147145671842E-02 
2345	-6.39467853647452E-02 
2346	-7.43596899621327E-02 
2347	-2.82242658370332E-02 
2348	 5.86645651026763E-02 
2349	 0.163384095817588 
2350	 0.156465447381816 
2351	 0.201569543829161 
2352	 0.286169253746035 
2353	 0.27921152781075 
2354	 0.225071403534761 
2355	 0.12697942982208 
2356	 4.59848182798781E-02 
2357	-2.41470070394074E-02 
2358	-1.31461920373455E-02 
2359	 2.65414812825876E-02 
2360	 7.06752548941418E-03 
2361	 3.20780122556273E-02 
2362	 5.62770161845218E-02 
2363	 9.72703241371559E-02 
2364	 0.10398275660025 
2365	-6.32880804219742E-02 
2366	-0.230065503566246 
2367	-0.202773824826478 
2368	-0.400698820203823 
2369	-1.02020845085076 
2370	-2.84810601853067 
2371	-2.83420593177776 
2372	-3.1790196132402 
2373	-2.488397255746 
2374	-1.23139901608029 
2375	-0.362269655260927 
2376	 0.129873546561052 
2377	 0.493328665490757 
2378	 0.73337144756864 
2379	 0.851731850953203 
2380	 0.85624293356241 
2381	 0.662930275103441 
2382	 0.658676085028009 
2383	 0.419665102839556 
2384	 0.23612456040644 
2385	 0.265599286200218 
2386	 0.188215780229489 
2387	 5.59395220747051E-02 
2388	 3.48489362594174E-02 
2389	 0.03343731100058 
2390	 0.231674100654513 
2391	 0.432160580364043 
2392	 0.522916497344314 
2393	 0.592682779096876 
2394	 0.40763398827488 
2395	 3.78476822574092E-02 
2396	-3.98653352393331E-02 
2397	-9.70813910671739E-02 
2398	-0.510456118639295 
2399	-0.722445431824358 
2400	-0.825998089130918 
2401	-0.767585286097468 
2402	-0.357007639038441 
2403	-0.116751944416315 
2404	-0.275041821372879 
2405	-0.901092464036543 
2406	-1.00680429449186 
2407	-1.24154611557482 
2408	-0.842422781969566 
2409	-0.548884605900419 
2410	-1.18324804110369 
2411	-1.1558971382902 
2412	-1.13121611686102 
2413	-1.13927585430562 
2414	-0.620632873457435 
2415	-0.587547125768018 
2416	-0.413254392833606 
2417	-0.991045375799383 
2418	-0.834094298262076 
2419	 5.26693681949587 
2420	 8.33957352615725 
2421	 7.15818812085915 
2422	 3.20942125524284 
2423	-1.09175333415444 
2424	-1.76110443503426 
2425	-4.5360391657015 
2426	-5.53475561086372 
2427	-0.12828911687923 
2428	-0.620783578556473 
2429	-0.321070972532393 
2430	-0.492655610505552 
2431	-0.53344955045033 
2432	 3.89909764706911E-03 
2433	-7.06029761979376E-02 
2434	 5.68345949452531E-02 
2435	 0.590237044938755 
2436	 0.869278105234614 
2437	 0.196331176376154 
2438	-0.89462625800856 
2439	-0.247435872073279 
2440	-7.73574642507116E-02 
2441	 0.909748286843111 
2442	 1.20226465268967 
2443	 2.20098566609095 
2444	-4.78602118819838 
2445	-2.48342588208386 
2446	-1.23127738747233 
2447	-0.626651147730808 
2448	-1.03899872722369 
2449	-12.6888445139828 
2450	 15.1369649110323 
2451	 1.95189710236838 
2452	 1.25954135510779 
2453	 1.25667196620214 
2454	 1.06851236585176 
2455	-37.7770653583835 
2456	-0.956722232210144 
2457	-4.77326708366761 
2458	-3.15191888218332 
2459	-0.144791541946071 
2460	-7.36762596614217 
2461	 45.5712024754787 
2462	-1.96540938548355 
2463	-75.9698914820535 
2464	-2.30669796100546 
2465	 0.663733657964985 
2466	-1.9066078601462 
2467	-0.365221114605741 
2468	-0.446809930376798 
2469	 0.58540846108798 
2470	 1.40897016249652 
2471	-2.17321449121829 
2472	-1.52045667957706 
2473	-4.22720849987256 
2474	-0.680727981063518 
2475	 0.835704104448608 
2476	 1.8250235833333 
2477	-0.382555624470056 
2478	-0.323814119101246 
2479	-1.55492267066598 
2480	-3.53636193974527 
2481	-1.37168189406205 
2482	-11.0560612021694 
2483	-8.65819434403649 
2484	 0.682814770766573 
2485	 0.758930182580967 
2486	 1.01246604795253 
2487	 1.37605394502672 
2488	 1.54145311251625 
2489	 1.2302177075228 
2490	 0.532677945581797 
2491	 9.01229199585182E-02 
2492	-0.393933476179893 
2493	-0.186268752457084 
2494	 8.11430396292383E-02 
2495	 0.360625806249374 
2496	-0.178005256100086 
2497	-5.26515813704414 
2498	-6.57486353051383 
2499	-1.04340068368468 
2500	-1.89463624567361 
