Wavelength	rt0629clean00002.asd
350	 4.38795570515889E-02 
351	 4.42047902269294E-02 
352	 4.43811832279568E-02 
353	 4.45868163472478E-02 
354	 4.47126414956432E-02 
355	 4.37219169586592E-02 
356	 4.38680320407918E-02 
357	 4.41475822377701E-02 
358	 4.33505568137196E-02 
359	 4.39378809827597E-02 
360	 4.45935321960444E-02 
361	 0.044896087261055 
362	 4.50587419720306E-02 
363	 4.41415392814351E-02 
364	 4.38688620642994E-02 
365	 4.46684305124527E-02 
366	 4.46209029581097E-02 
367	 4.43405372753952E-02 
368	 4.42750165411026E-02 
369	 4.45964249738239E-02 
370	 0.044593283712701 
371	 4.47146394144048E-02 
372	 4.48719098862429E-02 
373	 4.47243143029504E-02 
374	 4.46658457948966E-02 
375	 4.46488315065474E-02 
376	 4.45835393803485E-02 
377	 4.43947568822823E-02 
378	 4.47159784064659E-02 
379	 4.50980095618191E-02 
380	 4.50928030994931E-02 
381	 4.51084193117102E-02 
382	 4.48864001479702E-02 
383	 4.48059192187913E-02 
384	 4.53878448183525E-02 
385	 4.60321560415558E-02 
386	 4.62218932637962E-02 
387	 4.59134133501267E-02 
388	 4.55767144308659E-02 
389	 4.57881334595401E-02 
390	 4.62229774193398E-02 
391	 4.64883408537162E-02 
392	 4.64991295681795E-02 
393	 4.66724215724715E-02 
394	 4.68910689072211E-02 
395	 4.69127871127597E-02 
396	 4.70057395838718E-02 
397	 4.69282632662721E-02 
398	 4.67561755731918E-02 
399	 4.68280212076812E-02 
400	 0.046901876043725 
401	 4.69982991075141E-02 
402	 4.71264240653754E-02 
403	 4.71746171353007E-02 
404	 4.72019154776329E-02 
405	 4.72973876741161E-02 
406	 4.75026747557836E-02 
407	 4.75276131765273E-02 
408	 4.76404375528983E-02 
409	 0.047779573365754 
410	 4.75750793408685E-02 
411	 4.78248839020887E-02 
412	 4.81594491191721E-02 
413	 4.82681671348829E-02 
414	 4.85089478778014E-02 
415	 4.86198303498095E-02 
416	 4.86306571811562E-02 
417	 4.86957503299502E-02 
418	 4.89625475536014E-02 
419	 4.90716883852405E-02 
420	 4.90647493222629E-02 
421	 4.94214469813557E-02 
422	 4.95843330796549E-02 
423	 0.049732868867518 
424	 5.00417170775776E-02 
425	 5.02433468104629E-02 
426	 5.04470384092092E-02 
427	 0.050695743837354 
428	 5.09780678879016E-02 
429	 0.051127483835343 
430	 5.13350166929277E-02 
431	 5.16794086429557E-02 
432	 5.20701803910485E-02 
433	 5.22958445810771E-02 
434	 5.24924905610819E-02 
435	 5.27978204034086E-02 
436	 5.31209485261081E-02 
437	 5.33683323244764E-02 
438	 5.35406695500253E-02 
439	 5.37108279035989E-02 
440	 5.40562216340977E-02 
441	 5.44087458755447E-02 
442	 5.46639664303222E-02 
443	 5.48651382368734E-02 
444	 5.50847160453293E-02 
445	 5.52955362348352E-02 
446	 5.54766914620286E-02 
447	 5.57692017040614E-02 
448	 5.59341810585547E-02 
449	 5.60516304412158E-02 
450	 5.63942267220482E-02 
451	 5.64673913969224E-02 
452	 5.65169894070447E-02 
453	 5.67392564804655E-02 
454	 5.70231632164574E-02 
455	 5.72329407757566E-02 
456	 0.057314294187064 
457	 5.73112521046014E-02 
458	 5.75417017152005E-02 
459	 5.77265192907599E-02 
460	 5.77720793665814E-02 
461	 5.78059485595948E-02 
462	 5.79691549409182E-02 
463	 0.058137823533124 
464	 5.82180466470029E-02 
465	 5.83665664788202E-02 
466	 5.84130605603517E-02 
467	 5.84544110423296E-02 
468	 5.86686004900431E-02 
469	 5.87917586408359E-02 
470	 5.88660198054013E-02 
471	 5.89442036760292E-02 
472	 5.90518966514311E-02 
473	 5.92771408213306E-02 
474	 5.94673706398084E-02 
475	 0.059505928301263 
476	 5.96238030774603E-02 
477	 5.97838882501837E-02 
478	 5.99627355907206E-02 
479	 6.01434127553287E-02 
480	 6.02635313119011E-02 
481	 6.04564416596856E-02 
482	 0.060735313972028 
483	 6.08038005891373E-02 
484	 6.10508630108072E-02 
485	 6.13248943718562E-02 
486	 6.13918007340669E-02 
487	 6.17058068160401E-02 
488	 6.20650933841476E-02 
489	 0.062333504923288 
490	 6.24879641435023E-02 
491	 6.27432484094296E-02 
492	 6.30620593450088E-02 
493	 6.33733691631477E-02 
494	 6.36760978514507E-02 
495	 6.39259653164403E-02 
496	 6.41429412773908E-02 
497	 6.43941120305254E-02 
498	 0.06481469637591 
499	 6.52058568864848E-02 
500	 6.54931162519491E-02 
501	 6.58457094875063E-02 
502	 6.61322077842904E-02 
503	 6.64232993308396E-02 
504	 6.68053860260768E-02 
505	 0.067208633818316 
506	 6.74835830824506E-02 
507	 6.77274619654368E-02 
508	 6.82063905271974E-02 
509	 6.86523787137122E-02 
510	 6.89773795672796E-02 
511	 6.92340525480905E-02 
512	 6.97421422834024E-02 
513	 7.01727931967282E-02 
514	 7.05292424430328E-02 
515	 7.09477443156657E-02 
516	 7.14321877827819E-02 
517	 7.18686911396175E-02 
518	 7.22674035114431E-02 
519	 7.28016053132185E-02 
520	 7.32343335264924E-02 
521	 7.35993982461958E-02 
522	 7.40029909878837E-02 
523	 7.45721096372683E-02 
524	 7.50629851633854E-02 
525	 0.075485427720267 
526	 7.60191571332532E-02 
527	 0.076516326018515 
528	 7.69989122811844E-02 
529	 7.75042106583804E-02 
530	 0.078060284139428 
531	 7.86065829481151E-02 
532	 7.91247613234342E-02 
533	 7.96137231119462E-02 
534	 8.00614397923003E-02 
535	 8.06098320511631E-02 
536	 8.12472172011445E-02 
537	 8.17814037713143E-02 
538	 8.23064280638854E-02 
539	 8.28740180470575E-02 
540	 8.34959845723653E-02 
541	 8.40864980565334E-02 
542	 8.46798163537899E-02 
543	 8.52634301122004E-02 
544	 8.58039464555137E-02 
545	 0.086330434604838 
546	 8.69224442799993E-02 
547	 8.75760952699148E-02 
548	 8.81174701869791E-02 
549	 0.088708263036639 
550	 8.93182605423488E-02 
551	 8.98677302221485E-02 
552	 9.03846270356419E-02 
553	 9.09729257383851E-02 
554	 9.16094681415895E-02 
555	 9.21262865951616E-02 
556	 9.27208504563957E-02 
557	 9.33135240186697E-02 
558	 9.38225488748658E-02 
559	 9.44057642040818E-02 
560	 9.49599173334113E-02 
561	 9.54620881760711E-02 
562	 9.59461565753278E-02 
563	 9.64278077757034E-02 
564	 9.69564523715083E-02 
565	 9.74963137089144E-02 
566	 9.78304287355298E-02 
567	 9.82774926945534E-02 
568	 9.87874266358905E-02 
569	 0.099194486696244 
570	 9.95410398893925E-02 
571	 9.98516030098954E-02 
572	 0.100185810566866 
573	 0.100631362819451 
574	 0.100933583658565 
575	 0.101231661571999 
576	 0.101637237192678 
577	 0.10186234791742 
578	 0.102180082549521 
579	 0.102536705766096 
580	 0.102706022691563 
581	 0.10290051279974 
582	 0.103089640462001 
583	 0.103250464220071 
584	 0.103425367181816 
585	 0.10364336117175 
586	 0.103831310912722 
587	 0.103914666403217 
588	 0.104062804459503 
589	 0.10418421140882 
590	 0.104253528766495 
591	 0.104340448500036 
592	 0.104360938363555 
593	 0.104326489334908 
594	 0.104254086722415 
595	 0.104112433792132 
596	 0.103973270911382 
597	 0.103838505773228 
598	 0.103673904028927 
599	 0.103507963171704 
600	 0.103362559132715 
601	 0.103255896013605 
602	 0.103201412876365 
603	 0.103189008102771 
604	 0.103202397389445 
605	 0.103227024377603 
606	 0.103265437524197 
607	 0.10333483278949 
608	 0.103413365501247 
609	 0.103442423866934 
610	 0.103504337109891 
611	 0.103619190608875 
612	 0.103737144234004 
613	 0.103625564491874 
614	 0.103649000074726 
615	 0.103779653436504 
616	 0.103787134787757 
617	 0.103822213264113 
618	 0.103924710229672 
619	 0.104057276103702 
620	 0.10407908299169 
621	 0.104021328318347 
622	 0.104017125771394 
623	 0.104166849441081 
624	 0.104229998419514 
625	 0.10432268073464 
626	 0.104398336606975 
627	 0.104269316906423 
628	 0.104402913964279 
629	 0.104536127596765 
630	 0.104463557512656 
631	 0.104507442648872 
632	 0.10454206341079 
633	 0.104575365010995 
634	 0.104653234164954 
635	 0.10463919811583 
636	 0.104609070036014 
637	 0.104626621228355 
638	 0.104711252293681 
639	 0.104743330386411 
640	 0.104745696918449 
641	 0.104758249971647 
642	 0.104684101078587 
643	 0.104697099144787 
644	 0.104799725394807 
645	 0.104850644629182 
646	 0.104849996070254 
647	 0.104825464260746 
648	 0.104794058912024 
649	 0.104715142133218 
650	 0.104701989759862 
651	 0.104679207104449 
652	 0.104527427670693 
653	 0.104332546294226 
654	 0.104270059009026 
655	 0.104245597150872 
656	 0.103811804386637 
657	 0.103632610359273 
658	 0.103537770828679 
659	 0.103310748969081 
660	 0.103131831190824 
661	 0.103110706515265 
662	 0.103156241084987 
663	 0.103068759236106 
664	 0.102980619803722 
665	 0.102892287472578 
666	 0.102812039592137 
667	 0.102790645187043 
668	 0.102826586520626 
669	 0.102901753640283 
670	 0.102971989653589 
671	 0.102896832373061 
672	 0.102924944605559 
673	 0.103094078972523 
674	 0.103226375868565 
675	 0.103201543794769 
676	 0.103225961957176 
677	 0.103407021657708 
678	 0.103432205711067 
679	 0.103505133728651 
680	 0.10361216589579 
681	 0.103668514523446 
682	 0.103796764432013 
683	 0.104029161944435 
684	 0.104274507213724 
685	 0.10429822758301 
686	 0.104400740886513 
687	 0.104514469531849 
688	 0.104519834752722 
689	 0.104564346812803 
690	 0.104641408752136 
691	 0.104713250956036 
692	 0.10472633419118 
693	 0.104736349109684 
694	 0.104679206517262 
695	 0.104518839160468 
696	 0.104253778562675 
697	 0.104146812017832 
698	 0.104059862475509 
699	 0.103806800463397 
700	 0.103631130191186 
701	 0.103376461316715 
702	 0.103055029062747 
703	 0.102795637932192 
704	 0.102397532964829 
705	 0.101904443470185 
706	 0.10142027082921 
707	 0.101076926883597 
708	 0.100581140338406 
709	 9.99256165494964E-02 
710	 0.099217672110366 
711	 9.85136224972637E-02 
712	 9.77879305292683E-02 
713	 9.70096036766079E-02 
714	 9.61349342716425E-02 
715	 9.55258661909175E-02 
716	 9.48467548344544E-02 
717	 9.37417905971072E-02 
718	 9.26014212452966E-02 
719	 9.13097961216083E-02 
720	 9.01690469717384E-02 
721	 8.92030170680737E-02 
722	 8.81798512988639E-02 
723	 8.69582647259371E-02 
724	 8.56609345388923E-02 
725	 8.43617725816621E-02 
726	 8.30014032772616E-02 
727	 8.14787143045941E-02 
728	 7.97642057399984E-02 
729	 7.80110119776561E-02 
730	 7.60656454040516E-02 
731	 7.41214823639831E-02 
732	 7.23833487199604E-02 
733	 7.10571895611842E-02 
734	 0.069832460011946 
735	 6.86547161416403E-02 
736	 6.78101937480286E-02 
737	 6.71124893216372E-02 
738	 6.65529436910157E-02 
739	 0.066142480036834 
740	 6.57855146251042E-02 
741	 6.55576027736316E-02 
742	 6.54284135561947E-02 
743	 0.065317301005647 
744	 6.52606885759037E-02 
745	 6.51917811585227E-02 
746	 6.50945714244956E-02 
747	 6.50307282016715E-02 
748	 6.49941553203478E-02 
749	 6.49827778880688E-02 
750	 6.49801035421892E-02 
751	 6.49279604415039E-02 
752	 6.48684057761914E-02 
753	 6.48085201164185E-02 
754	 6.47543158673958E-02 
755	 6.48826574105588E-02 
756	 6.49058561462055E-02 
757	 6.47836034798413E-02 
758	 6.49238277284402E-02 
759	 6.52089719450135E-02 
760	 6.53402509693385E-02 
761	 6.50631811189707E-02 
762	 0.065041636752619 
763	 6.52610657736052E-02 
764	 6.53946234483674E-02 
765	 6.52362590172226E-02 
766	 6.52572827949875E-02 
767	 6.54306270167749E-02 
768	 6.56161088422276E-02 
769	 6.55785276728657E-02 
770	 6.57544817128011E-02 
771	 6.60001738900362E-02 
772	 6.61436370278644E-02 
773	 6.62655298458996E-02 
774	 0.066413023413108 
775	 6.66048304078028E-02 
776	 6.68463448174974E-02 
777	 6.71775608587249E-02 
778	 6.73968902518165E-02 
779	 6.75461847083683E-02 
780	 6.79073635537213E-02 
781	 6.81967088573062E-02 
782	 6.84649562015827E-02 
783	 0.068783275171975 
784	 6.91302018027731E-02 
785	 6.95151581311327E-02 
786	 6.98643917771351E-02 
787	 7.01304020403704E-02 
788	 7.05632990030397E-02 
789	 7.10066597726356E-02 
790	 7.13795116550366E-02 
791	 7.17044775309088E-02 
792	 7.21283322446018E-02 
793	 7.25401674903068E-02 
794	 0.072841406434764 
795	 7.29853398048128E-02 
796	 7.34883782458781E-02 
797	 7.39573334104447E-02 
798	 7.40562585737613E-02 
799	 7.44946293491801E-02 
800	 7.49751892361376E-02 
801	 7.52699270661908E-02 
802	 7.52850349092842E-02 
803	 7.54603085054999E-02 
804	 7.56309854731276E-02 
805	 0.075721947383063 
806	 7.58115037461121E-02 
807	 7.57486462812686E-02 
808	 7.57146280741919E-02 
809	 7.58183809423934E-02 
810	 7.58138057218234E-02 
811	 7.56964928735945E-02 
812	 7.55315021539669E-02 
813	 7.54071387078781E-02 
814	 7.52465122386252E-02 
815	 7.49397294357432E-02 
816	 7.44608884136631E-02 
817	 7.38749758088057E-02 
818	 7.32115528522922E-02 
819	 7.27106002630277E-02 
820	 7.22720206663342E-02 
821	 0.07141623067968 
822	 7.04875588452534E-02 
823	 6.93981145621786E-02 
824	 6.80891508999021E-02 
825	 6.65954264476572E-02 
826	 6.51889297841853E-02 
827	 6.37421051360068E-02 
828	 6.21054853188553E-02 
829	 6.03801548208868E-02 
830	 5.88894811955577E-02 
831	 5.76475289436082E-02 
832	 5.64886476721495E-02 
833	 5.55115744123312E-02 
834	 5.47726933887106E-02 
835	 0.054186049053205 
836	 5.35223444731032E-02 
837	 5.30463005473745E-02 
838	 5.26055883076717E-02 
839	 5.20847807607508E-02 
840	 5.16843188950846E-02 
841	 5.13617733605687E-02 
842	 5.10487320255406E-02 
843	 5.06846476980132E-02 
844	 5.03062333175075E-02 
845	 0.049989748119417 
846	 4.96480947198883E-02 
847	 4.91388134686697E-02 
848	 4.88927015032363E-02 
849	 4.86933006176742E-02 
850	 0.0484113121989 
851	 4.81241854465801E-02 
852	 4.77700459260085E-02 
853	 4.74488655489208E-02 
854	 4.71564940269931E-02 
855	 4.65733399322003E-02 
856	 4.64467598980618E-02 
857	 0.046427043507284 
858	 4.60776805445023E-02 
859	 4.58058682976461E-02 
860	 4.55551311386934E-02 
861	 4.52543346112022E-02 
862	 4.48580133815611E-02 
863	 4.45337128746434E-02 
864	 4.43652214472383E-02 
865	 4.42088108999667E-02 
866	 4.38045022085659E-02 
867	 4.38910768581105E-02 
868	 4.36555120293712E-02 
869	 4.29991662953742E-02 
870	 4.29579635518704E-02 
871	 4.25150010760789E-02 
872	 4.21155857570082E-02 
873	 4.20384323046083E-02 
874	 4.14957961291908E-02 
875	 4.09003003643248E-02 
876	 4.05246902021746E-02 
877	 4.04531834793932E-02 
878	 4.03240069691554E-02 
879	 3.98294123707207E-02 
880	 3.91316299119589E-02 
881	 0.038628235172268 
882	 3.85411661965737E-02 
883	 3.81508318305589E-02 
884	 3.75421541213012E-02 
885	 0.037369086853648 
886	 3.72518795097189E-02 
887	 3.70528251217311E-02 
888	 3.66687485645533E-02 
889	 3.60518189796027E-02 
890	 3.57497987704538E-02 
891	 3.55979349337783E-02 
892	 3.53195883443706E-02 
893	 3.46969050261725E-02 
894	 3.44640305644104E-02 
895	 3.43643739509622E-02 
896	 3.40101062216649E-02 
897	 3.36910674008009E-02 
898	 3.36887224934882E-02 
899	 3.35808629345832E-02 
900	 3.30250186144102E-02 
901	 3.28046385330871E-02 
902	 3.27114198215266E-02 
903	 3.21475753339584E-02 
904	 3.09161731311684E-02 
905	 3.14682958360488E-02 
906	 3.17520540987249E-02 
907	 3.11457485675093E-02 
908	 3.03324078916502E-02 
909	 3.01287347801085E-02 
910	 2.97525674019647E-02 
911	 2.89817361763989E-02 
912	 0.028285383079714 
913	 2.78978064745566E-02 
914	 2.80876856382934E-02 
915	 2.82898059880641E-02 
916	 2.72797429691401E-02 
917	 0.026235127555115 
918	 2.53614042624256E-02 
919	 0.024768576658929 
920	 2.46368265215695E-02 
921	 2.48053246515487E-02 
922	 2.38779284499244E-02 
923	 2.19135316585405E-02 
924	 2.25205427669935E-02 
925	 2.31578601419161E-02 
926	 2.25494290938906E-02 
927	 2.05190350155504E-02 
928	 1.98357899841547E-02 
929	 0.020378911929167 
930	 2.17081153804998E-02 
931	 2.25761742940752E-02 
932	 2.10675969050417E-02 
933	 0.023492927179941 
934	 2.52521144659132E-02 
935	 1.92036102566846E-02 
936	 1.47891378335068E-02 
937	 0.017867814883807 
938	 1.98158738063643E-02 
939	 1.42358018727822E-02 
940	 1.75968524430583E-02 
941	 1.86576121392425E-02 
942	 1.70238504262743E-02 
943	 1.69313353805273E-02 
944	 1.38479688860764E-02 
945	 1.28712926130939E-02 
946	 1.38928957696775E-02 
947	 1.39194671458409E-02 
948	 1.67984482350371E-02 
949	 1.60478794200402E-02 
950	 1.36582795220308E-02 
951	 1.53711629785987E-02 
952	 1.47933110201609E-02 
953	 1.32933797082932E-02 
954	 1.21421829452619E-02 
955	 1.21508836776322E-02 
956	 1.45537602855953E-02 
957	 1.63677976093134E-02 
958	 1.49248578671447E-02 
959	 9.90553961517615E-03 
960	 1.16622357761329E-02 
961	 1.34650074968793E-02 
962	 1.31290519480757E-02 
963	 1.28676311456669E-02 
964	 1.31902090009909E-02 
965	 1.31918155240684E-02 
966	 1.21978787758107E-02 
967	 1.02288900064008E-02 
968	 1.00792093465124E-02 
969	 1.16204612944555E-02 
970	 1.31780545460421E-02 
971	 1.26461992790743E-02 
972	 1.30985912557035E-02 
973	 1.32943286482049E-02 
974	 1.27365413290903E-02 
975	 1.22187678311951E-02 
976	 1.27775023499707E-02 
977	 1.23375387978231E-02 
978	 1.13058816696991E-02 
979	 1.20313368181922E-02 
980	 1.26879358987127E-02 
981	 1.29528876059923E-02 
982	 1.29400758396218E-02 
983	 1.29404501686786E-02 
984	 1.27441222735237E-02 
985	 1.20722372767578E-02 
986	 1.12919496485575E-02 
987	 1.11886679102663E-02 
988	 1.18123892228733E-02 
989	 1.17918349671444E-02 
990	 1.10685213465432E-02 
991	 1.08112856109288E-02 
992	 1.24729979355531E-02 
993	 1.33356660332512E-02 
994	 1.32872163484772E-02 
995	 1.37254176673459E-02 
996	 1.16069669995805E-02 
997	 1.06630952675328E-02 
998	 1.14673599193426E-02 
999	 1.24214282464194E-02 
1000	 1.45113703780088E-02 
1001	 1.04888542979705E-02 
1002	 1.03855046473164E-02 
1003	 1.04154860168015E-02 
1004	 1.03961871895477E-02 
1005	 1.04763817607406E-02 
1006	 1.07981250179853E-02 
1007	 1.10920079005731E-02 
1008	 1.12353887361259E-02 
1009	 1.10496688949022E-02 
1010	 1.07176456190503E-02 
1011	 1.08039755492084E-02 
1012	 1.09119375941416E-02 
1013	 1.08827123592654E-02 
1014	 1.08644908170715E-02 
1015	 1.08601182222206E-02 
1016	 1.08749644328485E-02 
1017	 1.08314417231735E-02 
1018	 1.08067355319511E-02 
1019	 1.08852798931455E-02 
1020	 1.08242587473072E-02 
1021	 1.05410967441182E-02 
1022	 1.05633668303903E-02 
1023	 1.04964390474628E-02 
1024	 1.04486197420045E-02 
1025	 1.05882348989858E-02 
1026	 1.06814333915953E-02 
1027	 1.08026805455726E-02 
1028	 1.10545067813032E-02 
1029	 1.10232173938418E-02 
1030	 0.010780506001247 
1031	 1.07964098910221E-02 
1032	 1.06930915988279E-02 
1033	 1.08470934921902E-02 
1034	 0.011426343600848 
1035	 1.16906486506141E-02 
1036	 0.011951026150209 
1037	 1.20540711634823E-02 
1038	 1.20417696517159E-02 
1039	 1.18428206772265E-02 
1040	 1.15361310140254E-02 
1041	 1.15857208621469E-02 
1042	 1.16349690843843E-02 
1043	 0.011704295297802 
1044	 1.19699768362311E-02 
1045	 1.25762058241405E-02 
1046	 1.27494791336298E-02 
1047	 1.28394682606176E-02 
1048	 1.29851605601885E-02 
1049	 1.29299855127208E-02 
1050	 1.29482637003137E-02 
1051	 0.013051479473963 
1052	 0.013169886183253 
1053	 1.32403482014863E-02 
1054	 1.32933365886078E-02 
1055	 0.0133433125869 
1056	 0.013529996902855 
1057	 1.37603588649854E-02 
1058	 1.40528269332438E-02 
1059	 0.014117606791195 
1060	 1.42457785136504E-02 
1061	 1.42287958366618E-02 
1062	 1.38319447696925E-02 
1063	 1.37650729645487E-02 
1064	 1.38677261482941E-02 
1065	 1.39184128635576E-02 
1066	 1.40198415075973E-02 
1067	 1.41110140236789E-02 
1068	 1.42777177077529E-02 
1069	 0.014334338128368 
1070	 0.014342765521276 
1071	 1.43390330429204E-02 
1072	 1.43911672764113E-02 
1073	 1.41267279328998E-02 
1074	 0.01408916747046 
1075	 1.42059325294371E-02 
1076	 1.40470993059245E-02 
1077	 1.36971079449663E-02 
1078	 1.35942945077746E-02 
1079	 1.32763458670325E-02 
1080	 1.33434537102681E-02 
1081	 1.41289827177937E-02 
1082	 1.41765508425336E-02 
1083	 1.39622099131292E-02 
1084	 0.013780881844914 
1085	 1.29236380312798E-02 
1086	 1.26517101256696E-02 
1087	 1.30226565101766E-02 
1088	 1.30537883699885E-02 
1089	 1.31793345528884E-02 
1090	 1.30920382901418E-02 
1091	 1.30807601257858E-02 
1092	 1.28604363393135E-02 
1093	 1.26439572991569E-02 
1094	 0.012532645462638 
1095	 1.23772629632076E-02 
1096	 1.19433075694577E-02 
1097	 1.18311233281703E-02 
1098	 1.20071685527799E-02 
1099	 1.19638811146863E-02 
1100	 1.20372942017726E-02 
1101	 1.18570130673634E-02 
1102	 1.12690177747097E-02 
1103	 1.10853428850462E-02 
1104	 1.10616686374815E-02 
1105	 1.08492330351075E-02 
1106	 1.10119787399149E-02 
1107	 1.10031603870339E-02 
1108	 1.08924677607171E-02 
1109	 0.011044715613776 
1110	 1.08563574707223E-02 
1111	 1.03949869301839E-02 
1112	 1.03675858188344E-02 
1113	 1.02727010656378E-02 
1114	 1.02995365757207E-02 
1115	 0.011611596176872 
1116	 1.17377157783789E-02 
1117	 9.81599716883435E-03 
1118	 9.04367666311423E-03 
1119	 8.67299740212413E-03 
1120	 7.70877520415659E-03 
1121	 6.34267135548938E-03 
1122	 8.30983854564004E-03 
1123	 8.54875902198702E-03 
1124	 6.30242666016241E-03 
1125	 1.01322030966347E-02 
1126	 1.04099184252168E-02 
1127	 8.22285091475239E-03 
1128	 1.17200353128235E-02 
1129	 1.08751283385919E-02 
1130	 5.62698259438684E-03 
1131	 6.89864610235172E-03 
1132	 1.04060201604135E-02 
1133	 1.09647323727299E-02 
1134	 0.014852596603823 
1135	 1.40899374414508E-02 
1136	 7.41746530159602E-03 
1137	 6.58560015651658E-03 
1138	 6.58400181669759E-03 
1139	 8.26440940902111E-03 
1140	 1.01744331493192E-02 
1141	 9.96517679480173E-03 
1142	 9.10956398068115E-03 
1143	 7.22999711930261E-03 
1144	 5.75453588455327E-03 
1145	 7.55451840324486E-03 
1146	 8.81780068384837E-03 
1147	 8.59057977451378E-03 
1148	 9.74814622952217E-03 
1149	 1.03716603903099E-02 
1150	 1.02041218109653E-02 
1151	 9.18226751890842E-03 
1152	 9.1373022689338E-03 
1153	 9.33260588572414E-03 
1154	 9.07493485598294E-03 
1155	 9.00888873531066E-03 
1156	 8.53961097999031E-03 
1157	 8.43458840192394E-03 
1158	 8.75672138515508E-03 
1159	 9.28380407929511E-03 
1160	 9.63086913416565E-03 
1161	 9.43340166871945E-03 
1162	 9.05070223351335E-03 
1163	 9.10958680921458E-03 
1164	 9.51703707436612E-03 
1165	 9.48477329776906E-03 
1166	 9.13572724293267E-03 
1167	 9.00951470151109E-03 
1168	 9.0437974190614E-03 
1169	 9.14540512885774E-03 
1170	 9.24503283930263E-03 
1171	 9.30924626193026E-03 
1172	 9.13202853957896E-03 
1173	 9.00735176284932E-03 
1174	 8.88503979074208E-03 
1175	 9.02124026975655E-03 
1176	 8.86366214080359E-03 
1177	 8.74412942537605E-03 
1178	 8.90281651530271E-03 
1179	 8.9008200479249E-03 
1180	 8.90079501472219E-03 
1181	 8.84956115364948E-03 
1182	 8.59791419235286E-03 
1183	 8.48321596105029E-03 
1184	 0.008574356533641 
1185	 8.65053692597862E-03 
1186	 8.64005482026025E-03 
1187	 8.89121050296245E-03 
1188	 9.24652041709672E-03 
1189	 9.23338579057187E-03 
1190	 9.13296820009637E-03 
1191	 9.00938118639863E-03 
1192	 8.89946944060521E-03 
1193	 8.57823922288758E-03 
1194	 8.62659916579686E-03 
1195	 8.83492903766584E-03 
1196	 8.77452024559691E-03 
1197	 8.66416382116078E-03 
1198	 8.6980145902441E-03 
1199	 8.79294577781676E-03 
1200	 8.72516418997205E-03 
1201	 8.69729796986089E-03 
1202	 8.8859283437312E-03 
1203	 8.91956739739063E-03 
1204	 8.96671460142022E-03 
1205	 9.16614724288632E-03 
1206	 9.15813167481506E-03 
1207	 8.9343084437089E-03 
1208	 8.8236021326136E-03 
1209	 8.90138224174363E-03 
1210	 8.77398104502594E-03 
1211	 8.55808370246195E-03 
1212	 0.008691304467897 
1213	 8.97381541247958E-03 
1214	 8.99981307189214E-03 
1215	 8.96842153592867E-03 
1216	 8.9266360247708E-03 
1217	 8.9172199272798E-03 
1218	 8.75476020167805E-03 
1219	 8.8816311493729E-03 
1220	 9.26110285226774E-03 
1221	 9.14085505647096E-03 
1222	 8.88765280485646E-03 
1223	 8.89230437054586E-03 
1224	 8.85303338368524E-03 
1225	 8.90535440117938E-03 
1226	 9.0021984534408E-03 
1227	 8.9663574003769E-03 
1228	 8.86945171927391E-03 
1229	 8.62946544224798E-03 
1230	 8.64074115155167E-03 
1231	 8.70835828522062E-03 
1232	 8.54676114762386E-03 
1233	 8.68937141154071E-03 
1234	 8.82891940025106E-03 
1235	 8.85869412921803E-03 
1236	 8.81289490102009E-03 
1237	 8.83546827265841E-03 
1238	 8.86369867322364E-03 
1239	 8.73713375292085E-03 
1240	 8.72570662762807E-03 
1241	 8.67572438754357E-03 
1242	 8.56968497836791E-03 
1243	 8.62703384000497E-03 
1244	 8.70863876983741E-03 
1245	 8.6810379570964E-03 
1246	 8.63384779442135E-03 
1247	 8.61495558954121E-03 
1248	 8.71165145977255E-03 
1249	 8.83575801647492E-03 
1250	 8.74276482087762E-03 
1251	 8.5814298183123E-03 
1252	 8.56179209231324E-03 
1253	 8.66825594569685E-03 
1254	 8.79185701142837E-03 
1255	 8.86052913510214E-03 
1256	 8.80586548597866E-03 
1257	 8.3024675363241E-03 
1258	 8.19027883446356E-03 
1259	 8.37967776509164E-03 
1260	 8.36081492704121E-03 
1261	 8.23232240478679E-03 
1262	 8.31052982542733E-03 
1263	 8.44500682783664E-03 
1264	 8.51840212704925E-03 
1265	 8.47665578251961E-03 
1266	 8.56231651976542E-03 
1267	 8.50943197240601E-03 
1268	 8.28774161280413E-03 
1269	 8.21600716932167E-03 
1270	 8.35241029499766E-03 
1271	 8.38019396468509E-03 
1272	 8.21686369881203E-03 
1273	 8.26104401327644E-03 
1274	 8.37953809154693E-03 
1275	 8.17476389968682E-03 
1276	 8.03429584444705E-03 
1277	 8.2455012829296E-03 
1278	 8.28727847474321E-03 
1279	 8.19612251327414E-03 
1280	 8.29076067437406E-03 
1281	 8.37578423322806E-03 
1282	 8.38915126527697E-03 
1283	 8.36776009872657E-03 
1284	 8.44966230614643E-03 
1285	 8.49473767793518E-03 
1286	 8.36438884054641E-03 
1287	 8.31687950055503E-03 
1288	 8.39862281418413E-03 
1289	 8.44228464873483E-03 
1290	 8.52370337901816E-03 
1291	 8.37065039461471E-03 
1292	 8.15727661689377E-03 
1293	 8.14533759591761E-03 
1294	 7.99401790475277E-03 
1295	 7.84313052527608E-03 
1296	 7.99409274835123E-03 
1297	 8.06330709552741E-03 
1298	 7.97466011244295E-03 
1299	 8.02059125464129E-03 
1300	 7.99071861601583E-03 
1301	 8.01352305165695E-03 
1302	 8.05529987245702E-03 
1303	 7.91980630660244E-03 
1304	 8.09184889574631E-03 
1305	 8.20988779752654E-03 
1306	 8.12076888178072E-03 
1307	 7.77641337127107E-03 
1308	 7.80958053174439E-03 
1309	 7.87453071147244E-03 
1310	 7.88925545693294E-03 
1311	 8.20653944896429E-03 
1312	 8.32307712063155E-03 
1313	 8.1323893402946E-03 
1314	 8.13102549329214E-03 
1315	 8.36452838237835E-03 
1316	 8.31249218087057E-03 
1317	 8.00466981121063E-03 
1318	 8.00063679460497E-03 
1319	 8.13094031282903E-03 
1320	 7.90063555257246E-03 
1321	 7.44693531325081E-03 
1322	 7.49846473619333E-03 
1323	 7.43682878101623E-03 
1324	 7.33706572657426E-03 
1325	 7.69078938473041E-03 
1326	 7.79312902750203E-03 
1327	 7.38147550533718E-03 
1328	 7.31861440731258E-03 
1329	 7.76017943378333E-03 
1330	 7.58565079402943E-03 
1331	 6.75992070119039E-03 
1332	 6.65634829860923E-03 
1333	 7.1681386437912E-03 
1334	 7.90156271855845E-03 
1335	 7.91024392553878E-03 
1336	 7.68568750683529E-03 
1337	 7.57286396663623E-03 
1338	 6.63588546140283E-03 
1339	 6.54549693418104E-03 
1340	 7.76371227185108E-03 
1341	 7.99123137237184E-03 
1342	 7.27679171474233E-03 
1343	 7.28991892019523E-03 
1344	 8.21331292527774E-03 
1345	 7.84253045271833E-03 
1346	 5.77170201273142E-03 
1347	 5.52705087034895E-03 
1348	 5.18257123564616E-03 
1349	 4.56569294957289E-03 
1350	 1.00066166159806E-02 
1351	 1.31783811147116E-02 
1352	 7.7553499448929E-03 
1353	 5.90798235396965E-03 
1354	 1.39272038797122E-02 
1355	-1.18031936379419E-03 
1356	-5.22864506511932E-04 
1357	 5.04761144961359E-02 
1358	 1.31442343838726E-02 
1359	-2.63404871461697E-02 
1360	 6.09990634014818E-02 
1361	 2.71114563171029E-02 
1362	-8.92404322258795E-02 
1363	-7.06999224508059E-03 
1364	 7.84696857009738E-02 
1365	-4.49994358608163E-02 
1366	-0.174049954665941 
1367	 0.085841573672737 
1368	 0.155037896568515 
1369	-2.67876592348003E-02 
1370	-6.19511343313937E-02 
1371	 3.27204350177482E-02 
1372	 5.12155367698691E-02 
1373	-4.46438028129392E-02 
1374	-3.20449474690675E-02 
1375	 0.12520114535519 
1376	 0.128305902202251 
1377	 0.174368031985422 
1378	 0.14454876242768 
1379	-0.103791579757706 
1380	-0.226917016689765 
1381	-0.347864028803881 
1382	-0.468577447770931 
1383	-0.540127661829824 
1384	-0.551022786990026 
1385	-0.577691112421516 
1386	-0.584215815391745 
1387	-0.565340926697094 
1388	-0.439435989554997 
1389	-9.16068414954201E-02 
1390	-1.44280393789028E-02 
1391	-0.127301590177019 
1392	 0.118951313127043 
1393	 0.251730820044168 
1394	-0.056145150836897 
1395	-0.34562877327074 
1396	-0.125618503533525 
1397	-0.236321672552998 
1398	-0.511428756101886 
1399	-0.359549466188118 
1400	-0.110783485706738 
1401	-0.171445479471035 
1402	-0.565569420991625 
1403	-0.3857926766567 
1404	-0.378445962205454 
1405	-0.381712416977091 
1406	-4.39028674216206E-02 
1407	-2.17119958753231E-02 
1408	-0.287826098548536 
1409	-0.277656547394592 
1410	-0.119331230800069 
1411	-7.58697194308584E-02 
1412	-5.59997422978389E-02 
1413	 3.26624369234123E-02 
1414	 0.126720304872232 
1415	 0.111143696777498 
1416	 0.118983628078696 
1417	 0.11440117345416 
1418	 3.45694930036438E-02 
1419	 6.28533650629239E-03 
1420	 2.37875565405364E-02 
1421	 1.11454876326137E-02 
1422	-3.07854347808957E-02 
1423	-0.024562901561731 
1424	 5.80814119426144E-03 
1425	 9.20067374049703E-03 
1426	 1.29032223090742E-02 
1427	 1.54013872134148E-02 
1428	 5.10950289856908E-03 
1429	 3.09648842070759E-03 
1430	 1.13930458899555E-02 
1431	 1.36763317094253E-02 
1432	 1.45103110095313E-02 
1433	 1.39593975444203E-02 
1434	 1.07123118945547E-02 
1435	 6.45416954211383E-03 
1436	-4.17437027630727E-03 
1437	-4.81708795800778E-03 
1438	-4.39594075335879E-03 
1439	-1.04352641182889E-02 
1440	-4.23420417516159E-03 
1441	 7.04200307885535E-03 
1442	 7.45657757510647E-03 
1443	 1.19465426831619E-02 
1444	 6.41427828347573E-03 
1445	-4.23226221738407E-03 
1446	-1.96993615265372E-03 
1447	 1.81693158952686E-03 
1448	 5.40594887502877E-03 
1449	 7.0637921869908E-03 
1450	 4.85541311041444E-03 
1451	 4.27721243070978E-03 
1452	 5.75868545708646E-03 
1453	 6.56192653614922E-03 
1454	 7.32054357026454E-03 
1455	 8.70071039842891E-03 
1456	 8.56029773565106E-03 
1457	 7.1540572695873E-03 
1458	 7.49709005593317E-03 
1459	 8.4425973665416E-03 
1460	 8.06782082997764E-03 
1461	 7.69171842775447E-03 
1462	 0.008417128575286 
1463	 8.57138532402101E-03 
1464	 8.34501032263338E-03 
1465	 1.01503559306294E-02 
1466	 9.92480881638803E-03 
1467	 6.23993641687055E-03 
1468	 5.86513240401947E-03 
1469	 7.58848233451608E-03 
1470	 7.10990442323574E-03 
1471	 6.33126317836158E-03 
1472	 6.65824703012594E-03 
1473	 6.96531223746176E-03 
1474	 6.4287855084354E-03 
1475	 6.04804468953095E-03 
1476	 6.36202449283234E-03 
1477	 6.34293395389159E-03 
1478	 6.0554047571845E-03 
1479	 6.16742026335323E-03 
1480	 6.61918871630556E-03 
1481	 6.8838968501611E-03 
1482	 6.68576872751762E-03 
1483	 6.74107695884199E-03 
1484	 6.97640746011028E-03 
1485	 6.82580502099554E-03 
1486	 6.55778743713925E-03 
1487	 6.46144292360956E-03 
1488	 6.71818956291946E-03 
1489	 7.03260104796602E-03 
1490	 6.95024249443063E-03 
1491	 6.75251101017382E-03 
1492	 6.98128749904095E-03 
1493	 7.50525727765661E-03 
1494	 7.24457011314467E-03 
1495	 6.47374838565254E-03 
1496	 6.62603310604414E-03 
1497	 6.95301047663573E-03 
1498	 6.90987307430824E-03 
1499	 7.38301720482117E-03 
1500	 7.5805092153273E-03 
1501	 7.18877942990405E-03 
1502	 6.90814529658736E-03 
1503	 6.58568025247023E-03 
1504	 6.64366235324355E-03 
1505	 6.86685679866567E-03 
1506	 6.98718867880907E-03 
1507	 6.83899552767763E-03 
1508	 6.92142202671071E-03 
1509	 7.11050238576656E-03 
1510	 7.02872441849432E-03 
1511	 7.05472090735887E-03 
1512	 7.22963516091589E-03 
1513	 7.12951052060118E-03 
1514	 6.89967690488482E-03 
1515	 6.90899722935228E-03 
1516	 7.09371784417322E-03 
1517	 7.11032319208649E-03 
1518	 7.02270214429566E-03 
1519	 7.00508109118598E-03 
1520	 6.95620031300538E-03 
1521	 6.99388821311232E-03 
1522	 6.99109425315343E-03 
1523	 6.98969772829782E-03 
1524	 7.17913519251463E-03 
1525	 7.21655729897116E-03 
1526	 6.99162664333031E-03 
1527	 6.75967386389856E-03 
1528	 6.7725315539301E-03 
1529	 6.98929374489722E-03 
1530	 7.18190478969883E-03 
1531	 7.26819278484829E-03 
1532	 7.24871011616524E-03 
1533	 7.17010641259335E-03 
1534	 7.0586724158888E-03 
1535	 6.99197802229743E-03 
1536	 7.0067967454166E-03 
1537	 7.02017927863736E-03 
1538	 7.04175154391198E-03 
1539	 7.08842598251184E-03 
1540	 7.22806769452856E-03 
1541	 7.33985025768185E-03 
1542	 7.14893624586815E-03 
1543	 6.97212695072817E-03 
1544	 6.98583135470133E-03 
1545	 6.90596713132127E-03 
1546	 6.87202611736758E-03 
1547	 6.99095355037922E-03 
1548	 7.10729990914302E-03 
1549	 7.1038722382869E-03 
1550	 7.07041972513071E-03 
1551	 7.1035130109695E-03 
1552	 7.05213070080847E-03 
1553	 7.01038781553143E-03 
1554	 7.08564440397753E-03 
1555	 7.1789552968371E-03 
1556	 7.18429548028228E-03 
1557	 7.19940088934233E-03 
1558	 7.24726544990482E-03 
1559	 7.21072563591699E-03 
1560	 7.28229240006349E-03 
1561	 7.17921663598049E-03 
1562	 6.91508561128576E-03 
1563	 7.05923535979298E-03 
1564	 7.19704057626907E-03 
1565	 7.04725190071445E-03 
1566	 7.17162503743943E-03 
1567	 7.34758950622403E-03 
1568	 7.12454177419937E-03 
1569	 7.10623320123394E-03 
1570	 7.34631815432761E-03 
1571	 7.32354172280766E-03 
1572	 7.2701936232128E-03 
1573	 7.48773649244549E-03 
1574	 7.58555602733965E-03 
1575	 7.32102138325093E-03 
1576	 7.24137792287506E-03 
1577	 7.31363183727317E-03 
1578	 7.25297991177399E-03 
1579	 7.37147595152427E-03 
1580	 7.59428159017035E-03 
1581	 7.62811205398472E-03 
1582	 7.4512963166168E-03 
1583	 7.32799136921088E-03 
1584	 7.3086943288998E-03 
1585	 7.25267050948725E-03 
1586	 7.35153552658034E-03 
1587	 7.59200671922962E-03 
1588	 7.61863400807649E-03 
1589	 7.41296758151207E-03 
1590	 7.44231151867192E-03 
1591	 7.60524781915523E-03 
1592	 7.55076507702282E-03 
1593	 7.46302251704642E-03 
1594	 7.37497675780006E-03 
1595	 7.23583954475166E-03 
1596	 7.26658980749501E-03 
1597	 7.37728035708834E-03 
1598	 7.36760698141983E-03 
1599	 7.40198811080026E-03 
1600	 7.38003385861263E-03 
1601	 7.30692823429522E-03 
1602	 7.4971777435589E-03 
1603	 7.68082640749084E-03 
1604	 7.46772098395924E-03 
1605	 7.31455579028628E-03 
1606	 7.37166252408504E-03 
1607	 7.3761390118569E-03 
1608	 7.52604459343521E-03 
1609	 7.52335799579195E-03 
1610	 7.31268383627208E-03 
1611	 7.31669590061317E-03 
1612	 7.40263053476856E-03 
1613	 7.40875415279004E-03 
1614	 7.48319173466503E-03 
1615	 7.4649161638257E-03 
1616	 7.14198506989609E-03 
1617	 7.02916819416625E-03 
1618	 7.1223236880794E-03 
1619	 7.00985972838912E-03 
1620	 6.9921110152436E-03 
1621	 7.10798711842568E-03 
1622	 7.2415286005434E-03 
1623	 7.21166189381263E-03 
1624	 6.89544108985769E-03 
1625	 6.78317790808426E-03 
1626	 6.85553742174649E-03 
1627	 0.006791996855322 
1628	 6.89476527801086E-03 
1629	 7.14737840032162E-03 
1630	 7.04676274495426E-03 
1631	 6.80268761073221E-03 
1632	 6.94775876088415E-03 
1633	 7.14278950406021E-03 
1634	 7.05878584643707E-03 
1635	 7.14867295948247E-03 
1636	 7.13918415846149E-03 
1637	 6.8090502840648E-03 
1638	 6.94835420255703E-03 
1639	 7.24367373274719E-03 
1640	 7.12714428838054E-03 
1641	 7.13225551978231E-03 
1642	 7.16257808019466E-03 
1643	 6.98277901374463E-03 
1644	 7.18666413220372E-03 
1645	 7.4744800506327E-03 
1646	 7.2938812335674E-03 
1647	 7.12936222533151E-03 
1648	 7.16352549021424E-03 
1649	 7.13059151401882E-03 
1650	 7.08933538467245E-03 
1651	 7.06244823879108E-03 
1652	 7.20682315883131E-03 
1653	 7.27299091352864E-03 
1654	 7.27036883196097E-03 
1655	 7.41737367188647E-03 
1656	 7.42772318255829E-03 
1657	 7.18614515889231E-03 
1658	 7.19246039970254E-03 
1659	 7.40306598586673E-03 
1660	 7.35062622192078E-03 
1661	 7.23498332009381E-03 
1662	 7.15961638158087E-03 
1663	 6.8257033466161E-03 
1664	 6.67799888127788E-03 
1665	 6.73154297712025E-03 
1666	 6.86956139344234E-03 
1667	 7.22091267226189E-03 
1668	 7.03347051070887E-03 
1669	 6.88179272101118E-03 
1670	 6.95900929905307E-03 
1671	 7.02059843685842E-03 
1672	 7.11924668240019E-03 
1673	 7.18452072795919E-03 
1674	 7.24915365723924E-03 
1675	 7.04399077209106E-03 
1676	 6.77205267515378E-03 
1677	 6.98379754248493E-03 
1678	 7.0235829232745E-03 
1679	 6.88870856857474E-03 
1680	 7.08850930419208E-03 
1681	 7.01415472742941E-03 
1682	 6.6053774339173E-03 
1683	 6.6962219389078E-03 
1684	 6.98499127631917E-03 
1685	 6.95797266694442E-03 
1686	 6.99647398630426E-03 
1687	 7.01810886912432E-03 
1688	 6.81549359971311E-03 
1689	 6.83020774871255E-03 
1690	 7.15282585439382E-03 
1691	 7.22472314224665E-03 
1692	 7.16804658089509E-03 
1693	 7.20862661024313E-03 
1694	 7.14652618487798E-03 
1695	 7.1756876964995E-03 
1696	 7.18640745012295E-03 
1697	 7.02757941400249E-03 
1698	 7.03909989947165E-03 
1699	 7.19083327154775E-03 
1700	 7.18359816317566E-03 
1701	 7.21004257321918E-03 
1702	 7.24935719557931E-03 
1703	 6.79935558586404E-03 
1704	 6.46648093594019E-03 
1705	 6.94398193933934E-03 
1706	 7.28848432858508E-03 
1707	 7.03903706793732E-03 
1708	 6.9435336571764E-03 
1709	 6.71660215594444E-03 
1710	 6.28843688501974E-03 
1711	 6.75422344067613E-03 
1712	 7.42807164133163E-03 
1713	 7.1408368261563E-03 
1714	 7.08759886149002E-03 
1715	 6.89087536183778E-03 
1716	 6.95948769349477E-03 
1717	 6.92804382933492E-03 
1718	 6.80911487511565E-03 
1719	 6.93549940502071E-03 
1720	 7.0059616469063E-03 
1721	 7.20096494757971E-03 
1722	 7.54128831963313E-03 
1723	 7.43342130541908E-03 
1724	 7.02050871434067E-03 
1725	 6.64695653435111E-03 
1726	 6.37082362851809E-03 
1727	 6.40733452773612E-03 
1728	 6.55271812213531E-03 
1729	 6.5473669862145E-03 
1730	 6.57146791740275E-03 
1731	 6.63704486570799E-03 
1732	 6.53082124898428E-03 
1733	 6.59988176612771E-03 
1734	 6.83048195431767E-03 
1735	 6.56685833103856E-03 
1736	 6.49054389009355E-03 
1737	 6.94066975894946E-03 
1738	 7.11350311773881E-03 
1739	 7.50918796723893E-03 
1740	 7.81045925186983E-03 
1741	 7.13556717667681E-03 
1742	 6.45731896926555E-03 
1743	 6.17445337072129E-03 
1744	 6.04246868054626E-03 
1745	 6.49060438586963E-03 
1746	 6.67378358807242E-03 
1747	 6.83311888326444E-03 
1748	 7.33053346414481E-03 
1749	 7.31465298859659E-03 
1750	 6.79570425697805E-03 
1751	 6.83325553693072E-03 
1752	 6.84624421753559E-03 
1753	 6.89774524709814E-03 
1754	 7.6036748402275E-03 
1755	 7.5787083811621E-03 
1756	 6.88862247722347E-03 
1757	 6.43741535531296E-03 
1758	 6.2056639400175E-03 
1759	 6.20752213451163E-03 
1760	 6.21291045363969E-03 
1761	 6.66727582383147E-03 
1762	 7.13962753942521E-03 
1763	 7.06793700224518E-03 
1764	 6.47704943238353E-03 
1765	 5.72660875878839E-03 
1766	 5.66104008368909E-03 
1767	 6.58992420197473E-03 
1768	 8.05543338026226E-03 
1769	 8.40670749083903E-03 
1770	 7.38068954282362E-03 
1771	 5.99939451306477E-03 
1772	 4.97074359679567E-03 
1773	 5.79463290509901E-03 
1774	 6.93194394595698E-03 
1775	 7.08337492451028E-03 
1776	 7.28919175439906E-03 
1777	 5.76895566859906E-03 
1778	 5.40929842825127E-03 
1779	 6.47035863727008E-03 
1780	 6.85276900790064E-03 
1781	 7.35617171551351E-03 
1782	 7.58708506576113E-03 
1783	 7.85442319629986E-03 
1784	 7.74566974284674E-03 
1785	 6.61556654750783E-03 
1786	 6.77626513228186E-03 
1787	 7.42237103876169E-03 
1788	 7.21459962290746E-03 
1789	 8.09727267373887E-03 
1790	 5.94650439362483E-03 
1791	 4.33238395705063E-03 
1792	 6.26893873584921E-03 
1793	 5.46077494751999E-03 
1794	 8.64107829053194E-03 
1795	 1.06191327658637E-02 
1796	 4.24631344285327E-03 
1797	 2.75350190530958E-03 
1798	-2.80737094690161E-03 
1799	-3.09356713993898E-03 
1800	 1.02236512313018E-02 
1801	 0.01440744029191 
1802	 1.89853954565944E-02 
1803	 1.74343392619504E-02 
1804	-1.47574990135504E-02 
1805	-2.68679841149877E-02 
1806	-2.67229029494832E-02 
1807	-3.32265253788357E-02 
1808	-2.47790350488634E-03 
1809	 1.02042787423127E-02 
1810	-9.99543054874306E-03 
1811	-2.32403647454233E-02 
1812	-0.030421528106661 
1813	-3.92485302819399E-02 
1814	-8.28675845160837E-02 
1815	-5.17272002107564E-02 
1816	 9.04546847557086E-02 
1817	-1.25024803974313E-02 
1818	 9.97329697761742E-02 
1819	-0.203394364938134 
1820	-1.26158324294824 
1821	 4.30301917116699E-02 
1822	-0.340819565749438 
1823	 29.689751305938 
1824	 1.75672396723067 
1825	-7.81117033819292E-02 
1826	-0.231026852093187 
1827	-4.10559135678895E-02 
1828	-0.039755737704908 
1829	 3.50259066741495E-02 
1830	-0.19346840959065 
1831	-3.77848190814839 
1832	-6.24735059039711 
1833	-7.65280022482852 
1834	 739.472289912585 
1835	 0.688928202718337 
1836	 0.279903690820365 
1837	 56.3343676677844 
1838	-7.4705924243366 
1839	-1.87011635282038 
1840	-0.885141148683721 
1841	-0.512965038181961 
1842	 2.46515567199089 
1843	 2.85091988011305 
1844	 1.20186863957987 
1845	 1.23089578598312 
1846	 1.08038263175553 
1847	 1.31922877314242 
1848	-10.208914012783 
1849	-1.33330151852018 
1850	-0.693905178963605 
1851	-0.802459181609757 
1852	 0.456262719526627 
1853	 0.177659268886541 
1854	 7.67147708034111E-02 
1855	-7.79036599445165E-02 
1856	-0.102997675788108 
1857	-0.221982744267774 
1858	-0.219856333943439 
1859	-2.00035880698872 
1860	-1.12290632169572 
1861	-0.109989669570797 
1862	-3.80864758772323E-02 
1863	 4.08283976947521 
1864	-0.621362770570518 
1865	-0.626046575261446 
1866	 1.20023315852565 
1867	 1.05497987712281 
1868	-2.36835210975037 
1869	 1.00570155316203 
1870	-6.99146506858877 
1871	-0.390410941772155 
1872	 0.773825949163182 
1873	-0.109087318549247 
1874	 2.90750727768684E-02 
1875	 1.52930293877645 
1876	 1.29960299942065 
1877	 3.1013529418441 
1878	 1.60612691516897 
1879	-0.131410254988893 
1880	-0.786486460746571 
1881	-33.0354016488518 
1882	 2.84856854219608 
1883	 0.781263952958692 
1884	-1.80749602829203 
1885	-0.94186980041197 
1886	-1.37683045734338 
1887	-51.178608720044 
1888	 17.7362352275621 
1889	 10.0612691110348 
1890	 2.76683417030591 
1891	 2.34186948064252 
1892	 5.0273753224266 
1893	-1.92748828069316 
1894	 2.89575638411219 
1895	 0.691190409688024 
1896	 0.768746733130276 
1897	 1.65232926914669 
1898	-5.44904824103621 
1899	 8.08406079403563E-02 
1900	 0.182772136696765 
1901	 0.165344245104128 
1902	 0.149817525161665 
1903	 0.175418467314141 
1904	 2.49960254420779 
1905	 2.97844426212523 
1906	 1.59766973335188 
1907	 0.826861883376548 
1908	 0.115294830216934 
1909	-0.256371092512408 
1910	-0.537002016765063 
1911	-0.826768927451502 
1912	-0.695564600612502 
1913	-0.561532993616551 
1914	-0.141531188415442 
1915	-0.236829657024785 
1916	-0.510502894321603 
1917	-0.850517407921563 
1918	-1.36931695961688 
1919	-0.911346070132364 
1920	-0.367094119516481 
1921	 2.69672239803457E-02 
1922	 3.80609613309553E-02 
1923	-0.235826699266305 
1924	 0.769875564754951 
1925	 0.929839642286075 
1926	 0.948577206335429 
1927	 0.698605007292196 
1928	 0.414922656619807 
1929	-1.62906121139103 
1930	-0.234021750281158 
1931	-0.401718658505034 
1932	 7.48742074598671E-02 
1933	 6.97459608530065E-02 
1934	 0.11976011191519 
1935	 0.202759514788708 
1936	 0.128978123609535 
1937	-0.12132426596391 
1938	-0.281798261973388 
1939	-0.26782068004197 
1940	-0.189320280968741 
1941	-0.187814754281089 
1942	-0.144103360301111 
1943	-8.56071346010449E-02 
1944	-8.04550407918051E-02 
1945	-5.41654757538802E-02 
1946	-0.01785817188954 
1947	-2.93594801551005E-02 
1948	-3.61530948319822E-02 
1949	-3.95642383156136E-02 
1950	-5.96312622220635E-02 
1951	-3.77848958625358E-02 
1952	-2.58247939656682E-02 
1953	-1.65775644803486E-02 
1954	-2.14977588011142E-02 
1955	-3.75110297583529E-04 
1956	 5.58747117398723E-04 
1957	-8.18629807067313E-03 
1958	-2.44322499694153E-03 
1959	 7.26674691098206E-04 
1960	 3.80402064826267E-05 
1961	 1.91129734451092E-03 
1962	 4.36126358585155E-03 
1963	 4.39211604606942E-03 
1964	 0.004920046166638 
1965	 7.08344607000894E-03 
1966	 6.8420998197456E-03 
1967	 5.43508281089199E-03 
1968	 3.13418757356102E-03 
1969	 3.24624928123721E-03 
1970	 3.48361385998165E-03 
1971	 3.18925474558196E-03 
1972	 4.51882450300932E-03 
1973	 5.10629036856578E-03 
1974	 5.14789431543016E-03 
1975	 6.41739925049558E-03 
1976	 5.40930701161788E-03 
1977	 3.75646009093114E-03 
1978	 3.39073838485001E-03 
1979	 3.45187913494018E-03 
1980	 3.41569408715453E-03 
1981	 4.82321017188598E-03 
1982	 5.75261208590124E-03 
1983	 5.06802358357727E-03 
1984	 4.52602507934293E-03 
1985	 4.26686938151646E-03 
1986	 3.6444802253052E-03 
1987	 4.04045100078756E-03 
1988	 5.54034281602427E-03 
1989	 5.5289283787959E-03 
1990	 5.22062596128114E-03 
1991	 6.30987241268994E-03 
1992	 6.26671470661599E-03 
1993	 5.64902794908973E-03 
1994	 5.58058933130256E-03 
1995	 6.69650823162515E-03 
1996	 6.76417681777289E-03 
1997	 5.18335905970313E-03 
1998	 4.05860999271621E-03 
1999	 4.5429721730098E-03 
2000	 3.76076381296492E-03 
2001	 3.66255860862271E-03 
2002	 5.08247313850431E-03 
2003	 3.09230649630285E-03 
2004	 3.01490473252014E-03 
2005	 4.84198530136105E-03 
2006	 4.03106424262417E-03 
2007	 6.12451089956643E-03 
2008	 7.20388084194112E-03 
2009	 6.58261912030932E-03 
2010	 4.84480026226501E-03 
2011	 5.11002561319963E-03 
2012	 6.28091247293804E-03 
2013	 2.27586872236589E-03 
2014	 5.95020156493464E-04 
2015	 7.39044282031707E-05 
2016	-5.74282873918476E-04 
2017	 1.94236745887945E-03 
2018	 4.41969405172982E-03 
2019	 5.58839146748666E-03 
2020	 5.63970685507451E-03 
2021	 5.59254870182494E-03 
2022	 0.006326289162017 
2023	 6.11690190559545E-03 
2024	 5.93386592480724E-03 
2025	 4.94618807110061E-03 
2026	 5.02963521763309E-03 
2027	 5.62474939745541E-03 
2028	 6.09748457461488E-03 
2029	 5.41204191097361E-03 
2030	 5.50558200452148E-03 
2031	 5.46158657171809E-03 
2032	 5.20130387861563E-03 
2033	 5.26353355972652E-03 
2034	 5.66682840838751E-03 
2035	 5.64684873181028E-03 
2036	 5.12162781744457E-03 
2037	 5.45760772740944E-03 
2038	 5.33070100908815E-03 
2039	 5.02527160039321E-03 
2040	 4.10779207178353E-03 
2041	 4.03514895057074E-03 
2042	 4.36288646817217E-03 
2043	 4.52212495433465E-03 
2044	 4.98710398819018E-03 
2045	 5.33290910573273E-03 
2046	 5.56430582612309E-03 
2047	 5.79720406505437E-03 
2048	 5.95081213455467E-03 
2049	 6.02060161574403E-03 
2050	 6.54329758621346E-03 
2051	 6.32210959974419E-03 
2052	 5.95109873730445E-03 
2053	 6.34324000053832E-03 
2054	 5.85555215855476E-03 
2055	 5.52940941695011E-03 
2056	 5.62059625491222E-03 
2057	 6.42850087628891E-03 
2058	 6.41991021008509E-03 
2059	 6.3641941231338E-03 
2060	 6.27468926444862E-03 
2061	 5.81393495487594E-03 
2062	 5.38526291392712E-03 
2063	 5.19451383569164E-03 
2064	 5.04968333646221E-03 
2065	 4.71979085777503E-03 
2066	 3.61866096796883E-03 
2067	 2.70195434740111E-03 
2068	 2.62938095129906E-03 
2069	 3.7717406612489E-03 
2070	 5.20483557530969E-03 
2071	 6.1136651265467E-03 
2072	 6.90764885152035E-03 
2073	 7.10059540539298E-03 
2074	 6.03722561540621E-03 
2075	 5.62556930464243E-03 
2076	 5.31548431392386E-03 
2077	 5.16991485468704E-03 
2078	 4.74334958341749E-03 
2079	 4.87366631882272E-03 
2080	 5.7411103165022E-03 
2081	 6.02632748206908E-03 
2082	 6.17827934608169E-03 
2083	 6.80641835318702E-03 
2084	 6.74296831791821E-03 
2085	 6.87013987904931E-03 
2086	 6.78401043053406E-03 
2087	 6.07445899928776E-03 
2088	 6.13861776877318E-03 
2089	 6.20883117659715E-03 
2090	 6.46609568822317E-03 
2091	 0.007550062711197 
2092	 7.76770095313774E-03 
2093	 7.74241037406221E-03 
2094	 7.22407851330004E-03 
2095	 5.80346291120851E-03 
2096	 5.0778664606613E-03 
2097	 3.78174367809668E-03 
2098	 3.63238412964563E-03 
2099	 4.61223035132707E-03 
2100	 5.20205884213451E-03 
2101	 5.23005565588401E-03 
2102	 5.69930712544239E-03 
2103	 5.92752693730829E-03 
2104	 0.005438939745895 
2105	 4.78614468333783E-03 
2106	 4.68284650823976E-03 
2107	 4.35295777500874E-03 
2108	 4.00954880004713E-03 
2109	 4.57411517448237E-03 
2110	 5.07506097782075E-03 
2111	 5.26937004506056E-03 
2112	 5.38104376327492E-03 
2113	 5.46433193932255E-03 
2114	 5.44432784765971E-03 
2115	 5.58824194816304E-03 
2116	 5.96065758564914E-03 
2117	 5.73463583195606E-03 
2118	 5.33163613117017E-03 
2119	 5.14748703767658E-03 
2120	 4.5064463055406E-03 
2121	 3.94412779104203E-03 
2122	 4.81508383583158E-03 
2123	 5.39151388568411E-03 
2124	 5.34469914488189E-03 
2125	 5.94368245039097E-03 
2126	 5.97423973078735E-03 
2127	 5.34963888633996E-03 
2128	 5.4614266351412E-03 
2129	 5.97826548507315E-03 
2130	 6.01970543945931E-03 
2131	 5.59495498497772E-03 
2132	 6.06484604346177E-03 
2133	 6.37433655141185E-03 
2134	 6.13750614767934E-03 
2135	 6.01184827981736E-03 
2136	 5.60602663970617E-03 
2137	 4.16745600650388E-03 
2138	 3.71148506179271E-03 
2139	 3.78326065012485E-03 
2140	 3.81913926760225E-03 
2141	 4.08309597494872E-03 
2142	 4.34964536190327E-03 
2143	 4.88539866789864E-03 
2144	 4.92410196089163E-03 
2145	 5.1171261614571E-03 
2146	 5.4005086082492E-03 
2147	 4.82599223282487E-03 
2148	 5.14354039240521E-03 
2149	 6.61533727071296E-03 
2150	 6.75848226637927E-03 
2151	 5.80428018904476E-03 
2152	 5.88407968981546E-03 
2153	 6.04409903963311E-03 
2154	 5.25010073411961E-03 
2155	 5.41605070962709E-03 
2156	 6.13351995842985E-03 
2157	 6.13590548200144E-03 
2158	 5.23818638480351E-03 
2159	 5.20947999247806E-03 
2160	 5.66567247538924E-03 
2161	 5.49711359759168E-03 
2162	 4.80468995027788E-03 
2163	 5.19995628255778E-03 
2164	 6.07865536516131E-03 
2165	 6.34836803249824E-03 
2166	 7.6722415055143E-03 
2167	 7.49616425834968E-03 
2168	 5.15459098570481E-03 
2169	 4.77329832777876E-03 
2170	 5.04337742168275E-03 
2171	 5.06291821682134E-03 
2172	 5.24470424777915E-03 
2173	 5.44715418248234E-03 
2174	 4.88021271062523E-03 
2175	 4.76173995790468E-03 
2176	 5.52315654954912E-03 
2177	 6.25800329841851E-03 
2178	 6.87901674652941E-03 
2179	 7.21740674115033E-03 
2180	 7.81149033533319E-03 
2181	 7.60663243732409E-03 
2182	 7.13734005153872E-03 
2183	 6.63485286322295E-03 
2184	 5.10392435978635E-03 
2185	 4.35610054139359E-03 
2186	 4.37248817971786E-03 
2187	 5.00343483155255E-03 
2188	 5.40515598642771E-03 
2189	 7.12892981778258E-03 
2190	 7.19038730537792E-03 
2191	 5.68391484980399E-03 
2192	 5.19632330581125E-03 
2193	 4.31062787934255E-03 
2194	 4.39926086594822E-03 
2195	 6.27760722490855E-03 
2196	 6.25386019757832E-03 
2197	 5.23462841105675E-03 
2198	 4.96706563592696E-03 
2199	 4.13033620233326E-03 
2200	 3.20738839689741E-03 
2201	 3.34884026633389E-03 
2202	 3.60912057014506E-03 
2203	 2.81907737760168E-03 
2204	 3.36515792491706E-03 
2205	 4.82549324837213E-03 
2206	 5.45174857599076E-03 
2207	 6.46554775207473E-03 
2208	 5.59112140215129E-03 
2209	 4.20505509522319E-03 
2210	 3.29837184877151E-03 
2211	 2.29938321266921E-03 
2212	 3.03718353202313E-03 
2213	 3.13113568963787E-03 
2214	 3.76356421221055E-03 
2215	 5.63753029006662E-03 
2216	 4.94019631248882E-03 
2217	 4.14348532755944E-03 
2218	 2.08905995198699E-03 
2219	 2.3465939223585E-03 
2220	 2.87876520819571E-03 
2221	 3.65448624557761E-03 
2222	 6.8130245968111E-03 
2223	 7.88318898102795E-03 
2224	 7.54617654247301E-03 
2225	 7.6127622379512E-03 
2226	 7.45769514334193E-03 
2227	 7.14084423662701E-03 
2228	 5.90870298291291E-03 
2229	 5.40466205798658E-03 
2230	 5.42886289837716E-03 
2231	 5.36020388491304E-03 
2232	 5.61020284788963E-03 
2233	 5.9993900752652E-03 
2234	 6.62711795355912E-03 
2235	 6.77660974099253E-03 
2236	 6.63860818064312E-03 
2237	 7.15522383358987E-03 
2238	 7.45918429108942E-03 
2239	 6.59638060034373E-03 
2240	 6.3632487594517E-03 
2241	 5.41871085451013E-03 
2242	 3.15193617114533E-03 
2243	 3.98204850034637E-03 
2244	 6.36129485851692E-03 
2245	 6.99460585734241E-03 
2246	 8.19673683765372E-03 
2247	 7.95169121115011E-03 
2248	 4.32904672966837E-03 
2249	 3.05181906677822E-03 
2250	 3.96020376516184E-03 
2251	 4.13712631882213E-03 
2252	 5.49000622534094E-03 
2253	 6.58657241369552E-03 
2254	 6.48121188462997E-03 
2255	 6.64123788953005E-03 
2256	 6.02098723150585E-03 
2257	 5.18592795065986E-03 
2258	 4.66541877392779E-03 
2259	 4.17085807164825E-03 
2260	 3.77417804191915E-03 
2261	 3.58330221292381E-03 
2262	 4.24218327293948E-03 
2263	 5.61055298982137E-03 
2264	 6.44052532746246E-03 
2265	 9.16176551992617E-03 
2266	 8.42505152507344E-03 
2267	 3.57452066373801E-03 
2268	 2.63893808753824E-03 
2269	 2.11211263675382E-03 
2270	 2.37797537144585E-03 
2271	 6.27744769067562E-03 
2272	 7.04246215010279E-03 
2273	 5.18472157333258E-03 
2274	 5.36949658017745E-03 
2275	 6.05715004758457E-03 
2276	 6.44331395190428E-03 
2277	 7.99300433913103E-03 
2278	 7.92070899019859E-03 
2279	 6.02562613135998E-03 
2280	 5.0762694705448E-03 
2281	 3.9507763205091E-03 
2282	 3.14223472088511E-03 
2283	 3.22944565040856E-03 
2284	 5.07786969793094E-03 
2285	 5.39309868247667E-03 
2286	 4.29727765759003E-03 
2287	 3.72051137238698E-03 
2288	 3.43577265397006E-03 
2289	 5.20751671466648E-03 
2290	 6.96224809551628E-03 
2291	 5.4226460501875E-03 
2292	 3.20422541745998E-03 
2293	 2.3531216976966E-03 
2294	 2.32747727554833E-03 
2295	 5.92321231264606E-03 
2296	 1.01068913532128E-02 
2297	 9.88913981268832E-03 
2298	 9.11862859365099E-03 
2299	 4.09136907990165E-03 
2300	-5.60292184602904E-04 
2301	 1.33678921576882E-03 
2302	-9.74294532758992E-05 
2303	-8.99949561939042E-04 
2304	 2.19412321341351E-03 
2305	 2.08374164050372E-03 
2306	 3.35066887595878E-03 
2307	 7.76521729477544E-03 
2308	 1.01093239698175E-02 
2309	 9.03811683237264E-03 
2310	 5.45765367014105E-03 
2311	 3.32482875608318E-03 
2312	 6.70750803159439E-04 
2313	-2.19531395083185E-03 
2314	-3.05654185152572E-04 
2315	 1.66866393979209E-03 
2316	 3.05458790973755E-03 
2317	 4.14614979554456E-03 
2318	 3.50678944158374E-03 
2319	 1.7071290207565E-03 
2320	 9.04563144641693E-05 
2321	 1.36793110508937E-03 
2322	 3.46242169357811E-04 
2323	 1.21997429805084E-03 
2324	 5.56763475355786E-03 
2325	 8.12189930219187E-03 
2326	 1.27521615472226E-02 
2327	 1.20687497824918E-02 
2328	 6.55614194752209E-03 
2329	 2.60034664223839E-03 
2330	-1.78899355431721E-03 
2331	-3.33658135934895E-03 
2332	-1.91769789294709E-03 
2333	-3.38768755536613E-04 
2334	-2.89850744268423E-04 
2335	 3.48414527049934E-03 
2336	 6.82098458923444E-03 
2337	 2.24345759680015E-03 
2338	 2.9626357483041E-03 
2339	 5.49457424956195E-03 
2340	-5.35058286235717E-04 
2341	-1.56519889828768E-03 
2342	 2.74855040788662E-03 
2343	 1.68325366955524E-03 
2344	 1.71144217540671E-03 
2345	 2.42671819892959E-03 
2346	-9.83216658164767E-04 
2347	-1.09252040762412E-03 
2348	 3.63691015912336E-03 
2349	 7.36747854636665E-03 
2350	 6.53571185217275E-03 
2351	-3.80044233282257E-04 
2352	-5.31151323131832E-03 
2353	-3.93656399570707E-03 
2354	 5.55561382400075E-04 
2355	 9.55769403362837E-03 
2356	 9.7645247807011E-03 
2357	 7.38243103341435E-03 
2358	 1.23603970511992E-02 
2359	 4.06459918472867E-03 
2360	-3.06817430283485E-03 
2361	 1.28004848891781E-03 
2362	 6.79274712663248E-04 
2363	 2.26911107144761E-03 
2364	 3.7851356733047E-03 
2365	-8.61718926652805E-04 
2366	-1.71321456403818E-03 
2367	-7.06506063913471E-04 
2368	 3.50988119523456E-05 
2369	 4.06872898451284E-03 
2370	 3.90202553641786E-03 
2371	 9.58059180066501E-04 
2372	 1.91928639826551E-03 
2373	 2.54373508244374E-03 
2374	 3.93663953225776E-03 
2375	 4.88314881698516E-03 
2376	 2.90827756527259E-03 
2377	-4.86241060392744E-03 
2378	-2.03929784211628E-02 
2379	-2.67629644112224E-02 
2380	-1.09148759428189E-02 
2381	 1.13972845519815E-02 
2382	 2.23529380191661E-02 
2383	 1.67498390357596E-02 
2384	-2.0512068992684E-03 
2385	-0.020173430679778 
2386	-2.86906126893153E-02 
2387	-2.83995699571062E-02 
2388	-1.74366518504746E-02 
2389	-4.97679713243373E-03 
2390	-0.014419463525621 
2391	-0.020174949447021 
2392	-1.93349055838919E-02 
2393	-1.95190969166279E-02 
2394	 8.97814651065946E-05 
2395	-2.92478237168394E-03 
2396	-7.19959357959935E-03 
2397	-1.20738219390327E-02 
2398	-4.33659404742911E-02 
2399	-5.72118204771936E-02 
2400	-5.28526726684128E-02 
2401	-6.62475426548377E-02 
2402	-9.60660427851355E-02 
2403	-8.73473618368222E-02 
2404	-6.86591592123495E-02 
2405	-6.13280656831143E-02 
2406	-2.27902269711292E-02 
2407	-7.81798138341846E-03 
2408	-2.43263274724944E-02 
2409	-2.44987596237206E-02 
2410	-2.02602679780081E-02 
2411	-5.06037606269925E-03 
2412	 1.60715460265615E-02 
2413	 0.013217112470641 
2414	 1.82319641746772E-02 
2415	 8.90705334905135E-03 
2416	-2.30208310768291E-02 
2417	-6.06664329034283E-02 
2418	-0.13278043153839 
2419	-9.68729959947709E-02 
2420	-4.6007889414867E-03 
2421	 1.78713271057043E-02 
2422	 6.69334869640414E-02 
2423	 1.30298133983212E-02 
2424	-9.45340132814567E-02 
2425	-9.28283134009382E-02 
2426	-0.107617415627069 
2427	-7.53360185224928E-02 
2428	-3.34990713788813E-02 
2429	-9.23538546695425E-02 
2430	-0.107381987541535 
2431	-6.23007531041551E-02 
2432	-9.13070597581087E-02 
2433	-7.39050814287113E-02 
2434	-3.61905694713711E-02 
2435	-9.74025503783419E-02 
2436	-0.135805430923387 
2437	-0.132865460122625 
2438	-0.145904141377045 
2439	-0.155076858664311 
2440	-0.120497236173649 
2441	-5.64552549259408E-02 
2442	-2.21945087971058E-02 
2443	 7.69472165668269E-02 
2444	 0.161055260689265 
2445	 0.12867967473238 
2446	 0.09947403545284 
2447	-0.231262060096344 
2448	-0.433799076805692 
2449	-0.610647701898421 
2450	-0.737515489042719 
2451	-0.646762044404275 
2452	-0.355116058846094 
2453	-0.567428481242126 
2454	-0.767480581398918 
2455	-0.496232834595704 
2456	-0.398528692516747 
2457	-0.40759594407225 
2458	-0.328398930920144 
2459	-0.12690400845652 
2460	-4.78676284009119E-02 
2461	-0.236931997975377 
2462	-0.335063454698585 
2463	-0.428979628023477 
2464	-0.72674474335765 
2465	-0.470145603340172 
2466	-0.198749003428278 
2467	-0.377389448372364 
2468	 7.04196345735358E-02 
2469	 0.689497277160875 
2470	 0.206710265996815 
2471	 0.892542229761339 
2472	 29.8049469836011 
2473	-1.15228252858888 
2474	-0.617189017841329 
2475	-1.1410069827812 
2476	-0.582467443605685 
2477	-0.724881657114816 
2478	-1.49671337052321 
2479	-2.20093676880617 
2480	-6.56871868574118 
2481	 1.83279165848881 
2482	 0.530439578975321 
2483	 7.53235748349576 
2484	-18.5600179795314 
2485	 0.243476104654978 
2486	-7.48737653691693 
2487	-0.203605128521265 
2488	 1.21325886908682 
2489	 0.614321486625823 
2490	 0.275984220804213 
2491	 0.807488824380089 
2492	 0.474647995489319 
2493	 0.264704733438889 
2494	 8.99909620158732E-03 
2495	-0.185719811388608 
2496	 4.91498871253755E-02 
2497	-0.186429204634414 
2498	-0.709413842542728 
2499	-6.00036093578645 
2500	 0.670345819389875 
