Wavelength	rt0629dirtre00009.asd
350	 8.79696679481706E-02 
351	 8.96745052145452E-02 
352	 8.93977421901051E-02 
353	 0.089033612198923 
354	 8.95948213795881E-02 
355	 8.83700872757308E-02 
356	 8.81946336132563E-02 
357	 8.89868748596507E-02 
358	 8.97669353016855E-02 
359	 9.01228180048461E-02 
360	 9.04922998037518E-02 
361	 9.05289245461848E-02 
362	 8.96071478238535E-02 
363	 9.02194164199148E-02 
364	 9.05267423355105E-02 
365	 9.00107543065254E-02 
366	 9.09657013277925E-02 
367	 9.13671599400746E-02 
368	 9.13495217736184E-02 
369	 9.14554226974236E-02 
370	 9.14256291886062E-02 
371	 9.23668102813135E-02 
372	 9.34621538653261E-02 
373	 9.30819586048596E-02 
374	 9.33315219393872E-02 
375	 9.34313163306287E-02 
376	 9.33144938350782E-02 
377	 0.094254010725839 
378	 9.47241768335727E-02 
379	 9.51424594209656E-02 
380	 9.59450348961836E-02 
381	 9.61172087687221E-02 
382	 9.62317410134631E-02 
383	 9.65340159041928E-02 
384	 9.71088480435536E-02 
385	 9.81916643605377E-02 
386	 9.89289284212865E-02 
387	 9.90221712037627E-02 
388	 9.89196855244619E-02 
389	 9.96769345574472E-02 
390	 0.100551415009138 
391	 0.100904657230739 
392	 0.101267181024813 
393	 0.101391486468716 
394	 0.101844169857373 
395	 0.103013890922138 
396	 0.102850328527338 
397	 0.103132653336151 
398	 0.103986190733406 
399	 0.104032161935034 
400	 0.104532445756205 
401	 0.104696450433361 
402	 0.104336178758855 
403	 0.105366198045108 
404	 0.105918287879049 
405	 0.10615213952154 
406	 0.106776438412858 
407	 0.106975015284783 
408	 0.107210858370039 
409	 0.10773329331996 
410	 0.108475301586495 
411	 0.108727133327572 
412	 0.109025665122747 
413	 0.109717266466813 
414	 0.110106466560298 
415	 0.110777641730373 
416	 0.11143557060323 
417	 0.111642709380914 
418	 0.112417329311401 
419	 0.113020626150892 
420	 0.113321686292169 
421	 0.11395836941202 
422	 0.114751072550342 
423	 0.115487710234789 
424	 0.116076117064569 
425	 0.116802421320729 
426	 0.117378052868286 
427	 0.117967827351005 
428	 0.118904858835539 
429	 0.12004713390435 
430	 0.121076321172888 
431	 0.121904024542515 
432	 0.122730338082826 
433	 0.123690661322741 
434	 0.124529066870106 
435	 0.125115743062836 
436	 0.125917931094266 
437	 0.127053421419157 
438	 0.128083145817371 
439	 0.128454046052799 
440	 0.129528616559468 
441	 0.130588239689585 
442	 0.131271858063748 
443	 0.13208341063241 
444	 0.132676895166149 
445	 0.133386549660918 
446	 0.134439615233734 
447	 0.134928920039492 
448	 0.135623828414349 
449	 0.136475497375073 
450	 0.136876026138553 
451	 0.137471181119143 
452	 0.138008794221598 
453	 0.138369509440007 
454	 0.13896983523462 
455	 0.139551650137222 
456	 0.140047655861822 
457	 0.140482689904692 
458	 0.141018682673593 
459	 0.141398032092016 
460	 0.141673801077432 
461	 0.142206816705091 
462	 0.14264354071401 
463	 0.143042337074604 
464	 0.143521287275924 
465	 0.144172169702413 
466	 0.144487605082762 
467	 0.144663612054132 
468	 0.14518361149279 
469	 0.145737657486155 
470	 0.146146889850077 
471	 0.146456160116689 
472	 0.14698570942907 
473	 0.147457217249471 
474	 0.147912985238409 
475	 0.148461648022673 
476	 0.149183864858864 
477	 0.149558618671263 
478	 0.149802659058534 
479	 0.150566332444659 
480	 0.151185462112013 
481	 0.151756724579068 
482	 0.152376600807223 
483	 0.152913775735536 
484	 0.153628198058427 
485	 0.154370898751707 
486	 0.154927563411452 
487	 0.155583822644305 
488	 0.156510629564028 
489	 0.157556781843514 
490	 0.158295159967521 
491	 0.158749458538718 
492	 0.159324139798949 
493	 0.160241097198438 
494	 0.16104573980447 
495	 0.161771493787541 
496	 0.162635894356089 
497	 0.163854378758753 
498	 0.164740063772214 
499	 0.165492023219336 
500	 0.166327383353631 
501	 0.167342396535405 
502	 0.168125109769292 
503	 0.168948239513815 
504	 0.17007418090197 
505	 0.17084953084788 
506	 0.171734728676051 
507	 0.172830849002935 
508	 0.173928073915668 
509	 0.174959408183668 
510	 0.176005206163213 
511	 0.177121933224214 
512	 0.178279914547975 
513	 0.179276979365097 
514	 0.180271281361356 
515	 0.181506002301105 
516	 0.18257010833212 
517	 0.183817779019919 
518	 0.185227788448126 
519	 0.186255343178492 
520	 0.18752878704972 
521	 0.188806571385765 
522	 0.18983432277137 
523	 0.190955418412725 
524	 0.192337311075333 
525	 0.193738123925319 
526	 0.194717585587682 
527	 0.19608062054503 
528	 0.19748470822398 
529	 0.198707895793679 
530	 0.200128934382455 
531	 0.201322395480822 
532	 0.202457343409077 
533	 0.20382887328365 
534	 0.205081969990744 
535	 0.206337025572248 
536	 0.207677008364055 
537	 0.209099234784619 
538	 0.210409548676644 
539	 0.21174786149337 
540	 0.213209612966482 
541	 0.214459348250368 
542	 0.215788048756146 
543	 0.217170760414923 
544	 0.218418048565913 
545	 0.219794312817295 
546	 0.221134491629447 
547	 0.222372500540153 
548	 0.223741686519703 
549	 0.225139419628264 
550	 0.226504292120041 
551	 0.22781110281393 
552	 0.229149625404166 
553	 0.230507319897925 
554	 0.231796541392988 
555	 0.232853366698461 
556	 0.234209270907102 
557	 0.235582489579964 
558	 0.236681017203165 
559	 0.237932009065467 
560	 0.239058202931103 
561	 0.240054347688228 
562	 0.241090646714255 
563	 0.242174036248726 
564	 0.243205711657069 
565	 0.244141178689275 
566	 0.24508028548639 
567	 0.245851525186195 
568	 0.246613276689003 
569	 0.247549855725004 
570	 0.248225270826332 
571	 0.249112864048362 
572	 0.250120225565303 
573	 0.250516962567539 
574	 0.250988452101025 
575	 0.251737062224749 
576	 0.252653354650556 
577	 0.253020304493211 
578	 0.253515882353911 
579	 0.254114299267853 
580	 0.254408230179029 
581	 0.254866673074481 
582	 0.255212489531249 
583	 0.255282573264938 
584	 0.255270670430899 
585	 0.255223403881648 
586	 0.255133452003241 
587	 0.254960048830856 
588	 0.254667223183436 
589	 0.254339401111159 
590	 0.25415586597135 
591	 0.254313314905338 
592	 0.254210996220421 
593	 0.253964140208248 
594	 0.253761273673972 
595	 0.253537729942027 
596	 0.25313366746721 
597	 0.252537973162118 
598	 0.251872630521475 
599	 0.251546311391909 
600	 0.251281828039252 
601	 0.250878440839294 
602	 0.250394757608467 
603	 0.250160119443183 
604	 0.250197413382071 
605	 0.250357260136266 
606	 0.250238303851764 
607	 0.250204379178557 
608	 0.250317406367665 
609	 0.250297712180537 
610	 0.250355061590645 
611	 0.250395778899754 
612	 0.250375242813835 
613	 0.250608532140877 
614	 0.25057353852038 
615	 0.250514995046901 
616	 0.250971645661024 
617	 0.25090501622609 
618	 0.250801522571198 
619	 0.250922388914757 
620	 0.250892363918211 
621	 0.250949474915968 
622	 0.25106096427962 
623	 0.251094527713394 
624	 0.250860538430309 
625	 0.250779002126678 
626	 0.250827598154395 
627	 0.250584772540017 
628	 0.250947241849728 
629	 0.251281843287942 
630	 0.251108291420843 
631	 0.251108193657994 
632	 0.251112395675523 
633	 0.251108629497123 
634	 0.251136029473849 
635	 0.251148607261193 
636	 0.251104862885314 
637	 0.251048264410917 
638	 0.251141518736953 
639	 0.251190110456134 
640	 0.251209390878641 
641	 0.251234475850661 
642	 0.251146777694217 
643	 0.250808548372688 
644	 0.250336676792494 
645	 0.250036668949174 
646	 0.249555666344496 
647	 0.249200822609498 
648	 0.249146057353272 
649	 0.248959142810596 
650	 0.248807079029208 
651	 0.248574963542984 
652	 0.248091431872589 
653	 0.247417978697704 
654	 0.246592225255192 
655	 0.245736867032838 
656	 0.245184377852162 
657	 0.244370138435041 
658	 0.243655722926408 
659	 0.24329775641145 
660	 0.242736484178275 
661	 0.242386436908023 
662	 0.242120805901211 
663	 0.24153177832951 
664	 0.240947362958055 
665	 0.240500688387391 
666	 0.24024435166759 
667	 0.240173646484376 
668	 0.23988185339876 
669	 0.239529308636325 
670	 0.239363243864615 
671	 0.238949736845641 
672	 0.238938941529426 
673	 0.239132320016422 
674	 0.238587479682725 
675	 0.238538094840653 
676	 0.238476742005074 
677	 0.238064965546001 
678	 0.238278227714542 
679	 0.238185007576731 
680	 0.237887590692982 
681	 0.23785149746924 
682	 0.237486941627184 
683	 0.237391616513097 
684	 0.237464570335609 
685	 0.236495900417036 
686	 0.235894538272104 
687	 0.23563716724974 
688	 0.235302727240502 
689	 0.235011783258977 
690	 0.234666023539813 
691	 0.234057728369519 
692	 0.232976849949688 
693	 0.232271439822261 
694	 0.231762541947955 
695	 0.231174568689146 
696	 0.230322522300327 
697	 0.229309919681877 
698	 0.228117813911726 
699	 0.226843336807218 
700	 0.225724724718888 
701	 0.224831498307444 
702	 0.22380977369128 
703	 0.222094703289786 
704	 0.221127181948118 
705	 0.219881814795067 
706	 0.217872570675055 
707	 0.216457600562499 
708	 0.214937896247448 
709	 0.212969071686764 
710	 0.210505153632111 
711	 0.208442760491844 
712	 0.206174076641036 
713	 0.203526006914629 
714	 0.200796533031021 
715	 0.197902746267439 
716	 0.194486493007816 
717	 0.190656203524356 
718	 0.187287656921037 
719	 0.184202046701195 
720	 0.181780003756912 
721	 0.179683166686441 
722	 0.17704122291885 
723	 0.173714386550216 
724	 0.170261307419678 
725	 0.166989635610131 
726	 0.16346632535491 
727	 0.159756777845435 
728	 0.156030648461865 
729	 0.15235496251557 
730	 0.14791945123726 
731	 0.143704515776733 
732	 0.140695678717261 
733	 0.137650775080711 
734	 0.135042623643905 
735	 0.13291319053011 
736	 0.130583742835115 
737	 0.128912153955984 
738	 0.127837447276435 
739	 0.127090235840879 
740	 0.126415161111728 
741	 0.12576794757804 
742	 0.125221338347032 
743	 0.124873734478633 
744	 0.124561439353293 
745	 0.124183684816684 
746	 0.123789704227925 
747	 0.12360770331725 
748	 0.123440814196444 
749	 0.123156550390499 
750	 0.122760078296258 
751	 0.122627578177502 
752	 0.122480090889351 
753	 0.122278085979796 
754	 0.122102520973662 
755	 0.121841622769599 
756	 0.121600790472146 
757	 0.121435690047769 
758	 0.121295888674464 
759	 0.121111835736282 
760	 0.12073276593396 
761	 0.120333905824571 
762	 0.120122569049312 
763	 0.120106847892122 
764	 0.120327194854829 
765	 0.120746230180821 
766	 0.121241626168464 
767	 0.121355134388279 
768	 0.12127916380535 
769	 0.121758848184445 
770	 0.12184217000727 
771	 0.121876411876815 
772	 0.122190086926615 
773	 0.122320309715936 
774	 0.122686063491102 
775	 0.123121896571996 
776	 0.123302221216743 
777	 0.123545651260254 
778	 0.123961832652847 
779	 0.124527763133938 
780	 0.125098451998657 
781	 0.125555027465035 
782	 0.125960198574959 
783	 0.126394568844689 
784	 0.126879402851365 
785	 0.127563190318895 
786	 0.128144269564814 
787	 0.128361472894669 
788	 0.129129692558528 
789	 0.129760743527872 
790	 0.130196228199225 
791	 0.130937637454936 
792	 0.131841823375084 
793	 0.132554840084386 
794	 0.133046654988217 
795	 0.133821410502944 
796	 0.134358666498754 
797	 0.13479522123108 
798	 0.13535573045208 
799	 0.135768125058266 
800	 0.13651817872242 
801	 0.137236555055591 
802	 0.137264023754679 
803	 0.137581868096418 
804	 0.138151426542646 
805	 0.138591962230963 
806	 0.138323657129158 
807	 0.138131865222444 
808	 0.138253087715007 
809	 0.138509063155399 
810	 0.137925635249636 
811	 0.137198053375999 
812	 0.136680082802676 
813	 0.136398933992881 
814	 0.135068461414646 
815	 0.133934154588157 
816	 0.133533621743714 
817	 0.133380353383366 
818	 0.132462618993569 
819	 0.131535297293937 
820	 0.130706743883024 
821	 0.129161419745141 
822	 0.126675303879435 
823	 0.124437651493257 
824	 0.123022437867237 
825	 0.120693097863427 
826	 0.117955435020066 
827	 0.114854133656505 
828	 0.111665602629965 
829	 0.109085105188406 
830	 0.106469695643583 
831	 0.104176210789303 
832	 0.103140146453878 
833	 0.101215705871113 
834	 0.099395130133566 
835	 9.83623458545188E-02 
836	 9.79131577807643E-02 
837	 0.097203451714474 
838	 9.64331861415784E-02 
839	 9.57969133069491E-02 
840	 9.47840057955111E-02 
841	 9.40396749925941E-02 
842	 9.35487190779764E-02 
843	 9.31017891449204E-02 
844	 9.29138177485255E-02 
845	 9.22593243356396E-02 
846	 9.13614210792837E-02 
847	 9.10478855914907E-02 
848	 9.11873085943801E-02 
849	 9.05528649043566E-02 
850	 8.91649656212987E-02 
851	 0.088699521122137 
852	 8.87096674229636E-02 
853	 8.85665330479037E-02 
854	 8.78768722205938E-02 
855	 8.68585060267981E-02 
856	 8.62321321488108E-02 
857	 8.61303028437273E-02 
858	 8.63198236401584E-02 
859	 8.61037192241383E-02 
860	 8.54735643414134E-02 
861	 8.48669015096338E-02 
862	 8.47511169131253E-02 
863	 8.43540743296939E-02 
864	 8.37399187162406E-02 
865	 8.30312833952596E-02 
866	 0.082380859754409 
867	 8.21121602139279E-02 
868	 0.08191306287732 
869	 8.15395135797923E-02 
870	 8.09792065635504E-02 
871	 8.05285480056481E-02 
872	 7.98998499496255E-02 
873	 7.90927149045763E-02 
874	 0.079034452039276 
875	 7.87819056673245E-02 
876	 7.82676542482734E-02 
877	 0.0776186865038 
878	 7.64921659283788E-02 
879	 7.60575879365158E-02 
880	 7.59436242096027E-02 
881	 7.52456580045268E-02 
882	 7.48274791127951E-02 
883	 7.40524178399858E-02 
884	 7.32602844096459E-02 
885	 7.33116082088784E-02 
886	 7.25115742583252E-02 
887	 7.18631369987161E-02 
888	 7.18044205632333E-02 
889	 7.17698618286645E-02 
890	 7.14904462361632E-02 
891	 7.06492540012266E-02 
892	 6.95587384505193E-02 
893	 0.069718641569423 
894	 6.93816834929483E-02 
895	 6.85515499268414E-02 
896	 6.77430331122804E-02 
897	 6.71817574553077E-02 
898	 0.066211371580753 
899	 6.53597251243872E-02 
900	 6.53506755529274E-02 
901	 6.60957193231555E-02 
902	 6.64557951100107E-02 
903	 6.57126282878306E-02 
904	 6.41244000168591E-02 
905	 6.56975236397408E-02 
906	 6.58399655995988E-02 
907	 6.39679604717364E-02 
908	 6.27052577760096E-02 
909	 6.15963894060202E-02 
910	 6.09955188581342E-02 
911	 6.11425736617084E-02 
912	 6.18668691002444E-02 
913	 6.07313942762994E-02 
914	 5.83579198304776E-02 
915	 5.69369812891576E-02 
916	 5.89162430492192E-02 
917	 5.84790089948731E-02 
918	 5.77817083683888E-02 
919	 5.77721162049834E-02 
920	 5.64446974877185E-02 
921	 5.50502831049148E-02 
922	 5.46237768173451E-02 
923	 5.45617309906261E-02 
924	 5.08213359937208E-02 
925	 0.050833221549647 
926	 5.25593443766613E-02 
927	 5.16166398017082E-02 
928	 4.78979617430951E-02 
929	 4.87673366910431E-02 
930	 0.052272802834771 
931	 5.01740893618829E-02 
932	 0.047315802133907 
933	 5.06960025639834E-02 
934	 0.057544878302148 
935	 5.66641520400843E-02 
936	 3.78882318049822E-02 
937	 4.14606650887992E-02 
938	 4.87345808478004E-02 
939	 3.70153792441333E-02 
940	 3.83434275107559E-02 
941	 4.43431507313151E-02 
942	 4.53742532816155E-02 
943	 3.63282693923631E-02 
944	 4.55789954871831E-02 
945	 4.49091338059087E-02 
946	 0.034459836417344 
947	 3.32868097857692E-02 
948	 4.73134343752848E-02 
949	 4.69232377383887E-02 
950	 3.92653789754284E-02 
951	 4.78160853250009E-02 
952	 4.72034071439085E-02 
953	 0.044245195023916 
954	 0.044839688490365 
955	 0.048888405467891 
956	 0.034457824804239 
957	 3.48717575687544E-02 
958	 4.73201940962275E-02 
959	 4.61363952940165E-02 
960	 4.11004618730435E-02 
961	 4.60445844559004E-02 
962	 5.05058510999217E-02 
963	 3.63352819727542E-02 
964	 4.00015550626421E-02 
965	 4.16203026666554E-02 
966	 3.74235534224894E-02 
967	 3.70257043863267E-02 
968	 3.88739714149719E-02 
969	 0.038275990428124 
970	 3.67070689632717E-02 
971	 3.97250935892345E-02 
972	 4.00217713247352E-02 
973	 0.040340699924554 
974	 4.08577102911529E-02 
975	 3.90973274483319E-02 
976	 4.13826162819589E-02 
977	 3.99284584710638E-02 
978	 3.66602530439866E-02 
979	 4.05095912214504E-02 
980	 3.97963744741403E-02 
981	 3.98613262879718E-02 
982	 4.02812017626244E-02 
983	 0.036715700412436 
984	 4.06932487691058E-02 
985	 4.10958610877083E-02 
986	 3.72231092767482E-02 
987	 3.68106269716485E-02 
988	 3.34571433133298E-02 
989	 0.036724864677484 
990	 4.17689155672573E-02 
991	 3.63071080246702E-02 
992	 3.84338632081569E-02 
993	 0.038371846668907 
994	 0.037240644426146 
995	 0.042142755856706 
996	 3.92720012698048E-02 
997	 3.65832710873422E-02 
998	 3.66396720221108E-02 
999	 3.73419223480982E-02 
1000	 3.75633622544167E-02 
1001	 3.94924704937164E-02 
1002	 3.96641998794808E-02 
1003	 3.95776001721482E-02 
1004	 3.88954237443994E-02 
1005	 3.90617987799963E-02 
1006	 3.92136227990481E-02 
1007	 4.07472267210501E-02 
1008	 4.14447036491763E-02 
1009	 4.12639344021025E-02 
1010	 0.041010525761461 
1011	 3.96490076351887E-02 
1012	 3.91085545395777E-02 
1013	 3.92783779766724E-02 
1014	 3.92171776910511E-02 
1015	 0.038655782958701 
1016	 0.039817965592797 
1017	 4.27697037035491E-02 
1018	 4.37171413786157E-02 
1019	 4.46373233308112E-02 
1020	 4.49882140217656E-02 
1021	 0.043613266954364 
1022	 4.29646684183715E-02 
1023	 4.38917521094561E-02 
1024	 4.50343565889494E-02 
1025	 4.50263377934469E-02 
1026	 4.44264365252503E-02 
1027	 4.34365404919288E-02 
1028	 4.06171350119288E-02 
1029	 0.040162784480133 
1030	 4.03944362470055E-02 
1031	 0.040839346374426 
1032	 4.27996128319327E-02 
1033	 4.36319434175921E-02 
1034	 4.41520805017468E-02 
1035	 0.044659518673085 
1036	 4.47261855345087E-02 
1037	 4.49524584943825E-02 
1038	 4.52091612000467E-02 
1039	 4.56520898264859E-02 
1040	 4.59263169677069E-02 
1041	 4.55325893710332E-02 
1042	 4.49784255646927E-02 
1043	 4.34281969592509E-02 
1044	 4.36193512356735E-02 
1045	 4.46523165090365E-02 
1046	 4.48157135591645E-02 
1047	 4.59847885269017E-02 
1048	 4.58308397133647E-02 
1049	 4.31881334274708E-02 
1050	 4.31632851116135E-02 
1051	 4.47818718615985E-02 
1052	 4.53228070364176E-02 
1053	 4.63561125291247E-02 
1054	 4.74074336971463E-02 
1055	 4.80048154756451E-02 
1056	 4.83255489647374E-02 
1057	 4.86653263085332E-02 
1058	 5.01657895250062E-02 
1059	 4.94283757724103E-02 
1060	 4.66694577402967E-02 
1061	 4.57179014169836E-02 
1062	 4.39527194554773E-02 
1063	 0.043928490449259 
1064	 0.04620190273303 
1065	 4.67518738693503E-02 
1066	 4.70507496104631E-02 
1067	 4.75999613289383E-02 
1068	 4.82915468411404E-02 
1069	 0.047983952694567 
1070	 0.0464967157306 
1071	 4.64498431230838E-02 
1072	 4.68823819554775E-02 
1073	 4.63679566451208E-02 
1074	 4.62518134513863E-02 
1075	 4.75250377712169E-02 
1076	 4.77714677641534E-02 
1077	 4.65753706580327E-02 
1078	 4.66794362013135E-02 
1079	 4.81351901328389E-02 
1080	 4.81576505499518E-02 
1081	 4.77971437385622E-02 
1082	 4.72220008646971E-02 
1083	 4.46291973574818E-02 
1084	 4.45989878775555E-02 
1085	 4.70131183723871E-02 
1086	 4.73368794157716E-02 
1087	 4.83776737782559E-02 
1088	 4.86144761839989E-02 
1089	 4.70801654776718E-02 
1090	 4.44971447612064E-02 
1091	 4.37193708003152E-02 
1092	 4.38531178744986E-02 
1093	 4.40456334713261E-02 
1094	 4.52039227330295E-02 
1095	 4.54206237711144E-02 
1096	 4.57771529561634E-02 
1097	 4.53069658641121E-02 
1098	 4.33306613944508E-02 
1099	 4.27961873596526E-02 
1100	 4.18858912093794E-02 
1101	 4.22193849707588E-02 
1102	 4.62751874949515E-02 
1103	 4.67054906151349E-02 
1104	 4.48699729872418E-02 
1105	 4.38392825692309E-02 
1106	 4.29529707849789E-02 
1107	 0.041870063619845 
1108	 4.36190306341821E-02 
1109	 4.71840624676057E-02 
1110	 0.047377331088662 
1111	 4.25201438308627E-02 
1112	 0.042374981708798 
1113	 4.54520318802301E-02 
1114	 4.40349129685873E-02 
1115	 4.32771030131283E-02 
1116	 4.13340985130308E-02 
1117	 2.55947240570076E-02 
1118	 0.019431907054995 
1119	 2.94896759366112E-02 
1120	 3.01387356412589E-02 
1121	 3.01721395087186E-02 
1122	 3.68052615227199E-02 
1123	 2.56350459548299E-02 
1124	 6.10848691171533E-03 
1125	 1.36607384567723E-02 
1126	 3.51649831912577E-02 
1127	 0.056464141396077 
1128	 6.11968184234379E-02 
1129	 5.93587332967426E-02 
1130	 4.11091196433996E-02 
1131	 3.22038382035477E-02 
1132	 0.024722085047485 
1133	 2.84177397163569E-02 
1134	 3.10374211013981E-02 
1135	 3.63864711339137E-02 
1136	 5.33218228198218E-02 
1137	 5.36221418206692E-02 
1138	 4.35383804231962E-02 
1139	 4.68507339764264E-02 
1140	 4.78835073557416E-02 
1141	 4.24631174627848E-02 
1142	 4.12512178909098E-02 
1143	 4.60629685378385E-02 
1144	 3.60870208891616E-02 
1145	 2.84378672207926E-02 
1146	 3.95998598696037E-02 
1147	 4.88312457005257E-02 
1148	 5.46373390993309E-02 
1149	 5.22238076756773E-02 
1150	 4.99281850367828E-02 
1151	 3.64127901199759E-02 
1152	 3.39923330463517E-02 
1153	 4.10603388989375E-02 
1154	 0.041716604489275 
1155	 4.22400304662309E-02 
1156	 3.78957100921343E-02 
1157	 3.68463915793976E-02 
1158	 3.64826345091435E-02 
1159	 3.59587476755523E-02 
1160	 3.84746150061108E-02 
1161	 0.039953607801206 
1162	 3.87038993806448E-02 
1163	 3.99009704605078E-02 
1164	 0.041002848390232 
1165	 3.83250710018394E-02 
1166	 3.76222356329312E-02 
1167	 3.95849254262172E-02 
1168	 0.038607313448697 
1169	 3.83015747947168E-02 
1170	 3.92755978386868E-02 
1171	 3.96704518601066E-02 
1172	 3.83189972421329E-02 
1173	 3.87037797591272E-02 
1174	 4.07808796878361E-02 
1175	 4.19157846370342E-02 
1176	 0.040303609049139 
1177	 3.90930247868927E-02 
1178	 3.91551168947586E-02 
1179	 3.87655409660569E-02 
1180	 3.95157786701357E-02 
1181	 4.02653025165293E-02 
1182	 0.039798007081828 
1183	 3.85943369137388E-02 
1184	 3.82876672165854E-02 
1185	 3.90115472554182E-02 
1186	 3.88020344747253E-02 
1187	 3.93238685954614E-02 
1188	 4.04733683912771E-02 
1189	 4.00441147491786E-02 
1190	 4.00008815325315E-02 
1191	 4.02082321839641E-02 
1192	 4.02726779758009E-02 
1193	 3.95583819280517E-02 
1194	 4.04723152503422E-02 
1195	 4.12469899485009E-02 
1196	 4.05683218069304E-02 
1197	 3.94810807438139E-02 
1198	 3.82602656951391E-02 
1199	 3.81315830055499E-02 
1200	 3.84866904254831E-02 
1201	 3.92546708991317E-02 
1202	 4.15353753692099E-02 
1203	 4.12806657162288E-02 
1204	 3.82182924286211E-02 
1205	 3.76539640818803E-02 
1206	 3.77275681669465E-02 
1207	 3.69878214358754E-02 
1208	 0.038304774795294 
1209	 4.05288314660173E-02 
1210	 4.03578333728851E-02 
1211	 3.88783822943163E-02 
1212	 0.038994021565318 
1213	 3.94233082167088E-02 
1214	 3.93966522162443E-02 
1215	 3.89273313323943E-02 
1216	 3.92581913958165E-02 
1217	 4.01494352534327E-02 
1218	 3.96878161855201E-02 
1219	 3.77505950150913E-02 
1220	 3.82539566502845E-02 
1221	 3.99200862311689E-02 
1222	 4.00522836669344E-02 
1223	 4.04366955860081E-02 
1224	 4.10389199827587E-02 
1225	 4.04373158320894E-02 
1226	 3.91334510055138E-02 
1227	 0.038988658460282 
1228	 3.94181311226453E-02 
1229	 3.86266262177912E-02 
1230	 3.85968011004925E-02 
1231	 3.92966035660214E-02 
1232	 3.92854916159639E-02 
1233	 3.98376230139086E-02 
1234	 4.03288751194242E-02 
1235	 4.02392810245045E-02 
1236	 0.039778389623238 
1237	 3.99304244991462E-02 
1238	 4.01509286035319E-02 
1239	 0.039274284318662 
1240	 3.91654871484373E-02 
1241	 3.88438094687744E-02 
1242	 3.83480607056018E-02 
1243	 0.039152999371445 
1244	 4.05879323023565E-02 
1245	 4.16961756763092E-02 
1246	 4.10442163414372E-02 
1247	 3.99495096668279E-02 
1248	 3.93342467886417E-02 
1249	 3.86102499483131E-02 
1250	 3.84701194574983E-02 
1251	 3.89004253288905E-02 
1252	 0.039981427270895 
1253	 0.040346600025531 
1254	 4.03268603325013E-02 
1255	 4.12911726096837E-02 
1256	 4.11726524571143E-02 
1257	 3.92974756582796E-02 
1258	 3.87803946771441E-02 
1259	 3.85535831697008E-02 
1260	 3.85731368278793E-02 
1261	 3.97821376682228E-02 
1262	 3.98116807405741E-02 
1263	 3.94846882883359E-02 
1264	 3.87835496561083E-02 
1265	 3.90319287104771E-02 
1266	 3.91204822311413E-02 
1267	 0.038673205330744 
1268	 3.82313957952179E-02 
1269	 3.74753637253391E-02 
1270	 3.78662459427643E-02 
1271	 3.91576035196581E-02 
1272	 3.92683691095255E-02 
1273	 3.89584244717277E-02 
1274	 3.83781511761653E-02 
1275	 3.79726951461096E-02 
1276	 0.038634234215961 
1277	 3.92920782704341E-02 
1278	 3.90822303165059E-02 
1279	 3.87794485577302E-02 
1280	 3.95411265084823E-02 
1281	 3.96134729623687E-02 
1282	 3.88675890501276E-02 
1283	 3.88034432034272E-02 
1284	 3.92878731862082E-02 
1285	 3.90467944816032E-02 
1286	 3.86933948578208E-02 
1287	 0.038828330544104 
1288	 3.84707305122038E-02 
1289	 0.038091678633132 
1290	 3.79183822253543E-02 
1291	 3.88467462676782E-02 
1292	 3.79461484438211E-02 
1293	 3.68055446844743E-02 
1294	 3.67557971354165E-02 
1295	 3.62653249201062E-02 
1296	 3.73691861087302E-02 
1297	 3.91382928651443E-02 
1298	 0.039298565738623 
1299	 3.93713719573422E-02 
1300	 3.89869380456084E-02 
1301	 3.82576433511547E-02 
1302	 3.82596159521122E-02 
1303	 3.78885871794455E-02 
1304	 3.72784198796962E-02 
1305	 3.81281570639953E-02 
1306	 3.84480618195503E-02 
1307	 3.99538238222386E-02 
1308	 0.040169751460762 
1309	 3.89876853469703E-02 
1310	 3.86177038283876E-02 
1311	 3.88860643851299E-02 
1312	 3.85319836307496E-02 
1313	 3.72606934990328E-02 
1314	 3.66226338026233E-02 
1315	 3.63602099279004E-02 
1316	 3.62548605569853E-02 
1317	 3.63548584877644E-02 
1318	 3.68351922063663E-02 
1319	 3.76958606443893E-02 
1320	 3.78336038895479E-02 
1321	 3.77118438042443E-02 
1322	 3.86010863120029E-02 
1323	 3.98262316703858E-02 
1324	 3.97976160197716E-02 
1325	 3.70618318506435E-02 
1326	 3.66955565207382E-02 
1327	 3.53048618523994E-02 
1328	 3.21738095101177E-02 
1329	 3.42010995987435E-02 
1330	 3.78656688765612E-02 
1331	 3.85628904594321E-02 
1332	 3.71791331208067E-02 
1333	 3.37444603369458E-02 
1334	 2.83148386309524E-02 
1335	 2.76167085173412E-02 
1336	 3.12534224878277E-02 
1337	 3.30209684040895E-02 
1338	 3.81509597253769E-02 
1339	 4.01723578513613E-02 
1340	 3.96904616386023E-02 
1341	 3.79509133989555E-02 
1342	 3.29118825536603E-02 
1343	 3.10266014885102E-02 
1344	 0.029319113839787 
1345	 2.76601341502865E-02 
1346	 2.92219415708427E-02 
1347	 2.60656534347517E-02 
1348	 1.29021157988802E-02 
1349	 4.41467264608337E-03 
1350	-6.8731521427889E-03 
1351	-6.99204368012341E-03 
1352	 6.00159516854882E-02 
1353	 8.81385653299055E-02 
1354	 6.48667583230621E-02 
1355	 5.68955191402692E-02 
1356	 5.08163931076231E-02 
1357	-0.120156589052141 
1358	-0.284613535636156 
1359	-0.200197295220893 
1360	-0.177575173543949 
1361	-0.363657071690619 
1362	-0.268277650864631 
1363	-0.309392920366235 
1364	-0.57109511746378 
1365	-0.199095969451139 
1366	-0.180824519415433 
1367	-0.295037404903787 
1368	-0.290354352181008 
1369	-0.356182016204502 
1370	-0.589081189745448 
1371	-0.814119125765736 
1372	-2.15664695085736 
1373	-7.31599935413076 
1374	-3.95448148513766 
1375	-0.959972245432539 
1376	-0.942725123477116 
1377	-1.21576555539536 
1378	-0.870843632570196 
1379	-0.653314761759256 
1380	-0.730689899044552 
1381	-0.551015871534321 
1382	-0.195694810674195 
1383	-0.19219196954557 
1384	-0.445190901574749 
1385	-0.881638175426301 
1386	-0.7408693134633 
1387	-0.381921986533714 
1388	-0.495728742616722 
1389	 0.516904739116168 
1390	 2.00445047371304 
1391	 1.95060462371436 
1392	-0.327341980949153 
1393	 1.29414252553146 
1394	-0.362381889895475 
1395	 0.463056682537184 
1396	 0.255004355938146 
1397	-5.89153087840977E-02 
1398	-6.26941747208739E-02 
1399	-0.34538899187199 
1400	-0.456135976320683 
1401	-0.132213723876281 
1402	-0.064787478816835 
1403	 0.375866118431544 
1404	 0.398722098809516 
1405	-7.68902489728042E-02 
1406	-0.461517743454129 
1407	-0.659015173456563 
1408	-5.81942197655171 
1409	-5.579356084059 
1410	-1.36998429871953 
1411	-1.38865640431262 
1412	-1.25090069211734 
1413	-0.899039278245861 
1414	-1.07724982468843 
1415	-0.885427867751495 
1416	-0.357725519215154 
1417	-0.211410413802786 
1418	-0.178634341617715 
1419	-0.113447544000091 
1420	-2.28526795348918E-02 
1421	-2.52655616650987E-02 
1422	-0.020367709750819 
1423	 2.11022010469041E-02 
1424	 1.29679359030154E-02 
1425	-4.59192622692463E-03 
1426	-2.13794465465352E-02 
1427	 1.50305547966754E-02 
1428	 9.87357717060632E-02 
1429	 8.39528274833598E-02 
1430	 0.033890347506303 
1431	 4.60698741349078E-02 
1432	 3.38355297144184E-02 
1433	 6.64028191049141E-03 
1434	 1.82518284905779E-02 
1435	 6.57589443377554E-02 
1436	 0.155487524570829 
1437	 0.148016855114094 
1438	 7.92023385881659E-02 
1439	 6.28639617691932E-02 
1440	 1.70384837391318E-02 
1441	-0.148454608956689 
1442	-0.132460936692761 
1443	-8.50573899308566E-03 
1444	 4.03222982988188E-02 
1445	 6.31414516109308E-02 
1446	 4.81900832139485E-02 
1447	 2.30752930900303E-02 
1448	-2.95267935875547E-02 
1449	-5.92620139349094E-02 
1450	-3.68934980699503E-02 
1451	-2.51681597781084E-02 
1452	-9.52940354027621E-03 
1453	 6.05124968810103E-04 
1454	 6.46098913798104E-03 
1455	 8.15591706530322E-04 
1456	-2.66984234155343E-03 
1457	-2.90866784956816E-03 
1458	-2.12440148381703E-03 
1459	-5.8740592157048E-03 
1460	-3.96015842209679E-03 
1461	 5.87487260580032E-03 
1462	 3.98348606698945E-03 
1463	-5.18731731392287E-03 
1464	-6.86002623335438E-03 
1465	-1.22725482692104E-02 
1466	-0.009992960599853 
1467	 8.73522818664697E-03 
1468	 3.98949186852676E-03 
1469	-2.61570483946679E-02 
1470	-1.58357936187772E-02 
1471	 1.94020707949992E-02 
1472	 1.57036834552882E-02 
1473	 3.04771314717712E-03 
1474	 1.52244418980109E-02 
1475	 1.97760918121072E-02 
1476	 1.62118841611009E-02 
1477	 3.28713024188401E-02 
1478	 3.84893759933198E-02 
1479	 1.97446879300139E-02 
1480	 0.01401393430246 
1481	 2.31428664423828E-02 
1482	 2.64097404201719E-02 
1483	 2.25047769759315E-02 
1484	 2.02326729375375E-02 
1485	 2.02299778611722E-02 
1486	 2.23653743046218E-02 
1487	 2.55450708280746E-02 
1488	 0.025073767699474 
1489	 2.69665776901359E-02 
1490	 2.59954404327629E-02 
1491	 0.017651744685579 
1492	 1.67936727334513E-02 
1493	 2.12874778121013E-02 
1494	 0.020789066634663 
1495	 0.020049502485515 
1496	 0.020343892123986 
1497	 1.82276855730024E-02 
1498	 1.76338277057943E-02 
1499	 1.88692905840874E-02 
1500	 1.99207250478218E-02 
1501	 2.05126457036343E-02 
1502	 2.16720688361743E-02 
1503	 2.55339468277781E-02 
1504	 2.58742651348965E-02 
1505	 2.32266025594693E-02 
1506	 2.26618408157973E-02 
1507	 2.47003491631991E-02 
1508	 2.45924565436308E-02 
1509	 2.39821042466047E-02 
1510	 2.42181898180931E-02 
1511	 2.34395949373469E-02 
1512	 0.022012744806848 
1513	 2.29347036608447E-02 
1514	 2.44356033260039E-02 
1515	 2.25778420594838E-02 
1516	 2.19166118652146E-02 
1517	 2.28715974897744E-02 
1518	 2.26281482055375E-02 
1519	 2.27932741993398E-02 
1520	 2.39490002315281E-02 
1521	 2.52392049472458E-02 
1522	 2.44602084928771E-02 
1523	 2.40947426901265E-02 
1524	 2.44011192325501E-02 
1525	 2.33535347512818E-02 
1526	 0.024105905474162 
1527	 2.57540382754878E-02 
1528	 2.61437769144968E-02 
1529	 2.59159028244251E-02 
1530	 2.48418782051795E-02 
1531	 2.37125746148084E-02 
1532	 2.38391373520461E-02 
1533	 2.45420232967934E-02 
1534	 2.60190740396616E-02 
1535	 2.77742442497594E-02 
1536	 2.67745410671948E-02 
1537	 2.58886865710425E-02 
1538	 2.69531814606623E-02 
1539	 2.79676396640027E-02 
1540	 2.83821253927971E-02 
1541	 2.70157163825251E-02 
1542	 2.67506134614753E-02 
1543	 2.76228053642681E-02 
1544	 2.74902040297967E-02 
1545	 2.80009976508129E-02 
1546	 2.83114983515503E-02 
1547	 2.88176774514216E-02 
1548	 2.99462441653722E-02 
1549	 2.91160522560245E-02 
1550	 2.77494279784015E-02 
1551	 2.80164912594409E-02 
1552	 2.81638148970775E-02 
1553	 2.73961328485911E-02 
1554	 2.76262411616348E-02 
1555	 2.77404437931578E-02 
1556	 2.60582637793661E-02 
1557	 0.026366635272396 
1558	 2.84609289946503E-02 
1559	 2.78931930377292E-02 
1560	 2.63508059609289E-02 
1561	 2.71939548933115E-02 
1562	 2.86551996170726E-02 
1563	 0.029598612390553 
1564	 3.01930747002637E-02 
1565	 2.93578421035573E-02 
1566	 0.027997650764984 
1567	 2.73878960378121E-02 
1568	 2.74377077860837E-02 
1569	 2.66047943873146E-02 
1570	 2.62347220595365E-02 
1571	 2.81630105724594E-02 
1572	 2.91801027455928E-02 
1573	 2.89565501291945E-02 
1574	 2.99077045923656E-02 
1575	 2.98938170939319E-02 
1576	 2.84067856079694E-02 
1577	 2.81860090994013E-02 
1578	 2.84095048726616E-02 
1579	 2.76760697611501E-02 
1580	 0.026805753427271 
1581	 2.67823834552951E-02 
1582	 2.76142642507471E-02 
1583	 2.86386212576142E-02 
1584	 0.02934565687523 
1585	 0.030579282421526 
1586	 3.19186300898415E-02 
1587	 3.18330774018002E-02 
1588	 3.19667504234509E-02 
1589	 3.17470592633626E-02 
1590	 2.99456624571604E-02 
1591	 2.96275173897568E-02 
1592	 3.03239768291253E-02 
1593	 2.95222075473671E-02 
1594	 2.94421713669649E-02 
1595	 2.92972227177661E-02 
1596	 2.77449897473104E-02 
1597	 2.79231471514615E-02 
1598	 0.02950029095733 
1599	 3.08224459975865E-02 
1600	 0.031999552360517 
1601	 3.28233325735161E-02 
1602	 3.30373094056469E-02 
1603	 3.31422183234171E-02 
1604	 3.29932027251895E-02 
1605	 3.33790521791638E-02 
1606	 0.032803687595125 
1607	 3.05696640463234E-02 
1608	 3.01776943934016E-02 
1609	 3.00750771218515E-02 
1610	 0.029801633025271 
1611	 2.99351129829977E-02 
1612	 2.88480453978971E-02 
1613	 2.78131005689059E-02 
1614	 2.85787139638958E-02 
1615	 2.98869874240999E-02 
1616	 2.93124093201553E-02 
1617	 2.86292494236104E-02 
1618	 2.82277559604293E-02 
1619	 2.77200194905611E-02 
1620	 2.99695858025633E-02 
1621	 3.18028758672177E-02 
1622	 3.09670576317001E-02 
1623	 0.030276351119437 
1624	 2.92126442256838E-02 
1625	 2.87296605618412E-02 
1626	 2.89825948772918E-02 
1627	 2.82496393308073E-02 
1628	 2.89826246113312E-02 
1629	 3.01850182340356E-02 
1630	 2.92347739923983E-02 
1631	 2.95895456452007E-02 
1632	 3.09098909685965E-02 
1633	 3.06834943058294E-02 
1634	 3.06388269018374E-02 
1635	 3.09773683407243E-02 
1636	 0.030638011717934 
1637	 2.89988850284272E-02 
1638	 2.85347524946914E-02 
1639	 2.99658174847037E-02 
1640	 2.90824819919032E-02 
1641	 0.026759286894824 
1642	 0.027878544847053 
1643	 2.98553890678812E-02 
1644	 2.84668828757791E-02 
1645	 2.91924779007465E-02 
1646	 3.05458751468337E-02 
1647	 2.90013377993222E-02 
1648	 3.06668579678067E-02 
1649	 3.24650253905099E-02 
1650	 3.15244031538969E-02 
1651	 3.14437630438075E-02 
1652	 3.18760969487755E-02 
1653	 3.17772857285404E-02 
1654	 3.15595579615341E-02 
1655	 3.05010549872832E-02 
1656	 2.98644506669957E-02 
1657	 3.00952832263413E-02 
1658	 2.94693511061621E-02 
1659	 2.79484030396046E-02 
1660	 2.74037268536249E-02 
1661	 2.60375872686604E-02 
1662	 2.70668870927731E-02 
1663	 3.13548930751962E-02 
1664	 3.17556553479621E-02 
1665	 3.09259966896153E-02 
1666	 0.031056126027205 
1667	 2.95737030733176E-02 
1668	 2.89601461537088E-02 
1669	 2.97226421321662E-02 
1670	 3.09736601229579E-02 
1671	 3.12344468501637E-02 
1672	 3.20236331177424E-02 
1673	 3.29972887690752E-02 
1674	 0.031274022716089 
1675	 2.97529798400114E-02 
1676	 3.02393475088897E-02 
1677	 3.02735762238518E-02 
1678	 3.04352093110561E-02 
1679	 3.09884690403423E-02 
1680	 3.11333150921579E-02 
1681	 3.04523547118017E-02 
1682	 2.99794837597303E-02 
1683	 3.14674881612385E-02 
1684	 3.24423972790186E-02 
1685	 3.14994963031695E-02 
1686	 3.09028768584859E-02 
1687	 2.94590121809333E-02 
1688	 2.83374370445677E-02 
1689	 3.11604089396708E-02 
1690	 3.27278391291159E-02 
1691	 2.98894902964734E-02 
1692	 2.80765895991909E-02 
1693	 2.84148882773898E-02 
1694	 2.94766569058259E-02 
1695	 3.08684975350238E-02 
1696	 3.04227585867084E-02 
1697	 2.91124175112777E-02 
1698	 2.86238825330683E-02 
1699	 2.99569064199717E-02 
1700	 3.22180173254336E-02 
1701	 3.02238738752884E-02 
1702	 0.027357333497379 
1703	 2.86810985796125E-02 
1704	 2.91146897288138E-02 
1705	 0.029212840584073 
1706	 3.11162101179006E-02 
1707	 3.08311144888602E-02 
1708	 3.07997520327861E-02 
1709	 3.19361735118728E-02 
1710	 3.00131001150139E-02 
1711	 2.80361400260888E-02 
1712	 2.88851658043062E-02 
1713	 2.93365520157135E-02 
1714	 3.06034913904665E-02 
1715	 3.22969622883947E-02 
1716	 3.37528681896228E-02 
1717	 3.36487656963695E-02 
1718	 3.26723117254653E-02 
1719	 3.17644679255192E-02 
1720	 2.86096909995773E-02 
1721	 2.76493545788194E-02 
1722	 2.86693774679704E-02 
1723	 2.88746466584068E-02 
1724	 3.07458202917526E-02 
1725	 3.37304839992878E-02 
1726	 3.44783021576781E-02 
1727	 3.28619304620169E-02 
1728	 3.11661803066462E-02 
1729	 3.01960529380428E-02 
1730	 3.13336569022119E-02 
1731	 3.33888221123791E-02 
1732	 3.36504775670965E-02 
1733	 3.17516030869671E-02 
1734	 2.93073731482372E-02 
1735	 0.028869776966064 
1736	 0.028334692553504 
1737	 3.01689160697125E-02 
1738	 0.033036600229536 
1739	 2.90637354554695E-02 
1740	 2.60971054738396E-02 
1741	 2.71091326489586E-02 
1742	 2.51686655653495E-02 
1743	 2.51613319127984E-02 
1744	 2.80190030856069E-02 
1745	 2.74397706014326E-02 
1746	 2.76425829017898E-02 
1747	 2.73913927826847E-02 
1748	 2.64170909471989E-02 
1749	 2.61704899370687E-02 
1750	 2.41464268748705E-02 
1751	 2.42643523675008E-02 
1752	 2.76329758806033E-02 
1753	 2.78049759312383E-02 
1754	 2.71234099584993E-02 
1755	 2.80605668510095E-02 
1756	 2.74819594412216E-02 
1757	 2.85037180793767E-02 
1758	 3.07194758199413E-02 
1759	 3.08625931875548E-02 
1760	 3.01201203306031E-02 
1761	 2.73003152182328E-02 
1762	 2.29621259001308E-02 
1763	 2.11358854044894E-02 
1764	 1.92838539012692E-02 
1765	 0.01936557850082 
1766	 2.66147762884164E-02 
1767	 3.33130496712719E-02 
1768	 3.51102270534998E-02 
1769	 3.50162558855484E-02 
1770	 3.08088881273309E-02 
1771	 2.60713448010678E-02 
1772	 2.59415088371963E-02 
1773	 3.09576513840083E-02 
1774	 0.039000401478815 
1775	 2.19854337654659E-02 
1776	 0.018660693369237 
1777	 0.016301050305342 
1778	 1.15464090062711E-02 
1779	 2.07277459363676E-02 
1780	 2.84435649677332E-02 
1781	 2.65305021849576E-02 
1782	 2.96121593767501E-02 
1783	 4.71396101942546E-02 
1784	 5.02450078417217E-02 
1785	 4.12924283860765E-02 
1786	 3.93198906089081E-02 
1787	 0.030992073050669 
1788	 2.36552930170295E-02 
1789	 1.52784943581587E-02 
1790	 1.86627321032154E-02 
1791	 4.56352963094437E-02 
1792	 4.15493617284043E-02 
1793	 3.96354748465498E-02 
1794	 3.57065781032366E-02 
1795	-3.37974561103185E-02 
1796	-5.73596606298144E-02 
1797	-4.01337129390982E-02 
1798	-1.63553360645297E-02 
1799	 4.17000555510166E-02 
1800	 7.23596517544873E-03 
1801	-1.99074666090916E-02 
1802	-0.208487799620319 
1803	-0.297398126289215 
1804	-0.216296440024194 
1805	-0.204337816924233 
1806	-0.130334940169929 
1807	-8.39785220603191E-02 
1808	-6.72214933983327E-02 
1809	-0.024249762978883 
1810	 0.233841794231046 
1811	 2.37766510569021E-02 
1812	-0.93260084171855 
1813	-1.06861079994334 
1814	-1.03970409263467 
1815	-0.714507104083165 
1816	 0.263263875839765 
1817	 0.410098096895217 
1818	 0.504645892966008 
1819	 0.283383366600214 
1820	-1.02693271504342 
1821	 2.10111023475894 
1822	 2.5676075377778 
1823	-16.4073613341042 
1824	-5.76152281586172 
1825	-0.976444036113764 
1826	-0.530062551458439 
1827	-0.477110016456787 
1828	-0.350841797338181 
1829	-1.9154736413064 
1830	-2.06226668285173 
1831	 2.96989920716026 
1832	 2.75144508376734 
1833	 0.747670602474412 
1834	 0.214978170229373 
1835	-4.66295272951503 
1836	 5.09481173208528 
1837	 1.15846818755801 
1838	 0.718314023588623 
1839	 9.15397205174226E-02 
1840	-0.763306218027219 
1841	-0.631866245315456 
1842	-0.16056537665478 
1843	 6.64095661108727E-02 
1844	 1.31131143893016 
1845	 1.32015052954151 
1846	 0.115652152262868 
1847	-5.54436811912077E-02 
1848	-0.488403748452392 
1849	 1.47147881657232 
1850	-0.496611559980123 
1851	-0.630299599736102 
1852	-0.862123254919408 
1853	-0.872324580745141 
1854	-0.871410997521228 
1855	-1.72519324619094 
1856	-2.21727451397031 
1857	 0.427678353592776 
1858	 9.82053406871685E-02 
1859	-0.259316479560687 
1860	-0.401089115097587 
1861	-0.179167943426372 
1862	-3.83786123560804E-02 
1863	 0.307260730203101 
1864	 1.37961871959122 
1865	 1.83561327650962 
1866	 1.75577146252522 
1867	 3.00910546649388 
1868	 0.289553346335032 
1869	 0.462659508415687 
1870	 1.90744441330414 
1871	 5.49855468109447 
1872	 4.28835261764652 
1873	-6.58974837457545 
1874	-1.84439470589455 
1875	-1.02839606229899 
1876	-0.70569952691282 
1877	-1.26055618788063 
1878	-1.86278445083804 
1879	-2.53553919458571 
1880	-3.0804374714012 
1881	-5.27850543019253 
1882	-18.825799052929 
1883	-20.4379175191639 
1884	 13.1295133070305 
1885	 2.10556169010343 
1886	 0.7503790414028 
1887	 2.40719410837179 
1888	-0.509138841521702 
1889	 0.405218855803624 
1890	 2.5709102290537 
1891	 5.29343522757862 
1892	-2.63574987001898 
1893	-1.70720688392283 
1894	-1.55252558435014 
1895	-1.08273538621858 
1896	-33.6086352476432 
1897	 0.948549207603168 
1898	-1.29087002634811 
1899	-1.4561707804302 
1900	-1.45955681410087 
1901	-1.07276642399067 
1902	-0.502528882945093 
1903	 0.354521972944415 
1904	 0.641687811653119 
1905	 1.17856370198405 
1906	 3.50608119084232 
1907	 3.0062570263378 
1908	 1.39112397095608 
1909	 1.93967890904418 
1910	 0.975375625707161 
1911	 0.329112825497279 
1912	-2.58669770309437 
1913	-0.451130584678577 
1914	 2.81779257040128 
1915	-10.2880773973026 
1916	-13.1166015211222 
1917	 3.68265644228144 
1918	-2.43025824740501 
1919	-4.71135243088333 
1920	-7.34581811546625 
1921	 7.54036848237706 
1922	 12.3203075832092 
1923	-4.42926482335972 
1924	 0.497836841506726 
1925	 0.215735039086433 
1926	 0.412881614910643 
1927	-2.74779589147212 
1928	 6.47269360030141 
1929	-0.45385131572808 
1930	 8.33750463488393E-02 
1931	 11.2861743169035 
1932	-0.439428885261599 
1933	 7.01432201457085E-02 
1934	-0.228276097699271 
1935	-0.395609050922063 
1936	-0.115492888755297 
1937	 7.90121265138036E-02 
1938	 9.23294704019472E-02 
1939	 0.278395295853071 
1940	 0.527811318177059 
1941	 0.473058574990662 
1942	 0.30371424087989 
1943	 0.938135121966572 
1944	 18.0649274972548 
1945	-2.17290494186588 
1946	-1.25625402531857 
1947	-0.490425545280416 
1948	-0.250189823238236 
1949	 1.1644783438241 
1950	-14.0538839445504 
1951	 1.46779676734294 
1952	 1.65762474861332E-02 
1953	 0.11270269020854 
1954	-0.262927397735636 
1955	-0.7737077024009 
1956	-0.795002758341123 
1957	-1.03161302619963 
1958	-0.905810145791046 
1959	-0.555838526232533 
1960	-0.429077451732233 
1961	-0.34756545394648 
1962	-0.224860034631762 
1963	-5.85828244057441E-02 
1964	 3.74354995068805E-02 
1965	 1.71023480210495E-02 
1966	 1.35281766468645E-02 
1967	 2.37451539427429E-03 
1968	-6.04136302853527E-02 
1969	-8.84777076925138E-02 
1970	-5.81249652598115E-02 
1971	-4.53993807068147E-02 
1972	-2.38771802828967E-02 
1973	-1.65017470066553E-02 
1974	-0.014043676831585 
1975	-3.28673288876919E-03 
1976	-7.52457877659621E-03 
1977	-2.09667220343829E-02 
1978	-4.01051751691095E-02 
1979	-4.23311215651442E-02 
1980	-4.46134807280918E-02 
1981	-0.03626090983112 
1982	-2.79905041210842E-02 
1983	-0.011107062833406 
1984	 8.58477200480602E-03 
1985	 1.41324275545598E-02 
1986	 2.66376586148515E-02 
1987	 3.82870673957059E-02 
1988	 2.02617001114162E-02 
1989	 4.08016307370519E-03 
1990	-0.014198432959178 
1991	-1.49490726924272E-02 
1992	 7.97187487832365E-03 
1993	 2.29513884114107E-02 
1994	 3.92586519551934E-02 
1995	 7.22337493905714E-02 
1996	 0.079856504709947 
1997	 7.36646904962733E-02 
1998	 7.34987865043446E-02 
1999	 6.38684691937278E-02 
2000	 7.80919060020023E-02 
2001	 7.60425733462888E-02 
2002	 8.05216565658233E-02 
2003	 8.30107223189671E-02 
2004	 4.48221361874238E-02 
2005	 0.060130023740832 
2006	 5.10591089150992E-02 
2007	 5.41006927483707E-02 
2008	 0.108611805017145 
2009	 0.129115038992036 
2010	 0.146780486535178 
2011	 0.146894365402339 
2012	 0.138401293134658 
2013	 0.102217118055508 
2014	 5.56123175125333E-02 
2015	 9.01939360020415E-03 
2016	 6.23865895327466E-03 
2017	 1.24600588624259E-02 
2018	 3.35900157246356E-02 
2019	 0.054913626145688 
2020	 5.45654291682286E-02 
2021	 5.62581981190409E-02 
2022	 4.72493920813276E-02 
2023	 4.59991423021187E-02 
2024	 3.49482020245918E-02 
2025	 1.04570770311997E-02 
2026	 2.15821259309389E-03 
2027	 2.50953670952298E-04 
2028	-1.10489020664969E-02 
2029	-0.015271839265635 
2030	-4.87047211138268E-03 
2031	-4.42625015408324E-03 
2032	-3.28735341016087E-03 
2033	-1.57766241229911E-03 
2034	-1.95850971812695E-03 
2035	 5.69931354094929E-03 
2036	 1.49153374323143E-02 
2037	 0.019900504817976 
2038	 2.66528853769741E-02 
2039	 3.09494817437289E-02 
2040	 2.81711233880952E-02 
2041	 2.52114967872994E-02 
2042	 2.56472120265482E-02 
2043	 2.55431856187396E-02 
2044	 2.06787191188018E-02 
2045	 0.015366169777764 
2046	 1.96291573747809E-02 
2047	 0.016627343926833 
2048	 1.92379098629437E-02 
2049	 2.41967450364542E-02 
2050	 2.82285875084168E-02 
2051	 4.12163435952635E-02 
2052	 4.10701774111583E-02 
2053	 3.51412039461427E-02 
2054	 3.91995395683945E-02 
2055	 2.75796105199609E-02 
2056	 2.21603694419016E-02 
2057	 2.39309132305165E-02 
2058	 2.45548303797689E-02 
2059	 1.82047650769258E-02 
2060	 1.95838053931776E-02 
2061	 2.88989695498616E-02 
2062	 2.97815915520979E-02 
2063	 2.22844030821782E-02 
2064	 3.00291111419548E-02 
2065	 2.20647072532887E-02 
2066	 0.014984378120767 
2067	 2.48231803212717E-02 
2068	 2.74263951295022E-02 
2069	 4.09532381126187E-02 
2070	 4.60382926879238E-02 
2071	 3.49060366641866E-02 
2072	 3.11545011522199E-02 
2073	 2.82343229265084E-02 
2074	 2.17822773176923E-02 
2075	 1.64709856992835E-02 
2076	 1.40107778700278E-02 
2077	 1.53125513132301E-02 
2078	 1.73217992252376E-02 
2079	 1.78353704949247E-02 
2080	 2.25019869031344E-02 
2081	 0.023589834827597 
2082	 2.61417460498198E-02 
2083	 2.38422749779374E-02 
2084	 0.023087432783197 
2085	 2.47813214309998E-02 
2086	 0.019833173025042 
2087	 1.52834423770554E-02 
2088	 1.48012249038483E-02 
2089	 1.91385378474893E-02 
2090	 1.95465243740727E-02 
2091	 1.92890925528285E-02 
2092	 0.022696273963978 
2093	 2.76535086881193E-02 
2094	 3.12294788927765E-02 
2095	 3.88508416737952E-02 
2096	 4.25067285808303E-02 
2097	 4.69766449469312E-02 
2098	 4.56372333862876E-02 
2099	 3.75458875448309E-02 
2100	 3.34759945609033E-02 
2101	 0.031142039273598 
2102	 2.26939887225176E-02 
2103	 2.65293571408304E-02 
2104	 0.0260762209326 
2105	 1.91233552813403E-02 
2106	 1.95124522499791E-02 
2107	 0.014545020906646 
2108	 1.76701818352043E-02 
2109	 2.61033112201658E-02 
2110	 2.83876598301313E-02 
2111	 3.35458709421733E-02 
2112	 3.41974614466116E-02 
2113	 3.53504838305034E-02 
2114	 3.72118815086398E-02 
2115	 3.62705968698382E-02 
2116	 3.19032354940172E-02 
2117	 2.77431229915069E-02 
2118	 1.90888553171059E-02 
2119	 1.63168691930296E-02 
2120	 1.52359835595376E-02 
2121	 1.90687805243436E-02 
2122	 2.19487697398782E-02 
2123	 2.05292088045483E-02 
2124	 1.60639833576971E-02 
2125	 1.74150933694637E-02 
2126	 2.53486834694533E-02 
2127	 3.04870014026644E-02 
2128	 3.09187563641726E-02 
2129	 2.54371514518897E-02 
2130	 2.69355973789522E-02 
2131	 2.09491368507302E-02 
2132	 0.021514139323016 
2133	 0.032220808020428 
2134	 3.28707208475688E-02 
2135	 3.05615485856616E-02 
2136	 0.027269794079266 
2137	 1.31707377848604E-02 
2138	 1.21097069573983E-02 
2139	 1.61252188099539E-02 
2140	 0.01872819788369 
2141	 3.29551645618092E-02 
2142	 3.57433928559949E-02 
2143	 3.13884136242095E-02 
2144	 2.58658923411668E-02 
2145	 2.47277715023952E-02 
2146	 2.12989719256312E-02 
2147	 0.019536475427723 
2148	 2.07151765776048E-02 
2149	 1.43540643567288E-02 
2150	 1.28473172353396E-02 
2151	 1.32487039429722E-02 
2152	 3.25826673391579E-03 
2153	 2.21969851569494E-03 
2154	 5.42556219336119E-03 
2155	 8.28627606441352E-04 
2156	 2.10738086090594E-03 
2157	 4.32885771013594E-03 
2158	 2.47857105196722E-03 
2159	 4.66737222987988E-03 
2160	 1.43907212526994E-02 
2161	 1.93747486153943E-02 
2162	 2.31657677824304E-02 
2163	 2.35338041963062E-02 
2164	 2.05359647227129E-02 
2165	 2.22808027443144E-02 
2166	 2.37228844309907E-02 
2167	 2.36530666965171E-02 
2168	 2.58292585259363E-02 
2169	 2.78184169719504E-02 
2170	 2.66685474102772E-02 
2171	 2.74156594634426E-02 
2172	 3.44872389801665E-02 
2173	 4.17617828575441E-02 
2174	 3.86868229677495E-02 
2175	 0.029371902948092 
2176	 1.87134237097151E-02 
2177	 1.04510764216194E-02 
2178	 1.15273302416473E-02 
2179	 1.34081475636916E-02 
2180	 1.37627527097239E-02 
2181	 2.09155875297687E-02 
2182	 2.44362354048303E-02 
2183	 0.030535844787942 
2184	 4.38056281146222E-02 
2185	 4.53221239689335E-02 
2186	 4.78419785343557E-02 
2187	 0.051984080901365 
2188	 5.09735758643542E-02 
2189	 4.06173894594501E-02 
2190	 4.00164079151194E-02 
2191	 3.92429002222903E-02 
2192	 0.040359298842275 
2193	 5.43902335410827E-02 
2194	 5.50771304957489E-02 
2195	 4.24922399310027E-02 
2196	 4.37173159860094E-02 
2197	 4.71432564823697E-02 
2198	 4.55544281438939E-02 
2199	 0.046051989662647 
2200	 0.056708909285347 
2201	 5.86188909151476E-02 
2202	 5.83323144962088E-02 
2203	 6.57652694410926E-02 
2204	 6.92790392354939E-02 
2205	 5.59384696183831E-02 
2206	 4.30477627367835E-02 
2207	 3.43614478412101E-02 
2208	 0.016699396597079 
2209	-1.24610827144106E-03 
2210	-9.90473458656575E-03 
2211	-1.84289834400025E-02 
2212	-0.021474018652096 
2213	-1.61259436298037E-02 
2214	-2.04984023619069E-02 
2215	-1.27605291724893E-02 
2216	 5.5883427016854E-03 
2217	 9.31591243802145E-03 
2218	 1.29382434431729E-02 
2219	 1.36811022301653E-02 
2220	-2.9368501661342E-03 
2221	-7.02060211071602E-03 
2222	-1.94790956917537E-03 
2223	-3.6161360536141E-03 
2224	-3.34726639555111E-03 
2225	-5.10885933539842E-03 
2226	-1.23822362201652E-02 
2227	-0.012481708360833 
2228	-1.34494596909232E-02 
2229	-9.56651908601638E-03 
2230	-1.02873643097608E-03 
2231	 6.8138824670006E-03 
2232	 2.11503990147039E-02 
2233	 2.97746627907356E-02 
2234	 3.22334746535437E-02 
2235	 5.02753496664795E-02 
2236	 0.055113342104025 
2237	 4.40318846002488E-02 
2238	 0.04221598759653 
2239	 2.22446760154216E-02 
2240	 2.58392352343736E-03 
2241	 2.01604017104814E-02 
2242	 3.12817641723985E-02 
2243	 4.87370068063812E-02 
2244	 7.97946185325437E-02 
2245	 8.52103198346635E-02 
2246	 7.23385633695824E-02 
2247	 5.23554822091463E-02 
2248	 3.34613647711638E-02 
2249	 1.72211648656968E-02 
2250	 1.70659795692665E-02 
2251	 3.42677819756126E-02 
2252	 3.89032680719676E-02 
2253	 4.47696351183968E-02 
2254	 5.49512637058495E-02 
2255	 4.87063388370109E-02 
2256	 3.84049859986361E-02 
2257	 3.30990952225617E-02 
2258	 1.65285270036495E-02 
2259	-1.48486334055439E-03 
2260	 1.28139883628074E-03 
2261	 0.027959021924441 
2262	 3.01720730188523E-02 
2263	 2.90142588659658E-02 
2264	 4.31014684804499E-02 
2265	 5.53176401235357E-02 
2266	 5.84282183282838E-02 
2267	 8.25263565365376E-02 
2268	 8.20520138518458E-02 
2269	 4.36463390521242E-02 
2270	 2.20661769882139E-02 
2271	-3.04317219971286E-03 
2272	-1.56956224779651E-02 
2273	-1.10777146005397E-02 
2274	-1.77117995529953E-02 
2275	-2.20236183324334E-02 
2276	-2.42540429617416E-02 
2277	-4.12655345958934E-02 
2278	-4.36984032096348E-02 
2279	-2.80457185393145E-02 
2280	-1.98486867556779E-02 
2281	-0.0115091840382 
2282	 6.96567081738376E-03 
2283	 2.87911925170604E-03 
2284	-5.47351914669647E-03 
2285	 8.90157427311247E-03 
2286	-6.86856180618264E-03 
2287	-1.82245530297373E-02 
2288	-7.37783501985535E-03 
2289	 6.38445034261354E-03 
2290	 3.40460142993568E-02 
2291	 3.11509514713518E-02 
2292	 8.33799248615733E-03 
2293	-1.26646576872637E-02 
2294	-4.16609960120331E-02 
2295	-2.82424019225269E-02 
2296	 8.0233971843938E-03 
2297	 2.94628453516079E-02 
2298	 2.96254451994785E-02 
2299	-7.08928599339114E-05 
2300	 2.85223088940256E-03 
2301	 1.58022922015754E-03 
2302	-0.039965970908231 
2303	-3.97291647916883E-02 
2304	-3.23360901044869E-02 
2305	-3.85644609242151E-02 
2306	-3.52290127770989E-02 
2307	-1.17536921978472E-02 
2308	-9.51684028963501E-03 
2309	-1.94767405209773E-02 
2310	-4.52997009545415E-03 
2311	-7.25490742605491E-03 
2312	 7.5247948023489E-04 
2313	 8.72068727716579E-03 
2314	-1.56741297290295E-02 
2315	-4.17341059310552E-02 
2316	-7.26857944239321E-02 
2317	-5.86257592614169E-02 
2318	 1.76827289847515E-02 
2319	 6.19284866711873E-02 
2320	 0.102624272833673 
2321	 0.072513629475625 
2322	-0.045223959358796 
2323	-9.93214805686108E-02 
2324	-6.95401382387969E-02 
2325	-7.25609646883271E-02 
2326	-5.07995788504702E-02 
2327	 1.47026909521481E-02 
2328	 7.29954893625165E-03 
2329	 1.30421871197985E-02 
2330	 6.42359129647993E-02 
2331	 6.74476784273137E-02 
2332	 3.71975875508918E-02 
2333	 5.00743989706152E-02 
2334	 0.052301700966894 
2335	 3.68451055612412E-02 
2336	 6.24431223200305E-02 
2337	 3.36816222613973E-02 
2338	-2.43116615760786E-02 
2339	-2.15502621581995E-02 
2340	-1.98158342338145E-02 
2341	 5.1715674362193E-03 
2342	 0.166102123670445 
2343	 0.213106258867902 
2344	 0.132660079855264 
2345	 0.128159998241928 
2346	 3.80348206947485E-02 
2347	 1.48892840574338E-02 
2348	 7.24451020845022E-02 
2349	 0.100572194216953 
2350	 8.54803916171217E-02 
2351	-0.105595830313593 
2352	-0.157287503603639 
2353	-9.08370497399213E-02 
2354	-7.18548414905472E-02 
2355	 0.165845255809478 
2356	 0.491037906309701 
2357	 0.456708543493582 
2358	 0.362629691199943 
2359	 0.294026804529414 
2360	 0.253264566329371 
2361	 0.208603048335502 
2362	 0.190868723863552 
2363	 0.313465215659211 
2364	 0.350775683463461 
2365	 0.332440651315852 
2366	 0.317563531401086 
2367	 0.274293626349049 
2368	 0.426176990487177 
2369	 0.718328047417688 
2370	 3.09322968314359 
2371	 2.07620019996375 
2372	 1.01723505521745 
2373	 0.837621165329232 
2374	 0.716185088778428 
2375	 0.224002042993994 
2376	-0.595402883691307 
2377	-0.706919286441886 
2378	-0.998414252286385 
2379	-1.1699240956922 
2380	-0.480777102963389 
2381	-0.637980886402749 
2382	-0.953333484930163 
2383	-0.61958990633923 
2384	-0.594982047456732 
2385	-0.58732242987322 
2386	-0.36768668319802 
2387	-0.340171279066343 
2388	-0.410168888177058 
2389	-0.371428565052852 
2390	-0.555283071999176 
2391	-0.705053303182708 
2392	-0.664166569392922 
2393	-0.688127950424969 
2394	-0.596838307656023 
2395	-0.552914439535426 
2396	-0.459034681571255 
2397	-0.270538755425149 
2398	-0.255851911617756 
2399	-0.251048885306058 
2400	-0.173015307401384 
2401	-0.350572373222743 
2402	-0.452825652271782 
2403	-0.325444941767001 
2404	-0.598898793191225 
2405	-0.985344153865668 
2406	-0.682191970291827 
2407	-0.574303045937717 
2408	-0.485742352497229 
2409	-0.192606262681717 
2410	-0.436619096136279 
2411	-0.588913343905621 
2412	-0.227712294882417 
2413	-0.288648752373377 
2414	-0.274399287535491 
2415	-0.178777065475013 
2416	-0.800213622866418 
2417	-1.98671105005847 
2418	-4.11245315963096 
2419	-5.52816630451805 
2420	-4.99511181113278 
2421	 0.441763089386468 
2422	 3.81689307318487 
2423	 2.74438943076817 
2424	 3.5940367624781 
2425	 12.8833799132241 
2426	 13.1725584292124 
2427	-2.04458268812623 
2428	-1.03004574392033 
2429	-0.672170980290491 
2430	-0.415881480827817 
2431	-0.170407785401191 
2432	 0.284506120642655 
2433	 0.157723690068081 
2434	 0.381217482327891 
2435	 0.581510176835842 
2436	 0.208619760768357 
2437	-0.658458710560206 
2438	-1.98792680015076 
2439	-2.00071355651978 
2440	-1.55730411687303 
2441	-1.25163216082233 
2442	-1.85045998290981 
2443	-3.6867182776104 
2444	 3.68424376219209 
2445	 1.10869247741406 
2446	 0.304999478243774 
2447	-1.46351518429777E-02 
2448	-0.124479456266452 
2449	-3.37519318734556 
2450	 3.3263060273006 
2451	-0.500607149932876 
2452	-0.881066122989468 
2453	 2.79503799687667 
2454	-2.45679099849354 
2455	 11.1051191609076 
2456	 0.817229899925867 
2457	 2.45174865876164 
2458	 1.69435326610944 
2459	 0.49213450177274 
2460	 1.58000270541421 
2461	 0.651450175109915 
2462	-0.562573719288678 
2463	-19.460842741615 
2464	-2.71558167255792 
2465	-0.172423871129625 
2466	-2.74139688866164 
2467	 0.66073081863744 
2468	 0.735769020006942 
2469	 0.783520277986251 
2470	 1.48264114669501 
2471	-1.56615613629592 
2472	-0.578934036560746 
2473	-2.60639099879436 
2474	-1.22698107459861 
2475	 0.919633928091004 
2476	 2.81032875567577 
2477	 0.878316374623648 
2478	 5.00817535014131E-02 
2479	-1.79203083049757 
2480	-3.70354622815006 
2481	-4.75532282792368 
2482	-20.7518056877678 
2483	-8.61943494172271 
2484	 1.56506436732911 
2485	 0.595061626652118 
2486	 0.697118128992668 
2487	 0.906712356671868 
2488	 0.565498523924962 
2489	 0.658666864496382 
2490	 0.437194790808703 
2491	 0.336263294970864 
2492	 0.805497115298026 
2493	 0.221080134258414 
2494	 0.152208388696521 
2495	-3.48778526149692E-02 
2496	 0.79389149331081 
2497	 7.15293082400718 
2498	 13.3389380000101 
2499	-2.42317504057806 
2500	-1.52525907740958 
