Wavelength	rt0629algea00008.asd
350	 4.52459133123364E-02 
351	 4.36039031343401E-02 
352	 4.38881837965531E-02 
353	 4.45509407654246E-02 
354	 4.43164176668236E-02 
355	 4.40680349717562E-02 
356	 0.043979053422368 
357	 4.37708351348664E-02 
358	 4.33276907230438E-02 
359	 4.39838950520224E-02 
360	 4.40234942939901E-02 
361	 4.33589518149424E-02 
362	 0.043007224504031 
363	 4.25261710373498E-02 
364	 4.25976531691309E-02 
365	 4.32413989761706E-02 
366	 4.33618766195972E-02 
367	 4.32124232351297E-02 
368	 4.28450362688376E-02 
369	 0.042370820598004 
370	 4.21176278882951E-02 
371	 4.23428337367139E-02 
372	 4.28114279867627E-02 
373	 4.30594168541139E-02 
374	 4.34707312225681E-02 
375	 4.34393194347527E-02 
376	 4.28727865835455E-02 
377	 4.24779270078691E-02 
378	 4.26565825243655E-02 
379	 4.28037238394577E-02 
380	 4.25517452981423E-02 
381	 0.043060977871601 
382	 4.36677757460119E-02 
383	 4.38231098358339E-02 
384	 4.32818044901421E-02 
385	 4.32840042717481E-02 
386	 4.32125845520659E-02 
387	 4.30661865430669E-02 
388	 4.36177745804517E-02 
389	 4.33511929279741E-02 
390	 4.31652365608377E-02 
391	 0.043718502677932 
392	 4.40087960492477E-02 
393	 4.40222544491407E-02 
394	 4.39415528464766E-02 
395	 4.39911855263316E-02 
396	 4.40677776634589E-02 
397	 0.04426042059551 
398	 4.43502144788994E-02 
399	 4.39255041802115E-02 
400	 4.41592939874673E-02 
401	 4.44536127799748E-02 
402	 4.43255316154736E-02 
403	 4.40577130933323E-02 
404	 4.45181882888778E-02 
405	 4.49290323541162E-02 
406	 4.43324495156933E-02 
407	 4.45498190644642E-02 
408	 4.47441078776649E-02 
409	 4.46725142800611E-02 
410	 4.48076499954149E-02 
411	 4.48109613492645E-02 
412	 4.48163344932734E-02 
413	 0.044918845744884 
414	 4.48965915000163E-02 
415	 4.51695760989821E-02 
416	 4.54164212639029E-02 
417	 4.52169308558331E-02 
418	 4.54826242366906E-02 
419	 4.58682413870183E-02 
420	 4.60605859327336E-02 
421	 4.59042882467548E-02 
422	 4.60581881551948E-02 
423	 4.63636291466991E-02 
424	 4.66136059594514E-02 
425	 0.047034707223311 
426	 4.70382786443448E-02 
427	 4.69713891829598E-02 
428	 0.047476176224106 
429	 4.77743618845295E-02 
430	 4.80035047680314E-02 
431	 4.82620882726274E-02 
432	 4.85040744887902E-02 
433	 4.86989789145943E-02 
434	 4.90292812094118E-02 
435	 4.95317719560331E-02 
436	 4.96815863642998E-02 
437	 4.99255012441573E-02 
438	 5.02167132039091E-02 
439	 5.03007501263172E-02 
440	 5.06397877322762E-02 
441	 5.10120433421541E-02 
442	 5.12581648757559E-02 
443	 5.14162133905118E-02 
444	 5.16242468522803E-02 
445	 5.18114863507582E-02 
446	 5.19279405814249E-02 
447	 5.22643046243022E-02 
448	 5.24684880803169E-02 
449	 5.25854106777496E-02 
450	 5.29220449416959E-02 
451	 5.30935402449666E-02 
452	 0.053201053158343 
453	 5.33328870765931E-02 
454	 5.33944307027386E-02 
455	 5.35568456061074E-02 
456	 5.37284227168393E-02 
457	 5.37781365484871E-02 
458	 5.39105856003683E-02 
459	 5.40768757435387E-02 
460	 5.41792021103854E-02 
461	 5.41062060713011E-02 
462	 5.43294488467439E-02 
463	 5.45647190094107E-02 
464	 5.45709151568671E-02 
465	 5.46480181640611E-02 
466	 0.054723848505033 
467	 5.48070096002896E-02 
468	 5.49257930544318E-02 
469	 5.49860543057061E-02 
470	 5.51641661738059E-02 
471	 5.53915080765116E-02 
472	 5.52495036260042E-02 
473	 5.53578850463282E-02 
474	 5.56101929168255E-02 
475	 0.055762021316556 
476	 5.58019265029722E-02 
477	 5.58622922917374E-02 
478	 5.60281329309615E-02 
479	 5.63185163639001E-02 
480	 5.64627076318785E-02 
481	 5.66035122458671E-02 
482	 5.68279086478904E-02 
483	 5.69893714250896E-02 
484	 5.71890008714361E-02 
485	 5.74343150893961E-02 
486	 5.76764346090974E-02 
487	 5.77546754673342E-02 
488	 5.79412262140302E-02 
489	 5.82483515063818E-02 
490	 5.84293667370541E-02 
491	 5.85914775595704E-02 
492	 5.87875227548538E-02 
493	 5.90526046673946E-02 
494	 5.94235654044748E-02 
495	 5.96905922278049E-02 
496	 5.98472055608554E-02 
497	 6.00058091813729E-02 
498	 6.02685752939746E-02 
499	 0.060548745027901 
500	 6.08154915706925E-02 
501	 6.11566963326798E-02 
502	 6.14926106930173E-02 
503	 6.18383594425563E-02 
504	 6.21876162266668E-02 
505	 6.23125458541087E-02 
506	 6.25737915553099E-02 
507	 6.29495021276787E-02 
508	 0.063133532725043 
509	 6.34981096360059E-02 
510	 6.38464536516195E-02 
511	 6.40509415109076E-02 
512	 6.43430041135502E-02 
513	 6.47541498164602E-02 
514	 6.51274425231056E-02 
515	 6.52926716762705E-02 
516	 6.56975240817469E-02 
517	 6.61466046747309E-02 
518	 6.65157859213795E-02 
519	 6.68464590110687E-02 
520	 6.71684116140402E-02 
521	 6.74738090758082E-02 
522	 6.77687263360082E-02 
523	 6.81487223052647E-02 
524	 6.84263680364908E-02 
525	 6.87005559360072E-02 
526	 6.92288642963208E-02 
527	 0.06957353240073 
528	 6.98794137126274E-02 
529	 7.02574076752032E-02 
530	 7.05792411399436E-02 
531	 0.070962436608211 
532	 7.13414616865862E-02 
533	 7.16135480566417E-02 
534	 7.18768476069212E-02 
535	 7.22313511771322E-02 
536	 7.26427090635069E-02 
537	 7.29301710544151E-02 
538	 7.32728568256394E-02 
539	 7.36768778580161E-02 
540	 7.40948790316672E-02 
541	 0.074460587537911 
542	 7.47606710045149E-02 
543	 7.50286512073902E-02 
544	 7.53273943092924E-02 
545	 7.56906068371785E-02 
546	 7.59910026060267E-02 
547	 7.62147851373744E-02 
548	 0.076606682740899 
549	 7.69976434808318E-02 
550	 7.73480441502181E-02 
551	 7.76651131188129E-02 
552	 7.79451347340017E-02 
553	 7.82963925819848E-02 
554	 7.86835727036446E-02 
555	 7.89084239406037E-02 
556	 0.079173856053705 
557	 7.94993764911963E-02 
558	 7.98293473266724E-02 
559	 8.00186057123131E-02 
560	 8.02873960839757E-02 
561	 8.06074635251622E-02 
562	 8.08104326725201E-02 
563	 8.10077706607693E-02 
564	 8.12260061290475E-02 
565	 8.14568504392948E-02 
566	 8.16476942060627E-02 
567	 8.18137162046965E-02 
568	 8.19753984608265E-02 
569	 8.21484471574113E-02 
570	 8.23016447189147E-02 
571	 0.082445292916639 
572	 8.25854049542391E-02 
573	 8.27194852266352E-02 
574	 8.28059124350742E-02 
575	 8.28511354855333E-02 
576	 8.28753490373546E-02 
577	 8.28916219464513E-02 
578	 8.29868660383495E-02 
579	 8.30447680722178E-02 
580	 8.28738430789982E-02 
581	 8.28621197187174E-02 
582	 0.082829770912227 
583	 0.082692709640214 
584	 8.26776425669549E-02 
585	 8.25892453655148E-02 
586	 8.23947346884672E-02 
587	 8.21404767357233E-02 
588	 8.19918013806018E-02 
589	 8.18237399530299E-02 
590	 8.16353097061086E-02 
591	 8.15530732182152E-02 
592	 8.13024770362706E-02 
593	 8.09827833673477E-02 
594	 8.07204932683574E-02 
595	 8.04766090045974E-02 
596	 8.00702544668213E-02 
597	 7.95998681157667E-02 
598	 7.92900342333573E-02 
599	 7.88774625035849E-02 
600	 7.84385319845076E-02 
601	 7.80486657767439E-02 
602	 7.77003726504829E-02 
603	 7.75505127033964E-02 
604	 7.74749839621608E-02 
605	 7.73063973117445E-02 
606	 7.71610092737567E-02 
607	 7.71145458500201E-02 
608	 7.71034935940229E-02 
609	 7.69360192509055E-02 
610	 7.68846924745875E-02 
611	 7.68357812728811E-02 
612	 7.67012267054867E-02 
613	 7.67284326083977E-02 
614	 7.66515466650175E-02 
615	 7.64855000840348E-02 
616	 7.64036048633868E-02 
617	 7.64237963065328E-02 
618	 7.64244455116617E-02 
619	 7.63507399030095E-02 
620	 7.62825619511078E-02 
621	 0.076075842524247 
622	 7.59300249405795E-02 
623	 7.60290498787599E-02 
624	 7.59150999546484E-02 
625	 7.58489837470011E-02 
626	 7.58536642813282E-02 
627	 7.57147558048295E-02 
628	 7.56326326950578E-02 
629	 7.56019641450119E-02 
630	 7.55585759210015E-02 
631	 7.53748827451804E-02 
632	 7.53575802990555E-02 
633	 0.075414109385846 
634	 7.53008094731189E-02 
635	 7.52619533633924E-02 
636	 7.51267375165087E-02 
637	 7.49071037793216E-02 
638	 7.49251615297987E-02 
639	 7.48787875153964E-02 
640	 7.47475007771038E-02 
641	 7.45980845296009E-02 
642	 7.44819788126671E-02 
643	 7.44228696515999E-02 
644	 7.43414081143753E-02 
645	 7.40940435871428E-02 
646	 7.39599131197298E-02 
647	 0.073784015676971 
648	 7.34976381358079E-02 
649	 7.34218192143427E-02 
650	 7.32429199627119E-02 
651	 7.29967039221034E-02 
652	 7.28268814868778E-02 
653	 7.26013367307977E-02 
654	 7.22531257513746E-02 
655	 0.071806155489323 
656	 7.14606870896848E-02 
657	 7.10488667298736E-02 
658	 7.06508367152888E-02 
659	 7.03519095441755E-02 
660	 0.070169863334472 
661	 6.99235505543628E-02 
662	 6.96398335081243E-02 
663	 6.94589712910254E-02 
664	 6.91672043868887E-02 
665	 6.89200325751337E-02 
666	 6.88124074182495E-02 
667	 6.87647052229043E-02 
668	 6.86786187459018E-02 
669	 6.85626601999655E-02 
670	 6.84589892339568E-02 
671	 6.83446105283898E-02 
672	 6.82884870190701E-02 
673	 0.068267195407294 
674	 6.81771553388973E-02 
675	 0.068139257301144 
676	 0.068104178766552 
677	 6.80502227841772E-02 
678	 6.81099015362899E-02 
679	 6.81983278380039E-02 
680	 6.82414880033893E-02 
681	 6.81911461674317E-02 
682	 0.068127099591755 
683	 6.81762875822076E-02 
684	 6.83110889528115E-02 
685	 0.068300902031064 
686	 6.82326640109746E-02 
687	 6.81803412045363E-02 
688	 6.81902837093923E-02 
689	 6.82089408176395E-02 
690	 6.81214366089882E-02 
691	 6.79033403614483E-02 
692	 6.76088012078687E-02 
693	 0.067572052569909 
694	 6.74693129696285E-02 
695	 0.067166125772325 
696	 6.69540732270943E-02 
697	 6.67091258474178E-02 
698	 0.066361734133728 
699	 6.59223143806538E-02 
700	 6.56240016181002E-02 
701	 6.52510788422024E-02 
702	 6.47724437681312E-02 
703	 6.43022478731311E-02 
704	 6.38124543656178E-02 
705	 6.32765712908252E-02 
706	 6.27139760390985E-02 
707	 6.22219603973936E-02 
708	 6.15103970437914E-02 
709	 6.07110467163703E-02 
710	 6.00454219660554E-02 
711	 5.92681776018133E-02 
712	 5.84178878139834E-02 
713	 0.057507603681075 
714	 5.64860802253869E-02 
715	 5.56126765205025E-02 
716	 5.46411502709916E-02 
717	 5.33744982724549E-02 
718	 5.21063516846012E-02 
719	 0.051165816029076 
720	 5.04098375308736E-02 
721	 4.94357843383791E-02 
722	 0.048570989230736 
723	 4.74488616447934E-02 
724	 4.61267414407858E-02 
725	 4.49811639461089E-02 
726	 4.41056736239347E-02 
727	 4.30442071953472E-02 
728	 4.15324693761267E-02 
729	 4.01465392587901E-02 
730	 3.87858677604329E-02 
731	 3.75227371901072E-02 
732	 3.63998650146201E-02 
733	 3.54623855326095E-02 
734	 3.46793349678133E-02 
735	 3.40021336021663E-02 
736	 0.033341540685133 
737	 3.30142118523887E-02 
738	 3.27578892055976E-02 
739	 3.23649349667472E-02 
740	 3.21946397253099E-02 
741	 3.20586641346986E-02 
742	 3.19051626438243E-02 
743	 3.17545692901594E-02 
744	 3.15947221689701E-02 
745	 3.15357484866122E-02 
746	 3.15556606962663E-02 
747	 3.14447212382836E-02 
748	 3.13615408912679E-02 
749	 3.12995623822384E-02 
750	 3.12560003545699E-02 
751	 3.14086788877302E-02 
752	 3.13068393094255E-02 
753	 3.10645644324528E-02 
754	 3.10683666709303E-02 
755	 3.11104752286048E-02 
756	 3.10750808108304E-02 
757	 3.09701228005625E-02 
758	 0.030974759682609 
759	 3.10561011531367E-02 
760	 3.11966778553153E-02 
761	 3.11721123883774E-02 
762	 3.06558765732615E-02 
763	 3.06127287220262E-02 
764	 3.08287139593901E-02 
765	 3.08203188640196E-02 
766	 3.07758725781905E-02 
767	 3.08261860350861E-02 
768	 3.09483479864151E-02 
769	 3.09867482428833E-02 
770	 3.09512188660959E-02 
771	 3.09679089922535E-02 
772	 3.10860999768849E-02 
773	 3.10683739032769E-02 
774	 3.11793126522785E-02 
775	 3.13411552419031E-02 
776	 3.13708994089299E-02 
777	 3.14125617182515E-02 
778	 3.15694919082573E-02 
779	 3.17987267620618E-02 
780	 3.19157087900132E-02 
781	 3.18267335546751E-02 
782	 3.18619463141284E-02 
783	 3.21726985964353E-02 
784	 3.23424772741183E-02 
785	 3.24727449711532E-02 
786	 3.26255493559002E-02 
787	 0.03283010321414 
788	 3.29494392881829E-02 
789	 3.32016346371484E-02 
790	 3.35113884755903E-02 
791	 3.36027312077836E-02 
792	 3.38308623123629E-02 
793	 3.40334086369792E-02 
794	 3.41432395940927E-02 
795	 3.43521046680169E-02 
796	 3.46036812702018E-02 
797	 3.47979644640215E-02 
798	 3.48896914363542E-02 
799	 3.50221257514129E-02 
800	 3.51778906291164E-02 
801	 3.53375455328571E-02 
802	 3.54849659454493E-02 
803	 3.56487692424106E-02 
804	 3.57655107228686E-02 
805	 3.57725038914074E-02 
806	 3.56296203770014E-02 
807	 3.56884645005044E-02 
808	 3.57883633168494E-02 
809	 3.57311026598582E-02 
810	 3.54939095292677E-02 
811	 3.53146739113907E-02 
812	 3.52028659250567E-02 
813	 3.50782463201629E-02 
814	 0.035005903327562 
815	 3.48524302562065E-02 
816	 3.46185412854702E-02 
817	 3.44122979952967E-02 
818	 3.41284741801475E-02 
819	 3.38269789050996E-02 
820	 3.34497002470958E-02 
821	 3.27862257201222E-02 
822	 3.20415397939282E-02 
823	 3.13113497491809E-02 
824	 0.03066467822717 
825	 3.01757201057169E-02 
826	 2.93932837057267E-02 
827	 2.83795924231706E-02 
828	 2.74896727115296E-02 
829	 2.69028378434063E-02 
830	 0.026302821376315 
831	 2.56438495442721E-02 
832	 2.51242867494394E-02 
833	 2.48413281183304E-02 
834	 2.45333689496608E-02 
835	 2.41769872152247E-02 
836	 2.40972322603231E-02 
837	 2.38260707915138E-02 
838	 2.34268294116826E-02 
839	 0.023111087399763 
840	 2.31898154208659E-02 
841	 2.30313974332897E-02 
842	 2.27613977571961E-02 
843	 2.26951342069037E-02 
844	 2.25878755814658E-02 
845	 2.23876539826694E-02 
846	 2.21708548363947E-02 
847	 2.20573026270427E-02 
848	 2.17445848831515E-02 
849	 0.021456301444249 
850	 2.13765206199499E-02 
851	 2.15275546840349E-02 
852	 2.13784087944545E-02 
853	 2.12048389338709E-02 
854	 2.12182009785156E-02 
855	 2.11044410951862E-02 
856	 2.09800726816874E-02 
857	 2.08413663188847E-02 
858	 0.020681001323102 
859	 2.05924727003077E-02 
860	 2.04819037891955E-02 
861	 0.020311769267339 
862	 2.01221657583247E-02 
863	 2.02197292277683E-02 
864	 2.02367219812865E-02 
865	 2.00401012660065E-02 
866	 1.97775166562243E-02 
867	 1.95708184375242E-02 
868	 1.94464966176969E-02 
869	 1.93788746583526E-02 
870	 1.93045884005993E-02 
871	 1.91063316176243E-02 
872	 1.88950568492973E-02 
873	 1.88011918342675E-02 
874	 1.88889597539308E-02 
875	 1.87812782844216E-02 
876	 1.85741791892579E-02 
877	 1.84687161386966E-02 
878	 1.84320980073622E-02 
879	 0.018441370632547 
880	 1.82824901975408E-02 
881	 0.017803385607875 
882	 1.75985923416938E-02 
883	 1.76792799506117E-02 
884	 1.77644784961951E-02 
885	 1.74679972089878E-02 
886	 1.71971813665199E-02 
887	 1.72128715461118E-02 
888	 1.73717071680171E-02 
889	 1.71445239765123E-02 
890	 1.68942277935897E-02 
891	 1.68720385191471E-02 
892	 1.70693844759134E-02 
893	 1.70155185357038E-02 
894	 0.017034497466733 
895	 1.70529759599765E-02 
896	 1.68479194182612E-02 
897	 1.61020878911613E-02 
898	 0.01607558257031 
899	 1.62629385697578E-02 
900	 1.59068404433877E-02 
901	 1.58905485662456E-02 
902	 1.57120641584748E-02 
903	 1.56986515898842E-02 
904	 1.61519919664129E-02 
905	 1.56474728617384E-02 
906	 1.53167468249651E-02 
907	 1.55241796680035E-02 
908	 0.015916104112002 
909	 1.60188468028511E-02 
910	 1.58006370355129E-02 
911	 1.52500584995937E-02 
912	 1.44487037105142E-02 
913	 1.46091459334909E-02 
914	 0.014912439120388 
915	 1.48477780335156E-02 
916	 1.45834897951111E-02 
917	 1.34238505268081E-02 
918	 1.30213237475474E-02 
919	 1.36089252036522E-02 
920	 1.33392181885992E-02 
921	 1.34034798170236E-02 
922	 1.35545430824736E-02 
923	 1.35525863400469E-02 
924	 1.37302443211063E-02 
925	 1.35161213923672E-02 
926	 1.33840706570786E-02 
927	 1.36836796892085E-02 
928	 1.27834777700066E-02 
929	 1.32452401485107E-02 
930	 1.42956729889714E-02 
931	 1.36232113961614E-02 
932	 1.61378865319246E-02 
933	 1.57754851313883E-02 
934	 1.33091498719689E-02 
935	 1.33816278778761E-02 
936	 1.37792900596787E-02 
937	 1.42518565148148E-02 
938	 1.41937743452654E-02 
939	 1.34582398946797E-02 
940	 1.38288165941269E-02 
941	 1.22362840647728E-02 
942	 8.77971072447595E-03 
943	 5.81269221450158E-03 
944	 7.46021291955946E-03 
945	 1.02482927950805E-02 
946	 1.09058106064233E-02 
947	 8.58110065485481E-03 
948	 9.89341014921242E-03 
949	 1.14854175678463E-02 
950	 1.25006729533309E-02 
951	 1.35958417270998E-02 
952	 1.22467104591436E-02 
953	 1.08664002171136E-02 
954	 1.05905609776758E-02 
955	 1.09575280353173E-02 
956	 9.48980654670102E-03 
957	 8.49482666910034E-03 
958	 8.85223898952201E-03 
959	 1.00366222309211E-02 
960	 0.011524461275434 
961	 1.05015184921952E-02 
962	 8.82403589826313E-03 
963	 1.02884688439596E-02 
964	 1.00452425043432E-02 
965	 1.01415125845131E-02 
966	 1.01486781314496E-02 
967	 8.2202489670201E-03 
968	 7.83828151587485E-03 
969	 9.05012585764847E-03 
970	 1.04256624595872E-02 
971	 9.9177618759958E-03 
972	 8.4767983976351E-03 
973	 8.45718679487941E-03 
974	 9.36604079007852E-03 
975	 8.5336042547114E-03 
976	 1.11019044773606E-02 
977	 1.13204335191288E-02 
978	 9.40758355476281E-03 
979	 0.010624536996183 
980	 9.72033986942208E-03 
981	 8.9822772313714E-03 
982	 9.42154026411293E-03 
983	 1.01570528684056E-02 
984	 9.01257413604646E-03 
985	 8.88411928334193E-03 
986	 9.9257852549625E-03 
987	 9.95822216316467E-03 
988	 9.3056606306788E-03 
989	 8.78663678832942E-03 
990	 8.40929906338862E-03 
991	 7.8530943027102E-03 
992	 9.30492564424698E-03 
993	 1.07155573408433E-02 
994	 1.05189515958359E-02 
995	 8.59548282581517E-03 
996	 8.57089679783196E-03 
997	 1.03447754665918E-02 
998	 1.05053070481429E-02 
999	 6.24262309993735E-03 
1000	 7.49843495591245E-03 
1001	 9.62982387549379E-03 
1002	 9.84590625530462E-03 
1003	 1.00238137106833E-02 
1004	 1.04720354190297E-02 
1005	 1.06424621749508E-02 
1006	 1.07644626602082E-02 
1007	 1.07187722070455E-02 
1008	 1.02485233375529E-02 
1009	 9.97631902262639E-03 
1010	 9.6431873777552E-03 
1011	 9.4657550338353E-03 
1012	 1.00079942875769E-02 
1013	 1.03803638209278E-02 
1014	 1.05983881650666E-02 
1015	 1.10041683347254E-02 
1016	 0.011031532170207 
1017	 1.05577777374149E-02 
1018	 1.04050480100997E-02 
1019	 1.01618219934758E-02 
1020	 1.01861967106831E-02 
1021	 1.03652777932022E-02 
1022	 0.010657361566403 
1023	 1.11939247794637E-02 
1024	 0.011379441751082 
1025	 1.12983338815605E-02 
1026	 1.12765583193061E-02 
1027	 1.10021988388859E-02 
1028	 1.02163896978518E-02 
1029	 1.00639389386145E-02 
1030	 0.010091974143063 
1031	 1.00783472263183E-02 
1032	 1.03995061165365E-02 
1033	 1.05089120631693E-02 
1034	 1.04997721529326E-02 
1035	 1.04323784999453E-02 
1036	 1.02906058733875E-02 
1037	 1.02733271885642E-02 
1038	 1.02670969339598E-02 
1039	 1.01231364410825E-02 
1040	 1.03394523952811E-02 
1041	 1.04414347835145E-02 
1042	 1.05446981123493E-02 
1043	 1.07572035830197E-02 
1044	 1.06791358245343E-02 
1045	 0.010210592500937 
1046	 0.010305904943338 
1047	 0.010561516754087 
1048	 0.010717166617154 
1049	 0.011349192633364 
1050	 1.15533689639913E-02 
1051	 1.14407322486212E-02 
1052	 1.12486876336059E-02 
1053	 1.06556957743644E-02 
1054	 1.05042187448806E-02 
1055	 1.04349018281705E-02 
1056	 0.010392612129956 
1057	 1.04914771416446E-02 
1058	 1.10505627733731E-02 
1059	 1.11385569913531E-02 
1060	 1.10095502506012E-02 
1061	 1.09685749535241E-02 
1062	 1.08373350937694E-02 
1063	 1.07822545554277E-02 
1064	 1.07111287878806E-02 
1065	 1.07174488565632E-02 
1066	 1.07598108915681E-02 
1067	 1.08540657059773E-02 
1068	 1.11994399572598E-02 
1069	 1.12416181585137E-02 
1070	 1.11071606690684E-02 
1071	 1.10212486245849E-02 
1072	 1.06004288262307E-02 
1073	 0.010433974105099 
1074	 1.05444187457256E-02 
1075	 1.11115104198559E-02 
1076	 1.11314165479935E-02 
1077	 1.11149203470203E-02 
1078	 1.10460638309416E-02 
1079	 1.04221740350884E-02 
1080	 1.04027009120451E-02 
1081	 1.10191451937664E-02 
1082	 1.11350101498709E-02 
1083	 1.12697665932527E-02 
1084	 1.12213269688483E-02 
1085	 1.06605408155868E-02 
1086	 1.03727266078721E-02 
1087	 0.010105237868105 
1088	 1.00095331958657E-02 
1089	 9.90634953126172E-03 
1090	 1.02150161917147E-02 
1091	 1.04749285619721E-02 
1092	 1.11018583778743E-02 
1093	 1.09263291516265E-02 
1094	 1.02981567282443E-02 
1095	 1.01748972702256E-02 
1096	 9.72680995802498E-03 
1097	 9.61769827745642E-03 
1098	 1.03781898448774E-02 
1099	 1.03692144266166E-02 
1100	 9.45119078312022E-03 
1101	 9.34806658112456E-03 
1102	 9.75017542607436E-03 
1103	 9.75015661845665E-03 
1104	 9.96277964773693E-03 
1105	 1.02375515758001E-02 
1106	 9.6426216558696E-03 
1107	 9.13145872786289E-03 
1108	 9.09542260597545E-03 
1109	 9.2622273522858E-03 
1110	 9.49286022004245E-03 
1111	 1.01578937221202E-02 
1112	 1.04305760865271E-02 
1113	 0.010660971281095 
1114	 1.08910251459679E-02 
1115	 1.10472957794932E-02 
1116	 1.10819449984708E-02 
1117	 1.05806602229407E-02 
1118	 1.06382482418202E-02 
1119	 1.13825585088932E-02 
1120	 1.14149571283861E-02 
1121	 1.16332947803134E-02 
1122	 1.08990089243125E-02 
1123	 9.7760011872987E-03 
1124	 1.04406818401077E-02 
1125	 0.012801009857162 
1126	 1.33046756468352E-02 
1127	 1.35528516925897E-02 
1128	 1.11557252729343E-02 
1129	 9.82863126285733E-03 
1130	 7.98553561769654E-03 
1131	 9.5642816363933E-03 
1132	 1.29560809235081E-02 
1133	 1.26561318091383E-02 
1134	 1.24101974017064E-02 
1135	 1.18813665098701E-02 
1136	 9.10216261980689E-03 
1137	 8.72264010479829E-03 
1138	 1.03010171369889E-02 
1139	 1.01609898112806E-02 
1140	 9.8857361457655E-03 
1141	 9.36874588155544E-03 
1142	 7.65034904771787E-03 
1143	 7.64610814891455E-03 
1144	 8.24875746145604E-03 
1145	 7.52617231595524E-03 
1146	 8.38353482844163E-03 
1147	 8.63685019258261E-03 
1148	 8.43606016772255E-03 
1149	 1.01717146644744E-02 
1150	 1.04176416793694E-02 
1151	 1.01029608357833E-02 
1152	 9.84417782153769E-03 
1153	 9.24096445268354E-03 
1154	 8.83767221575951E-03 
1155	 8.54996235695123E-03 
1156	 8.32418563395937E-03 
1157	 8.26308337124648E-03 
1158	 7.98815380696268E-03 
1159	 7.65606473618084E-03 
1160	 8.15979554101795E-03 
1161	 8.28331777949169E-03 
1162	 7.98415303338144E-03 
1163	 8.07583755055644E-03 
1164	 7.74836646755831E-03 
1165	 7.46916103186267E-03 
1166	 7.86922340253839E-03 
1167	 7.93382610591392E-03 
1168	 7.57174747914282E-03 
1169	 7.69092440503218E-03 
1170	 7.77057869552929E-03 
1171	 7.73300748724967E-03 
1172	 7.83612803698274E-03 
1173	 7.98365676099244E-03 
1174	 8.15426222797319E-03 
1175	 7.81492338222996E-03 
1176	 7.74766272192205E-03 
1177	 0.007956426382163 
1178	 7.69434706979321E-03 
1179	 7.2652299128793E-03 
1180	 7.48270914309715E-03 
1181	 7.68366949512288E-03 
1182	 7.59589935772634E-03 
1183	 7.70900495210147E-03 
1184	 7.77864678576814E-03 
1185	 7.54706065579226E-03 
1186	 7.31800262718539E-03 
1187	 7.52722292388082E-03 
1188	 7.84938174424684E-03 
1189	 7.64355947345701E-03 
1190	 7.39436346604138E-03 
1191	 7.4557757016799E-03 
1192	 7.40920161604098E-03 
1193	 7.18120686361782E-03 
1194	 7.0628624027765E-03 
1195	 7.16589616677221E-03 
1196	 7.07154758669657E-03 
1197	 7.01556038180445E-03 
1198	 0.007403249135969 
1199	 7.82045685152245E-03 
1200	 7.88476617942662E-03 
1201	 7.85915959402019E-03 
1202	 7.64109181388024E-03 
1203	 7.27047671391872E-03 
1204	 7.3582652910358E-03 
1205	 7.6902276360677E-03 
1206	 7.54849783745745E-03 
1207	 7.26603571352937E-03 
1208	 7.26873311877302E-03 
1209	 7.30998958191279E-03 
1210	 7.38261359541392E-03 
1211	 7.52287822985385E-03 
1212	 7.53320595028783E-03 
1213	 7.46819697699844E-03 
1214	 7.44063667437421E-03 
1215	 7.50055827956937E-03 
1216	 7.52921672411812E-03 
1217	 7.35650767115115E-03 
1218	 7.22616147748811E-03 
1219	 7.18151688956339E-03 
1220	 7.23016103326124E-03 
1221	 7.35869984120111E-03 
1222	 7.25937871488814E-03 
1223	 7.0611064393084E-03 
1224	 7.08507364204183E-03 
1225	 7.1628256945998E-03 
1226	 7.20582014839706E-03 
1227	 7.21073687895597E-03 
1228	 7.14707986933467E-03 
1229	 7.1770432639282E-03 
1230	 7.18442292428324E-03 
1231	 7.22662312571233E-03 
1232	 7.39990328850205E-03 
1233	 7.19491278600328E-03 
1234	 6.94891073224568E-03 
1235	 6.97451442116331E-03 
1236	 7.15324380857249E-03 
1237	 7.08818271148377E-03 
1238	 7.03081096253351E-03 
1239	 7.28454296874792E-03 
1240	 7.15653222260885E-03 
1241	 6.8695762731092E-03 
1242	 7.01677238727589E-03 
1243	 7.10506388653636E-03 
1244	 6.82557478681373E-03 
1245	 6.87339908029311E-03 
1246	 7.05693388140402E-03 
1247	 6.80517237290947E-03 
1248	 6.87572137737219E-03 
1249	 7.22995595409309E-03 
1250	 7.15723853558838E-03 
1251	 7.03486498042648E-03 
1252	 6.99616242068428E-03 
1253	 6.88961135510605E-03 
1254	 6.82748426630584E-03 
1255	 6.90498572352802E-03 
1256	 6.98094144217238E-03 
1257	 7.10644715223342E-03 
1258	 7.10883889034803E-03 
1259	 7.12944712215247E-03 
1260	 7.17391889233596E-03 
1261	 7.04839467950118E-03 
1262	 7.05309497383284E-03 
1263	 7.15845155367991E-03 
1264	 7.35144472030574E-03 
1265	 7.23960674683169E-03 
1266	 7.13893397365534E-03 
1267	 7.09746595613953E-03 
1268	 6.83637148210049E-03 
1269	 6.78778486527869E-03 
1270	 7.14347750879755E-03 
1271	 7.31906138280359E-03 
1272	 7.19988569550618E-03 
1273	 7.06267659094333E-03 
1274	 6.9476303089759E-03 
1275	 6.93538414365701E-03 
1276	 7.02783843955971E-03 
1277	 7.01702433239626E-03 
1278	 6.89099363313896E-03 
1279	 6.93730842254496E-03 
1280	 7.04184808284693E-03 
1281	 7.01329113386432E-03 
1282	 6.98928266481939E-03 
1283	 7.09433773094399E-03 
1284	 7.13086344514742E-03 
1285	 7.08040553157151E-03 
1286	 7.2782275459315E-03 
1287	 7.27858631462236E-03 
1288	 6.81994614321846E-03 
1289	 6.75764719063044E-03 
1290	 7.00804826937729E-03 
1291	 6.98778299285903E-03 
1292	 6.73158309108313E-03 
1293	 6.68095968318584E-03 
1294	 6.80828341798737E-03 
1295	 6.73669651241768E-03 
1296	 6.55713209424873E-03 
1297	 6.61740134504212E-03 
1298	 6.61327075008728E-03 
1299	 6.46699002784342E-03 
1300	 6.56696532169444E-03 
1301	 6.91782423885005E-03 
1302	 6.95376237209158E-03 
1303	 6.6145558901402E-03 
1304	 6.57092051491897E-03 
1305	 6.78118292520248E-03 
1306	 6.78248816210954E-03 
1307	 6.65862943776306E-03 
1308	 6.53730246538253E-03 
1309	 6.39660112739353E-03 
1310	 0.00634079811031 
1311	 6.06348354059242E-03 
1312	 6.12467679815912E-03 
1313	 6.84985703505612E-03 
1314	 6.7638977535168E-03 
1315	 6.06010768504214E-03 
1316	 5.9639367372353E-03 
1317	 5.71139675215783E-03 
1318	 5.65800816001005E-03 
1319	 6.40534041569372E-03 
1320	 6.6718611581422E-03 
1321	 6.70236720199908E-03 
1322	 6.50554460628736E-03 
1323	 6.38252665301222E-03 
1324	 6.78860718603104E-03 
1325	 7.16735250926089E-03 
1326	 0.006887569949087 
1327	 6.88869157580979E-03 
1328	 7.1294437274226E-03 
1329	 7.03407257626892E-03 
1330	 7.06408172348862E-03 
1331	 7.38462068032223E-03 
1332	 7.07702453895861E-03 
1333	 6.61196361279869E-03 
1334	 7.37761939559715E-03 
1335	 7.66444161194915E-03 
1336	 7.13793366812936E-03 
1337	 6.60825806921908E-03 
1338	 6.36780001831297E-03 
1339	 6.6540934024633E-03 
1340	 6.76142089677982E-03 
1341	 6.27952674279334E-03 
1342	 6.54860313972747E-03 
1343	 6.79304151588227E-03 
1344	 4.98076442312133E-03 
1345	 4.49931032894208E-03 
1346	 7.40562883638204E-03 
1347	 8.48044811339871E-03 
1348	 6.98625171085482E-03 
1349	 7.83038176446596E-03 
1350	 1.11167197557089E-02 
1351	 1.33058254097347E-02 
1352	 1.74142697216048E-02 
1353	 2.17245743046435E-02 
1354	 1.96449745996034E-02 
1355	 0.018275981543656 
1356	 3.92923336314164E-02 
1357	 0.073084576944855 
1358	 8.12148545206176E-02 
1359	 0.113928359487902 
1360	 0.176170060996161 
1361	 0.135091794498757 
1362	 1.48355895595731E-02 
1363	-5.36385307510384E-02 
1364	 7.14241647033388E-02 
1365	 0.217807857791577 
1366	 0.198555583183708 
1367	 0.392578300355259 
1368	 0.519912547983492 
1369	 0.119975688590147 
1370	 9.12397220406443E-02 
1371	 0.691930661130909 
1372	 0.73727106621262 
1373	 0.186283693596952 
1374	 8.10575210699847E-02 
1375	 6.82980253335533E-02 
1376	 5.26905191255512E-03 
1377	-9.93173296448762E-02 
1378	 3.43834733350045E-02 
1379	 0.32950100386745 
1380	 0.359954977127459 
1381	 0.332047248390366 
1382	 0.448305711011341 
1383	 0.518735194345704 
1384	 0.62826026906483 
1385	 1.29470815294831 
1386	 1.30137921935702 
1387	 0.470732217930173 
1388	 0.390554925358266 
1389	 1.47233000286753 
1390	 1.0710258903379 
1391	 4.82404665669763E-02 
1392	-0.964538539164172 
1393	-0.384298188104982 
1394	-0.311230011497375 
1395	-0.123983239919977 
1396	 0.106964803046452 
1397	 0.176537438432989 
1398	 0.29155870838899 
1399	 0.294729172673659 
1400	 0.269719058666277 
1401	 0.289849728810628 
1402	 4.81768492252905E-03 
1403	-0.465493221667829 
1404	-7.21595672980187E-02 
1405	 7.71787974787451E-02 
1406	 5.03429099989708E-02 
1407	 0.021405276402625 
1408	 0.160592958037622 
1409	 0.20346262463065 
1410	 0.102496373713367 
1411	 7.12235654988979E-02 
1412	 0.109921115460338 
1413	 0.132713887072796 
1414	 0.128315747248859 
1415	 0.101006211636533 
1416	 0.126759207068276 
1417	 0.109695803084314 
1418	 3.74178200602576E-02 
1419	 1.06080045513016E-02 
1420	-2.33646164082682E-02 
1421	-1.11409720287175E-02 
1422	 3.61089357868251E-02 
1423	 3.79060276298341E-02 
1424	 4.24869130828312E-02 
1425	 3.96758177475234E-02 
1426	 8.3278361680551E-03 
1427	 4.36585296644919E-03 
1428	 2.85664947706765E-02 
1429	 0.021892721808991 
1430	-6.13887905700067E-03 
1431	-7.70935665062807E-03 
1432	-6.46691332258642E-03 
1433	-8.09127981084275E-03 
1434	 5.7980155558135E-03 
1435	 1.10824412537118E-02 
1436	-2.10232799823362E-03 
1437	 1.94434833276759E-03 
1438	 1.61357378357344E-03 
1439	 8.37056910730298E-03 
1440	 2.21071378893991E-02 
1441	 2.27705420155495E-02 
1442	 1.44138074004876E-02 
1443	 9.17086578184842E-03 
1444	 9.71766292127881E-03 
1445	 4.46122400921103E-03 
1446	 4.23943398192644E-03 
1447	 0.011310451501664 
1448	 9.29616566051239E-03 
1449	 8.42915391874922E-03 
1450	 1.18509737852265E-02 
1451	 9.54456695035474E-03 
1452	 5.96481077217207E-03 
1453	 6.51139528582748E-03 
1454	 6.97458184933699E-03 
1455	 7.76982962160661E-03 
1456	 7.1916521839821E-03 
1457	 7.12679802309503E-03 
1458	 6.44316244641689E-03 
1459	 4.01341034575205E-03 
1460	 4.06512022876833E-03 
1461	 5.77248305434362E-03 
1462	 6.05380310283654E-03 
1463	 6.20193360413347E-03 
1464	 6.2683216909162E-03 
1465	 6.33228634123127E-03 
1466	 6.06187614279525E-03 
1467	 4.98936891202286E-03 
1468	 5.35222438374391E-03 
1469	 6.76462006210183E-03 
1470	 6.06816701829148E-03 
1471	 4.68584210501992E-03 
1472	 4.71975188764195E-03 
1473	 4.1105980176739E-03 
1474	 4.22489102983233E-03 
1475	 6.46344066055458E-03 
1476	 6.0594472782566E-03 
1477	 3.8578991165601E-03 
1478	 3.08572013210029E-03 
1479	 1.88129329939091E-03 
1480	 1.99788021728724E-03 
1481	 3.52011355105219E-03 
1482	 3.79116057462912E-03 
1483	 3.84784708139512E-03 
1484	 3.87090874145422E-03 
1485	 3.44024553855912E-03 
1486	 3.34632905124529E-03 
1487	 3.17479434999223E-03 
1488	 3.55755694333496E-03 
1489	 4.75726008184714E-03 
1490	 4.72185255330711E-03 
1491	 4.05062233179943E-03 
1492	 4.10516716708953E-03 
1493	 4.10395698487695E-03 
1494	 3.98151587580295E-03 
1495	 4.09892847173068E-03 
1496	 4.17998478343742E-03 
1497	 4.23029995365968E-03 
1498	 4.02148161626966E-03 
1499	 3.63523087300958E-03 
1500	 3.69842219139538E-03 
1501	 3.76435144193748E-03 
1502	 3.66269819984312E-03 
1503	 3.82903753654289E-03 
1504	 3.93720651717418E-03 
1505	 3.80242726425733E-03 
1506	 3.7433527326412E-03 
1507	 3.84999982689841E-03 
1508	 3.94317741012079E-03 
1509	 4.06264563240611E-03 
1510	 4.09470113859437E-03 
1511	 4.08857728210023E-03 
1512	 4.05719968562841E-03 
1513	 3.91501340576468E-03 
1514	 3.88373115926139E-03 
1515	 4.07210089131608E-03 
1516	 4.21746747716853E-03 
1517	 4.12208035569297E-03 
1518	 3.98868801283103E-03 
1519	 3.86525287416177E-03 
1520	 3.79757847962192E-03 
1521	 3.94057721943424E-03 
1522	 4.10040909424019E-03 
1523	 4.1461862509422E-03 
1524	 4.07320550099961E-03 
1525	 3.91040746790636E-03 
1526	 3.81319356868006E-03 
1527	 3.80741510540389E-03 
1528	 3.92182776758427E-03 
1529	 3.96028955140782E-03 
1530	 3.82479471337552E-03 
1531	 4.02654653232515E-03 
1532	 4.2465698104177E-03 
1533	 4.10567367849804E-03 
1534	 4.10799710588469E-03 
1535	 4.08287635646873E-03 
1536	 3.90447241439248E-03 
1537	 3.87464958908544E-03 
1538	 4.01313657834588E-03 
1539	 4.12057558164376E-03 
1540	 4.07072732878221E-03 
1541	 4.22108727291369E-03 
1542	 4.40816800390504E-03 
1543	 4.26821199743954E-03 
1544	 4.18516117921117E-03 
1545	 4.14534183047373E-03 
1546	 4.0809941667249E-03 
1547	 4.20200810289173E-03 
1548	 4.20949178848249E-03 
1549	 4.06673931726912E-03 
1550	 4.10701831978381E-03 
1551	 4.31535363774255E-03 
1552	 4.4418211118309E-03 
1553	 4.49171158657084E-03 
1554	 4.59253159826502E-03 
1555	 4.68913120958368E-03 
1556	 0.004546306666266 
1557	 4.23456444245009E-03 
1558	 4.26985575749129E-03 
1559	 4.40288351050969E-03 
1560	 4.31443180363624E-03 
1561	 4.40066300357208E-03 
1562	 4.47197626166576E-03 
1563	 4.23413269854728E-03 
1564	 4.10196205835797E-03 
1565	 4.30027325016106E-03 
1566	 4.52953745949741E-03 
1567	 4.55511178996254E-03 
1568	 4.50378004321962E-03 
1569	 0.004438299237676 
1570	 4.28157527325328E-03 
1571	 4.33623632540191E-03 
1572	 4.58956105601059E-03 
1573	 4.68738446137999E-03 
1574	 4.73928152313991E-03 
1575	 4.63017799875669E-03 
1576	 4.45839816314208E-03 
1577	 4.44767677975772E-03 
1578	 4.32617846241229E-03 
1579	 4.26619931281329E-03 
1580	 4.37940549063262E-03 
1581	 4.45712521190471E-03 
1582	 4.49288390708721E-03 
1583	 4.41423555855556E-03 
1584	 4.36805829209255E-03 
1585	 4.51480790710364E-03 
1586	 4.60510151840961E-03 
1587	 0.004622273087502 
1588	 4.58556559130301E-03 
1589	 4.46040846623573E-03 
1590	 4.51409088400198E-03 
1591	 4.56956084039142E-03 
1592	 4.49976463127698E-03 
1593	 4.43840139210196E-03 
1594	 4.26665294742181E-03 
1595	 4.37722340866529E-03 
1596	 4.69663671305633E-03 
1597	 4.75860499155179E-03 
1598	 4.82926094700535E-03 
1599	 4.74434718637129E-03 
1600	 0.004581996616693 
1601	 4.71412823066207E-03 
1602	 4.69016473120493E-03 
1603	 4.57082074523755E-03 
1604	 4.66745063089998E-03 
1605	 4.65438809268946E-03 
1606	 4.48200898622008E-03 
1607	 4.40377644825595E-03 
1608	 4.50860750478627E-03 
1609	 4.6511138760128E-03 
1610	 4.69961136290067E-03 
1611	 4.79523352677561E-03 
1612	 4.70457128356474E-03 
1613	 4.35168253160222E-03 
1614	 4.24376063871442E-03 
1615	 4.47041134308164E-03 
1616	 4.74877458967948E-03 
1617	 4.7835024199521E-03 
1618	 4.67962873217643E-03 
1619	 4.61625131493852E-03 
1620	 4.41725576310635E-03 
1621	 4.2708811231205E-03 
1622	 4.5058525818656E-03 
1623	 4.72332095184507E-03 
1624	 4.58734750490232E-03 
1625	 4.56562853870109E-03 
1626	 4.72757653354564E-03 
1627	 4.5925668233291E-03 
1628	 4.43486246355986E-03 
1629	 4.61863197886731E-03 
1630	 4.69929913321445E-03 
1631	 4.56190640808817E-03 
1632	 4.56609068075506E-03 
1633	 4.67467920145978E-03 
1634	 4.61697468166555E-03 
1635	 4.58961755030234E-03 
1636	 4.75602988621992E-03 
1637	 4.70857544365867E-03 
1638	 4.50367320746025E-03 
1639	 4.56667114933609E-03 
1640	 4.69438004257261E-03 
1641	 4.62620969480193E-03 
1642	 4.60286185873534E-03 
1643	 4.78045255603799E-03 
1644	 4.86907099080449E-03 
1645	 4.74232006670727E-03 
1646	 4.64952276996015E-03 
1647	 4.51349057712655E-03 
1648	 4.37440084189431E-03 
1649	 4.36446940675079E-03 
1650	 4.47957447185843E-03 
1651	 4.79681083894682E-03 
1652	 4.92365502517875E-03 
1653	 4.73755967070929E-03 
1654	 4.8407481149741E-03 
1655	 4.96594940284971E-03 
1656	 4.82308397455189E-03 
1657	 4.65224295084432E-03 
1658	 4.73449685768431E-03 
1659	 4.71405899829195E-03 
1660	 4.53067507680023E-03 
1661	 4.47313107730195E-03 
1662	 4.66185189321343E-03 
1663	 4.89520981299192E-03 
1664	 4.74968728911883E-03 
1665	 4.61889316173012E-03 
1666	 4.69417093782873E-03 
1667	 4.47595543017078E-03 
1668	 4.39541514098297E-03 
1669	 4.5363392483151E-03 
1670	 4.81068760988391E-03 
1671	 4.74421276320533E-03 
1672	 4.64096664418508E-03 
1673	 4.87607318787022E-03 
1674	 4.92168162843238E-03 
1675	 4.67192169392196E-03 
1676	 4.64171480010256E-03 
1677	 4.76344654876859E-03 
1678	 4.70276507177882E-03 
1679	 4.68886065286323E-03 
1680	 4.80827328017023E-03 
1681	 4.71780383208093E-03 
1682	 4.43360946990349E-03 
1683	 4.38460004121855E-03 
1684	 4.72494125266666E-03 
1685	 4.89709402336674E-03 
1686	 4.71454086448411E-03 
1687	 4.72828641811936E-03 
1688	 4.73970251568565E-03 
1689	 4.70948806642986E-03 
1690	 4.96987528876289E-03 
1691	 5.02916156195557E-03 
1692	 4.80719151535998E-03 
1693	 4.59020771390841E-03 
1694	 4.55487639056379E-03 
1695	 4.70261274437853E-03 
1696	 4.65805067662501E-03 
1697	 4.60907298235175E-03 
1698	 4.57936820568983E-03 
1699	 4.36480742365766E-03 
1700	 4.34650830780647E-03 
1701	 4.46607648979054E-03 
1702	 4.54299157615944E-03 
1703	 4.70177953691216E-03 
1704	 0.004689990668012 
1705	 4.56154463113853E-03 
1706	 4.55851184958149E-03 
1707	 4.55369823875592E-03 
1708	 4.64355776581523E-03 
1709	 4.71764777543442E-03 
1710	 4.38934035950574E-03 
1711	 4.15352754516321E-03 
1712	 4.20834708717673E-03 
1713	 4.4215028011754E-03 
1714	 4.40785596651805E-03 
1715	 3.90198396146835E-03 
1716	 4.05771316129487E-03 
1717	 4.50486679045765E-03 
1718	 4.6824035785548E-03 
1719	 5.14991000508971E-03 
1720	 4.80898874735045E-03 
1721	 3.6945407687502E-03 
1722	 3.76991393581995E-03 
1723	 4.06992742797892E-03 
1724	 3.89175479936823E-03 
1725	 4.61644179892131E-03 
1726	 4.66449380993105E-03 
1727	 3.79279662299471E-03 
1728	 3.80641604273882E-03 
1729	 3.78084074694727E-03 
1730	 3.59672817243143E-03 
1731	 4.11950335827561E-03 
1732	 4.68779264797246E-03 
1733	 4.46211700830147E-03 
1734	 3.89632844568886E-03 
1735	 3.76987510385512E-03 
1736	 3.74285304475086E-03 
1737	 4.02627731285719E-03 
1738	 4.75142654531892E-03 
1739	 5.26256463072222E-03 
1740	 5.51231722027836E-03 
1741	 5.33476772680104E-03 
1742	 4.84089346878245E-03 
1743	 4.52877392779927E-03 
1744	 4.35686170456627E-03 
1745	 4.1857478954636E-03 
1746	 4.45786820907095E-03 
1747	 4.44658451305549E-03 
1748	 3.88406062755312E-03 
1749	 3.90406365298159E-03 
1750	 4.47998200764113E-03 
1751	 4.54161124815437E-03 
1752	 4.59699473846891E-03 
1753	 4.66182947373635E-03 
1754	 4.22331365381843E-03 
1755	 4.1049261713136E-03 
1756	 4.25602537526337E-03 
1757	 3.80950616013739E-03 
1758	 3.77925633286851E-03 
1759	 4.09692928669649E-03 
1760	 4.77973132843519E-03 
1761	 4.72388058843344E-03 
1762	 4.74137736895755E-03 
1763	 4.78647034559018E-03 
1764	 3.91394678999575E-03 
1765	 3.46315061860803E-03 
1766	 3.75486977243314E-03 
1767	 3.91185724853236E-03 
1768	 4.19331842403328E-03 
1769	 5.2669370114597E-03 
1770	 6.17720827049353E-03 
1771	 5.71752524780502E-03 
1772	 4.71134924250624E-03 
1773	 3.9759257110087E-03 
1774	 3.32918997531739E-03 
1775	 5.54502710111847E-03 
1776	 6.33127237462067E-03 
1777	 0.006751170702207 
1778	 6.4679049710614E-03 
1779	 3.36628586793532E-03 
1780	 2.6321388900794E-03 
1781	 3.57133446074254E-03 
1782	 4.20271134777666E-03 
1783	 7.40856052479054E-03 
1784	 7.60051428216804E-03 
1785	 4.71963892284081E-03 
1786	 3.60329585100147E-03 
1787	 6.40567372623119E-04 
1788	 1.10548111914697E-03 
1789	 6.03433769361353E-03 
1790	 7.5304923082972E-03 
1791	 9.5484467997737E-03 
1792	 0.010584053725013 
1793	 8.43702278052898E-03 
1794	 9.80862526316679E-03 
1795	 0.010873353068303 
1796	 7.93531377314753E-03 
1797	 1.00949046048257E-02 
1798	 9.31479242246587E-03 
1799	 7.99914324205033E-03 
1800	 0.015385244959808 
1801	 1.39191763251801E-02 
1802	 6.15734487028269E-03 
1803	 8.94414928271714E-03 
1804	 1.36134670642545E-02 
1805	 7.24493831616787E-03 
1806	-6.40111466418687E-03 
1807	-9.32378976158771E-03 
1808	-3.59432564523245E-02 
1809	-2.72269208237894E-02 
1810	 0.131230165953888 
1811	 0.186767995330909 
1812	 0.087425638812852 
1813	 9.12583602026974E-02 
1814	 3.44589815838956E-02 
1815	 6.24131700423385E-02 
1816	 0.340830472897601 
1817	 0.348312559911781 
1818	 0.189975429959218 
1819	-0.190716523194834 
1820	-0.10169255784776 
1821	 0.449520820218945 
1822	 0.782005702326078 
1823	 2.65405210269496 
1824	 3.50442348755574 
1825	 1.78191773678226 
1826	 0.720981339968051 
1827	-0.549300502224256 
1828	-0.498577235499897 
1829	 0.172381630453776 
1830	 0.409778289398339 
1831	 1.74004557438241 
1832	 0.934888637922319 
1833	 0.348759303162231 
1834	-1.31338134674622E-02 
1835	-9.02371472336595E-02 
1836	-0.149449847435193 
1837	-0.37612408391777 
1838	-0.449924753238768 
1839	-0.280614084178786 
1840	-0.184368697890158 
1841	-0.144430149055216 
1842	 0.582888249219697 
1843	 0.723419926299429 
1844	 0.240120395236235 
1845	 0.337092656924673 
1846	 0.616782154533704 
1847	 0.485966678943745 
1848	-0.042681507669883 
1849	-0.12381936283929 
1850	 0.335337701827633 
1851	 0.50986310807634 
1852	 0.678045874050131 
1853	 0.785658118538283 
1854	 0.579165007055139 
1855	 0.690700817761798 
1856	 0.992989871383853 
1857	 1.35172978203173 
1858	 2.79863866468385 
1859	 12.4045483410895 
1860	 2.64806882267749 
1861	 3.20912694305763 
1862	 24.652974421514 
1863	 3.74646581290249 
1864	 1.53476925103823 
1865	 0.813386617780698 
1866	-0.450554101340919 
1867	 0.376175677520351 
1868	-15.0184880468972 
1869	-5.44409168431426 
1870	-2.28516613232211 
1871	-1.03008864966754 
1872	-2.42630116400447 
1873	-2.56312563436249 
1874	-0.905916020017128 
1875	-2.10731192779272 
1876	-3.33934348213782 
1877	-0.1364635451841 
1878	-5.9297461482877 
1879	-0.239441258291283 
1880	-0.340982091605963 
1881	-0.368482561520385 
1882	-1.91310284794919 
1883	 0.799587526476415 
1884	 0.727522335575593 
1885	 1.2749301975417 
1886	-1.06289137175344 
1887	 0.264737578505466 
1888	-0.565237851228536 
1889	-0.761971592143332 
1890	 1.20797181971518 
1891	 0.60720314326485 
1892	 0.117131828384147 
1893	-0.585426172566532 
1894	-5.09737360453951E-03 
1895	-3.75645767539557 
1896	-1.28250527226135 
1897	-0.833775286589645 
1898	-0.939075922733246 
1899	 2.35593372568811E-02 
1900	 2.17625970446179E-02 
1901	 0.603540059665089 
1902	 0.608865814141675 
1903	 0.329120936998561 
1904	-1.75308686614652E-02 
1905	 0.373971988092997 
1906	 0.460295833603321 
1907	 9.21015162605998E-02 
1908	-0.153667915061495 
1909	 0.312716204561907 
1910	-1.86697835380777 
1911	-1.08650484197542 
1912	-0.368716466496205 
1913	 2.53914666660167E-02 
1914	 35.1621004947728 
1915	-7.52238593430341 
1916	-5.08472628779512 
1917	 7.59810857185017 
1918	 1.55346293448475 
1919	 1.64063147142029 
1920	 20.7837115101673 
1921	 9.09167309220048E-02 
1922	-0.184049792503033 
1923	 0.244050337543387 
1924	 0.343116866463597 
1925	 0.361410039244499 
1926	 0.326165064775369 
1927	 0.29778508958059 
1928	 0.180754659125313 
1929	 0.187215400961144 
1930	 7.69688061366019E-02 
1931	 0.117757177322336 
1932	 0.23139911656657 
1933	-1.85534809302823E-02 
1934	-0.453608758619654 
1935	-0.40435316804531 
1936	-0.171734054037707 
1937	-0.238698486530295 
1938	-9.06524239161215E-02 
1939	 0.038150241316923 
1940	 0.19966492648789 
1941	 9.45554541150429E-02 
1942	 6.35963878261429E-02 
1943	 4.56399736875382E-02 
1944	-1.54278696995269E-02 
1945	-1.15162519816468E-02 
1946	 2.04501027183416E-02 
1947	 3.10920176166673E-02 
1948	 2.10258588152627E-02 
1949	-8.10176162870623E-03 
1950	-4.24626729945307E-03 
1951	 1.73287739503403E-02 
1952	 2.16870506004632E-02 
1953	 3.14558207342092E-02 
1954	 0.040648354944049 
1955	 0.026507862578035 
1956	 2.7260877578913E-03 
1957	-4.57524131199222E-03 
1958	-8.71712559013846E-03 
1959	-9.07050175910398E-03 
1960	-3.19875435790078E-03 
1961	-1.18857498139814E-03 
1962	-2.20711851151576E-04 
1963	 4.47353331652683E-04 
1964	 2.13468673521946E-03 
1965	 5.89613431613702E-03 
1966	 6.72213630928669E-03 
1967	 7.28073805943983E-03 
1968	 6.45469235292291E-03 
1969	 5.25416343373771E-03 
1970	 2.9092915158359E-03 
1971	 1.2720789654204E-03 
1972	 1.1691887637918E-03 
1973	 1.22741947246717E-03 
1974	 1.72117319680224E-03 
1975	 2.14577161129608E-03 
1976	 2.70589811284476E-03 
1977	 2.7577549860426E-03 
1978	 2.22934767290108E-03 
1979	 2.58602729292764E-03 
1980	 3.75635790076398E-03 
1981	 3.88811095171651E-03 
1982	 2.67906352419636E-03 
1983	 2.82944591981186E-03 
1984	 2.77610598987305E-03 
1985	 1.54477441691716E-03 
1986	 1.53807324822401E-03 
1987	 1.34396671229087E-03 
1988	 7.38324982534777E-04 
1989	 1.26029085235017E-03 
1990	 2.2689044305589E-03 
1991	 3.91306582335205E-03 
1992	 3.52540662310892E-03 
1993	 2.07186769378516E-03 
1994	 2.01074671745736E-03 
1995	 2.44417942258147E-03 
1996	 1.76159975115978E-03 
1997	 2.80972423360924E-03 
1998	 5.60269082636786E-03 
1999	 4.73031063758176E-03 
2000	 2.43613978942303E-03 
2001	 1.03551858270957E-04 
2002	-4.93573597523185E-03 
2003	-7.66077362872391E-03 
2004	-5.69551843884013E-03 
2005	-1.22313129761148E-03 
2006	 4.32336260834823E-03 
2007	 8.48196882675622E-03 
2008	 1.07477971186182E-02 
2009	 0.010454411692829 
2010	 4.25367504729013E-03 
2011	 2.81458437307997E-03 
2012	 1.57618069493126E-03 
2013	 2.46786406064409E-03 
2014	 3.81279713497712E-03 
2015	 4.30272544882829E-03 
2016	 5.98557540202822E-03 
2017	 4.93777584413117E-03 
2018	 8.17820613544471E-04 
2019	 1.40279784967485E-03 
2020	 1.83297237757603E-03 
2021	 2.07978695176464E-04 
2022	 1.09807541713947E-03 
2023	 1.92789303367697E-03 
2024	 2.25211892579334E-03 
2025	 1.95006693425248E-03 
2026	 2.46025653534305E-03 
2027	 3.53856707110114E-03 
2028	 3.54744731204191E-03 
2029	 3.78298528760503E-03 
2030	 3.85324880962904E-03 
2031	 2.68140415576728E-03 
2032	 1.76021396495228E-03 
2033	 1.19896014022744E-03 
2034	 3.41203736722941E-04 
2035	 4.71663637593988E-04 
2036	 1.47719127199529E-03 
2037	 2.13528702691704E-03 
2038	 2.31447187217383E-03 
2039	 2.35457988479468E-03 
2040	 1.89495633721961E-03 
2041	 1.73392314662284E-03 
2042	 1.34640021756299E-03 
2043	 1.51908538312496E-03 
2044	 2.38614695186439E-03 
2045	 2.46336134558976E-03 
2046	 2.06666256944689E-03 
2047	 2.08255556851779E-03 
2048	 2.00826852461818E-03 
2049	 0.002291683919776 
2050	 3.34523618983398E-03 
2051	 3.8581421378104E-03 
2052	 3.2424664732497E-03 
2053	 2.73056437246326E-03 
2054	 2.4290643664112E-03 
2055	 1.84535194615513E-03 
2056	 1.91770319569668E-03 
2057	 2.94003707156589E-03 
2058	 3.09327951061927E-03 
2059	 3.3186910123867E-03 
2060	 3.56241336209203E-03 
2061	 3.63906895314014E-03 
2062	 3.28326090595389E-03 
2063	 2.86855118778971E-03 
2064	 2.15504170486035E-03 
2065	 1.29959395106977E-03 
2066	 9.00949184097975E-04 
2067	 9.2726510794354E-04 
2068	 8.55355452491595E-04 
2069	 1.26978698333054E-03 
2070	 9.00328165820012E-04 
2071	 8.37092860296404E-04 
2072	 8.1208261325447E-04 
2073	 8.64358015819509E-04 
2074	 1.02451904038088E-03 
2075	 1.42444855751616E-03 
2076	 2.34241318821442E-03 
2077	 2.46201522555905E-03 
2078	 2.05796850745968E-03 
2079	 1.9448193624835E-03 
2080	 1.71984420053743E-03 
2081	 1.00180003609573E-03 
2082	 1.0053747983954E-03 
2083	 1.89137433038201E-03 
2084	 2.36185671134534E-03 
2085	 2.87510435203938E-03 
2086	 3.37894099096913E-03 
2087	 0.003285689810622 
2088	 2.92004897726641E-03 
2089	 2.56767719637866E-03 
2090	 2.74792897766384E-03 
2091	 2.77624689065556E-03 
2092	 2.6793853726842E-03 
2093	 2.70574771593883E-03 
2094	 2.69161033534739E-03 
2095	 2.2630833198737E-03 
2096	 2.39677522188182E-03 
2097	 3.04425695273626E-03 
2098	 3.08404576382604E-03 
2099	 3.23677703368813E-03 
2100	 2.9101754366932E-03 
2101	 2.13080749413953E-03 
2102	 1.97965075659394E-03 
2103	 2.46358071164337E-03 
2104	 3.00474117932556E-03 
2105	 2.74805387456086E-03 
2106	 2.72911187953066E-03 
2107	 2.70237870708482E-03 
2108	 1.96544869119852E-03 
2109	 2.08351805208169E-03 
2110	 2.52588591816692E-03 
2111	 2.84374509450965E-03 
2112	 2.84086925485035E-03 
2113	 2.69828105368294E-03 
2114	 2.59962982447103E-03 
2115	 2.28742060491508E-03 
2116	 1.22656918703499E-03 
2117	 1.23976888094948E-03 
2118	 1.7162479533752E-03 
2119	 1.94999035586242E-03 
2120	 2.73500340557016E-03 
2121	 3.14374201702528E-03 
2122	 2.46520602075776E-03 
2123	 2.08716543307119E-03 
2124	 2.98185307690927E-03 
2125	 3.78348741026273E-03 
2126	 4.00159937892957E-03 
2127	 4.50662993386151E-03 
2128	 3.85193893234311E-03 
2129	 3.01790133515307E-03 
2130	 3.60822520043276E-03 
2131	 3.68697771925537E-03 
2132	 3.10781535913286E-03 
2133	 2.36833829159247E-03 
2134	 2.27934727980021E-03 
2135	 2.42289476214917E-03 
2136	 2.73511003420306E-03 
2137	 3.5739068704886E-03 
2138	 4.32484750017167E-03 
2139	 5.3073536214699E-03 
2140	 5.32080171359618E-03 
2141	 5.08751821205895E-03 
2142	 5.08001400416645E-03 
2143	 4.46815924173506E-03 
2144	 3.53366803232976E-03 
2145	 4.34526580905764E-03 
2146	 5.5094477092387E-03 
2147	 5.21243706930061E-03 
2148	 4.55851243176822E-03 
2149	 3.82818118981521E-03 
2150	 2.64177989525332E-03 
2151	 2.19220376523796E-03 
2152	 2.87230605923081E-03 
2153	 2.40345537480812E-03 
2154	 1.58978360029155E-03 
2155	 1.6680136734637E-03 
2156	 1.84365582246693E-03 
2157	 2.08294806275146E-03 
2158	 3.24739298823525E-03 
2159	 3.41128236576087E-03 
2160	 2.67641066414571E-03 
2161	 2.99168526190269E-03 
2162	 3.57757823570978E-03 
2163	 4.21503876028017E-03 
2164	 6.0488137761307E-03 
2165	 6.01498173551459E-03 
2166	 4.26469930696284E-03 
2167	 4.16299598640785E-03 
2168	 4.54363785070688E-03 
2169	 3.97921370237197E-03 
2170	 3.55647966024328E-03 
2171	 3.40134950861877E-03 
2172	 3.2556507600085E-03 
2173	 2.39311591910858E-03 
2174	 1.80048262826738E-03 
2175	 2.53853725114072E-03 
2176	 2.52715437184177E-03 
2177	 1.00073607359665E-03 
2178	 1.03936600634067E-03 
2179	 2.05860532917996E-03 
2180	 2.3101927617495E-03 
2181	 3.25925897113717E-03 
2182	 4.17416625445691E-03 
2183	 3.83933737521425E-03 
2184	 2.6914079033634E-03 
2185	 2.38739055045112E-03 
2186	 3.06428600663476E-03 
2187	 5.82055093936096E-03 
2188	 6.01568762408834E-03 
2189	 5.50332032482708E-03 
2190	 4.82666301687166E-03 
2191	 2.09355949924486E-03 
2192	 1.04158752398768E-03 
2193	 1.49811515474106E-03 
2194	 1.46669703176415E-03 
2195	 1.10486369335261E-03 
2196	 8.33920238712247E-04 
2197	 8.58381275807302E-04 
2198	 9.37604690221761E-04 
2199	 9.0482910862672E-04 
2200	 1.57728452426021E-03 
2201	 2.29998424832592E-03 
2202	 1.71526461038322E-03 
2203	 1.95831315971165E-03 
2204	 1.71139149423047E-03 
2205	 1.6795677484661E-03 
2206	 3.49211887798921E-03 
2207	 4.19908424279424E-03 
2208	 2.82034910368483E-03 
2209	 1.54097416422486E-03 
2210	 9.59247182386047E-04 
2211	 6.12980272486015E-04 
2212	 0.00217840426112 
2213	 4.58090421354003E-03 
2214	 4.80188904534928E-03 
2215	 4.25103699880852E-03 
2216	 3.57663644535293E-03 
2217	 3.55848867133772E-03 
2218	 3.81708015131884E-03 
2219	 3.41799741963514E-03 
2220	 3.08533638577309E-03 
2221	 2.92131774344484E-03 
2222	 1.88852660541258E-03 
2223	 1.21034514847026E-03 
2224	 1.52389389900458E-03 
2225	 1.51896306700417E-03 
2226	 6.76927882773886E-04 
2227	 4.81249008495283E-04 
2228	 6.33234019662698E-04 
2229	 5.6196628028735E-04 
2230	 9.86641379402256E-04 
2231	 1.32958362370974E-03 
2232	 1.95886450036941E-03 
2233	 2.17890232139186E-03 
2234	 2.29281789516213E-03 
2235	 1.53447971196731E-03 
2236	 1.10261524034536E-03 
2237	 1.30125332097708E-03 
2238	 2.29341537947907E-03 
2239	 2.58146122232881E-03 
2240	 2.66109336364267E-03 
2241	 2.18735297817531E-03 
2242	-1.40585533852556E-04 
2243	-1.21533206403051E-03 
2244	 8.28112425268435E-04 
2245	 1.31323706856633E-03 
2246	 2.17321345543954E-03 
2247	 4.79656865051973E-03 
2248	 2.74134364046066E-03 
2249	 1.0700963842128E-03 
2250	 2.74819567669228E-03 
2251	 2.05111770390706E-03 
2252	 7.84081271533737E-04 
2253	 3.85864154724449E-04 
2254	-1.07890893543027E-03 
2255	-2.17438337332327E-03 
2256	-1.28170069612331E-03 
2257	 3.68503653996183E-05 
2258	 1.09206366133127E-03 
2259	 2.5588558768254E-03 
2260	 3.68619238310186E-03 
2261	 0.005114470142242 
2262	 5.22467911595314E-03 
2263	 4.19453835097468E-03 
2264	 3.17255982690425E-03 
2265	 1.32268092509757E-03 
2266	 7.70503882218933E-04 
2267	 7.92895425329914E-04 
2268	 7.57705417653262E-04 
2269	 1.19820095768817E-03 
2270	 5.01410989478511E-04 
2271	-1.9506872006475E-03 
2272	-1.15857316439414E-03 
2273	 1.86999280160667E-03 
2274	 2.63436302095358E-03 
2275	 5.21077102334596E-03 
2276	 5.91379075605966E-03 
2277	 1.95519197882415E-03 
2278	 1.54009647815042E-03 
2279	 4.18341064931993E-03 
2280	 4.42712673478424E-03 
2281	 4.08828748528887E-03 
2282	 5.05381584830779E-03 
2283	 5.42068467398758E-03 
2284	 2.41374312710007E-03 
2285	 7.00086732040403E-04 
2286	 0.001766703195507 
2287	 1.49373522822438E-03 
2288	 1.75453897613099E-03 
2289	 1.56074152468159E-03 
2290	 8.94618597728216E-04 
2291	 5.91213598267817E-04 
2292	-5.39823024783716E-04 
2293	 1.75049263331376E-03 
2294	 2.2987245099142E-03 
2295	 1.42609414306013E-03 
2296	 2.58954872627929E-03 
2297	 1.07601399756362E-03 
2298	 2.84889396418672E-03 
2299	 6.19422036053038E-03 
2300	 6.42290983991162E-03 
2301	 6.59764846269356E-03 
2302	 3.65137323866229E-03 
2303	 1.72438838428372E-03 
2304	 3.72595938387291E-03 
2305	 4.26695905073649E-03 
2306	 6.80911684167966E-03 
2307	 9.19923115256175E-03 
2308	 6.61230403543991E-03 
2309	 0.003596687566082 
2310	 1.06973902516001E-03 
2311	 3.55471659667704E-05 
2312	 2.47137430237948E-04 
2313	 1.4347149663736E-03 
2314	 4.7661698131103E-03 
2315	 5.97046101702494E-03 
2316	 3.72592498482999E-03 
2317	-3.88022034758214E-04 
2318	-2.02735385940229E-03 
2319	-1.22691141247075E-03 
2320	-2.24073497383982E-03 
2321	 1.97757265397515E-03 
2322	 0.008310598423109 
2323	 6.24001067035785E-03 
2324	 8.9057891928603E-03 
2325	 1.24834154852763E-02 
2326	 6.06022149836557E-03 
2327	 3.98803423314962E-03 
2328	 3.06593150614044E-03 
2329	-4.79128093284579E-04 
2330	 1.46932558940352E-03 
2331	 6.38417407861369E-03 
2332	 7.29116287987705E-03 
2333	 4.5710324109437E-03 
2334	 4.53118535837637E-03 
2335	 2.33124216770605E-03 
2336	-1.62440783911561E-03 
2337	 3.88054649901923E-04 
2338	-4.54834415272349E-04 
2339	-3.44546468681601E-03 
2340	-2.99629993762032E-03 
2341	-3.24736848647161E-03 
2342	-1.24341217258734E-03 
2343	-9.63744314919892E-05 
2344	-9.99240516928954E-04 
2345	 1.68670938923864E-03 
2346	 4.22424212805328E-03 
2347	 5.60378700423263E-03 
2348	 3.67531511399923E-03 
2349	-3.21149043373213E-03 
2350	-8.79644776339381E-03 
2351	-1.39070351976906E-02 
2352	-1.16603145340789E-02 
2353	-7.61576164900828E-03 
2354	-5.4392984132257E-03 
2355	 2.65933450831731E-03 
2356	 3.09985599966402E-03 
2357	-1.42849993286306E-03 
2358	 2.12634860881793E-03 
2359	 1.08456915569775E-02 
2360	 1.37916296457023E-02 
2361	 1.39404006117864E-02 
2362	 1.26671944037098E-02 
2363	 9.44124863752004E-03 
2364	 1.42734107174009E-02 
2365	 2.52121684971929E-02 
2366	 2.49324296629657E-02 
2367	 3.15901552654925E-03 
2368	-3.37470012294147E-03 
2369	 8.92718956547991E-03 
2370	 1.87738203246299E-02 
2371	 3.84036205288762E-02 
2372	 3.74282300650568E-02 
2373	 9.38771983335542E-03 
2374	 1.8778560264979E-03 
2375	 1.87924603328852E-02 
2376	 2.88932122137019E-02 
2377	 3.15916165447291E-02 
2378	 3.20732461892084E-02 
2379	 1.31993761312439E-02 
2380	 1.54041348933228E-03 
2381	 1.93919601929541E-02 
2382	 3.19738540488346E-02 
2383	 1.92990435429552E-02 
2384	 2.62730983043332E-03 
2385	-4.72593295695012E-03 
2386	-1.33278642035014E-02 
2387	-1.49677419002239E-02 
2388	-7.87918911919718E-03 
2389	-7.65699560158116E-03 
2390	-1.72375469645153E-02 
2391	-3.91797687672948E-02 
2392	-4.43837469022808E-02 
2393	-4.94629666092243E-02 
2394	-0.051165329824103 
2395	 7.78586148934036E-04 
2396	 1.44984239784672E-02 
2397	-1.19054117000384E-02 
2398	-0.011819280039266 
2399	-5.65736537308147E-02 
2400	-9.25828665498779E-02 
2401	-5.95897435823387E-02 
2402	-4.63837300612935E-02 
2403	-3.74337789064036E-02 
2404	-2.19735830004464E-02 
2405	-2.18964436118604E-02 
2406	-3.70615748318641E-02 
2407	-7.86830727023324E-02 
2408	-4.31463057305705E-02 
2409	 1.20377836326181E-03 
2410	-0.056839424964073 
2411	-8.36923621734943E-02 
2412	-9.21911374245135E-02 
2413	-0.192614892373087 
2414	-0.20955156045115 
2415	-6.95474222384648E-02 
2416	-3.05842660618045E-02 
2417	-3.42436059794379E-02 
2418	 0.019891106490937 
2419	-6.21347903196309E-02 
2420	-0.137899009856693 
2421	-0.05272785007838 
2422	 5.70557769109874E-03 
2423	 3.35658172153378E-02 
2424	-2.09449189504232E-02 
2425	-8.01448806787533E-02 
2426	-6.29238990036969E-02 
2427	-0.147837572422053 
2428	-0.18171065824358 
2429	-0.13846640928423 
2430	-0.196272645913106 
2431	-0.124360936972908 
2432	 3.71076999237787E-02 
2433	 0.102089203195544 
2434	 0.192164838491652 
2435	 0.221940130680523 
2436	 0.150524248289343 
2437	 0.110378130931611 
2438	 8.04121343159754E-02 
2439	 4.65724965291446E-02 
2440	 3.36619137764242E-03 
2441	-6.86739726908083E-02 
2442	-0.126842505113336 
2443	-0.115886940341887 
2444	-5.56227161920247E-02 
2445	 7.69666417526017E-02 
2446	 0.194066967918306 
2447	 0.248464683728334 
2448	 0.277727899827722 
2449	 0.188090407003636 
2450	 0.22937614049097 
2451	 0.281558290023476 
2452	 0.409468385166383 
2453	 0.721916018376728 
2454	 0.333748020946812 
2455	 0.393381985821721 
2456	 0.470514900029315 
2457	 0.195469322352221 
2458	 8.69180741878482E-02 
2459	-0.183197327722011 
2460	-0.618433195681955 
2461	-1.14777156264848 
2462	-0.808398884995063 
2463	-3.21533969270908E-02 
2464	 0.116920110160997 
2465	 0.46618145701875 
2466	 0.617601972235664 
2467	 0.243799838455795 
2468	-4.56005627495788E-02 
2469	-1.15206591811707 
2470	-13.5572198374637 
2471	 12.3219898078435 
2472	-0.583103662830216 
2473	 1.45881469546885 
2474	 0.597405298025039 
2475	 0.220422739907783 
2476	 1.1614335189813 
2477	-0.521466325293251 
2478	 0.830981068850626 
2479	 1.44782244283654 
2480	-0.391622668772172 
2481	-8.41956367836608 
2482	 2.84617378827639 
2483	 8.42079868631063 
2484	-2.88972113012586 
2485	-0.864801336378534 
2486	-1.12605540953459 
2487	-3.38625119988326 
2488	 1.3826074594534 
2489	 0.201458146572964 
2490	 0.119819255468143 
2491	 1.12741278163502 
2492	 0.847464667357674 
2493	 2.39584155061186 
2494	 1.76812127256005 
2495	-1.27339023126715 
2496	 5.42837900578786 
2497	 18.9326367009692 
2498	-0.883752508653017 
2499	-0.201267243275432 
2500	 0.152351329376368 
