Wavelength	rt0629algeare00003.asd
350	 4.55922543109084E-02 
351	 4.42534283575315E-02 
352	 4.47659474850005E-02 
353	 4.55187651904999E-02 
354	 4.53195822611379E-02 
355	 4.49196672405418E-02 
356	 4.52262610921755E-02 
357	 4.53314688083208E-02 
358	 4.44689843957074E-02 
359	 4.51022884055213E-02 
360	 4.48070344057609E-02 
361	 4.37717333137383E-02 
362	 4.38602043904476E-02 
363	 4.40080385646509E-02 
364	 4.40606046295338E-02 
365	 4.39339050821479E-02 
366	 0.043463277454277 
367	 4.36942427982929E-02 
368	 4.38297961291577E-02 
369	 4.31470953030162E-02 
370	 4.29059731417613E-02 
371	 0.042961337663371 
372	 4.31377984190205E-02 
373	 4.32267944712132E-02 
374	 4.30043630985434E-02 
375	 4.29541450306911E-02 
376	 4.30850293703199E-02 
377	 4.26922996168972E-02 
378	 4.25966085116299E-02 
379	 4.28065168702201E-02 
380	 0.043035226137042 
381	 4.27074123301698E-02 
382	 0.042837140053262 
383	 4.30566099102978E-02 
384	 4.25677284351366E-02 
385	 0.042577515028322 
386	 4.25644371625868E-02 
387	 4.24954643385828E-02 
388	 4.29732110749105E-02 
389	 4.29401301011287E-02 
390	 4.25555210099309E-02 
391	 4.23299541737835E-02 
392	 4.30496392342039E-02 
393	 0.043358692420026 
394	 4.31580015725974E-02 
395	 4.29187781933628E-02 
396	 4.31971018843555E-02 
397	 4.34223342416159E-02 
398	 4.32749066609402E-02 
399	 4.27633411963159E-02 
400	 4.29244053784866E-02 
401	 4.33377805665508E-02 
402	 4.35161373254359E-02 
403	 4.32977501242416E-02 
404	 4.33497751227238E-02 
405	 4.35262546479249E-02 
406	 4.34531641197404E-02 
407	 0.043385099744552 
408	 4.32385724286146E-02 
409	 4.31598412371257E-02 
410	 4.34903474745325E-02 
411	 4.35462463902103E-02 
412	 4.34434724353801E-02 
413	 4.34284927888272E-02 
414	 4.37048936741757E-02 
415	 4.39475370085518E-02 
416	 4.39649255706133E-02 
417	 4.37585770231639E-02 
418	 4.40630415866734E-02 
419	 4.42888132907799E-02 
420	 4.42660703327124E-02 
421	 4.43666431705694E-02 
422	 4.46278547714055E-02 
423	 4.48082848930802E-02 
424	 4.48075524349754E-02 
425	 4.51127067308863E-02 
426	 4.51878524244303E-02 
427	 4.51996146175064E-02 
428	 4.55781213897579E-02 
429	 4.60419245565261E-02 
430	 4.63038346012556E-02 
431	 4.63679937826116E-02 
432	 4.65680647680471E-02 
433	 4.68232664662061E-02 
434	 0.047073533963465 
435	 4.73065089846964E-02 
436	 4.76557357167514E-02 
437	 0.048027012186915 
438	 4.82745301634325E-02 
439	 4.83014150573657E-02 
440	 4.86639558313897E-02 
441	 4.89714371180965E-02 
442	 4.90682411017001E-02 
443	 4.92886528066064E-02 
444	 4.95591425634146E-02 
445	 4.97691792073206E-02 
446	 4.98868821777653E-02 
447	 5.02545893963276E-02 
448	 5.05144181896103E-02 
449	 5.06267799422874E-02 
450	 5.07917655604613E-02 
451	 5.09551766704704E-02 
452	 5.11623886547881E-02 
453	 5.13843866554418E-02 
454	 5.14065551723337E-02 
455	 5.15168465492404E-02 
456	 5.16767581406009E-02 
457	 5.17674810545645E-02 
458	 5.19238460068801E-02 
459	 5.20941681299415E-02 
460	 5.21935070237438E-02 
461	 5.21326685782146E-02 
462	 5.23365751866775E-02 
463	 5.24929559751574E-02 
464	 5.24040990621877E-02 
465	 5.26064561835161E-02 
466	 5.27407619132754E-02 
467	 5.27981509454315E-02 
468	 5.29074245798002E-02 
469	 0.052850638147605 
470	 0.05300521751356 
471	 5.33773169720489E-02 
472	 5.34246422556781E-02 
473	 0.053366742481373 
474	 5.34045875279481E-02 
475	 5.36400828863372E-02 
476	 5.38402899371681E-02 
477	 0.053991410192121 
478	 5.41375821038224E-02 
479	 5.43463893669048E-02 
480	 5.44574030737875E-02 
481	 5.45401678557224E-02 
482	 5.46806387478108E-02 
483	 5.49420340760492E-02 
484	 5.51575583697321E-02 
485	 5.53720793068965E-02 
486	 5.56625775468046E-02 
487	 5.58209663535333E-02 
488	 5.59908431983364E-02 
489	 5.62091914965289E-02 
490	 5.63991879072534E-02 
491	 5.67189249943561E-02 
492	 5.69930455784144E-02 
493	 5.71347214106643E-02 
494	 0.05749225545077 
495	 0.057714238927495 
496	 5.78707274345096E-02 
497	 5.82040585423465E-02 
498	 5.84676928070003E-02 
499	 5.86770377286962E-02 
500	 5.89073097333286E-02 
501	 5.92833562166433E-02 
502	 5.96106895577424E-02 
503	 5.98708637382328E-02 
504	 0.06011068652261 
505	 6.03956948279141E-02 
506	 6.07056047501973E-02 
507	 6.10147258405217E-02 
508	 6.13022845562328E-02 
509	 6.16627487286933E-02 
510	 6.20651398392168E-02 
511	 6.24308063266698E-02 
512	 6.25919963743808E-02 
513	 0.062927588311634 
514	 6.33541159245995E-02 
515	 6.36288895941754E-02 
516	 6.39858586026612E-02 
517	 6.44510886267955E-02 
518	 6.49278248894153E-02 
519	 6.52039433519635E-02 
520	 6.54921035358873E-02 
521	 6.58218089613157E-02 
522	 6.61797747444175E-02 
523	 6.65597305926251E-02 
524	 6.69640102896832E-02 
525	 6.73607498286004E-02 
526	 6.77030022345629E-02 
527	 6.80448386910528E-02 
528	 6.83611201901066E-02 
529	 6.86776596112677E-02 
530	 6.91591078174938E-02 
531	 6.95926600703466E-02 
532	 6.99361031712026E-02 
533	 7.02242465297529E-02 
534	 7.05224894083556E-02 
535	 7.08809056591905E-02 
536	 7.12855313882436E-02 
537	 7.16538975221475E-02 
538	 7.20290230239293E-02 
539	 7.24272398002692E-02 
540	 7.28390008458118E-02 
541	 7.31897728573759E-02 
542	 7.35559864959382E-02 
543	 7.39020998634584E-02 
544	 7.41509257358254E-02 
545	 0.074560856036375 
546	 0.074946051798757 
547	 7.52303929403515E-02 
548	 7.56610523955688E-02 
549	 7.60967750529921E-02 
550	 7.64435153579346E-02 
551	 7.66764614699967E-02 
552	 7.70575960935689E-02 
553	 7.74546718270315E-02 
554	 7.77961023374864E-02 
555	 7.81045347938302E-02 
556	 7.84533084554461E-02 
557	 7.87556174240724E-02 
558	 7.89683730829785E-02 
559	 7.93400529195702E-02 
560	 7.96391488054954E-02 
561	 7.98677081537698E-02 
562	 8.01630134942502E-02 
563	 0.080407102498023 
564	 8.06414468865916E-02 
565	 8.08804819664543E-02 
566	 8.10455251187984E-02 
567	 8.12085716041807E-02 
568	 8.13950301173148E-02 
569	 8.15972275892972E-02 
570	 8.17272240541701E-02 
571	 8.18807543019265E-02 
572	 8.20592144942763E-02 
573	 8.21553667791482E-02 
574	 8.23188524009886E-02 
575	 8.24168354300276E-02 
576	 8.23748743258265E-02 
577	 0.082521685104273 
578	 8.26092674684838E-02 
579	 0.082588723391239 
580	 8.25441345160973E-02 
581	 8.25460151816116E-02 
582	 8.25566815716608E-02 
583	 8.24990116010698E-02 
584	 8.22361033570072E-02 
585	 8.20646502277342E-02 
586	 8.18646402263661E-02 
587	 8.14519157169994E-02 
588	 8.12557065104063E-02 
589	 8.11341772180324E-02 
590	 8.09513973036012E-02 
591	 8.06319046565357E-02 
592	 8.04431293716475E-02 
593	 8.02495537117495E-02 
594	 7.99152749027691E-02 
595	 7.95437216361487E-02 
596	 7.91574307936258E-02 
597	 7.87860418700922E-02 
598	 7.84408062949398E-02 
599	 7.79258837765582E-02 
600	 0.077429043670705 
601	 7.70749593918878E-02 
602	 0.076796202879789 
603	 7.66605801902283E-02 
604	 7.65265827506449E-02 
605	 7.62687464003193E-02 
606	 7.61954856344225E-02 
607	 7.61109236358652E-02 
608	 7.59782181420982E-02 
609	 7.59421229154678E-02 
610	 7.58770041135082E-02 
611	 7.57615039569535E-02 
612	 7.56260543140911E-02 
613	 7.55890480340147E-02 
614	 7.55266816903076E-02 
615	 7.54200815434539E-02 
616	 7.53216391034824E-02 
617	 7.53302482053786E-02 
618	 7.52973620224783E-02 
619	 7.51791194697503E-02 
620	 7.51435456799503E-02 
621	 7.50463386904049E-02 
622	 7.49660431331515E-02 
623	 7.49767725697443E-02 
624	 7.47543942468921E-02 
625	 7.47377140783916E-02 
626	 7.48637318611792E-02 
627	 7.46016623329649E-02 
628	 7.44553703870885E-02 
629	 7.43739535633794E-02 
630	 7.42713038803716E-02 
631	 7.42650831639967E-02 
632	 0.074298268188843 
633	 7.42964048253589E-02 
634	 7.41989974481428E-02 
635	 7.41387674516515E-02 
636	 7.39939195720694E-02 
637	 7.37955370541143E-02 
638	 7.38240437125647E-02 
639	 7.37850678775962E-02 
640	 7.36557158431598E-02 
641	 7.35018925695591E-02 
642	 7.33945273740614E-02 
643	 7.32802035618202E-02 
644	 7.31099818389193E-02 
645	 7.28506381205072E-02 
646	 7.26354708666859E-02 
647	 7.24204906443074E-02 
648	 7.21956936164607E-02 
649	 7.21135157919486E-02 
650	 7.19163488512436E-02 
651	 7.16823593201368E-02 
652	 7.15629868179285E-02 
653	 7.12110155712711E-02 
654	 7.08563146836327E-02 
655	 7.05328928891267E-02 
656	 7.00072444245529E-02 
657	 6.95358912635289E-02 
658	 6.91582564300811E-02 
659	 6.88429903876605E-02 
660	 6.85488015705227E-02 
661	 6.83095464412262E-02 
662	 6.81131149688845E-02 
663	 6.79206256891697E-02 
664	 6.77010394713418E-02 
665	 0.067472898042014 
666	 0.067262886756641 
667	 6.70993407546036E-02 
668	 6.70471543430728E-02 
669	 0.067047878042712 
670	 6.69911513103953E-02 
671	 6.67261054313166E-02 
672	 6.66568225910174E-02 
673	 6.67408190046022E-02 
674	 6.65287256901258E-02 
675	 6.64323929025709E-02 
676	 6.64916347740345E-02 
677	 6.66203944845832E-02 
678	 6.66045529459409E-02 
679	 6.65706575848449E-02 
680	 6.65852096927903E-02 
681	 6.66656621659988E-02 
682	 6.66769473033837E-02 
683	 6.66782865489217E-02 
684	 6.66727778697086E-02 
685	 6.65591448697731E-02 
686	 6.64285238578686E-02 
687	 6.63478457119543E-02 
688	 6.63410518204193E-02 
689	 6.63371186318549E-02 
690	 6.63098008693827E-02 
691	 6.61384388321863E-02 
692	 6.56951774354898E-02 
693	 6.55792534174312E-02 
694	 0.065463604430044 
695	 6.51680886906621E-02 
696	 6.49536670842955E-02 
697	 6.45908337995739E-02 
698	 0.064089874651728 
699	 6.35801458942755E-02 
700	 6.32126979548069E-02 
701	 6.27510045188841E-02 
702	 6.22064045240929E-02 
703	 6.17646492598641E-02 
704	 6.12367367702592E-02 
705	 6.06670302186806E-02 
706	 6.01007480722238E-02 
707	 5.94695690855561E-02 
708	 5.87018497917124E-02 
709	 5.79133286736268E-02 
710	 5.72218970125935E-02 
711	 5.63325409872172E-02 
712	 5.53286091607673E-02 
713	 5.42870345551051E-02 
714	 5.32258043797476E-02 
715	 0.052244815990285 
716	 0.051107522487978 
717	 4.96914448818208E-02 
718	 4.83566609358193E-02 
719	 4.73398968510721E-02 
720	 4.65059434901197E-02 
721	 4.54738012184277E-02 
722	 4.45098081054001E-02 
723	 4.33293070346493E-02 
724	 4.20255179096141E-02 
725	 0.040881353024082 
726	 3.97391399696491E-02 
727	 3.84723623267123E-02 
728	 3.70608828607269E-02 
729	 3.57146752979531E-02 
730	 3.42703941842587E-02 
731	 3.29130644255302E-02 
732	 3.18210523545705E-02 
733	 3.08510275861886E-02 
734	 3.00191770487381E-02 
735	 2.93333302377618E-02 
736	 2.87516864543275E-02 
737	 2.83860716230517E-02 
738	 2.80608610634221E-02 
739	 2.76771067310146E-02 
740	 2.75458689323226E-02 
741	 2.74651276638668E-02 
742	 2.73427884225905E-02 
743	 2.71625156067952E-02 
744	 2.69933280584764E-02 
745	 2.69284349591766E-02 
746	 2.69454477533213E-02 
747	 2.68693088257738E-02 
748	 2.68373555011583E-02 
749	 2.67655724141705E-02 
750	 2.66157364466897E-02 
751	 2.66792569321953E-02 
752	 2.67047802949567E-02 
753	 2.66545452592947E-02 
754	 2.66067946265689E-02 
755	 2.65120185183442E-02 
756	 2.64576934923387E-02 
757	 2.64371707463051E-02 
758	 2.62531890502277E-02 
759	 2.60851345650776E-02 
760	 0.026033396221431 
761	 2.60687325340118E-02 
762	 2.60053503397029E-02 
763	 2.60543284470837E-02 
764	 2.61014806052597E-02 
765	 2.60376260477515E-02 
766	 0.026182927622197 
767	 2.63474180526755E-02 
768	 2.64454998532171E-02 
769	 2.64787403066984E-02 
770	 2.64652847592789E-02 
771	 2.64930490514528E-02 
772	 2.65946762776705E-02 
773	 2.66088978641773E-02 
774	 2.67585740967969E-02 
775	 2.69186913609765E-02 
776	 2.68927090307158E-02 
777	 2.70257446611183E-02 
778	 2.72116236074464E-02 
779	 2.74040237406997E-02 
780	 2.76370809321519E-02 
781	 2.76588837606255E-02 
782	 0.02770023255285 
783	 2.79096860333325E-02 
784	 2.80535298260439E-02 
785	 2.81536973196095E-02 
786	 2.82948087282565E-02 
787	 2.85412868959423E-02 
788	 0.028690945523933 
789	 2.88712442531579E-02 
790	 2.91289529260244E-02 
791	 2.94200962113335E-02 
792	 2.96130726691216E-02 
793	 2.97029770563352E-02 
794	 2.97913436918377E-02 
795	 3.01129480236062E-02 
796	 3.03761874129057E-02 
797	 3.05808975027399E-02 
798	 3.07892675735932E-02 
799	 3.09275751296296E-02 
800	 3.10932259548449E-02 
801	 3.12805480555051E-02 
802	 3.14230301492893E-02 
803	 3.14808398709651E-02 
804	 3.15782823238155E-02 
805	 3.16553840004073E-02 
806	 3.14661468039382E-02 
807	 0.031581229882557 
808	 3.17014333986047E-02 
809	 3.15300115093205E-02 
810	 3.12270536199998E-02 
811	 3.10193669932161E-02 
812	 3.09884329620648E-02 
813	 3.10712815725733E-02 
814	 3.08650011209162E-02 
815	 3.04852695131968E-02 
816	 3.01076975316904E-02 
817	 0.029860515845696 
818	 2.95060237655686E-02 
819	 2.91365914556725E-02 
820	 2.88100809787355E-02 
821	 2.85374346908005E-02 
822	 2.78778404633341E-02 
823	 2.70443346387941E-02 
824	 2.63383487527323E-02 
825	 2.57070787978864E-02 
826	 2.50009020033041E-02 
827	 2.41526239265659E-02 
828	 2.32306811626764E-02 
829	 0.022423542326317 
830	 2.18165021512455E-02 
831	 2.12319578211498E-02 
832	 2.04067439295157E-02 
833	 1.98453206818371E-02 
834	 1.95586763271912E-02 
835	 1.94338987290004E-02 
836	 1.93059121639495E-02 
837	 1.90389501562247E-02 
838	 1.87249642055098E-02 
839	 1.84791413337254E-02 
840	 1.83438059473615E-02 
841	 1.80880752676424E-02 
842	 1.78874497153982E-02 
843	 1.79463613018233E-02 
844	 1.78639688326634E-02 
845	 1.77364088097364E-02 
846	 0.017581794886748 
847	 1.73466348471329E-02 
848	 1.69029478135435E-02 
849	 0.016729688773125 
850	 1.68790313482292E-02 
851	 1.67970291775266E-02 
852	 1.66659369309127E-02 
853	 1.65211090176814E-02 
854	 1.63822790241036E-02 
855	 1.62791303437183E-02 
856	 1.60141901740266E-02 
857	 1.58339040195179E-02 
858	 1.59165595384048E-02 
859	 1.57495034649363E-02 
860	 1.57441010446116E-02 
861	 1.57885759471965E-02 
862	 1.55893888359808E-02 
863	 1.55148462578665E-02 
864	 0.015444074002115 
865	 1.52750292155089E-02 
866	 1.49905409068229E-02 
867	 1.48934458740238E-02 
868	 1.48068744943454E-02 
869	 1.46821894654267E-02 
870	 0.014713669549785 
871	 1.44610403407026E-02 
872	 1.41683601262128E-02 
873	 1.40794630670211E-02 
874	 1.41007397774854E-02 
875	 1.39729325147621E-02 
876	 0.01379823178907 
877	 1.37114096355971E-02 
878	 1.34858531911341E-02 
879	 1.33631229714009E-02 
880	 1.33261477667609E-02 
881	 1.32189577867051E-02 
882	 1.28969473517576E-02 
883	 1.27479383176775E-02 
884	 1.27453847449692E-02 
885	 0.012561753724337 
886	 1.23159226311919E-02 
887	 1.23741296545325E-02 
888	 1.25110015560381E-02 
889	 0.01191623159575 
890	 0.01174952501149 
891	 1.19793897719924E-02 
892	 1.22285037375204E-02 
893	 1.18889693358447E-02 
894	 1.17170646286563E-02 
895	 1.18342595644356E-02 
896	 1.19467015603757E-02 
897	 1.11629026913413E-02 
898	 1.06529420708866E-02 
899	 1.06554619817397E-02 
900	 1.08375097485707E-02 
901	 1.04932043684966E-02 
902	 1.06362705439171E-02 
903	 1.08864633624909E-02 
904	 1.05712372888937E-02 
905	 1.03755038013623E-02 
906	 1.00144692453797E-02 
907	 9.73677221974266E-03 
908	 1.00576930223929E-02 
909	 1.01311850862338E-02 
910	 1.05311127996362E-02 
911	 1.06521549410938E-02 
912	 9.1472121478589E-03 
913	 8.74802467649398E-03 
914	 8.88602766528668E-03 
915	 8.80150793591969E-03 
916	 8.18330351757519E-03 
917	 7.74673706513962E-03 
918	 7.96841010169704E-03 
919	 8.51652909696156E-03 
920	 8.21471911272117E-03 
921	 8.23990804180114E-03 
922	 8.2821068595414E-03 
923	 7.98646903195361E-03 
924	 7.49708816336395E-03 
925	 7.50365800508817E-03 
926	 0.007335546676563 
927	 6.50042110203304E-03 
928	 7.14792559745501E-03 
929	 7.86035003380226E-03 
930	 8.47868939502012E-03 
931	 9.08092170439339E-03 
932	 6.68189702341486E-03 
933	 7.66159366116652E-03 
934	 8.75803071208978E-03 
935	 4.08230271893704E-03 
936	 2.38619412850832E-03 
937	 7.01962305196881E-03 
938	 9.09969075839909E-03 
939	 3.3257730392359E-03 
940	 9.39252359737915E-03 
941	 1.07909875778521E-02 
942	 5.93193060622464E-03 
943	 1.31652145581041E-03 
944	 1.27222212325082E-03 
945	 2.00911760189562E-03 
946	 3.0723229067002E-03 
947	 5.65788787757774E-03 
948	 5.57191790807026E-03 
949	 5.12130805018719E-03 
950	 5.41881534960718E-03 
951	 6.31286428039705E-03 
952	 7.19212092894786E-03 
953	 5.44672465482873E-03 
954	 2.17723835410356E-03 
955	 8.99533343547118E-04 
956	 3.30114404718872E-03 
957	 4.13956697258276E-03 
958	 2.38428912304527E-03 
959	 5.59641627363066E-04 
960	 1.40309450289648E-03 
961	 1.88621209764137E-03 
962	 1.33282313428642E-03 
963	 1.22750167696181E-03 
964	 3.27996221573231E-03 
965	 4.72734954811943E-03 
966	 4.53931156359931E-03 
967	 3.37997277989537E-03 
968	 2.79782057785203E-03 
969	 2.10922854661235E-03 
970	 1.85169908479504E-03 
971	 3.25513214713559E-03 
972	 2.75842645535417E-03 
973	 2.78719359585416E-03 
974	 3.04819781825053E-03 
975	 9.75681843994552E-04 
976	 3.71083335810822E-03 
977	 3.29101728632604E-03 
978	 3.31711529835803E-04 
979	 2.61639004664985E-03 
980	 2.75877724748459E-03 
981	 3.96846845148835E-03 
982	 5.74983024969411E-03 
983	 4.61790577061851E-03 
984	 3.15313715361988E-03 
985	 2.9567193061276E-03 
986	 3.74364673498374E-03 
987	 3.92219597102771E-03 
988	 3.17758442765749E-03 
989	 3.49475411427831E-03 
990	 4.56967859960796E-03 
991	 4.40163018515712E-03 
992	 2.88042326971768E-03 
993	 3.42075266087399E-03 
994	 0.00462320948318 
995	 2.70651614466869E-03 
996	 1.9575823752515E-03 
997	 3.24921810626451E-03 
998	 4.26964398242003E-03 
999	 2.33107582148388E-03 
1000	 2.91064813003979E-03 
1001	 3.29320050177299E-03 
1002	 3.35086293095413E-03 
1003	 3.35721192549655E-03 
1004	 3.28038698215813E-03 
1005	 3.21602215084946E-03 
1006	 3.11435200598451E-03 
1007	 2.98746664853454E-03 
1008	 3.09455507994898E-03 
1009	 3.13369699154923E-03 
1010	 3.19119777562658E-03 
1011	 3.24288103531869E-03 
1012	 3.21837505895249E-03 
1013	 3.23241520343699E-03 
1014	 3.22665700264068E-03 
1015	 3.25991231955855E-03 
1016	 3.34639902307481E-03 
1017	 3.40489891209226E-03 
1018	 3.46418224192618E-03 
1019	 3.59025017666841E-03 
1020	 3.77228992241414E-03 
1021	 4.09372498349451E-03 
1022	 4.15776720099466E-03 
1023	 4.16134488451729E-03 
1024	 4.06290444895118E-03 
1025	 3.80220741491611E-03 
1026	 3.56594103169115E-03 
1027	 3.40818528699691E-03 
1028	 3.31811018441925E-03 
1029	 3.39009105160417E-03 
1030	 3.50222199581336E-03 
1031	 3.61127002746074E-03 
1032	 4.08507397604228E-03 
1033	 4.01515493095042E-03 
1034	 3.58130167526076E-03 
1035	 3.42168736168715E-03 
1036	 2.84883921152959E-03 
1037	 2.83491967192363E-03 
1038	 0.003358662591256 
1039	 3.69749050180662E-03 
1040	 4.1407139192919E-03 
1041	 4.40035125731571E-03 
1042	 4.63119610978438E-03 
1043	 4.66716445592149E-03 
1044	 4.70694196558396E-03 
1045	 4.77815951063978E-03 
1046	 4.8236427686266E-03 
1047	 4.78462440346433E-03 
1048	 4.67771554660056E-03 
1049	 4.40907839217628E-03 
1050	 4.42641965999725E-03 
1051	 4.54536542415655E-03 
1052	 4.56506681400916E-03 
1053	 4.75883620085863E-03 
1054	 4.89849623023636E-03 
1055	 4.97533522676666E-03 
1056	 4.93600802573992E-03 
1057	 4.85624362976813E-03 
1058	 4.81266377080844E-03 
1059	 4.77440027968655E-03 
1060	 4.51162729946428E-03 
1061	 4.51743596840601E-03 
1062	 4.89022023060805E-03 
1063	 4.8506236933568E-03 
1064	 4.52396282151729E-03 
1065	 4.51248353947993E-03 
1066	 4.43526431633827E-03 
1067	 4.47651009167183E-03 
1068	 4.94250932764013E-03 
1069	 5.10360612246727E-03 
1070	 5.01988198360097E-03 
1071	 5.0474992359575E-03 
1072	 4.93254093184576E-03 
1073	 5.07312048682233E-03 
1074	 5.06513266164335E-03 
1075	 5.06768558402411E-03 
1076	 5.13932713647527E-03 
1077	 5.27922295195735E-03 
1078	 5.19340001875859E-03 
1079	 5.03536774735578E-03 
1080	 4.94499684908981E-03 
1081	 4.74119436737428E-03 
1082	 4.53321273281838E-03 
1083	 4.27060630331004E-03 
1084	 4.26060995128056E-03 
1085	 4.3203395788888E-03 
1086	 4.34394124154894E-03 
1087	 4.71046679782844E-03 
1088	 4.84029669098981E-03 
1089	 4.73332846960314E-03 
1090	 4.56707472978277E-03 
1091	 4.59396643871202E-03 
1092	 4.81899734511067E-03 
1093	 4.69788161535584E-03 
1094	 4.33727253390214E-03 
1095	 4.34349612640127E-03 
1096	 4.43734852400053E-03 
1097	 4.28906105148639E-03 
1098	 4.39111371360377E-03 
1099	 4.24309945332076E-03 
1100	 3.14722142700699E-03 
1101	 2.96897096371317E-03 
1102	 3.8628516871661E-03 
1103	 3.99000826277174E-03 
1104	 4.05471317112415E-03 
1105	 4.21917982409957E-03 
1106	 3.67443730330478E-03 
1107	 2.65539153118303E-03 
1108	 2.75081750787378E-03 
1109	 3.36293509669499E-03 
1110	 3.60515725627871E-03 
1111	 4.31730562765054E-03 
1112	 4.4227739623395E-03 
1113	 3.74407504655127E-03 
1114	 3.28369354029612E-03 
1115	 2.45598702321483E-03 
1116	 2.0844678244267E-03 
1117	 1.92982194349773E-03 
1118	 1.90756022776916E-03 
1119	 0.002520789111635 
1120	 2.6295728738382E-03 
1121	 2.1299312365542E-03 
1122	 3.76691438178624E-03 
1123	 4.40035505327323E-03 
1124	 5.22802146772334E-03 
1125	 4.33890347072073E-03 
1126	 1.40792652051686E-03 
1127	-5.40536715965728E-04 
1128	-1.27914290141931E-03 
1129	-1.79477823729181E-03 
1130	-2.54405585736028E-04 
1131	-4.44596354465831E-04 
1132	-2.30255011400712E-03 
1133	-1.49680238653565E-03 
1134	 1.04855650654775E-03 
1135	 1.70283886996182E-03 
1136	 2.87437447499492E-03 
1137	 2.68383684672394E-03 
1138	 4.81243768613167E-04 
1139	-2.59982764422322E-05 
1140	 1.27721365342156E-03 
1141	 1.94177112922533E-03 
1142	 2.96069797000254E-03 
1143	 2.88315955297566E-03 
1144	 1.15761391720963E-03 
1145	 1.85116219804882E-03 
1146	 3.24469498993842E-03 
1147	 3.01432323205473E-03 
1148	 2.78417269474303E-03 
1149	 1.1277142661355E-03 
1150	 8.03803677202024E-04 
1151	 1.02128300799257E-03 
1152	 1.49802224200748E-03 
1153	 2.52987209991713E-03 
1154	 2.67699251917416E-03 
1155	 2.86904246466961E-03 
1156	 1.90366962275053E-03 
1157	 8.74115292431637E-04 
1158	 1.40562538805421E-03 
1159	 1.25646351704587E-03 
1160	 9.91971458985198E-04 
1161	 2.04248389216543E-03 
1162	 2.20960652860356E-03 
1163	 1.81626223131074E-03 
1164	 2.15734404020244E-03 
1165	 2.22855685215648E-03 
1166	 1.74997303623062E-03 
1167	 1.73152296952531E-03 
1168	 2.0300354502941E-03 
1169	 1.6245606982368E-03 
1170	 1.3432112543364E-03 
1171	 1.46182439956058E-03 
1172	 1.96335838229599E-03 
1173	 1.88956982829254E-03 
1174	 1.80329865548816E-03 
1175	 1.83329022793068E-03 
1176	 1.36789180220477E-03 
1177	 1.42562192516659E-03 
1178	 1.82901429455943E-03 
1179	 1.80272675931101E-03 
1180	 2.08210142870207E-03 
1181	 0.002283729231602 
1182	 1.9320545418604E-03 
1183	 1.84490702718637E-03 
1184	 1.78509267747469E-03 
1185	 1.3381255821163E-03 
1186	 1.19175876912127E-03 
1187	 1.50286365023358E-03 
1188	 1.71832227266909E-03 
1189	 1.76260139261381E-03 
1190	 1.80188427551093E-03 
1191	 1.74412059334286E-03 
1192	 1.71401242131839E-03 
1193	 1.66036286436792E-03 
1194	 1.62253883216761E-03 
1195	 1.58562557538594E-03 
1196	 1.61552532040404E-03 
1197	 1.44069181065972E-03 
1198	 1.3954292042009E-03 
1199	 1.5892071884389E-03 
1200	 1.6151892522592E-03 
1201	 1.88766856075084E-03 
1202	 2.10200119326264E-03 
1203	 1.76632298583801E-03 
1204	 1.47186069663552E-03 
1205	 1.36053683687878E-03 
1206	 1.4533109404818E-03 
1207	 1.62041169284491E-03 
1208	 1.44460271181051E-03 
1209	 1.31902271213695E-03 
1210	 1.49338110740304E-03 
1211	 1.51074399734614E-03 
1212	 1.62341473714146E-03 
1213	 2.00120006903886E-03 
1214	 2.06910674001052E-03 
1215	 1.71127189723217E-03 
1216	 1.43913749667215E-03 
1217	 1.65393078134805E-03 
1218	 1.58047097485041E-03 
1219	 1.3975662025639E-03 
1220	 1.50359783375666E-03 
1221	 1.65589306762688E-03 
1222	 1.68933557195038E-03 
1223	 1.56240887102523E-03 
1224	 1.52038397990834E-03 
1225	 1.65387758468661E-03 
1226	 1.48316908607487E-03 
1227	 1.16399517377584E-03 
1228	 1.16872653561858E-03 
1229	 1.10258703781196E-03 
1230	 1.07496997284093E-03 
1231	 1.3420089293733E-03 
1232	 1.58669258470265E-03 
1233	 1.64063697234256E-03 
1234	 1.52166945163015E-03 
1235	 1.48012992989476E-03 
1236	 1.56280386288174E-03 
1237	 1.54300654111042E-03 
1238	 1.38116338958119E-03 
1239	 1.39320444382039E-03 
1240	 1.59280194669381E-03 
1241	 1.6125684090619E-03 
1242	 1.58211795762123E-03 
1243	 1.63762228156036E-03 
1244	 1.50997315286064E-03 
1245	 1.38360689667321E-03 
1246	 1.44866607869428E-03 
1247	 1.59532924209182E-03 
1248	 1.7228200393456E-03 
1249	 1.64051894202809E-03 
1250	 1.44376867059242E-03 
1251	 1.44423000917532E-03 
1252	 1.53796915190291E-03 
1253	 1.62612114308716E-03 
1254	 1.61052642728844E-03 
1255	 1.40031093282467E-03 
1256	 1.47952930172563E-03 
1257	 1.7285405701979E-03 
1258	 1.63225734671548E-03 
1259	 1.51770346397222E-03 
1260	 1.60171405087291E-03 
1261	 1.39686930535531E-03 
1262	 1.25888360841066E-03 
1263	 1.43535561548061E-03 
1264	 1.6567908536867E-03 
1265	 1.45811057795667E-03 
1266	 1.35623953878101E-03 
1267	 1.57810561920008E-03 
1268	 1.85687048752648E-03 
1269	 1.81062814880641E-03 
1270	 1.60282239040537E-03 
1271	 1.54737160457822E-03 
1272	 1.50914111523662E-03 
1273	 1.63740999780781E-03 
1274	 1.6606966289035E-03 
1275	 1.45384701290953E-03 
1276	 1.49878981203965E-03 
1277	 1.63265347863065E-03 
1278	 1.71084248892084E-03 
1279	 1.7387690288926E-03 
1280	 1.58094804653526E-03 
1281	 1.61387434129715E-03 
1282	 1.66778001111059E-03 
1283	 1.58105079712786E-03 
1284	 1.51681640238823E-03 
1285	 1.64252506239351E-03 
1286	 1.66843436978643E-03 
1287	 1.57700842106571E-03 
1288	 1.74163467847669E-03 
1289	 1.79950401950388E-03 
1290	 1.54643861073863E-03 
1291	 1.40040728908557E-03 
1292	 1.53088036891982E-03 
1293	 1.6316827608908E-03 
1294	 1.57821588915414E-03 
1295	 1.56341697210968E-03 
1296	 1.65451114151179E-03 
1297	 1.53245051226387E-03 
1298	 1.39572486329549E-03 
1299	 1.55983511721713E-03 
1300	 1.58214598986401E-03 
1301	 1.39714463271081E-03 
1302	 1.39168046366101E-03 
1303	 1.39496604870291E-03 
1304	 1.45699042505592E-03 
1305	 1.69706509889684E-03 
1306	 1.65849270109057E-03 
1307	 1.21883480684527E-03 
1308	 1.15142315308418E-03 
1309	 1.26448585191219E-03 
1310	 1.26458782958706E-03 
1311	 1.29792791146046E-03 
1312	 1.44262793313156E-03 
1313	 1.66356729644452E-03 
1314	 1.57926712360175E-03 
1315	 1.44431442035012E-03 
1316	 1.53666433398416E-03 
1317	 1.44273943541894E-03 
1318	 1.33465514301614E-03 
1319	 1.69485759433503E-03 
1320	 1.67168189600268E-03 
1321	 1.21088344021309E-03 
1322	 5.64859044170908E-04 
1323	 7.09661448612559E-04 
1324	 1.07367039714844E-03 
1325	 1.18559750846427E-03 
1326	 1.65646805585001E-03 
1327	 1.93556381683399E-03 
1328	 1.18380549703977E-03 
1329	 5.36390649053016E-04 
1330	 9.85057750672299E-04 
1331	 1.31229468031216E-03 
1332	 1.56530495120867E-03 
1333	 2.10222402049398E-03 
1334	 1.50438212246922E-03 
1335	 1.5651758457187E-03 
1336	 1.71068690523691E-03 
1337	 1.42958483152345E-03 
1338	 6.95162693564674E-04 
1339	 9.84990512115957E-04 
1340	 1.75202208985658E-03 
1341	 1.35907826841732E-03 
1342	 1.09290541950827E-03 
1343	 1.65614096494817E-03 
1344	 1.09625761332108E-03 
1345	 6.13213066879434E-04 
1346	 2.29474346023538E-03 
1347	 3.96699954738613E-03 
1348	 3.91016246146565E-03 
1349	 4.62865350399578E-03 
1350	 1.27880432069686E-02 
1351	 1.77176000093108E-02 
1352	 5.90737255260066E-03 
1353	 2.61263094601528E-03 
1354	 4.52373911655316E-05 
1355	 1.04245136448831E-02 
1356	 2.58492626668853E-02 
1357	 6.14523364022702E-02 
1358	 7.08182490281105E-02 
1359	-0.033155159796275 
1360	-0.07934071324818 
1361	 3.67263589082315E-02 
1362	 4.95141946526892E-02 
1363	 0.015289342051569 
1364	 1.04639517892304E-02 
1365	 5.97447876657446E-02 
1366	 0.112697053742148 
1367	 0.238460253997737 
1368	 0.283750625238012 
1369	 0.129753609078059 
1370	 7.96655337918164E-02 
1371	 6.97435630853203E-02 
1372	 3.30807926796836E-02 
1373	-0.108091317626063 
1374	-0.159777255764594 
1375	-9.01173790927995E-02 
1376	-0.063421962607297 
1377	-2.82017753444671E-02 
1378	 3.43454107694426E-02 
1379	 0.158306599149579 
1380	 0.109906115324268 
1381	-0.159485150974843 
1382	-0.107091108078999 
1383	 9.43274978751565E-02 
1384	 0.136395596172152 
1385	 0.40752159209529 
1386	 0.532326456326445 
1387	 0.395848941140224 
1388	 0.355899274656887 
1389	-0.12594220517042 
1390	-0.318104777169582 
1391	-3.91122265939762E-02 
1392	 0.460623721485764 
1393	-0.136395853305012 
1394	-0.141606275569676 
1395	-0.032948777354197 
1396	-0.132514079401639 
1397	-0.308384800365893 
1398	-0.164227831533426 
1399	 0.129671889381099 
1400	-0.128224122067009 
1401	-0.344819244454617 
1402	 0.287918053187311 
1403	 0.749916479635331 
1404	 0.316344123512115 
1405	 0.186074644986101 
1406	 0.277199664852341 
1407	 0.248461117645616 
1408	 1.80459382640604E-03 
1409	-3.10436016923655E-02 
1410	 6.63057314855505E-02 
1411	 4.63452679130257E-02 
1412	 2.16479384121942E-02 
1413	-2.62743202658278E-03 
1414	-8.73028066856681E-02 
1415	-6.02083911638741E-02 
1416	 1.58332771186114E-02 
1417	 1.42766313130637E-02 
1418	 9.55431106992933E-03 
1419	 2.20089867250205E-02 
1420	 1.40969571521096E-02 
1421	 3.63699387057922E-03 
1422	 1.12371460649719E-02 
1423	 1.87348068445993E-02 
1424	 2.75222972693052E-02 
1425	 0.012260259757951 
1426	-2.30116233061178E-02 
1427	-1.58975993232608E-02 
1428	 2.50542267478634E-03 
1429	 3.89114488126986E-03 
1430	 2.56079989282892E-02 
1431	 3.17005750191981E-02 
1432	 1.01790364752862E-02 
1433	 2.91568525000261E-03 
1434	 5.66801861217385E-03 
1435	 4.70903599436126E-03 
1436	 1.15394480217067E-03 
1437	-3.17890451613026E-03 
1438	-1.06752607694241E-02 
1439	-4.69322440945254E-03 
1440	 1.18776399589764E-02 
1441	 1.08668714251794E-02 
1442	 7.90745424414166E-03 
1443	 1.34124276847996E-02 
1444	 1.11544856999044E-02 
1445	 4.62861799475612E-03 
1446	 2.73055119100977E-03 
1447	 6.78582458165423E-03 
1448	 8.3435492037507E-03 
1449	 8.79305291762929E-03 
1450	 1.14821850389896E-02 
1451	 7.84331367363717E-03 
1452	 3.29333021460448E-03 
1453	 3.26205881592808E-03 
1454	 2.64822352748805E-03 
1455	 2.44653121562026E-03 
1456	 2.20733302131058E-03 
1457	 2.84927192163702E-03 
1458	 2.17723937599385E-03 
1459	 1.34584594583227E-04 
1460	 5.50016384606286E-04 
1461	 2.14442539031597E-03 
1462	 1.68597990155197E-03 
1463	 1.52158724894095E-03 
1464	 1.73065252998725E-03 
1465	 3.1892149864214E-04 
1466	-7.97521459459027E-04 
1467	-9.99009981271098E-04 
1468	-1.79228262082473E-04 
1469	 7.81637632444454E-04 
1470	 5.75100050370168E-04 
1471	 1.68467540787654E-03 
1472	 2.05405327084172E-03 
1473	 1.72116730724308E-04 
1474	-9.82508943113473E-04 
1475	-1.32350990344792E-03 
1476	-9.72974994403206E-04 
1477	-1.09701739118957E-03 
1478	-7.16405272597447E-04 
1479	 1.01485798172738E-03 
1480	 1.61294227220223E-03 
1481	 1.67611675672623E-03 
1482	 1.72315739508813E-03 
1483	 2.09636510847091E-03 
1484	 1.57306772674337E-03 
1485	-2.40681469735373E-04 
1486	-2.60189120948134E-04 
1487	 3.4449427581062E-04 
1488	 3.87645387962245E-04 
1489	 8.89803632708655E-04 
1490	 1.14337483354379E-03 
1491	 1.0198255248863E-03 
1492	 9.68585976357075E-04 
1493	 1.0669256208061E-03 
1494	 1.10552154888963E-03 
1495	 9.30118537180854E-04 
1496	 8.25275171874868E-04 
1497	 8.20849830630198E-04 
1498	 9.04233943356402E-04 
1499	 1.05708014815378E-03 
1500	 1.02143991428539E-03 
1501	 9.90447117453643E-04 
1502	 9.90269960385383E-04 
1503	 7.5079797306871E-04 
1504	 7.10854382726168E-04 
1505	 9.8241135256507E-04 
1506	 9.90019854049425E-04 
1507	 6.83179325719676E-04 
1508	 7.24488513508195E-04 
1509	 1.13616969039673E-03 
1510	 1.15467361689251E-03 
1511	 9.30778592476785E-04 
1512	 0.000987093271258 
1513	 8.11748101592418E-04 
1514	 6.435061314547E-04 
1515	 9.14217912593422E-04 
1516	 1.04551840837284E-03 
1517	 9.99881733104527E-04 
1518	 9.42556891910204E-04 
1519	 9.05185427575462E-04 
1520	 9.43298993792738E-04 
1521	 9.28744022433203E-04 
1522	 8.6760522817885E-04 
1523	 8.14020241162687E-04 
1524	 9.21010927237613E-04 
1525	 1.01849526926409E-03 
1526	 9.58256161207758E-04 
1527	 1.02268750102227E-03 
1528	 1.02600415798501E-03 
1529	 8.90804036136138E-04 
1530	 9.2934697121898E-04 
1531	 1.00964505934035E-03 
1532	 1.03841074204048E-03 
1533	 0.00102137479089 
1534	 9.68471508971779E-04 
1535	 9.09103218400074E-04 
1536	 6.71277272782729E-04 
1537	 6.25946668092411E-04 
1538	 8.71763972283842E-04 
1539	 7.68456078709847E-04 
1540	 6.34400057245262E-04 
1541	 9.52867519417382E-04 
1542	 1.11459233907917E-03 
1543	 8.77811507355789E-04 
1544	 8.74933669372019E-04 
1545	 1.03722887049062E-03 
1546	 8.83226927667664E-04 
1547	 8.50537638568359E-04 
1548	 1.06810030930414E-03 
1549	 9.96379269816312E-04 
1550	 7.6357841934807E-04 
1551	 7.45585121653135E-04 
1552	 7.41745265547021E-04 
1553	 6.86505387864353E-04 
1554	 8.2344085403795E-04 
1555	 9.95743079783656E-04 
1556	 1.0420490784818E-03 
1557	 1.1401516175751E-03 
1558	 0.001075102063832 
1559	 8.38080564368507E-04 
1560	 9.58162740618959E-04 
1561	 1.06996068261285E-03 
1562	 8.54652206984235E-04 
1563	 7.99166548122481E-04 
1564	 9.79641893753781E-04 
1565	 1.05473660466672E-03 
1566	 8.89046618974223E-04 
1567	 7.66708334258391E-04 
1568	 8.41945760606064E-04 
1569	 8.10028831038752E-04 
1570	 7.49574944038148E-04 
1571	 9.91672960523913E-04 
1572	 1.14763480799264E-03 
1573	 1.09972718957798E-03 
1574	 0.0012134802303 
1575	 1.16823239674193E-03 
1576	 8.45950460438499E-04 
1577	 7.04125500352823E-04 
1578	 7.02313190583221E-04 
1579	 7.56493269577603E-04 
1580	 9.06923462610871E-04 
1581	 8.40758913442134E-04 
1582	 8.51945373995811E-04 
1583	 1.02875237292563E-03 
1584	 8.64411806355601E-04 
1585	 7.78334746222287E-04 
1586	 9.93374449319026E-04 
1587	 1.14579567674703E-03 
1588	 1.09028118268631E-03 
1589	 9.91768842630306E-04 
1590	 1.05990475412567E-03 
1591	 1.05335415927162E-03 
1592	 1.07746933538294E-03 
1593	 1.07812998705995E-03 
1594	 8.98587292026617E-04 
1595	 9.77407881949357E-04 
1596	 1.09426328581598E-03 
1597	 1.00622298078905E-03 
1598	 1.04227743826615E-03 
1599	 9.7233254634306E-04 
1600	 6.99251721105878E-04 
1601	 7.09853737016782E-04 
1602	 8.88736866574929E-04 
1603	 7.2334530146234E-04 
1604	 5.45702524490725E-04 
1605	 9.04117818332209E-04 
1606	 1.13074019922194E-03 
1607	 9.99501463724965E-04 
1608	 1.16181422468131E-03 
1609	 1.14939447403568E-03 
1610	 7.76349530644251E-04 
1611	 8.79828225759596E-04 
1612	 1.13886582246411E-03 
1613	 9.53955108866536E-04 
1614	 8.64023273258856E-04 
1615	 8.84162087790016E-04 
1616	 7.96334016079022E-04 
1617	 9.30459458019948E-04 
1618	 1.05560426099871E-03 
1619	 8.61122092042722E-04 
1620	 7.36548276815125E-04 
1621	 1.00435947433941E-03 
1622	 1.22897729365126E-03 
1623	 1.24480348836948E-03 
1624	 1.24641235822437E-03 
1625	 1.04085816299704E-03 
1626	 9.63514922101617E-04 
1627	 1.10297618370245E-03 
1628	 9.93175698619152E-04 
1629	 9.45625624940561E-04 
1630	 1.16316560157692E-03 
1631	 1.15087721282783E-03 
1632	 1.06873975158725E-03 
1633	 1.06333916191097E-03 
1634	 5.69523073145096E-04 
1635	 2.62280186170835E-04 
1636	 7.39120940182858E-04 
1637	 9.89508286398661E-04 
1638	 8.85024921058242E-04 
1639	 9.68882071944037E-04 
1640	 9.15583251871965E-04 
1641	 6.47958952448044E-04 
1642	 5.25026579478243E-04 
1643	 5.59448069271362E-04 
1644	 6.00244372721714E-04 
1645	 5.3839558420314E-04 
1646	 4.73826452409256E-04 
1647	 5.44234352785012E-04 
1648	 6.88991460224152E-04 
1649	 8.04593325945519E-04 
1650	 8.64939162401178E-04 
1651	 8.16885992342168E-04 
1652	 4.95447221619363E-04 
1653	 5.06753090287847E-04 
1654	 5.67016258648682E-04 
1655	 6.62733640187201E-04 
1656	 6.70105438613961E-04 
1657	 6.76505593774152E-04 
1658	 6.65472761472668E-04 
1659	 4.80927502601799E-04 
1660	 5.45493410182468E-04 
1661	 9.66289918994836E-04 
1662	 9.59080914302084E-04 
1663	 7.25981394515515E-04 
1664	 7.35616355763473E-04 
1665	 5.9462679592789E-04 
1666	 4.93235086089047E-04 
1667	 5.8227275881496E-04 
1668	 8.75263100951294E-04 
1669	 1.04727435864259E-03 
1670	 8.26150465158369E-04 
1671	 6.62377365334891E-04 
1672	 6.64656730307028E-04 
1673	 4.95581934428783E-04 
1674	 6.82389730971947E-04 
1675	 1.08004155417149E-03 
1676	 8.77127740415586E-04 
1677	 6.31959124129158E-04 
1678	 5.93506120068883E-04 
1679	 6.88181928592658E-04 
1680	 9.18502008250959E-04 
1681	 7.89090299486812E-04 
1682	 6.62574758291914E-04 
1683	 6.6837808975362E-04 
1684	 5.12732615527807E-04 
1685	 5.58063247407274E-04 
1686	 7.03827441281875E-04 
1687	 5.8888287017567E-04 
1688	 5.3655422024188E-04 
1689	 8.88673821145062E-04 
1690	 9.50345113673961E-04 
1691	 5.22061648899631E-04 
1692	 5.35014267178222E-04 
1693	 4.68526016673852E-04 
1694	 2.03588011554767E-04 
1695	 6.74625155457984E-04 
1696	 9.56494866397742E-04 
1697	 7.25086677676083E-04 
1698	 8.07551800574368E-04 
1699	 6.64912579198775E-04 
1700	 3.19877245094143E-04 
1701	 4.97994864868908E-04 
1702	 6.75693556830676E-04 
1703	 6.78252093040573E-04 
1704	 6.25198438676856E-04 
1705	 4.93525957950436E-04 
1706	 5.69393731209027E-04 
1707	 4.71500563330201E-04 
1708	 2.2079553814538E-04 
1709	 2.12554573716704E-04 
1710	 2.83165835625329E-04 
1711	 5.63327282411634E-04 
1712	 9.56002322401565E-04 
1713	 2.77764826039199E-04 
1714	 1.03049972449678E-04 
1715	-7.71960641528334E-05 
1716	 3.62767416350362E-04 
1717	 8.87270135930361E-04 
1718	 6.5269379999273E-04 
1719	 4.68840959788806E-05 
1720	 1.76561294102651E-05 
1721	 8.82712152677463E-05 
1722	 4.30946472925156E-04 
1723	 1.20622924813069E-03 
1724	 1.16201961803341E-03 
1725	 7.2506485725424E-04 
1726	 8.47013377614892E-04 
1727	 4.07304821932084E-04 
1728	-4.2742977317244E-05 
1729	 6.60888796551111E-04 
1730	 1.02344659476184E-03 
1731	 1.02290324871395E-03 
1732	 9.90586494628993E-04 
1733	 4.31502498898253E-04 
1734	 4.57791846653015E-04 
1735	 9.56331712535242E-04 
1736	 1.33599324740087E-03 
1737	 1.6649445112073E-03 
1738	 1.33878892352863E-03 
1739	 5.92352783703017E-04 
1740	 6.60203518812643E-04 
1741	 1.07993260205895E-03 
1742	 1.05791295642616E-03 
1743	 1.18793849420188E-03 
1744	 1.10381624661549E-03 
1745	 9.20919784908293E-04 
1746	 4.7572120638344E-04 
1747	 6.03268727633025E-04 
1748	 1.46572242350717E-03 
1749	 1.42210321758224E-03 
1750	 1.45027309315701E-03 
1751	 1.38825768312392E-03 
1752	-2.63242043053671E-05 
1753	-7.68920711549491E-05 
1754	 1.15780005687714E-03 
1755	 1.20029993659032E-03 
1756	 1.28736082160063E-03 
1757	 1.7052055479783E-03 
1758	 1.16513194742496E-03 
1759	 1.33321072042538E-03 
1760	 1.55838183709212E-03 
1761	 1.0969955614612E-03 
1762	 8.28225265896884E-04 
1763	 7.27494117965206E-04 
1764	 2.1980760404986E-04 
1765	-1.33156152296962E-04 
1766	-4.8106751487595E-05 
1767	 6.84466366636396E-05 
1768	 7.16824007733475E-04 
1769	 1.03991243060567E-03 
1770	 6.35797240804659E-04 
1771	 5.66848578987086E-04 
1772	 6.12214304100093E-04 
1773	 1.12140349426641E-03 
1774	 2.17321006993918E-03 
1775	 3.56565226014567E-03 
1776	 3.29584180545933E-03 
1777	 3.9567693173382E-04 
1778	-1.68236676116931E-05 
1779	 3.80261789877289E-06 
1780	-4.07593238443292E-05 
1781	 3.18388864400466E-03 
1782	 3.63592464680976E-03 
1783	 5.6604818532691E-04 
1784	-1.92976082906036E-04 
1785	-1.03734031894268E-03 
1786	-5.88517876541541E-04 
1787	 3.00524560421343E-03 
1788	 3.4001467747626E-03 
1789	 2.87292199540372E-03 
1790	 2.17216609167972E-03 
1791	-3.15338183096749E-03 
1792	-3.02445122566633E-03 
1793	 2.72120471626751E-03 
1794	 5.19802546060723E-03 
1795	 1.15409310720918E-02 
1796	 1.20340686277441E-02 
1797	 8.46737148536945E-04 
1798	-9.44139925446925E-03 
1799	-1.66587256700911E-02 
1800	-4.00991401499443E-03 
1801	 1.39220554020705E-03 
1802	 2.24554263231726E-02 
1803	 3.01292176351689E-02 
1804	-2.55905177754699E-03 
1805	-1.72727974656456E-02 
1806	-4.11780425668425E-02 
1807	-0.05731623803157 
1808	-4.06152421621553E-02 
1809	-1.98932264664992E-02 
1810	 6.29339233163506E-02 
1811	 9.50736245189141E-02 
1812	 5.92637029948883E-02 
1813	 7.38917329930562E-02 
1814	-1.22054938830071E-02 
1815	 0.016373223254622 
1816	 0.409527360169318 
1817	-0.23384643021674 
1818	-0.927760451893603 
1819	-0.751027403393178 
1820	-0.622563040815205 
1821	 0.300721739216732 
1822	 0.633605917346694 
1823	-0.132299537418129 
1824	-0.7072264190795 
1825	-1.150899161796 
1826	-1.44572046042091 
1827	 9.24614859350747E-02 
1828	 0.220470099837228 
1829	 0.153420816981539 
1830	 0.182729829944673 
1831	-1.04056334948419 
1832	-0.160154747152959 
1833	 1.32036276110748 
1834	 1.54580556764169 
1835	 2.49336094609219 
1836	 2.09644335327992 
1837	-0.234439789665282 
1838	-0.571826648671285 
1839	 0.364747857574509 
1840	 0.920514485463476 
1841	 0.411694732688663 
1842	 0.559744114872361 
1843	 0.654487835522259 
1844	 0.055448175674203 
1845	 0.167980695183365 
1846	 1.07014733663763 
1847	 1.05802500718022 
1848	 0.517974549168046 
1849	-5.12229419067888E-02 
1850	-5.52598033689047 
1851	 1.21975910911972 
1852	 0.714364980660367 
1853	 1.28869267857817 
1854	 1.01863785114961 
1855	 0.572423122484776 
1856	-0.220006998349729 
1857	 2.43401291862842 
1858	 4.0151562743399 
1859	 18.3604577522051 
1860	 3.54157246124027 
1861	 2.97553464185231 
1862	 24.9852153289573 
1863	 2.15819325689627 
1864	 1.24714176328932 
1865	 1.89518282844032 
1866	-2.30145156171132 
1867	-2.46237988924532 
1868	 20.4086845758965 
1869	 5.74393419112575 
1870	 1.0373768115409 
1871	-0.416158918238354 
1872	-1.63221603285252 
1873	-4.00503160291065 
1874	-0.50989033408722 
1875	 0.891548544944954 
1876	 3.09397927965115 
1877	 6.99317039184455 
1878	-37.6609099745905 
1879	-1.20357966865957 
1880	-0.97034691527221 
1881	-1.12262117762881 
1882	-2.80501361887157 
1883	 0.851778800315838 
1884	-1.23909699761091E-02 
1885	-0.915579426162314 
1886	-3.35748057742732 
1887	-3.51215266341824E-02 
1888	-1.14363245651905 
1889	-1.75179686206941 
1890	 4.66523808869583 
1891	 2.41207154493979 
1892	 0.366753236300612 
1893	-0.376478228172953 
1894	-0.703798169599192 
1895	 1.34670832052074 
1896	-1.08161057506778 
1897	-1.76639710053799 
1898	-2.18607057177644 
1899	 0.814716478221738 
1900	 0.751708023816847 
1901	 0.719699290866015 
1902	 0.606662592475461 
1903	 0.461039779291159 
1904	 3.4516512734308 
1905	-1.6762523341963 
1906	-0.400551774872187 
1907	-0.438217893493679 
1908	-0.529952009280077 
1909	 8.99427533623705E-02 
1910	-1.54306017609179 
1911	 0.612157858044971 
1912	 1.49883578651899 
1913	 1.73348598286061 
1914	 49.6109820613489 
1915	-8.18668594926692 
1916	-6.07491039810193 
1917	 6.92550480146351 
1918	 0.750357635632677 
1919	 1.73700061672432 
1920	 18.5110380746632 
1921	 1.3044746340637 
1922	 1.14895891094696 
1923	 0.431658313848937 
1924	-0.021427229208688 
1925	-0.451822561688552 
1926	-0.578228384920807 
1927	-0.673792962207546 
1928	-0.410915356117891 
1929	 0.244452984378746 
1930	 0.680321098924486 
1931	 0.625377454431703 
1932	 0.631799223740439 
1933	 0.143946203347855 
1934	-0.470169399561176 
1935	-0.480845267690073 
1936	-0.243546854314725 
1937	-7.08784685711179E-02 
1938	 0.115874593360308 
1939	 0.147673043780133 
1940	 0.108113629352321 
1941	 1.52767091177327E-02 
1942	-2.02417702052061E-02 
1943	-1.35420804416958E-02 
1944	 6.21782635473594E-02 
1945	 6.81602841167407E-02 
1946	 4.73365071466909E-02 
1947	 3.71781668770738E-02 
1948	 2.37203221124564E-02 
1949	 4.13324772139505E-02 
1950	 6.36019812131003E-02 
1951	 4.61451534252645E-02 
1952	 3.80754878812519E-02 
1953	 1.43412593232384E-02 
1954	 2.39566029369441E-02 
1955	 1.51036278044357E-02 
1956	-6.82720802319183E-04 
1957	 1.43418558235999E-02 
1958	 6.16905939789006E-03 
1959	-3.4283113217554E-03 
1960	 1.17602091437349E-02 
1961	 1.37146619901362E-02 
1962	 2.04700550100373E-03 
1963	 2.28799320959232E-03 
1964	 2.04412560015891E-03 
1965	-4.24057920039813E-03 
1966	-5.17762763543289E-03 
1967	-3.02896503674852E-03 
1968	-1.85976815783133E-03 
1969	-3.20744992830981E-03 
1970	-2.15682704055379E-03 
1971	-1.05399125818073E-04 
1972	 1.67573083550841E-04 
1973	 5.0353366288498E-04 
1974	 2.09165520635438E-03 
1975	 2.65186128019783E-03 
1976	 3.51415087177064E-03 
1977	 3.61305248369741E-03 
1978	 2.59933699508378E-03 
1979	 2.01802317775383E-03 
1980	 7.16223367378552E-04 
1981	-2.0881829630196E-04 
1982	 1.37215764183224E-03 
1983	 2.48506264778356E-03 
1984	 2.65019308856722E-03 
1985	 2.94967581912535E-03 
1986	 1.58933940242091E-03 
1987	-2.18708437734163E-04 
1988	-1.27672780143971E-03 
1989	-1.69048157109667E-03 
1990	-1.70278489061361E-03 
1991	-1.43141998480897E-03 
1992	-1.03564304048312E-03 
1993	-8.4262203020678E-04 
1994	-3.25329785161765E-04 
1995	 1.39279924986877E-04 
1996	 4.76131074080708E-04 
1997	 8.03123155226349E-04 
1998	 3.50038324166983E-04 
1999	-1.4656130541984E-03 
2000	-1.2912365279912E-03 
2001	-1.80861336606361E-03 
2002	-2.72661174396274E-03 
2003	-9.26564316787922E-04 
2004	-8.97451193255421E-04 
2005	 3.09705491952415E-04 
2006	 5.93749753349972E-03 
2007	 6.89215420050833E-03 
2008	 1.34812672142133E-03 
2009	 3.5145837334245E-04 
2010	 9.51341609785685E-04 
2011	 4.41879366116629E-04 
2012	 5.36291024386681E-05 
2013	 3.0704074556829E-03 
2014	 1.97018129404223E-03 
2015	 1.72195667719413E-04 
2016	 1.67620608457078E-05 
2017	 2.6006341286145E-04 
2018	 2.4919048257611E-03 
2019	 1.31790813785287E-03 
2020	-9.78634001583193E-05 
2021	 2.61219501494042E-04 
2022	 7.05473522220237E-04 
2023	 2.22478122053035E-03 
2024	 2.56202677169755E-03 
2025	 2.8472547252581E-03 
2026	 2.71889993305493E-03 
2027	 1.8876505793811E-03 
2028	 1.33721939884545E-03 
2029	 1.45883046433964E-03 
2030	 1.66819680850528E-03 
2031	 1.48801950502822E-03 
2032	 1.5097393711372E-03 
2033	 1.21295513136739E-03 
2034	 4.38047716452841E-04 
2035	 5.13562541031128E-04 
2036	 3.4376618397428E-04 
2037	 2.86342197044751E-05 
2038	 3.64881768742186E-05 
2039	-1.55454885564944E-04 
2040	-6.44770376971786E-04 
2041	-1.01268261434496E-03 
2042	-1.54778410220051E-03 
2043	-0.001487571082756 
2044	-1.19105145894854E-03 
2045	-8.29366726051577E-04 
2046	 4.88888406909553E-06 
2047	 1.0372646146696E-03 
2048	 2.20517369911558E-03 
2049	 1.98370237503214E-03 
2050	 9.71663096913844E-04 
2051	 7.52590060911977E-04 
2052	 8.10401174284604E-04 
2053	 1.32961164253941E-03 
2054	 2.01899144603592E-03 
2055	 2.53540007847977E-03 
2056	 2.8035425735232E-03 
2057	 1.72299021000622E-03 
2058	 1.77734091214992E-03 
2059	 2.82434685687418E-03 
2060	 2.80212722852997E-03 
2061	 2.03262162022759E-03 
2062	 2.43336056421026E-03 
2063	 2.9307647916529E-03 
2064	 3.04783820929077E-03 
2065	 3.06822466823827E-03 
2066	 3.26396154750079E-03 
2067	 2.63497667278028E-03 
2068	 2.52868223492861E-03 
2069	 2.99423720559302E-03 
2070	 2.24794505968617E-03 
2071	 2.04216652637594E-03 
2072	 1.1880905667407E-03 
2073	 7.39143214383611E-04 
2074	 1.02138940219484E-03 
2075	 9.15741508597128E-04 
2076	 5.88194534392346E-04 
2077	 2.26814664916191E-04 
2078	-6.98486119691411E-04 
2079	-1.00876452084555E-03 
2080	-1.10821901266411E-03 
2081	-1.17126244565818E-03 
2082	-9.34827348455798E-04 
2083	-3.91974157959194E-04 
2084	-8.28209493670284E-05 
2085	-1.01920604550207E-04 
2086	 5.03747952831849E-05 
2087	 4.99767334899918E-04 
2088	 2.99293500324619E-04 
2089	 7.0795612815196E-04 
2090	 1.57656099909298E-03 
2091	 1.43952410604959E-03 
2092	 1.52355112105726E-03 
2093	 1.68801980413599E-03 
2094	 1.62366422151888E-03 
2095	 1.35686575919806E-03 
2096	 1.24223161994402E-03 
2097	 7.70656600606425E-04 
2098	 6.85469277876758E-04 
2099	 9.97433976448953E-04 
2100	 9.4230274115133E-04 
2101	 8.41566120399084E-04 
2102	 1.26082291625478E-03 
2103	 5.23528096614307E-04 
2104	-3.38280123937516E-04 
2105	-6.73498241364408E-04 
2106	-1.55255622991459E-03 
2107	-1.50985480418837E-03 
2108	-5.52809931867639E-04 
2109	 1.74486258767598E-04 
2110	 1.03247597662242E-03 
2111	 1.4727065911446E-03 
2112	 1.3761715989577E-03 
2113	 1.39217454486522E-03 
2114	 1.16390643880534E-03 
2115	 1.00333904779281E-03 
2116	 9.10257861371432E-04 
2117	 6.07517745188746E-04 
2118	-2.74433860933197E-04 
2119	-4.52135264393593E-04 
2120	-5.48084236199314E-04 
2121	-4.15068764648533E-07 
2122	 8.13365415837505E-04 
2123	 1.69459112133411E-03 
2124	 1.95510490027432E-03 
2125	 1.64746326953938E-03 
2126	 1.75363185082733E-03 
2127	 1.29405663665391E-03 
2128	 1.07402816729656E-03 
2129	 1.5781903869679E-03 
2130	 1.16942536293371E-03 
2131	 1.86287166505872E-03 
2132	 2.55309755515345E-03 
2133	 0.001775658678525 
2134	 1.47954178076112E-03 
2135	 9.09829449415042E-04 
2136	 5.53989623493766E-04 
2137	 4.55917697572809E-04 
2138	 2.95287711058068E-04 
2139	-5.24959904828143E-05 
2140	 4.24739547197534E-05 
2141	 5.48591947081321E-04 
2142	 5.68267130809749E-04 
2143	 4.69476504027171E-04 
2144	 7.22459720741974E-04 
2145	 1.48451893743568E-03 
2146	 1.35851211515604E-03 
2147	 1.45870195645112E-03 
2148	 1.72524654567316E-03 
2149	 1.13136166131913E-03 
2150	 4.04474707770144E-04 
2151	 2.44561396190133E-04 
2152	 5.4926163457942E-04 
2153	 2.84443984817251E-04 
2154	 4.38361227170902E-04 
2155	 1.17478215052348E-03 
2156	 1.81078298649307E-03 
2157	 1.97385727495672E-03 
2158	 1.6192816602143E-03 
2159	 1.67428591689179E-03 
2160	 1.75639669043704E-03 
2161	 1.69843314922177E-03 
2162	 1.97131137909424E-03 
2163	 2.03641063696632E-03 
2164	 1.53183573559474E-03 
2165	 1.17042107236287E-03 
2166	 1.06428203505053E-03 
2167	 8.54349970652123E-04 
2168	 4.70727475885513E-04 
2169	 2.14373896443894E-04 
2170	-5.30807626729712E-05 
2171	-2.18645799458312E-04 
2172	-2.37169767209059E-04 
2173	-6.50326448294187E-04 
2174	-9.30568436635194E-04 
2175	-3.61737642723579E-04 
2176	-8.98344874846369E-05 
2177	-3.55651200756668E-04 
2178	 4.12381785746828E-04 
2179	 6.51274390399852E-04 
2180	 1.12681701054695E-04 
2181	 6.53934265529494E-04 
2182	 6.67588781370874E-04 
2183	-3.02315455673966E-04 
2184	-4.79242505928813E-04 
2185	 4.64095100372155E-04 
2186	 1.06960219301687E-03 
2187	 2.15739981754798E-03 
2188	 2.31469037151768E-03 
2189	 2.17361369976389E-03 
2190	 1.88493445227995E-03 
2191	 1.84655575500996E-04 
2192	-1.47545366271732E-04 
2193	 1.1821610432341E-03 
2194	 1.16180467073063E-03 
2195	-1.23385939713886E-05 
2196	 4.60561508150778E-04 
2197	 1.77976282095052E-03 
2198	 1.64106609920739E-03 
2199	 1.33719929051729E-03 
2200	 2.65192224397634E-03 
2201	 1.74724710546346E-03 
2202	-1.24533906230392E-03 
2203	-1.30944462859252E-03 
2204	-3.64368667947148E-04 
2205	-9.37690904613834E-04 
2206	-5.77130139197291E-04 
2207	-7.50676014504635E-04 
2208	-2.06340079751219E-03 
2209	-2.69485608175322E-03 
2210	-1.87693801886151E-03 
2211	-1.59612321679617E-03 
2212	-1.11814918140578E-03 
2213	 1.51692295035843E-03 
2214	 2.54482179701184E-03 
2215	 3.45697813773845E-03 
2216	 4.88969859933449E-03 
2217	 4.57701955743237E-03 
2218	 2.05981004094445E-03 
2219	 1.98898999936938E-03 
2220	 2.04530494052261E-03 
2221	 1.79481788769154E-03 
2222	 3.46792714866861E-03 
2223	 3.0113635727479E-03 
2224	-3.82160148167348E-05 
2225	-6.41670726809061E-04 
2226	-3.48318851510656E-04 
2227	-6.85175808147188E-04 
2228	-9.08502329255685E-04 
2229	-1.53402845113747E-04 
2230	 1.45520300795315E-03 
2231	 1.64015568214395E-03 
2232	 1.84719816253889E-03 
2233	 2.96850247516874E-03 
2234	 4.08019066579724E-03 
2235	 2.93873798248395E-03 
2236	 4.66175893637978E-03 
2237	 5.53418649925924E-03 
2238	 3.25737581670511E-03 
2239	 0.002629282867964 
2240	 2.14030628515979E-03 
2241	 1.90711959853027E-04 
2242	-7.39636010763311E-04 
2243	-4.58007264885868E-04 
2244	-6.85639533014806E-04 
2245	 8.18647299952558E-04 
2246	 3.4650591943021E-03 
2247	 3.6073322496943E-03 
2248	 3.76736395610475E-03 
2249	 3.56349335594124E-03 
2250	 1.73425823266789E-03 
2251	 8.34104079113128E-04 
2252	 1.44930232198576E-04 
2253	-1.64865755682971E-04 
2254	 4.34053190276389E-04 
2255	-1.77761662186215E-04 
2256	-2.65389426521257E-04 
2257	-1.63727121201616E-04 
2258	-1.49528365151492E-03 
2259	-1.37530387909513E-03 
2260	-1.30558183167082E-03 
2261	-1.65229591131213E-03 
2262	-1.04222734245699E-03 
2263	 1.32508796888072E-03 
2264	 1.52705059256975E-03 
2265	 7.30411558916845E-04 
2266	 6.62452149988284E-04 
2267	-2.22749615421164E-05 
2268	-4.57008452524481E-04 
2269	-1.9108952630298E-04 
2270	-5.46467854650508E-04 
2271	-1.75868237090932E-03 
2272	-2.10450349141627E-03 
2273	-2.39399150292124E-03 
2274	-1.43892365882973E-03 
2275	 6.72364864965469E-04 
2276	 2.31517210243445E-03 
2277	 5.73089227921886E-03 
2278	 6.19994166964866E-03 
2279	 4.24518706352835E-03 
2280	 3.11822960152045E-03 
2281	-5.79569349883866E-04 
2282	-4.21372362871599E-04 
2283	 2.18036978884114E-03 
2284	 2.56471562219536E-03 
2285	 3.24197780245672E-03 
2286	 4.48208631352817E-03 
2287	 4.60558415853512E-03 
2288	 5.4935303046792E-03 
2289	 7.40928839777275E-03 
2290	 7.12879189652888E-03 
2291	 3.9230560116207E-03 
2292	 2.10305628978241E-03 
2293	 3.4941510113635E-03 
2294	 4.75233915368403E-03 
2295	 3.43986624875714E-03 
2296	 2.37138374031155E-03 
2297	-1.36379148746962E-05 
2298	-3.23852630941378E-03 
2299	-1.29693676553826E-03 
2300	 2.33751558024835E-03 
2301	 2.69652111303173E-03 
2302	-1.6791574949513E-04 
2303	-2.75480639996864E-03 
2304	-4.43807592546502E-03 
2305	-6.87875716932453E-03 
2306	-1.02996229572018E-02 
2307	-1.29272371372898E-02 
2308	-9.26667763791644E-03 
2309	-4.03550757780889E-03 
2310	-7.54616827019535E-04 
2311	 3.82202412119792E-03 
2312	 4.78245428586811E-03 
2313	 1.1601829830835E-03 
2314	 7.66334118722972E-04 
2315	 5.7311591797992E-04 
2316	-3.21810684727209E-03 
2317	-2.25421890561079E-03 
2318	-1.17330558078687E-03 
2319	 8.7175613467416E-05 
2320	 3.29833876553244E-03 
2321	 2.00453366220851E-03 
2322	 2.86693750936065E-03 
2323	 2.42752713647381E-03 
2324	 1.84225567672701E-03 
2325	 5.7520104903881E-03 
2326	 4.20674459174015E-03 
2327	 1.29817387841227E-03 
2328	 2.27100163689223E-03 
2329	 2.17308423858356E-03 
2330	 1.26746886341003E-03 
2331	 1.15883241823947E-03 
2332	 7.56860123766911E-04 
2333	-2.21695112567772E-03 
2334	-6.89247163334259E-04 
2335	 4.11881346948724E-03 
2336	 4.79079475660525E-03 
2337	 5.86271661111659E-03 
2338	 3.06858328195627E-03 
2339	 6.70512011470349E-05 
2340	 3.87340195356577E-03 
2341	 8.38988326962199E-03 
2342	 1.04626794658988E-02 
2343	 7.65296006156884E-03 
2344	 4.10348369346676E-03 
2345	 1.44724784142621E-03 
2346	-1.55736892701773E-03 
2347	-2.85635878119027E-03 
2348	-7.00830452956446E-03 
2349	-9.52609441046562E-03 
2350	-4.4069483566998E-03 
2351	 1.85974571268549E-03 
2352	 4.86545629868699E-03 
2353	 6.92267997690024E-03 
2354	 4.13860087392945E-03 
2355	-2.57868916261289E-03 
2356	 1.18805177718308E-03 
2357	 1.07532719515296E-02 
2358	 8.68300344516851E-03 
2359	-3.06975528859325E-04 
2360	 8.01408204838622E-04 
2361	 6.92860056428736E-03 
2362	 7.34388729121978E-03 
2363	 7.62275107588831E-03 
2364	 1.52370253960115E-03 
2365	-0.015089982958187 
2366	-2.10302568436665E-02 
2367	-2.08483563757882E-02 
2368	-2.05502187023104E-02 
2369	-1.11472293628797E-02 
2370	-1.12968103111974E-02 
2371	 4.11026561232547E-04 
2372	 1.49056698265578E-02 
2373	-1.32775481019219E-03 
2374	-8.95341617505965E-03 
2375	-2.95417905388477E-03 
2376	 1.43321268015577E-03 
2377	 4.51410488711016E-04 
2378	 7.82642646950531E-03 
2379	 0.014638368835116 
2380	-4.56168683161366E-03 
2381	 9.02321355292643E-03 
2382	 0.036538760931596 
2383	 2.41285745897017E-02 
2384	 1.01559129253493E-02 
2385	-1.27037718974424E-02 
2386	-1.88525839647773E-02 
2387	-1.30176886450904E-02 
2388	-1.19517237997886E-02 
2389	 8.41384147220571E-03 
2390	-1.89778266713172E-02 
2391	-3.22827221845476E-02 
2392	-2.14289305753198E-03 
2393	-5.72281044491712E-03 
2394	 1.38794964612049E-02 
2395	 0.028912447933266 
2396	 8.03671557767829E-04 
2397	 1.20918351299001E-02 
2398	 1.90145925736075E-02 
2399	 2.79353021325955E-03 
2400	 1.62672998213768E-03 
2401	-1.36208482313978E-02 
2402	-2.32588717587823E-02 
2403	-2.77755411761391E-02 
2404	-4.30316673003847E-02 
2405	-8.25459652294663E-02 
2406	-0.123620722561178 
2407	-0.118990734533407 
2408	-0.107189796288517 
2409	-6.99736509645144E-02 
2410	-3.48108968215064E-02 
2411	-5.56455796145265E-02 
2412	-9.20606319965881E-02 
2413	-0.10655361497097 
2414	-4.85286212104911E-02 
2415	 1.42467708804763E-03 
2416	-4.94108527412451E-02 
2417	-4.22883541802837E-02 
2418	-5.84254433243762E-03 
2419	-5.76807678305605E-02 
2420	-1.72588462435959E-02 
2421	 1.82965660907708E-03 
2422	-0.13650599135133 
2423	-7.86545786682405E-02 
2424	 1.37622578765127E-02 
2425	-1.42301349456186E-02 
2426	 2.11955488360584E-02 
2427	 3.81392533222578E-02 
2428	-3.04972600135141E-02 
2429	-0.032226117954016 
2430	-1.08758056329786E-02 
2431	-8.75525858118077E-02 
2432	-0.125766056217219 
2433	-8.00452374661397E-02 
2434	-4.78860369584558E-02 
2435	 8.56042463606873E-02 
2436	 0.202392224420036 
2437	 0.165174149373619 
2438	 8.91690156667735E-02 
2439	-0.062901147837621 
2440	-0.197051434044689 
2441	-0.191605097571589 
2442	-8.69888670969311E-02 
2443	-4.45374585636078E-02 
2444	-6.73604951993607E-02 
2445	-5.86574027058488E-02 
2446	-0.184489379532233 
2447	-0.255598422877759 
2448	-0.307695307032523 
2449	-0.232147828374487 
2450	-0.211927006440519 
2451	-0.356631461037252 
2452	-0.259977318149782 
2453	-0.510839208981608 
2454	-0.446490479747255 
2455	 1.12320035101057E-03 
2456	 0.241168279803208 
2457	 0.287883691906247 
2458	 0.15543383430701 
2459	 3.53572722873862E-02 
2460	-0.187379688001704 
2461	-0.150112840784078 
2462	 0.126701021235697 
2463	-6.99454820594723E-02 
2464	-0.330213702612534 
2465	-0.315275410875172 
2466	-0.616610673868833 
2467	-0.706295965796475 
2468	-0.434128108514509 
2469	-0.465275297422642 
2470	-2.89974777142526 
2471	 9.53926103510339 
2472	-0.417532077673334 
2473	 2.24332275507522 
2474	 0.938737047493408 
2475	 0.964604153950172 
2476	 2.23335473105683 
2477	 0.433861492556419 
2478	 0.435442893932129 
2479	 1.31666047946317 
2480	 1.99604350887604 
2481	 16.013121627208 
2482	-2.56853803847067 
2483	-4.29647883317827 
2484	 0.276395885424816 
2485	 3.98313161706766E-02 
2486	 0.23700060802075 
2487	-2.43528043715754 
2488	 1.36262477192733 
2489	 0.440503754939913 
2490	 0.418979784306557 
2491	-0.104384175282506 
2492	-0.476589765816087 
2493	-0.355369201199518 
2494	-0.665249818479897 
2495	-5.21179942710072E-02 
2496	 1.00581219868021 
2497	 4.61590191621869 
2498	 0.4980646620492 
2499	 0.840732606957788 
2500	 0.202316158334531 
