Wavelength	rt0629algea00001.asd
350	 4.83335025904621E-02 
351	 4.65971792952408E-02 
352	 4.77171044598587E-02 
353	 4.88312868424239E-02 
354	 4.81231215445658E-02 
355	 4.79234917947294E-02 
356	 4.79986256440938E-02 
357	 4.78217420122428E-02 
358	 4.71475498694606E-02 
359	 0.047469236378319 
360	 4.76960023840672E-02 
361	 4.75520055245338E-02 
362	 4.73693706449717E-02 
363	 4.69551513064026E-02 
364	 4.71988113434605E-02 
365	 4.80274898455587E-02 
366	 4.78107820380594E-02 
367	 4.74000529793523E-02 
368	 4.73015374503489E-02 
369	 4.75883119661467E-02 
370	 4.71108776379569E-02 
371	 4.69653668359158E-02 
372	 4.71614352953272E-02 
373	 4.71607046209612E-02 
374	 4.77686003036572E-02 
375	 4.80425335047443E-02 
376	 0.047458657711694 
377	 4.63184511039112E-02 
378	 0.047013422570435 
379	 4.77695329606996E-02 
380	 4.70843367879432E-02 
381	 4.75098893587551E-02 
382	 4.79785138854547E-02 
383	 4.81966629567015E-02 
384	 4.82380614463194E-02 
385	 4.80599914660849E-02 
386	 4.77444686494632E-02 
387	 4.75795714850928E-02 
388	 4.80073366238322E-02 
389	 4.81343389263289E-02 
390	 4.81020916834221E-02 
391	 4.82605417879381E-02 
392	 4.90379105639353E-02 
393	 4.89879777374384E-02 
394	 4.84109687303188E-02 
395	 4.82495754613167E-02 
396	 4.89670673350963E-02 
397	 4.94051284482998E-02 
398	 4.92812301249783E-02 
399	 4.91361077428792E-02 
400	 4.92823010782404E-02 
401	 0.049365263460933 
402	 0.049227949478515 
403	 4.93594745245803E-02 
404	 4.98005115739917E-02 
405	 0.050039032783521 
406	 4.96223110208516E-02 
407	 4.96403711861699E-02 
408	 4.98887008799441E-02 
409	 5.01346144066393E-02 
410	 5.02207664217064E-02 
411	 5.02866924311421E-02 
412	 5.03443479866894E-02 
413	 5.03929078216525E-02 
414	 5.04319371946215E-02 
415	 5.07189337341962E-02 
416	 5.10086940285018E-02 
417	 5.09813863437462E-02 
418	 5.12082503071409E-02 
419	 5.14403266959715E-02 
420	 5.15820720080914E-02 
421	 5.17624656328091E-02 
422	 5.20376834052391E-02 
423	 5.22887399683455E-02 
424	 5.24434772118403E-02 
425	 0.05267566503576 
426	 5.27962939271531E-02 
427	 5.29312900037084E-02 
428	 5.33010344037539E-02 
429	 5.36661397293685E-02 
430	 5.38960013926311E-02 
431	 0.054090086625656 
432	 5.45888691280325E-02 
433	 5.49059843153286E-02 
434	 5.51659274696727E-02 
435	 5.55385009944942E-02 
436	 5.59178272279637E-02 
437	 5.62824488121439E-02 
438	 5.65240535930186E-02 
439	 5.65648256314586E-02 
440	 5.69833914610891E-02 
441	 5.73561337188908E-02 
442	 5.75020949742268E-02 
443	 0.057747276688959 
444	 5.81454805260724E-02 
445	 5.84275090493332E-02 
446	 0.058436477536175 
447	 5.88230941736611E-02 
448	 5.91150765226093E-02 
449	 5.92834645109953E-02 
450	 5.96097748248169E-02 
451	 5.97598223695421E-02 
452	 5.98794704734509E-02 
453	 6.00548283865596E-02 
454	 6.00989851887334E-02 
455	 6.02344106900457E-02 
456	 6.04453314323122E-02 
457	 6.06366619863756E-02 
458	 6.08100644546682E-02 
459	 6.09315258999874E-02 
460	 6.09867272894079E-02 
461	 6.09907792764758E-02 
462	 6.11896301727079E-02 
463	 6.13503467491774E-02 
464	 6.13393345755454E-02 
465	 6.15749962075198E-02 
466	 6.17279241108202E-02 
467	 6.17848301878883E-02 
468	 6.18784168904297E-02 
469	 6.19663236885711E-02 
470	 6.21713043812724E-02 
471	 6.24309065818369E-02 
472	 0.062426885104076 
473	 6.25379580019523E-02 
474	 6.26930084710268E-02 
475	 6.27846836349147E-02 
476	 6.30294047716275E-02 
477	 6.31546580512508E-02 
478	 6.32287100807005E-02 
479	 6.35164001585819E-02 
480	 6.36672427048247E-02 
481	 6.38038585677189E-02 
482	 6.40005310925832E-02 
483	 0.064097190384542 
484	 6.42554292199861E-02 
485	 6.45222886220877E-02 
486	 6.48645972449568E-02 
487	 0.065100465018738 
488	 6.53114922443542E-02 
489	 6.55463723427824E-02 
490	 6.58052859432839E-02 
491	 6.60684066436927E-02 
492	 6.62552764859075E-02 
493	 6.64019178835329E-02 
494	 0.066930187125336 
495	 0.067194820142384 
496	 6.72861712905772E-02 
497	 6.76258313003826E-02 
498	 6.79670046177083E-02 
499	 6.82318295050618E-02 
500	 0.068456729643779 
501	 6.88241895875863E-02 
502	 6.92344248250725E-02 
503	 6.96052370950631E-02 
504	 6.98836617674388E-02 
505	 7.00916227133604E-02 
506	 0.070376843528461 
507	 7.07641260813217E-02 
508	 0.071172675354089 
509	 7.15344612525845E-02 
510	 7.18417033970262E-02 
511	 7.21190992444858E-02 
512	 7.24263639011097E-02 
513	 7.28083898805711E-02 
514	 7.32252986342789E-02 
515	 7.35992456090811E-02 
516	 7.39305384625288E-02 
517	 7.42997117289678E-02 
518	 7.47236743361993E-02 
519	 7.51344399618029E-02 
520	 7.55332564079814E-02 
521	 7.59083741698391E-02 
522	 0.076262838193335 
523	 7.66470908199976E-02 
524	 7.69844238936209E-02 
525	 7.73228271487283E-02 
526	 0.077777434442559 
527	 7.81185200907712E-02 
528	 7.85003382012554E-02 
529	 7.89750278514422E-02 
530	 7.92824829081024E-02 
531	 7.96310903553189E-02 
532	 8.00428994971358E-02 
533	 8.04595667271386E-02 
534	 8.07803123741838E-02 
535	 8.11474823219623E-02 
536	 8.15720871643783E-02 
537	 8.19011632871909E-02 
538	 8.22956804057456E-02 
539	 8.26917412329283E-02 
540	 8.30333410492623E-02 
541	 0.083476500662138 
542	 8.38820018731684E-02 
543	 8.42110676256747E-02 
544	 8.45005645038929E-02 
545	 8.48326430622409E-02 
546	 8.51766294586645E-02 
547	 8.55148906605726E-02 
548	 8.58876379056568E-02 
549	 8.62795668182057E-02 
550	 8.66482360020979E-02 
551	 8.69601896878184E-02 
552	 8.72842879014246E-02 
553	 8.76067674637606E-02 
554	 8.79403848153022E-02 
555	 8.83277875086854E-02 
556	 8.85786067758719E-02 
557	 8.88642407072052E-02 
558	 8.93008758829842E-02 
559	 8.95448974187557E-02 
560	 8.97541349962419E-02 
561	 9.00011579431472E-02 
562	 9.02932368530216E-02 
563	 9.05235769736619E-02 
564	 9.07644351477071E-02 
565	 9.10383170793399E-02 
566	 0.091227482288928 
567	 9.13543413057769E-02 
568	 9.15416252261361E-02 
569	 9.18617386876222E-02 
570	 9.18666907612287E-02 
571	 0.091977996235261 
572	 9.22402677047777E-02 
573	 9.22512580645705E-02 
574	 9.23548263200928E-02 
575	 9.24590401036319E-02 
576	 9.24576586156412E-02 
577	 0.092518284803616 
578	 9.25965131776887E-02 
579	 0.092620614248946 
580	 9.25214634091711E-02 
581	 9.24225893109174E-02 
582	 0.0923796035489 
583	 9.23654825653413E-02 
584	 9.22200139284882E-02 
585	 0.09207631381796 
586	 0.091904138678159 
587	 9.16582162440896E-02 
588	 9.15785940722151E-02 
589	 9.14333764887717E-02 
590	 9.11774313987949E-02 
591	 9.09809589375723E-02 
592	 9.07318376335257E-02 
593	 9.04520184963153E-02 
594	 9.01769532811111E-02 
595	 8.98960836937235E-02 
596	 8.94829335724548E-02 
597	 8.90085789007015E-02 
598	 8.86370648554054E-02 
599	 8.82128965573417E-02 
600	 8.77852206799962E-02 
601	 8.74040700206487E-02 
602	 8.70711832630546E-02 
603	 8.69064398693887E-02 
604	 8.67835674469841E-02 
605	 8.65587308278193E-02 
606	 0.086437078117165 
607	 8.63582900757322E-02 
608	 8.62885460495633E-02 
609	 8.62328220273204E-02 
610	 8.61642517457335E-02 
611	 8.60462337934007E-02 
612	 8.58842230126248E-02 
613	 8.58050473407803E-02 
614	 8.57471018972117E-02 
615	 8.56575584101372E-02 
616	 0.085517432655097 
617	 8.55671602398916E-02 
618	 8.55265726463707E-02 
619	 8.53361213895044E-02 
620	 8.53842847237232E-02 
621	 8.52953350815155E-02 
622	 0.085154581247436 
623	 8.51235154194629E-02 
624	 0.084958531157342 
625	 8.49225372404525E-02 
626	 8.49662008463637E-02 
627	 8.47525425432787E-02 
628	 8.46607105493678E-02 
629	 8.46334561154518E-02 
630	 8.45670154848277E-02 
631	 8.44608629342474E-02 
632	 8.44273920740837E-02 
633	 8.44525923187746E-02 
634	 8.44500088488046E-02 
635	 0.084327643084994 
636	 8.41494651185347E-02 
637	 8.40126213906593E-02 
638	 8.40392694778539E-02 
639	 8.39501989180531E-02 
640	 8.38098513665242E-02 
641	 8.37281967764788E-02 
642	 8.35342085510377E-02 
643	 8.34259058597134E-02 
644	 8.33778571668751E-02 
645	 0.083185646946773 
646	 8.29444056698844E-02 
647	 8.27208574134141E-02 
648	 8.25520758531028E-02 
649	 8.24143044852436E-02 
650	 8.21624412964525E-02 
651	 8.18743870601395E-02 
652	 8.16878394128372E-02 
653	 8.14298097166326E-02 
654	 8.10893511565329E-02 
655	 8.06423809953115E-02 
656	 8.01038314855057E-02 
657	 7.98252055130959E-02 
658	 7.95512471765327E-02 
659	 7.90723122753448E-02 
660	 7.86985465643147E-02 
661	 7.84752410054641E-02 
662	 7.82801219462899E-02 
663	 7.79233813365403E-02 
664	 7.76882120312185E-02 
665	 7.75212079437046E-02 
666	 0.077364627555345 
667	 7.72393061400221E-02 
668	 7.71094255612836E-02 
669	 7.69996103090488E-02 
670	 7.69256777542218E-02 
671	 0.076740196373871 
672	 7.66552058576167E-02 
673	 7.66782562221406E-02 
674	 7.66216984818534E-02 
675	 7.66069368539344E-02 
676	 7.66051482848403E-02 
677	 0.076595063033453 
678	 0.07665061036997 
679	 0.076659041840639 
680	 0.076632770191119 
681	 7.66401205272291E-02 
682	 7.66807410648331E-02 
683	 7.68059699618078E-02 
684	 7.69459628262309E-02 
685	 7.68662945302327E-02 
686	 7.68258887693929E-02 
687	 7.68334896770118E-02 
688	 7.68315204402361E-02 
689	 0.076860274935373 
690	 7.68391028586338E-02 
691	 7.67269530356301E-02 
692	 7.65279081086287E-02 
693	 7.65315936232085E-02 
694	 7.64450567590565E-02 
695	 7.61681923860106E-02 
696	 7.60143529861843E-02 
697	 7.57041948510819E-02 
698	 7.53179626750746E-02 
699	 7.50133330616947E-02 
700	 7.46049765432709E-02 
701	 7.42122588263556E-02 
702	 7.38511992432397E-02 
703	 7.34298886873816E-02 
704	 7.28972212483658E-02 
705	 7.23160997483132E-02 
706	 7.17488667428032E-02 
707	 7.11744966806122E-02 
708	 7.05375467128305E-02 
709	 6.98428480883815E-02 
710	 0.069106719681891 
711	 6.82647056289322E-02 
712	 6.73185167471094E-02 
713	 6.63279643711752E-02 
714	 6.53791015899782E-02 
715	 6.44360144892321E-02 
716	 6.34169969999581E-02 
717	 0.062308588384752 
718	 6.09963146831189E-02 
719	 5.98826910399769E-02 
720	 5.90013747353899E-02 
721	 5.80227323102921E-02 
722	 5.70187086035299E-02 
723	 5.58364634460987E-02 
724	 5.45888503958329E-02 
725	 5.33789541503563E-02 
726	 5.23339492988914E-02 
727	 5.11157351663581E-02 
728	 4.95437729177915E-02 
729	 4.81237064679897E-02 
730	 4.66870234865538E-02 
731	 0.045310193452035 
732	 4.40731308329294E-02 
733	 4.30314380993647E-02 
734	 0.042202991591544 
735	 0.041533222594074 
736	 4.08486195538115E-02 
737	 4.03742077976043E-02 
738	 4.00425039269609E-02 
739	 3.97460355600785E-02 
740	 3.94343987087943E-02 
741	 3.93044072356904E-02 
742	 3.92283893182263E-02 
743	 3.89698137958991E-02 
744	 3.89100766764204E-02 
745	 3.89117442152577E-02 
746	 3.88608526888134E-02 
747	 3.87462213037814E-02 
748	 3.87345817318416E-02 
749	 3.87061147193237E-02 
750	 3.85700151481924E-02 
751	 3.85957310854183E-02 
752	 3.84996105772492E-02 
753	 3.83406064384504E-02 
754	 3.83383608887996E-02 
755	 3.83493918026354E-02 
756	 3.82649581560879E-02 
757	 3.81345678078058E-02 
758	 3.82732933603721E-02 
759	 3.82737462577395E-02 
760	 3.81635808269046E-02 
761	 3.82349814391094E-02 
762	 3.80894616796778E-02 
763	 3.79203519382232E-02 
764	 0.037924575824594 
765	 3.81265201344995E-02 
766	 3.80691231557916E-02 
767	 3.80998342497111E-02 
768	 3.82464104112653E-02 
769	 3.82399676737354E-02 
770	 3.83149615477009E-02 
771	 3.83514204750411E-02 
772	 3.82898510876508E-02 
773	 3.84266674662184E-02 
774	 3.85395470954574E-02 
775	 3.86046240893156E-02 
776	 3.86824258832859E-02 
777	 3.87677568045456E-02 
778	 3.89104205385575E-02 
779	 3.91053666625494E-02 
780	 0.039287273864251 
781	 3.93585373526365E-02 
782	 3.94765341991247E-02 
783	 3.97041019458722E-02 
784	 3.97792680740307E-02 
785	 3.99010722591228E-02 
786	 4.01218903057713E-02 
787	 4.04038282207259E-02 
788	 4.05412621695672E-02 
789	 4.07539118672219E-02 
790	 4.10014899930778E-02 
791	 4.10652761163982E-02 
792	 4.13251998615917E-02 
793	 4.16331843918083E-02 
794	 4.18810346430237E-02 
795	 4.21354563963702E-02 
796	 4.23332102746805E-02 
797	 4.24145958305955E-02 
798	 4.24309398092259E-02 
799	 4.27817299387738E-02 
800	 0.042999154012999 
801	 4.30631867477976E-02 
802	 4.32024875148914E-02 
803	 4.33152818894972E-02 
804	 4.34187995309089E-02 
805	 4.34660397627939E-02 
806	 4.33473174119777E-02 
807	 4.33968408774552E-02 
808	 4.34701874445205E-02 
809	 0.04342689130762 
810	 4.34177705899771E-02 
811	 4.31581090138044E-02 
812	 4.28752390980982E-02 
813	 4.29149676401339E-02 
814	 4.27337579902239E-02 
815	 0.042395958404086 
816	 4.20822332906964E-02 
817	 4.19579966256211E-02 
818	 0.041673225288362 
819	 4.12808417958987E-02 
820	 4.08155742726112E-02 
821	 4.02545608961853E-02 
822	 0.039659079577006 
823	 3.89240647271707E-02 
824	 3.80785356043543E-02 
825	 3.74477900215699E-02 
826	 0.036681794273301 
827	 3.57018454032738E-02 
828	 3.46519164337126E-02 
829	 3.38151730328799E-02 
830	 3.30538708001296E-02 
831	 3.23654910241213E-02 
832	 3.18659372329015E-02 
833	 3.14076936520931E-02 
834	 3.10664472027565E-02 
835	 3.07916640445883E-02 
836	 3.03582640641987E-02 
837	 0.030204625814228 
838	 3.00848674305288E-02 
839	 2.97844026970387E-02 
840	 2.95472713265874E-02 
841	 2.93550280348238E-02 
842	 2.91975917083974E-02 
843	 2.90512851047966E-02 
844	 2.88485567855405E-02 
845	 2.87037911293227E-02 
846	 2.85693077455516E-02 
847	 2.83119618997087E-02 
848	 2.81460661408471E-02 
849	 2.79183084385233E-02 
850	 2.76662968097387E-02 
851	 2.76934139006444E-02 
852	 2.77005601053568E-02 
853	 2.76525735319632E-02 
854	 2.75385747822166E-02 
855	 2.72816964779792E-02 
856	 2.69414157012307E-02 
857	 2.67811317742827E-02 
858	 2.69182618473086E-02 
859	 2.68123949827228E-02 
860	 2.66197020405099E-02 
861	 2.64531215379856E-02 
862	 0.026377728718244 
863	 2.63132435350451E-02 
864	 2.62871946104959E-02 
865	 2.61348717005775E-02 
866	 2.56247843059497E-02 
867	 0.025616320997212 
868	 2.57670054636486E-02 
869	 2.57541580907079E-02 
870	 2.55280537227391E-02 
871	 2.52491183709673E-02 
872	 2.49762072065517E-02 
873	 2.47561621862108E-02 
874	 2.46635223786299E-02 
875	 2.45641042680414E-02 
876	 2.45023133373057E-02 
877	 2.44975716828877E-02 
878	 2.42875130521748E-02 
879	 2.39469636480479E-02 
880	 2.36828825522278E-02 
881	 2.36223621180799E-02 
882	 2.30729437392713E-02 
883	 2.31031201964669E-02 
884	 2.34189887661055E-02 
885	 2.28751140630413E-02 
886	 2.28488396186984E-02 
887	 2.32547400154485E-02 
888	 0.023453436126454 
889	 2.25450091275793E-02 
890	 2.24297358904413E-02 
891	 2.26194013718658E-02 
892	 0.022561877503495 
893	 2.24351357807832E-02 
894	 2.25923448386113E-02 
895	 2.26234059089527E-02 
896	 2.21135449634515E-02 
897	 2.14779357312282E-02 
898	 2.12121532141444E-02 
899	 2.12214255044574E-02 
900	 2.12232686530464E-02 
901	 2.13307190141056E-02 
902	 2.14074226936654E-02 
903	 2.12430491452951E-02 
904	 2.08087558397153E-02 
905	 2.10993489218423E-02 
906	 2.07904691332959E-02 
907	 0.020188517643414 
908	 2.06387533775287E-02 
909	 2.08717886181178E-02 
910	 2.07155247936467E-02 
911	 2.02757308728461E-02 
912	 1.98317267482968E-02 
913	 1.96273711115469E-02 
914	 1.95173629086572E-02 
915	 1.93645991134874E-02 
916	 1.91235785485263E-02 
917	 1.87068270226567E-02 
918	 1.83679197016555E-02 
919	 1.81477009708101E-02 
920	 1.77823260600962E-02 
921	 1.78274322656321E-02 
922	 1.80538545877148E-02 
923	 1.83129193955264E-02 
924	 0.018966986799524 
925	 0.018567687893541 
926	 1.73588609894824E-02 
927	 0.016367067060552 
928	 1.72452653476289E-02 
929	 1.79485260238969E-02 
930	 1.76304994346165E-02 
931	 1.62716155924713E-02 
932	 1.47729466250267E-02 
933	 1.39614229067006E-02 
934	 1.47206294928969E-02 
935	 1.64185380110751E-02 
936	 1.57979602694603E-02 
937	 1.51187536592595E-02 
938	 0.015879699549564 
939	 1.81229113879676E-02 
940	 1.86896922017635E-02 
941	 1.61950106472274E-02 
942	 1.28411467284945E-02 
943	 0.012122407052179 
944	 1.20227168125942E-02 
945	 1.37344113512653E-02 
946	 1.40389220425377E-02 
947	 9.58612510751612E-03 
948	 9.93094204437811E-03 
949	 0.010406306797348 
950	 1.04839084448749E-02 
951	 1.24971455103662E-02 
952	 1.69470428825152E-02 
953	 0.017010291395157 
954	 1.26339346018372E-02 
955	 9.35244205777666E-03 
956	 1.42624120679906E-02 
957	 1.53390869623099E-02 
958	 1.11994028329454E-02 
959	 8.69351541497372E-03 
960	 1.02112894501918E-02 
961	 1.24312353640655E-02 
962	 1.30498691820301E-02 
963	 1.18358513578368E-02 
964	 0.012858197743107 
965	 1.38796652627603E-02 
966	 0.01337536474863 
967	 1.13052399819757E-02 
968	 1.13574297813466E-02 
969	 1.11130477525841E-02 
970	 1.09721821764652E-02 
971	 0.013294101901757 
972	 1.18259139376897E-02 
973	 1.09374644197157E-02 
974	 1.17984607218233E-02 
975	 1.16474737439457E-02 
976	 1.29038355243147E-02 
977	 1.27741187994612E-02 
978	 1.16193650723725E-02 
979	 1.23363074072306E-02 
980	 1.20032142506745E-02 
981	 1.23606538700617E-02 
982	 1.33596900698478E-02 
983	 1.34527339169408E-02 
984	 1.37205888074504E-02 
985	 1.31482674344821E-02 
986	 0.012351085562386 
987	 1.29804625868974E-02 
988	 1.39194786563187E-02 
989	 1.39290977266037E-02 
990	 1.26922022440544E-02 
991	 1.10283917725559E-02 
992	 1.16503719730996E-02 
993	 1.30499962034315E-02 
994	 1.31567126685782E-02 
995	 1.09768786350307E-02 
996	 1.16921219881967E-02 
997	 1.27788005864744E-02 
998	 1.20520725638069E-02 
999	 9.43621841003208E-03 
1000	 1.20029165063028E-02 
1001	 1.10280672636013E-02 
1002	 1.12914990802454E-02 
1003	 1.14265698247531E-02 
1004	 1.18038064504177E-02 
1005	 1.19375104541823E-02 
1006	 1.17488264464135E-02 
1007	 1.17841579353218E-02 
1008	 1.18970078332102E-02 
1009	 1.20425734505965E-02 
1010	 1.23490562866098E-02 
1011	 1.23766720930865E-02 
1012	 1.24267728244798E-02 
1013	 1.22036481811992E-02 
1014	 0.01202869472176 
1015	 1.18467634373075E-02 
1016	 1.16309078519963E-02 
1017	 0.011185181056455 
1018	 1.10792013991723E-02 
1019	 1.10363661968461E-02 
1020	 1.11010294411409E-02 
1021	 0.011321312982541 
1022	 1.17330181646795E-02 
1023	 1.21806735912614E-02 
1024	 1.25051127655777E-02 
1025	 1.27625051595584E-02 
1026	 1.28640748551134E-02 
1027	 1.27820277831666E-02 
1028	 0.012291366087015 
1029	 1.21583201264449E-02 
1030	 1.21012450052886E-02 
1031	 1.20118115107189E-02 
1032	 1.20038107673474E-02 
1033	 0.012051898814933 
1034	 1.20980129714395E-02 
1035	 1.20645200880414E-02 
1036	 0.012026226078393 
1037	 1.20606047898909E-02 
1038	 1.20410892046884E-02 
1039	 1.20797520645015E-02 
1040	 0.012177508268647 
1041	 1.24142968494268E-02 
1042	 1.25489206895269E-02 
1043	 1.26460487910805E-02 
1044	 1.27474892765219E-02 
1045	 1.28337477349464E-02 
1046	 1.29605630381841E-02 
1047	 1.31921701668971E-02 
1048	 1.31672143974287E-02 
1049	 1.29936410865945E-02 
1050	 0.012940974216163 
1051	 1.26866036543087E-02 
1052	 1.26298827844121E-02 
1053	 1.29515501865559E-02 
1054	 1.29629601539714E-02 
1055	 1.26276296021631E-02 
1056	 1.26153548803139E-02 
1057	 1.26862060321997E-02 
1058	 1.27244953520217E-02 
1059	 1.28620987525342E-02 
1060	 1.34005736061874E-02 
1061	 1.34712143278516E-02 
1062	 1.32585604307845E-02 
1063	 1.31875923701329E-02 
1064	 1.28709201876337E-02 
1065	 1.29140865935007E-02 
1066	 1.32825890542231E-02 
1067	 0.01341982575736 
1068	 0.01377968278163 
1069	 1.38351432767777E-02 
1070	 1.34170034755025E-02 
1071	 1.32834948536547E-02 
1072	 1.31402460944236E-02 
1073	 1.31086990652636E-02 
1074	 1.30541477795061E-02 
1075	 1.31856806444724E-02 
1076	 1.31433959751466E-02 
1077	 1.29090142738279E-02 
1078	 1.28863110513741E-02 
1079	 0.01299805013532 
1080	 1.30155699311483E-02 
1081	 1.31006703014142E-02 
1082	 1.31107199251942E-02 
1083	 1.29531443989369E-02 
1084	 1.29125199713454E-02 
1085	 1.30188572597701E-02 
1086	 1.29863937253204E-02 
1087	 1.27786173091902E-02 
1088	 1.27884642724836E-02 
1089	 1.29033170050786E-02 
1090	 1.29662325660534E-02 
1091	 1.29289446409751E-02 
1092	 0.013017695996168 
1093	 1.30173330000184E-02 
1094	 1.28042691137114E-02 
1095	 1.26314548549966E-02 
1096	 1.25074052578596E-02 
1097	 1.24118200971787E-02 
1098	 1.20250543624209E-02 
1099	 1.20430069594839E-02 
1100	 1.27395231270955E-02 
1101	 1.28682933303572E-02 
1102	 1.27060523716617E-02 
1103	 1.27047331269759E-02 
1104	 1.25497739008234E-02 
1105	 1.22516465332285E-02 
1106	 1.20069462344569E-02 
1107	 1.23750214429072E-02 
1108	 1.22268106813274E-02 
1109	 1.13596039781146E-02 
1110	 1.13314712785059E-02 
1111	 1.18410319057357E-02 
1112	 1.20079686577003E-02 
1113	 1.28604403102825E-02 
1114	 1.29332066717104E-02 
1115	 1.14694981569454E-02 
1116	 1.11531590774225E-02 
1117	 1.15276113564222E-02 
1118	 1.16289770486033E-02 
1119	 1.33161663517168E-02 
1120	 1.39435265255558E-02 
1121	 1.34004292003188E-02 
1122	 1.06599035567817E-02 
1123	 9.83632386140243E-03 
1124	 8.38365483543794E-03 
1125	 6.35245098599859E-03 
1126	 8.40460027421984E-03 
1127	 8.94317355785348E-03 
1128	 6.25436871443776E-03 
1129	 6.92515068345886E-03 
1130	 9.20045506997224E-03 
1131	 9.83045788478948E-03 
1132	 0.010834942642636 
1133	 1.19066149579532E-02 
1134	 1.25066593100545E-02 
1135	 1.17823523653844E-02 
1136	 1.08336213244151E-02 
1137	 1.07103562714485E-02 
1138	 1.00400824122682E-02 
1139	 9.48270896504394E-03 
1140	 1.00878362289356E-02 
1141	 9.98285634636827E-03 
1142	 8.09028986033949E-03 
1143	 8.28414230983123E-03 
1144	 1.01319181772919E-02 
1145	 9.83385662357801E-03 
1146	 0.010135227747207 
1147	 1.06876914366159E-02 
1148	 8.66743304262578E-03 
1149	 8.63965197091719E-03 
1150	 8.87207412297211E-03 
1151	 8.91475095822078E-03 
1152	 9.2172250446261E-03 
1153	 1.11098637763717E-02 
1154	 1.08693480693676E-02 
1155	 9.60027632945063E-03 
1156	 9.54960774713059E-03 
1157	 9.66882170999568E-03 
1158	 8.99626410497631E-03 
1159	 8.81642160943059E-03 
1160	 9.3923881009052E-03 
1161	 9.50081056434412E-03 
1162	 8.92752292633378E-03 
1163	 9.16109996391155E-03 
1164	 9.4752461246121E-03 
1165	 9.05469167234365E-03 
1166	 9.1694137434024E-03 
1167	 9.67364173580318E-03 
1168	 9.5767781628226E-03 
1169	 9.35018902338483E-03 
1170	 9.5201611569454E-03 
1171	 9.53701247871754E-03 
1172	 9.11932585939578E-03 
1173	 9.10019404120528E-03 
1174	 9.46124495857286E-03 
1175	 9.56365312789879E-03 
1176	 9.16476775843153E-03 
1177	 9.11688065503143E-03 
1178	 9.39305701853161E-03 
1179	 9.44295421246612E-03 
1180	 9.39597268367889E-03 
1181	 0.009430489245953 
1182	 9.22784253004052E-03 
1183	 8.90899014109464E-03 
1184	 8.9732723349245E-03 
1185	 9.33673689628796E-03 
1186	 9.40293877707755E-03 
1187	 9.21236168932032E-03 
1188	 9.14761626314845E-03 
1189	 9.02522029566833E-03 
1190	 8.91601271847956E-03 
1191	 9.07135816343426E-03 
1192	 9.09855085592873E-03 
1193	 9.17063985671534E-03 
1194	 9.07160402575595E-03 
1195	 9.03991215297359E-03 
1196	 8.96147744539674E-03 
1197	 8.88098454122063E-03 
1198	 9.16129984135425E-03 
1199	 9.42815576520648E-03 
1200	 9.2175588492719E-03 
1201	 9.1481890715665E-03 
1202	 9.28202974763339E-03 
1203	 9.10189524695643E-03 
1204	 8.99011809055436E-03 
1205	 9.0309629397884E-03 
1206	 9.0417814694877E-03 
1207	 9.15902711101504E-03 
1208	 9.09204861385919E-03 
1209	 8.83017791469031E-03 
1210	 8.81228387849524E-03 
1211	 8.93914268499372E-03 
1212	 9.03522750486316E-03 
1213	 9.2378902114975E-03 
1214	 9.3322033593311E-03 
1215	 9.20061243572907E-03 
1216	 8.83702619602307E-03 
1217	 8.9929947726405E-03 
1218	 9.38818051674611E-03 
1219	 9.38440621608456E-03 
1220	 9.13624554331346E-03 
1221	 8.90224595272908E-03 
1222	 8.71616503858093E-03 
1223	 8.77046154501165E-03 
1224	 8.94555741021077E-03 
1225	 8.91576736471938E-03 
1226	 8.82336415709044E-03 
1227	 8.94427326733056E-03 
1228	 8.99711596478099E-03 
1229	 8.84560268218064E-03 
1230	 8.92579723434202E-03 
1231	 9.04108902632446E-03 
1232	 9.05510623434136E-03 
1233	 9.21789397707127E-03 
1234	 9.2320881627788E-03 
1235	 9.22001090793395E-03 
1236	 8.95308530448964E-03 
1237	 8.94942620812656E-03 
1238	 9.1410154265039E-03 
1239	 9.14189034034651E-03 
1240	 9.06948129482868E-03 
1241	 9.06545787528997E-03 
1242	 8.87250226410141E-03 
1243	 8.72402991225695E-03 
1244	 8.81768837422197E-03 
1245	 8.72084159212165E-03 
1246	 8.60332191568188E-03 
1247	 8.72761904531559E-03 
1248	 8.69839503116045E-03 
1249	 8.60272568848742E-03 
1250	 8.6783259942666E-03 
1251	 8.65518820666243E-03 
1252	 8.62221330451655E-03 
1253	 8.85383928172946E-03 
1254	 8.98972133016668E-03 
1255	 8.87500539613367E-03 
1256	 8.84376394452384E-03 
1257	 8.77367581786728E-03 
1258	 8.77240174242259E-03 
1259	 8.81484175268829E-03 
1260	 8.7874346717778E-03 
1261	 8.75091542371573E-03 
1262	 8.77452702232188E-03 
1263	 8.7378917608506E-03 
1264	 8.76841219349541E-03 
1265	 8.82067182527117E-03 
1266	 8.7798923002157E-03 
1267	 8.70189372675366E-03 
1268	 8.76143863347134E-03 
1269	 8.85843632534482E-03 
1270	 8.66295472163811E-03 
1271	 8.58290088819443E-03 
1272	 8.74155462508933E-03 
1273	 8.67100905028737E-03 
1274	 8.7419081653072E-03 
1275	 8.89778334669055E-03 
1276	 8.6873414541218E-03 
1277	 8.55217313459342E-03 
1278	 8.78804820929104E-03 
1279	 9.02569357518027E-03 
1280	 8.96882473711065E-03 
1281	 8.88466034068558E-03 
1282	 8.9024879861472E-03 
1283	 8.82096772180956E-03 
1284	 8.24829718467854E-03 
1285	 8.28828124047633E-03 
1286	 8.93482627137329E-03 
1287	 9.00810875930106E-03 
1288	 8.98738641778689E-03 
1289	 9.09403112133432E-03 
1290	 9.13613748391582E-03 
1291	 8.79621573728704E-03 
1292	 8.59166977157914E-03 
1293	 8.69212868195563E-03 
1294	 8.57696990937555E-03 
1295	 8.38095353579277E-03 
1296	 8.56220776475884E-03 
1297	 8.79472649762194E-03 
1298	 8.77050877228721E-03 
1299	 8.74558995347529E-03 
1300	 8.66134845660744E-03 
1301	 8.56814362629064E-03 
1302	 8.64774169836124E-03 
1303	 8.59565921322054E-03 
1304	 8.55261966928768E-03 
1305	 8.61840851298769E-03 
1306	 8.62720213471868E-03 
1307	 8.49082784845792E-03 
1308	 8.51137101184235E-03 
1309	 8.70902135911223E-03 
1310	 8.61534076105809E-03 
1311	 8.21538416263312E-03 
1312	 8.20003842605433E-03 
1313	 8.56811982458083E-03 
1314	 8.5086763590145E-03 
1315	 8.22867185839848E-03 
1316	 8.15892051607073E-03 
1317	 7.82947384314558E-03 
1318	 7.67885385196088E-03 
1319	 7.93764646743827E-03 
1320	 8.13713432260862E-03 
1321	 8.46462292311243E-03 
1322	 8.31951408088933E-03 
1323	 8.02824830175226E-03 
1324	 8.18527196651107E-03 
1325	 8.34717182723464E-03 
1326	 7.75457839255083E-03 
1327	 7.40479383061291E-03 
1328	 8.13307293455614E-03 
1329	 8.22511150947101E-03 
1330	 7.60265152477253E-03 
1331	 7.38768712419799E-03 
1332	 7.6540887501513E-03 
1333	 8.66037193560366E-03 
1334	 8.74240700723533E-03 
1335	 8.54603223735386E-03 
1336	 8.05697863913485E-03 
1337	 7.71569097351842E-03 
1338	 6.40020032819265E-03 
1339	 6.41564608322572E-03 
1340	 7.84260206854978E-03 
1341	 7.67269048405325E-03 
1342	 6.56201885385073E-03 
1343	 6.90032060554886E-03 
1344	 8.11727907811319E-03 
1345	 7.58614920091741E-03 
1346	 6.03761878138021E-03 
1347	 6.51658832268191E-03 
1348	 6.64786773962291E-03 
1349	 6.5357117663149E-03 
1350	 1.39205764006865E-02 
1351	 1.72565141614533E-02 
1352	 4.14087094586681E-03 
1353	-5.15849325576996E-03 
1354	-1.48872120611008E-02 
1355	-1.83330753901656E-02 
1356	-1.42282556123177E-02 
1357	-9.63901509613742E-03 
1358	-3.10535282806125E-02 
1359	-5.34992208610504E-02 
1360	-2.91082849935235E-02 
1361	-2.74267369384815E-02 
1362	-0.129497162634554 
1363	-0.129047330879098 
1364	 2.35549030444121E-02 
1365	-1.48316659467932E-02 
1366	-7.31064629946398E-02 
1367	 5.13290417230573E-02 
1368	 1.76259001001353E-02 
1369	-0.289956753051769 
1370	-0.240585121524509 
1371	 0.289881887672265 
1372	 0.262688955030543 
1373	-0.144855490995694 
1374	 3.39913259581851E-02 
1375	 0.30032874838857 
1376	 0.147973284740295 
1377	 0.170422951684465 
1378	 0.312672713942309 
1379	-9.09661698793189E-02 
1380	-0.32295407509512 
1381	-6.35472653198725E-02 
1382	 6.88658329138549E-02 
1383	-0.22543843723129 
1384	-0.373218814382686 
1385	-0.196622332714366 
1386	-0.127360158674625 
1387	-0.250798708351929 
1388	-0.306879654215092 
1389	 2.96074822863978E-02 
1390	 0.143646177832332 
1391	-0.944800248614406 
1392	-1.34965659327417 
1393	-0.322820115427694 
1394	-0.101967771709063 
1395	 0.180149709041717 
1396	 0.304398239090829 
1397	 0.128727122633939 
1398	 2.35627449092924E-03 
1399	-1.32070854569421E-02 
1400	 8.24320947255647E-02 
1401	 0.404210373887731 
1402	 0.607780236391227 
1403	 0.296314202041573 
1404	 0.189604162063837 
1405	 0.172096053166563 
1406	 0.133382701791173 
1407	 1.90755654563079E-02 
1408	-2.95337696830311E-02 
1409	-5.00581432673656E-02 
1410	-0.229134167083622 
1411	-0.196474339517904 
1412	 0.024455842607508 
1413	 0.046837008811127 
1414	-4.77324013126227E-04 
1415	 1.54777309918194E-02 
1416	 2.45100084271301E-02 
1417	 5.25173479735243E-02 
1418	 0.148411556872696 
1419	 9.80663977348346E-02 
1420	-2.85476059122293E-02 
1421	-3.76261774442391E-02 
1422	-4.54982026538355E-02 
1423	-3.98714361699404E-02 
1424	 1.50684087633003E-02 
1425	 1.91685478450054E-02 
1426	-5.26974927682643E-03 
1427	-1.07890707669868E-02 
1428	-1.46051506042479E-02 
1429	-1.66757615689477E-02 
1430	-2.29634616391355E-02 
1431	-1.77979471427426E-02 
1432	 6.46679486758169E-03 
1433	 7.28674056287526E-03 
1434	-5.93174244516927E-03 
1435	-2.0255663385681E-03 
1436	 4.68695912217889E-03 
1437	-2.47564332850717E-03 
1438	-1.71636970291372E-02 
1439	-1.97571794330261E-02 
1440	-1.47103988522699E-02 
1441	-1.52473149455712E-02 
1442	-1.27484147123581E-03 
1443	 1.44585068271488E-02 
1444	 1.15711707708004E-02 
1445	 5.77362764136154E-03 
1446	 2.30183072690548E-03 
1447	 3.79849284789363E-03 
1448	 4.7971988525951E-03 
1449	 2.80680710332545E-03 
1450	 6.69291160517066E-03 
1451	 1.00848689324576E-02 
1452	 9.35247930037136E-03 
1453	 9.60719953799636E-03 
1454	 8.48247007081212E-03 
1455	 6.24416943316823E-03 
1456	 5.68990671318594E-03 
1457	 5.43486344806783E-03 
1458	 4.55547191569859E-03 
1459	 3.98610661982121E-03 
1460	 3.73827585917981E-03 
1461	 2.01417441730516E-03 
1462	 2.60650671054191E-03 
1463	 6.36633422013931E-03 
1464	 6.57501124284332E-03 
1465	 5.35022813546423E-03 
1466	 5.69126805795304E-03 
1467	 5.22418525524785E-03 
1468	 4.40712433408366E-03 
1469	 4.66021505789326E-03 
1470	 4.76116437458047E-03 
1471	 3.09171336588672E-03 
1472	 2.73792012950539E-03 
1473	 3.56433106674459E-03 
1474	 0.004586664394798 
1475	 7.25846321255403E-03 
1476	 6.65767671884013E-03 
1477	 3.72781480372792E-03 
1478	 4.06079150554703E-03 
1479	 4.14961680837879E-03 
1480	 3.88996813798678E-03 
1481	 6.00658473994982E-03 
1482	 6.70622006002438E-03 
1483	 5.79770571209658E-03 
1484	 5.26462030736119E-03 
1485	 4.76178628790849E-03 
1486	 4.78361552316918E-03 
1487	 4.8688828578316E-03 
1488	 4.83534807315177E-03 
1489	 4.99173138416919E-03 
1490	 5.16309282397076E-03 
1491	 5.33360643874565E-03 
1492	 5.3462924974176E-03 
1493	 5.36684831837411E-03 
1494	 5.46602259017044E-03 
1495	 5.37490205874052E-03 
1496	 5.39972765416376E-03 
1497	 5.65973988044716E-03 
1498	 5.72219314906658E-03 
1499	 5.79050937073367E-03 
1500	 5.72945606517005E-03 
1501	 5.4262341483015E-03 
1502	 5.32752119381394E-03 
1503	 5.32830616864284E-03 
1504	 5.24721458197891E-03 
1505	 5.19670143629491E-03 
1506	 5.04380313817944E-03 
1507	 5.05422149798379E-03 
1508	 5.04806554085359E-03 
1509	 4.81796652595067E-03 
1510	 5.09599281887106E-03 
1511	 5.41328091424776E-03 
1512	 5.23491104906382E-03 
1513	 5.17765745072819E-03 
1514	 5.28323021732199E-03 
1515	 5.20493192821663E-03 
1516	 5.09881336104005E-03 
1517	 5.22345187977934E-03 
1518	 5.40865909348768E-03 
1519	 5.39819390732539E-03 
1520	 0.00530056050448 
1521	 5.2126867640391E-03 
1522	 5.11067613306824E-03 
1523	 5.13401353507652E-03 
1524	 5.34457011675156E-03 
1525	 5.63988292486693E-03 
1526	 5.58240921637269E-03 
1527	 5.16309524311428E-03 
1528	 5.09021796753765E-03 
1529	 5.2286845635877E-03 
1530	 5.21768203060297E-03 
1531	 5.33861609822093E-03 
1532	 5.51810245035688E-03 
1533	 5.50069182379341E-03 
1534	 5.40948092048735E-03 
1535	 5.42027235138614E-03 
1536	 5.45339728361124E-03 
1537	 5.38094285520143E-03 
1538	 5.27254413792478E-03 
1539	 5.32307093898822E-03 
1540	 5.50245048699548E-03 
1541	 5.45203168846944E-03 
1542	 5.43944145923651E-03 
1543	 5.72326795878685E-03 
1544	 5.7132991195526E-03 
1545	 5.62901527653677E-03 
1546	 5.68892502309563E-03 
1547	 5.51574006464129E-03 
1548	 5.44660416357606E-03 
1549	 5.55824826093369E-03 
1550	 5.57623250676787E-03 
1551	 5.58935094123836E-03 
1552	 5.56916509152832E-03 
1553	 5.54240514527411E-03 
1554	 5.61797909965581E-03 
1555	 5.48708707243508E-03 
1556	 5.30607997745701E-03 
1557	 5.37326242711159E-03 
1558	 5.41535901990937E-03 
1559	 5.46679529414047E-03 
1560	 5.51581355397216E-03 
1561	 5.33399571887601E-03 
1562	 5.1946821488419E-03 
1563	 5.44657354275455E-03 
1564	 5.74859975270942E-03 
1565	 5.72335567765504E-03 
1566	 5.74683660653936E-03 
1567	 5.87022289394231E-03 
1568	 5.75240910279543E-03 
1569	 5.78864851223446E-03 
1570	 5.91751499817408E-03 
1571	 5.79071267206267E-03 
1572	 5.72896919973121E-03 
1573	 5.77603321635622E-03 
1574	 5.85341370117575E-03 
1575	 5.82874943340032E-03 
1576	 5.63494959790921E-03 
1577	 5.68534187699668E-03 
1578	 5.94199498066394E-03 
1579	 6.10136547821445E-03 
1580	 6.16965387237864E-03 
1581	 5.97319376131774E-03 
1582	 5.75764586088323E-03 
1583	 5.85668897893921E-03 
1584	 5.95379401816631E-03 
1585	 6.01208241783525E-03 
1586	 6.00034742166606E-03 
1587	 5.93679698388639E-03 
1588	 6.06890234232216E-03 
1589	 6.08702913128669E-03 
1590	 6.04951701942608E-03 
1591	 6.04580167912107E-03 
1592	 5.87065709512371E-03 
1593	 5.81913269498309E-03 
1594	 5.94175263454892E-03 
1595	 5.91945947095702E-03 
1596	 5.77586658738494E-03 
1597	 5.83754716691288E-03 
1598	 5.85620136721177E-03 
1599	 5.68170956220714E-03 
1600	 5.63923789246051E-03 
1601	 5.75922738013101E-03 
1602	 5.87441206730545E-03 
1603	 5.75318048505317E-03 
1604	 5.79012628486378E-03 
1605	 6.15390181852824E-03 
1606	 6.23411117399165E-03 
1607	 6.23356670746851E-03 
1608	 6.41694577889798E-03 
1609	 6.28947792024874E-03 
1610	 5.92627842236591E-03 
1611	 5.85558798898832E-03 
1612	 5.87709526512427E-03 
1613	 5.70699742284257E-03 
1614	 5.79236436814135E-03 
1615	 6.01165570076412E-03 
1616	 5.94718625276671E-03 
1617	 5.92773325172144E-03 
1618	 5.92244359973867E-03 
1619	 5.75642963191683E-03 
1620	 5.8429624634765E-03 
1621	 6.08543211370882E-03 
1622	 6.01132473955667E-03 
1623	 5.82449530031773E-03 
1624	 5.73900274050705E-03 
1625	 5.56040523013372E-03 
1626	 5.48013464472343E-03 
1627	 5.77390786415314E-03 
1628	 6.04373473234229E-03 
1629	 6.13334489850819E-03 
1630	 6.11980215156293E-03 
1631	 6.01411560917748E-03 
1632	 6.07971330668618E-03 
1633	 5.96920059390544E-03 
1634	 5.74362918736411E-03 
1635	 5.96977498532308E-03 
1636	 6.13615683660759E-03 
1637	 5.98699416096995E-03 
1638	 6.12264282712936E-03 
1639	 6.29029014016069E-03 
1640	 5.93033877091547E-03 
1641	 5.69817097947227E-03 
1642	 6.0254313985833E-03 
1643	 6.30108235543939E-03 
1644	 6.25720667962805E-03 
1645	 6.34611646950696E-03 
1646	 6.2971928557598E-03 
1647	 5.75461549210229E-03 
1648	 5.64299080803706E-03 
1649	 5.99160821722151E-03 
1650	 6.16312661599334E-03 
1651	 6.35623284274836E-03 
1652	 6.44468938821167E-03 
1653	 6.22414451558581E-03 
1654	 6.23229802599358E-03 
1655	 6.32021480003071E-03 
1656	 6.25712844329449E-03 
1657	 6.13052629482445E-03 
1658	 6.0520223119923E-03 
1659	 5.92800031968349E-03 
1660	 5.9256127239257E-03 
1661	 6.01568711007164E-03 
1662	 6.11298581718833E-03 
1663	 6.28958833305011E-03 
1664	 6.24650486105364E-03 
1665	 6.16173914533546E-03 
1666	 6.26219189523016E-03 
1667	 6.12760198507422E-03 
1668	 5.97884049955507E-03 
1669	 6.3667727011445E-03 
1670	 6.13271647002078E-03 
1671	 6.02610815294919E-03 
1672	 6.31611608139305E-03 
1673	 6.21288102776307E-03 
1674	 6.16487375348539E-03 
1675	 6.23591921363471E-03 
1676	 6.0605421374213E-03 
1677	 5.83039295161194E-03 
1678	 5.93983821495913E-03 
1679	 6.34387735448025E-03 
1680	 6.40433782294061E-03 
1681	 6.26318261825445E-03 
1682	 6.38623092477446E-03 
1683	 6.37668787477936E-03 
1684	 6.24409548450631E-03 
1685	 6.07932561112644E-03 
1686	 5.78808612279899E-03 
1687	 5.87355742823178E-03 
1688	 6.01958621487357E-03 
1689	 6.01472907314737E-03 
1690	 6.14826896644495E-03 
1691	 5.93094490970556E-03 
1692	 5.69809085856104E-03 
1693	 5.95271676551513E-03 
1694	 6.18429530744022E-03 
1695	 6.03937494672499E-03 
1696	 5.93922226330526E-03 
1697	 5.99362352818618E-03 
1698	 5.76840928470969E-03 
1699	 5.7767178512697E-03 
1700	 5.92317454474956E-03 
1701	 5.77498505949598E-03 
1702	 5.81127297332407E-03 
1703	 5.92785890897741E-03 
1704	 5.9291862923993E-03 
1705	 6.03275335684762E-03 
1706	 6.17562475085708E-03 
1707	 5.9134120539307E-03 
1708	 5.77356035810727E-03 
1709	 6.06084090901477E-03 
1710	 5.89651351407116E-03 
1711	 5.85554551175455E-03 
1712	 5.86080271202262E-03 
1713	 5.3235485329552E-03 
1714	 5.32911137033142E-03 
1715	 5.6493772750693E-03 
1716	 5.55034628002937E-03 
1717	 5.61495941212365E-03 
1718	 5.61153452774893E-03 
1719	 5.37667420127678E-03 
1720	 5.32430839571725E-03 
1721	 5.68683583577567E-03 
1722	 5.61327774824451E-03 
1723	 5.37786859360372E-03 
1724	 5.46177009285552E-03 
1725	 4.90599784032211E-03 
1726	 4.56970227103046E-03 
1727	 5.07853306386044E-03 
1728	 5.18296288644559E-03 
1729	 5.26846517206576E-03 
1730	 5.50164077802433E-03 
1731	 5.18817624376291E-03 
1732	 5.35112054280541E-03 
1733	 5.70194802063456E-03 
1734	 5.26155906983577E-03 
1735	 5.27871525077497E-03 
1736	 5.24731796938409E-03 
1737	 4.82954836989407E-03 
1738	 5.42536062130826E-03 
1739	 5.49164770276772E-03 
1740	 4.76325497182857E-03 
1741	 4.82449966286498E-03 
1742	 5.31708814021733E-03 
1743	 6.04664527117578E-03 
1744	 6.14873412696935E-03 
1745	 5.77130673489472E-03 
1746	 4.76719153948673E-03 
1747	 4.36561947102148E-03 
1748	 5.0974949241787E-03 
1749	 5.38645049845826E-03 
1750	 5.70350245120936E-03 
1751	 5.66224343588848E-03 
1752	 5.11908403905214E-03 
1753	 5.27131632343319E-03 
1754	 5.52626901905312E-03 
1755	 5.25962204178744E-03 
1756	 5.23386659752137E-03 
1757	 4.69947612756298E-03 
1758	 4.3934664585916E-03 
1759	 5.26546089551966E-03 
1760	 6.53304571104433E-03 
1761	 6.4056355885617E-03 
1762	 6.00839821963969E-03 
1763	 5.86499916127106E-03 
1764	 4.90569224982574E-03 
1765	 4.98124441174181E-03 
1766	 5.23729970073586E-03 
1767	 4.19733380927329E-03 
1768	 3.86567736507087E-03 
1769	 4.44572905277473E-03 
1770	 5.00047393775712E-03 
1771	 5.78141118351321E-03 
1772	 5.99693782345403E-03 
1773	 4.71748861260689E-03 
1774	 3.93775060624045E-03 
1775	 3.57636826986611E-03 
1776	 3.58302251137252E-03 
1777	 5.60586787335424E-03 
1778	 5.69781024552516E-03 
1779	 4.27900786018774E-03 
1780	 4.59915394562055E-03 
1781	 4.65796725600426E-03 
1782	 4.12738410025979E-03 
1783	 4.28077733194502E-03 
1784	 4.26298020677716E-03 
1785	 3.50587292259231E-03 
1786	 4.04954049606387E-03 
1787	 6.57859935360819E-03 
1788	 6.86388400895204E-03 
1789	 5.21060008128407E-03 
1790	 3.15556162472843E-03 
1791	 4.07149885791066E-03 
1792	 4.31211187690604E-03 
1793	 5.35318118881277E-03 
1794	 8.72620072678477E-03 
1795	 9.84311692593184E-03 
1796	 1.16634814693616E-02 
1797	 1.38640798083175E-02 
1798	 6.77064249023527E-03 
1799	 2.06930770066179E-03 
1800	 7.06785879170979E-03 
1801	 6.4332804707417E-03 
1802	 0.014283365283128 
1803	 1.85834860062521E-02 
1804	 6.18446880390071E-04 
1805	-4.22248726371108E-03 
1806	 9.53927263249854E-03 
1807	 1.57003222662184E-02 
1808	 3.04867391976661E-02 
1809	 4.62652395547013E-02 
1810	 4.84406200784068E-02 
1811	 9.23773231204375E-02 
1812	 0.18486233111012 
1813	 0.198509834319886 
1814	 0.171563682528787 
1815	 0.147775582151353 
1816	-0.108199074555516 
1817	 6.31661529548443E-02 
1818	 0.409995161082796 
1819	 0.702004913173119 
1820	 0.604268410062713 
1821	-0.118549818687491 
1822	-0.446893796428295 
1823	-1.85311953479645 
1824	-2.80636373397084 
1825	-1.75902560216362 
1826	-1.69702726343487 
1827	-0.655942938360346 
1828	-0.449724445531242 
1829	-0.699895696315214 
1830	-0.600777790002224 
1831	 0.562580662964138 
1832	 0.256510289168783 
1833	-0.730399160783987 
1834	-0.756359518470122 
1835	 0.830985460128089 
1836	 0.83032641242837 
1837	 0.279182910255872 
1838	 0.225164986679988 
1839	-0.311643880001103 
1840	-0.287242543399826 
1841	-0.183023105444932 
1842	 0.387382548671989 
1843	 0.355292945380377 
1844	-0.294844956018824 
1845	-0.449157167467008 
1846	-0.535424490913012 
1847	-0.626366809362556 
1848	-0.947109732398936 
1849	-0.309830402172456 
1850	-0.229635246023225 
1851	 0.290441807953341 
1852	 0.230012541929874 
1853	 0.371881301751412 
1854	 0.420152117083798 
1855	 0.781707810649141 
1856	 1.57632148404023 
1857	 0.579768536491905 
1858	 0.459262540858885 
1859	-1.4140175846688 
1860	-0.879317539335894 
1861	-1.51159076857147 
1862	-12.5589001032616 
1863	-1.22161560643734 
1864	 0.961732233038941 
1865	 1.98143218114592 
1866	-0.553605690760761 
1867	-0.274529948209032 
1868	 2.52494303691401 
1869	 0.814750172179239 
1870	 0.19133848449836 
1871	 3.17477755472959E-02 
1872	 0.082263234919094 
1873	 0.205582311238638 
1874	 0.248522393098431 
1875	 0.540399250254621 
1876	 1.58869809889504 
1877	 4.1962751796423 
1878	-18.711416753348 
1879	-0.833648456968098 
1880	-0.466786725170514 
1881	 0.253871427102552 
1882	 2.3676531937808 
1883	-1.1413918976652 
1884	-1.75526574987997 
1885	-3.7374289143387 
1886	-6.03722229809495 
1887	 1.59083205160861 
1888	 0.828513871519111 
1889	 0.911894474776684 
1890	-2.49571478419269 
1891	-0.8846828837416 
1892	 2.85833281056406E-02 
1893	-0.115251048675991 
1894	-0.870747646143975 
1895	 2.20653967741344 
1896	 2.02834662850233 
1897	 3.48768791451175 
1898	 4.57007952259988 
1899	-1.09086567387426 
1900	-0.54906201391113 
1901	-0.136404757645563 
1902	-3.31570275424913E-02 
1903	-3.09688832676778E-02 
1904	-0.600877876521711 
1905	 0.620302504720817 
1906	 0.51710979842034 
1907	 0.382911778370093 
1908	 0.461217358341502 
1909	 0.456430356613153 
1910	 0.405747507741359 
1911	 1.14666695739933 
1912	 1.98259256466062 
1913	 1.52573194283647 
1914	-26.2965979977739 
1915	 2.66126088333228 
1916	 0.143037958039221 
1917	 1.40000705686002 
1918	 0.945038346472651 
1919	 2.860049830411 
1920	 86.8062425820941 
1921	 4.25751221110304 
1922	 1.9382696492713 
1923	 0.958457922490044 
1924	 0.353315531670479 
1925	 0.307808511444529 
1926	 0.383758297763255 
1927	 1.28344133721303 
1928	 2.09707763224778 
1929	 2.07087508597576 
1930	 0.683402040591692 
1931	 0.181664597487161 
1932	-0.921740686502359 
1933	-0.936028699084281 
1934	-0.543697088057349 
1935	-0.321994659832134 
1936	-0.172190969679223 
1937	-3.72089860243706E-02 
1938	 2.58486048937209E-02 
1939	 8.72700440296845E-02 
1940	 0.110140895973593 
1941	 0.171328582650673 
1942	 0.209476049975517 
1943	 0.143103404929004 
1944	 3.94380170943739E-02 
1945	 2.71715305977491E-02 
1946	 4.19831683007182E-02 
1947	 6.52847975704026E-03 
1948	-4.02161000882464E-02 
1949	-4.05614082190533E-02 
1950	-6.32779564773749E-02 
1951	-6.61059424804739E-02 
1952	-4.80736761786411E-02 
1953	 8.52835999562314E-03 
1954	-2.90181076195159E-03 
1955	-2.27408757364722E-02 
1956	 0.004021137172138 
1957	 1.36791053382604E-02 
1958	 9.50271281487347E-03 
1959	 1.44319979039607E-02 
1960	 1.08374167856978E-02 
1961	-1.55183988621769E-03 
1962	-8.6635145788825E-05 
1963	 8.01802187128121E-03 
1964	 5.15088047026995E-03 
1965	 2.05256102225843E-03 
1966	 2.73151361104859E-03 
1967	 4.25057030579063E-03 
1968	 3.30164053233837E-03 
1969	 1.81827630334818E-03 
1970	 9.19534243662691E-04 
1971	 2.72197556591104E-04 
1972	-5.53969364345799E-05 
1973	 1.02333954792618E-03 
1974	 3.62966367110708E-03 
1975	 5.08426651709953E-03 
1976	 4.06179462070872E-03 
1977	 2.93763543654143E-03 
1978	 2.71156031858753E-03 
1979	 2.38910098947467E-03 
1980	 1.55235691394927E-03 
1981	 1.25099210346433E-03 
1982	 1.37337290209376E-03 
1983	 1.06678419313806E-03 
1984	 6.13107769276168E-04 
1985	 9.15277821577951E-04 
1986	 2.60482625125585E-03 
1987	 3.3818343527186E-03 
1988	 3.95832512189864E-03 
1989	 4.02221689576823E-03 
1990	 2.15381485586266E-03 
1991	 2.06297536033618E-03 
1992	 2.93988076623114E-03 
1993	 2.47909256310475E-03 
1994	 2.06643803864264E-03 
1995	 1.86811935677917E-03 
1996	 1.10685432087817E-03 
1997	 1.60759654043537E-04 
1998	 1.64384184297122E-04 
1999	 8.69174983112894E-04 
2000	 1.42924200405928E-03 
2001	 6.71220490446764E-04 
2002	 1.56564681132096E-04 
2003	 2.15959951685501E-03 
2004	 4.87448288365264E-03 
2005	 3.26273458472504E-03 
2006	 3.52921592508867E-04 
2007	-6.73004944833982E-05 
2008	-2.50164170695599E-03 
2009	-3.10469010380541E-03 
2010	 1.19848494087526E-03 
2011	 2.34230110005614E-03 
2012	 1.38505300195427E-03 
2013	 1.85743712641655E-03 
2014	 2.49594805064467E-03 
2015	 1.20287276876075E-03 
2016	 3.12002912574139E-03 
2017	 3.2396537120296E-03 
2018	 1.70365537581671E-03 
2019	 1.89982283363124E-03 
2020	 1.50191040666732E-03 
2021	 2.65855301482084E-03 
2022	 2.81291193443277E-03 
2023	 2.37101810463898E-03 
2024	 2.48619378219182E-03 
2025	 1.57113454735798E-03 
2026	 1.53091238241988E-03 
2027	 2.19317620570468E-03 
2028	 3.34827578246957E-03 
2029	 3.37593310551128E-03 
2030	 3.06888928198347E-03 
2031	 2.63007085104719E-03 
2032	 2.59977249148914E-03 
2033	 2.97128974450952E-03 
2034	 3.46793277137199E-03 
2035	 3.42573573744256E-03 
2036	 3.24060863868436E-03 
2037	 3.42638269263536E-03 
2038	 3.50356600830902E-03 
2039	 3.39807054616288E-03 
2040	 3.38905085668802E-03 
2041	 3.37419335668253E-03 
2042	 3.26441918758024E-03 
2043	 0.002984633004409 
2044	 2.6635481883798E-03 
2045	 2.52136212846309E-03 
2046	 2.35493381839216E-03 
2047	 2.14091619731997E-03 
2048	 3.18683302984583E-03 
2049	 3.89144994703141E-03 
2050	 3.43246131716331E-03 
2051	 2.94394256478094E-03 
2052	 2.4643783066729E-03 
2053	 1.84946845204993E-03 
2054	 2.21323138173843E-03 
2055	 3.46911870677713E-03 
2056	 3.65230966799706E-03 
2057	 2.92478272203162E-03 
2058	 3.1169336050462E-03 
2059	 3.35548941998015E-03 
2060	 3.08488907893226E-03 
2061	 2.74539032791638E-03 
2062	 3.25045776936124E-03 
2063	 3.14245114542638E-03 
2064	 2.55095449709462E-03 
2065	 2.41471609559432E-03 
2066	 2.3566997008371E-03 
2067	 2.49251102717609E-03 
2068	 3.3930239276507E-03 
2069	 3.54416663023337E-03 
2070	 3.36062427193815E-03 
2071	 3.53440205370044E-03 
2072	 3.30866864453286E-03 
2073	 3.20042179308157E-03 
2074	 3.56884634913636E-03 
2075	 3.91553659899029E-03 
2076	 4.12457973182925E-03 
2077	 3.87535695624383E-03 
2078	 3.35462673445655E-03 
2079	 3.58513491823692E-03 
2080	 3.76304736687403E-03 
2081	 4.11054516102294E-03 
2082	 4.80724993029287E-03 
2083	 5.11278030430463E-03 
2084	 4.59935484911668E-03 
2085	 3.77210717202753E-03 
2086	 3.03688373852562E-03 
2087	 2.81981506808786E-03 
2088	 2.97043800367603E-03 
2089	 3.12746605695747E-03 
2090	 3.79468279446827E-03 
2091	 4.3745321750702E-03 
2092	 4.65599163193578E-03 
2093	 4.64189640264091E-03 
2094	 4.56162635652458E-03 
2095	 4.3198755913087E-03 
2096	 4.32036285230848E-03 
2097	 0.004299151358879 
2098	 4.09196875291833E-03 
2099	 3.9969626460622E-03 
2100	 3.58346308854639E-03 
2101	 3.19902970212553E-03 
2102	 3.44809560856226E-03 
2103	 3.63956899944512E-03 
2104	 4.21592294002481E-03 
2105	 4.73112802675663E-03 
2106	 4.7596279645295E-03 
2107	 5.18198209190185E-03 
2108	 5.06137151493253E-03 
2109	 4.19275303177518E-03 
2110	 3.93357571208466E-03 
2111	 4.24687095951386E-03 
2112	 3.81195156599471E-03 
2113	 3.46745152957097E-03 
2114	 2.95042237162421E-03 
2115	 3.15084715012687E-03 
2116	 3.73515072360928E-03 
2117	 3.88234375230362E-03 
2118	 4.60998233871299E-03 
2119	 4.82714993258221E-03 
2120	 4.36151534677547E-03 
2121	 3.70800603691793E-03 
2122	 3.6513778417477E-03 
2123	 3.57396647248327E-03 
2124	 2.73724890196166E-03 
2125	 2.72585608816275E-03 
2126	 3.08657736312923E-03 
2127	 2.68181602852144E-03 
2128	 2.8238652995215E-03 
2129	 3.27753070442967E-03 
2130	 3.35960917453033E-03 
2131	 4.29551786040841E-03 
2132	 5.53746648386224E-03 
2133	 5.64893621114708E-03 
2134	 5.80991923855823E-03 
2135	 5.67552120467294E-03 
2136	 5.59306529598026E-03 
2137	 5.40761419721153E-03 
2138	 5.20350523149138E-03 
2139	 4.96587900601341E-03 
2140	 4.76898256525321E-03 
2141	 4.32574707140574E-03 
2142	 4.16698762670233E-03 
2143	 4.09595676982031E-03 
2144	 4.19976277379504E-03 
2145	 5.14654775844431E-03 
2146	 5.57320132012608E-03 
2147	 6.07050555833228E-03 
2148	 5.6995368775419E-03 
2149	 4.39291297135356E-03 
2150	 3.57635193018681E-03 
2151	 3.21385069433205E-03 
2152	 3.46935350230422E-03 
2153	 3.67133354432323E-03 
2154	 4.13203978715769E-03 
2155	 4.49533893128583E-03 
2156	 4.46503107945099E-03 
2157	 4.19549705112934E-03 
2158	 3.37618992574338E-03 
2159	 3.10276223348756E-03 
2160	 2.85816268688876E-03 
2161	 2.90900550730517E-03 
2162	 3.83848500776591E-03 
2163	 4.30767887676129E-03 
2164	 4.36155822730785E-03 
2165	 4.41099298452443E-03 
2166	 4.3994667409803E-03 
2167	 4.32854991409043E-03 
2168	 4.11148933802483E-03 
2169	 3.99473588009136E-03 
2170	 3.81101528869359E-03 
2171	 3.90612908598377E-03 
2172	 4.05260921842896E-03 
2173	 4.56905712946739E-03 
2174	 5.59464232827047E-03 
2175	 5.85665042934879E-03 
2176	 5.25881450957882E-03 
2177	 4.76021290900925E-03 
2178	 3.6132718228765E-03 
2179	 3.16625505197121E-03 
2180	 3.9115887146434E-03 
2181	 4.13410156338317E-03 
2182	 4.57124418496018E-03 
2183	 4.7084097003693E-03 
2184	 4.8071572488365E-03 
2185	 4.29098273694104E-03 
2186	 3.41909067512223E-03 
2187	 1.69362914010897E-03 
2188	 1.00270658550222E-03 
2189	-5.1704876664794E-05 
2190	-4.16864441145678E-05 
2191	 1.36649594243957E-03 
2192	 1.89469229141636E-03 
2193	 2.35798072278025E-03 
2194	 3.04179823012704E-03 
2195	 4.08312051897452E-03 
2196	 3.98741556377734E-03 
2197	 3.23766678678186E-03 
2198	 3.44861232431839E-03 
2199	 3.72733835517583E-03 
2200	 2.73396168818716E-03 
2201	 3.14406314901877E-03 
2202	 4.14589126480593E-03 
2203	 4.19107233439582E-03 
2204	 4.7028608363184E-03 
2205	 3.98274726415875E-03 
2206	 2.81600431297343E-03 
2207	 2.56310559714895E-03 
2208	 1.63948644775754E-03 
2209	 2.02124504172361E-03 
2210	 2.4867304558317E-03 
2211	 1.56692670668869E-03 
2212	 1.1424953618757E-03 
2213	 8.24509678786646E-04 
2214	 9.49193051877968E-04 
2215	 6.90210217316629E-04 
2216	 7.38536926977686E-04 
2217	 9.84505600626234E-04 
2218	 1.28359422396112E-03 
2219	 1.47240981751412E-03 
2220	 1.70993298151872E-03 
2221	 1.93810066948009E-03 
2222	 2.65046129309313E-03 
2223	 3.28948268994922E-03 
2224	 3.91254121003508E-03 
2225	 4.53011500979085E-03 
2226	 5.47930158745731E-03 
2227	 5.37156318079767E-03 
2228	 3.77909028464993E-03 
2229	 3.64811101684436E-03 
2230	 4.10938879266934E-03 
2231	 3.83240723533517E-03 
2232	 4.09219855075424E-03 
2233	 4.40213255681462E-03 
2234	 4.23283460279073E-03 
2235	 3.85460911209209E-03 
2236	 3.42508068720396E-03 
2237	 3.76772682575035E-03 
2238	 0.003684297607402 
2239	 2.51063728188728E-03 
2240	 1.93527586705298E-03 
2241	 1.02447672922496E-03 
2242	-7.59472547966887E-04 
2243	-7.6816301844448E-04 
2244	 7.02070207792958E-04 
2245	 2.18723685194709E-03 
2246	 4.26160883320766E-03 
2247	 4.44946201989441E-03 
2248	 3.73630486722377E-03 
2249	 3.49175230683657E-03 
2250	 3.65499801617675E-03 
2251	 4.63996825843018E-03 
2252	 4.64964140018027E-03 
2253	 4.68979943106827E-03 
2254	 4.30941735429482E-03 
2255	 3.34213762444918E-03 
2256	 3.66967427274161E-03 
2257	 3.44492701254278E-03 
2258	 2.14430902049707E-03 
2259	 1.85817366135118E-03 
2260	 1.22090242939197E-03 
2261	-1.07845346028256E-03 
2262	-1.12605187295406E-03 
2263	 4.25139300120232E-04 
2264	 1.41353321364536E-03 
2265	 3.96845249630586E-03 
2266	 3.96080048750024E-03 
2267	 2.0895727512497E-03 
2268	 1.87374509117525E-03 
2269	 5.04584625381384E-04 
2270	 4.72415915173422E-04 
2271	 3.0377947716679E-03 
2272	 3.96856144229323E-03 
2273	 4.1048504169076E-03 
2274	 4.31157915956888E-03 
2275	 4.10286315428456E-03 
2276	 3.66346281085047E-03 
2277	 0.002572233533493 
2278	 2.45270049508661E-03 
2279	 3.58913169625281E-03 
2280	 4.16618047067888E-03 
2281	 4.57516039981961E-03 
2282	 5.0060126695407E-03 
2283	 6.8559303776669E-03 
2284	 6.77933362800684E-03 
2285	 5.89274285253561E-03 
2286	 4.94165368240036E-03 
2287	 1.81705395416733E-03 
2288	-2.02620941053011E-03 
2289	-1.05668918909517E-03 
2290	 4.65096163991392E-04 
2291	 2.18542377582121E-03 
2292	 3.91544585541969E-03 
2293	 1.50609876797256E-03 
2294	 1.89856398827631E-03 
2295	 5.81492586925914E-03 
2296	 7.68389835985264E-03 
2297	 1.03876133041104E-02 
2298	 1.22648799723624E-02 
2299	 8.08726055604681E-03 
2300	 4.02333513237717E-03 
2301	 2.4755318588147E-03 
2302	-1.91963048384681E-04 
2303	 3.54387789977501E-04 
2304	 4.37618390585208E-03 
2305	 5.94368540653305E-03 
2306	 5.35610131030972E-03 
2307	 3.82957781464313E-03 
2308	 1.0182048280674E-03 
2309	-2.20675469795985E-03 
2310	-2.95224140326517E-03 
2311	-9.34517194524336E-04 
2312	-4.6433511530143E-04 
2313	 1.37314666069061E-03 
2314	 3.57881774524608E-03 
2315	 3.27698759056812E-03 
2316	 2.66348251283353E-03 
2317	-4.14049637875167E-05 
2318	 9.47430440903674E-05 
2319	 3.83312091081339E-04 
2320	-7.20920222088875E-04 
2321	 3.58274179875849E-04 
2322	-5.15361759326579E-04 
2323	-1.08493369157955E-04 
2324	 1.1932465592046E-03 
2325	 2.76771280430452E-03 
2326	 3.79497906960966E-03 
2327	 4.54287650318058E-03 
2328	 3.36476832649495E-03 
2329	-2.42243149277628E-03 
2330	-5.73495167035337E-03 
2331	-4.7782355025981E-03 
2332	-6.67106266079679E-04 
2333	 5.62484295484397E-03 
2334	 8.14079346152495E-03 
2335	 2.37500005649783E-03 
2336	-2.66146117891981E-04 
2337	 3.63816450623375E-04 
2338	-3.98534330411465E-03 
2339	-2.86396179117619E-03 
2340	-6.48363682326408E-03 
2341	-1.32396113380629E-02 
2342	-9.84302014838812E-03 
2343	-8.65177490366294E-03 
2344	-5.98534453219915E-03 
2345	-5.37982729732815E-03 
2346	-1.27898557450102E-02 
2347	-9.73986159619412E-03 
2348	 1.08739000078294E-04 
2349	-8.77163711369759E-04 
2350	 4.7253895111169E-03 
2351	 7.43414726326123E-03 
2352	-9.11096587965928E-03 
2353	-1.15254666359504E-02 
2354	-4.88013833082569E-03 
2355	-4.08641873460015E-03 
2356	-6.26867192175687E-03 
2357	-1.56364088732836E-02 
2358	-2.22843018765298E-02 
2359	-2.38531306235804E-02 
2360	-1.92838964864639E-02 
2361	-5.78822369361541E-03 
2362	-8.69200796232857E-04 
2363	-1.15892275216723E-03 
2364	-1.72419327645904E-03 
2365	-7.22918218260433E-03 
2366	-6.98590777359422E-03 
2367	 3.35922398825275E-03 
2368	 1.76259930328988E-02 
2369	 1.98175718365389E-02 
2370	 1.58406823823157E-02 
2371	-2.37902848728531E-03 
2372	-1.86956899904975E-02 
2373	-5.9513882879661E-03 
2374	 7.48907181116108E-03 
2375	 3.27301533575141E-02 
2376	 3.55033459874061E-02 
2377	 6.24906554220672E-03 
2378	 1.69700921152145E-03 
2379	-3.21410885226834E-03 
2380	-1.44872328761746E-03 
2381	 1.48975904948529E-02 
2382	 2.57194756763577E-03 
2383	-2.98112377889704E-02 
2384	-4.03614592540082E-02 
2385	-3.10324498226894E-02 
2386	-3.59082603755712E-02 
2387	-3.60218940694916E-02 
2388	-3.16126149170158E-02 
2389	-4.86833273529231E-02 
2390	-4.31778990706886E-02 
2391	-3.91558981074183E-03 
2392	 1.13441016022116E-02 
2393	 7.93864324058299E-04 
2394	 1.04135165990034E-02 
2395	 1.16164397292883E-02 
2396	 7.69227129181977E-03 
2397	 3.77136392972314E-02 
2398	 0.047590466624979 
2399	 1.39777239524028E-03 
2400	-4.28975503176201E-02 
2401	-0.06676749485556 
2402	-0.073567110341106 
2403	-4.99045762100405E-02 
2404	-2.79612201522912E-02 
2405	-2.77256012321602E-02 
2406	-4.36913492917554E-02 
2407	-3.61274595921796E-02 
2408	-1.88827941499641E-02 
2409	-2.45733808941631E-02 
2410	-1.56278778713784E-02 
2411	-4.89831665614083E-02 
2412	-0.118172033146129 
2413	-0.122600851175791 
2414	-0.119395102336761 
2415	-0.184964102942652 
2416	-0.18937263107273 
2417	-0.143541376964897 
2418	-0.126014149657237 
2419	-5.26942570374754E-02 
2420	-3.77893091697243E-02 
2421	-4.60527390695251E-02 
2422	-4.12470729765357E-02 
2423	-4.81796200589939E-02 
2424	 6.79332867503533E-02 
2425	 0.110715841243509 
2426	 2.87838317199365E-02 
2427	 4.17466181440079E-02 
2428	 5.71265078441015E-02 
2429	 0.020558595602171 
2430	 3.60956044109062E-02 
2431	 4.32437819340387E-03 
2432	-9.42710073877743E-02 
2433	-9.76878318221498E-02 
2434	-8.35698521875185E-02 
2435	-0.160937003172187 
2436	-0.12358285214304 
2437	-7.00625444731914E-02 
2438	-0.101410416778442 
2439	-0.13951050011788 
2440	-9.60208619694181E-02 
2441	-7.80245520993529E-02 
2442	-0.154309936300602 
2443	-0.156259313956948 
2444	-0.110339926784962 
2445	-0.140546354285269 
2446	-0.164515653053488 
2447	-0.296663796044626 
2448	-0.363312867474427 
2449	-0.653691243074528 
2450	-0.822546543144183 
2451	-0.484614321057184 
2452	-0.807796508536512 
2453	-0.815348582564982 
2454	-0.636225289090409 
2455	 6.36967237352335E-03 
2456	 0.45356868823699 
2457	 0.284783690750116 
2458	 0.323060285676859 
2459	 2.53532292596488E-02 
2460	-0.600076373393077 
2461	-0.706897728941591 
2462	-1.15579218266149 
2463	-1.18394292544243 
2464	-0.584485736131345 
2465	-0.163565580511666 
2466	-3.84593113712591E-02 
2467	-0.209926385419867 
2468	-0.456354315671579 
2469	-1.22316954538951 
2470	-9.22637069823157 
2471	 6.95530841790568 
2472	-7.90768006700957E-03 
2473	-4.29559328215914E-02 
2474	-0.636136731053342 
2475	-0.485603685995732 
2476	-0.922288506309145 
2477	-1.00442144128445 
2478	-0.734524056464342 
2479	-0.431720801692407 
2480	-0.707029966132125 
2481	-7.67344443971819 
2482	 0.319598126346657 
2483	 2.91444996629477 
2484	-3.28158107173747 
2485	-1.64764864956538 
2486	-3.67065600086504 
2487	-12.6752049793715 
2488	 1.64687951208567 
2489	 0.092408961107407 
2490	-0.910715953827191 
2491	-2.48834489133336 
2492	-0.904638401430306 
2493	-5.18680161378219E-02 
2494	 1.05828038902078 
2495	 3.31847237029364 
2496	-3.35228043139176 
2497	-15.4794512216264 
2498	 3.13471935868202 
2499	 5.49534250093464 
2500	 9.4640393817073 
