Wavelength	rt0629dirt00003.asd
350	 9.72366017737444E-02 
351	 9.73166385711183E-02 
352	 9.69965766719787E-02 
353	 9.70850791712822E-02 
354	 9.74683428548139E-02 
355	 9.58061540181705E-02 
356	 9.54091683802105E-02 
357	 9.64268169705589E-02 
358	 9.78211980594407E-02 
359	 9.85920694914743E-02 
360	 9.84089853089181E-02 
361	 9.77750859943031E-02 
362	 9.76724008770126E-02 
363	 9.81058623540807E-02 
364	 9.82146475359158E-02 
365	 9.78574132572451E-02 
366	 9.81196655753168E-02 
367	 9.85576671580499E-02 
368	 9.90472987087402E-02 
369	 9.94524742222996E-02 
370	 9.93059460498653E-02 
371	 9.95404493111211E-02 
372	 9.99964681725268E-02 
373	 9.99566733099665E-02 
374	 0.100042390443427 
375	 0.100474196362784 
376	 0.101250397453191 
377	 0.102136431756108 
378	 0.102480696283324 
379	 0.10273907596756 
380	 0.103310818156064 
381	 0.103451193050382 
382	 0.10402998723808 
383	 0.104614955105131 
384	 0.104497977721245 
385	 0.105857463977082 
386	 0.106512506263332 
387	 0.106155054504243 
388	 0.106869137736324 
389	 0.107549952864004 
390	 0.108269308072003 
391	 0.10904613754391 
392	 0.109218483690525 
393	 0.109323329752279 
394	 0.109605748948489 
395	 0.110149061220026 
396	 0.11099977766576 
397	 0.111244155490902 
398	 0.111211211021946 
399	 0.112183821021118 
400	 0.112229747421406 
401	 0.112073641530953 
402	 0.112415581331734 
403	 0.113019429970688 
404	 0.113358911529628 
405	 0.113699701296549 
406	 0.114423311098778 
407	 0.114656116705912 
408	 0.115030828288014 
409	 0.115664715717386 
410	 0.116099890655746 
411	 0.116500269294607 
412	 0.116994566253436 
413	 0.117638885961605 
414	 0.118383157943264 
415	 0.1188041928764 
416	 0.11898985415961 
417	 0.119255717589821 
418	 0.119769353198174 
419	 0.120447801839367 
420	 0.121140252104935 
421	 0.1216661715678 
422	 0.122392691006197 
423	 0.123137147188177 
424	 0.12375749745019 
425	 0.124543255346642 
426	 0.125465315465121 
427	 0.126330162006864 
428	 0.126979821474869 
429	 0.128168610801487 
430	 0.129125998572569 
431	 0.129770491451135 
432	 0.130975517634032 
433	 0.131985840259493 
434	 0.13274470692763 
435	 0.133404499194159 
436	 0.134210624529692 
437	 0.135196170875131 
438	 0.136171478518392 
439	 0.136903773974717 
440	 0.13800174540019 
441	 0.13890822654698 
442	 0.139530530787146 
443	 0.140643369073191 
444	 0.141517090684928 
445	 0.142171949279754 
446	 0.14279676720468 
447	 0.143347976891302 
448	 0.144134265904571 
449	 0.144947429951061 
450	 0.145285377523261 
451	 0.146047940279954 
452	 0.14666012328978 
453	 0.146900428857704 
454	 0.147716923620821 
455	 0.148453128855981 
456	 0.148889377623937 
457	 0.149091757072113 
458	 0.149739146234408 
459	 0.150406393135374 
460	 0.150874595525235 
461	 0.151199495555938 
462	 0.151559938327462 
463	 0.15203442029422 
464	 0.152614082253716 
465	 0.153142325702786 
466	 0.153620777026131 
467	 0.153985174602075 
468	 0.154214336904985 
469	 0.15475709348745 
470	 0.155345445747917 
471	 0.155817940298925 
472	 0.156248319564253 
473	 0.156690674700946 
474	 0.15722144564238 
475	 0.157867732158942 
476	 0.158502757587606 
477	 0.15899762159539 
478	 0.159486392736808 
479	 0.160232362843632 
480	 0.160732226545069 
481	 0.161305950694858 
482	 0.162082444697143 
483	 0.162557970729246 
484	 0.163239486804425 
485	 0.164069207700056 
486	 0.164828906474364 
487	 0.165648432994809 
488	 0.166550664768561 
489	 0.167446210669851 
490	 0.168160532159282 
491	 0.168818589396326 
492	 0.169508453151523 
493	 0.170275349421105 
494	 0.171079551033245 
495	 0.171954716567209 
496	 0.172960350837063 
497	 0.174113492046587 
498	 0.175027178498638 
499	 0.175832230820319 
500	 0.176687729825525 
501	 0.177703137840591 
502	 0.178632716823294 
503	 0.179629924939358 
504	 0.180826164126255 
505	 0.181761713296959 
506	 0.182785292830979 
507	 0.183932977530659 
508	 0.18498548802525 
509	 0.186022287561077 
510	 0.187061354412466 
511	 0.188145730713188 
512	 0.18943272502738 
513	 0.190641583747729 
514	 0.191779734784904 
515	 0.192975585415383 
516	 0.194255145464071 
517	 0.195618112867873 
518	 0.196949274444287 
519	 0.19801321725454 
520	 0.199438408562778 
521	 0.20085983762494 
522	 0.201942953992898 
523	 0.20322818983373 
524	 0.204640493526365 
525	 0.206042872545263 
526	 0.207286804534043 
527	 0.208514910794204 
528	 0.209884034035489 
529	 0.211377420214269 
530	 0.212645017015427 
531	 0.213955928061101 
532	 0.215365259398223 
533	 0.216814792368194 
534	 0.218092844224627 
535	 0.219484167089715 
536	 0.220982560320633 
537	 0.222217648344482 
538	 0.223526392065387 
539	 0.224968222237175 
540	 0.22648202446615 
541	 0.227859775872091 
542	 0.229271321428073 
543	 0.230681633165715 
544	 0.231965075014775 
545	 0.233410449252152 
546	 0.234878634658144 
547	 0.236281354489676 
548	 0.237755137655079 
549	 0.239089658594502 
550	 0.240364370045084 
551	 0.24173343963339 
552	 0.243115551914324 
553	 0.244370931288123 
554	 0.245547623850284 
555	 0.246891930528252 
556	 0.248169607617318 
557	 0.249451186348127 
558	 0.250781498034022 
559	 0.251943931596158 
560	 0.252959310062154 
561	 0.253999755845587 
562	 0.255283964673459 
563	 0.256372185347158 
564	 0.257405081403258 
565	 0.258408288876105 
566	 0.258999633325905 
567	 0.259805645443792 
568	 0.260709997528011 
569	 0.261415720786264 
570	 0.262343727469914 
571	 0.263307518145444 
572	 0.264105795882809 
573	 0.264576753719914 
574	 0.265289992692883 
575	 0.266080794493513 
576	 0.266699836641874 
577	 0.267252333626909 
578	 0.267690199779885 
579	 0.268038924678704 
580	 0.268369519948159 
581	 0.2687072115821 
582	 0.269002864581571 
583	 0.269186288634675 
584	 0.269149306262097 
585	 0.269163749710677 
586	 0.269060749743603 
587	 0.268625822887613 
588	 0.268459113782896 
589	 0.268324262656289 
590	 0.268099555943599 
591	 0.267848977136569 
592	 0.267713235453288 
593	 0.267563428130284 
594	 0.267283118784601 
595	 0.266980329295256 
596	 0.266446937536155 
597	 0.265795751669975 
598	 0.265302131333825 
599	 0.264859992919899 
600	 0.264460472012886 
601	 0.264083629873303 
602	 0.263666938650686 
603	 0.263331688678567 
604	 0.263255870840226 
605	 0.263472733299066 
606	 0.263216755608561 
607	 0.263059226136532 
608	 0.263117856769963 
609	 0.262995246207696 
610	 0.263186592060261 
611	 0.263369585027192 
612	 0.263292183823253 
613	 0.263437636515979 
614	 0.26340385668612 
615	 0.263259915783458 
616	 0.263322281413122 
617	 0.263550693708978 
618	 0.263581611424905 
619	 0.263385094293417 
620	 0.263514420584559 
621	 0.26366328998717 
622	 0.263704478865747 
623	 0.26359663006696 
624	 0.263449717575514 
625	 0.263370234439172 
626	 0.263332812975633 
627	 0.26320728326126 
628	 0.263438016208105 
629	 0.263527222055205 
630	 0.263235370900097 
631	 0.263497595339194 
632	 0.263491978896775 
633	 0.263268309941998 
634	 0.26324907099801 
635	 0.26325544405721 
636	 0.263271940393601 
637	 0.263258139549778 
638	 0.263115083616414 
639	 0.26311564991564 
640	 0.263269603077237 
641	 0.263404063516476 
642	 0.262979792173494 
643	 0.262640591658707 
644	 0.262496236258453 
645	 0.262185711735522 
646	 0.2614436663542 
647	 0.260853353968022 
648	 0.260779109695478 
649	 0.260676817483853 
650	 0.260354256797005 
651	 0.259906259224619 
652	 0.259538635563001 
653	 0.259127354423235 
654	 0.258357072786677 
655	 0.257208286105071 
656	 0.256254208433198 
657	 0.255570443761899 
658	 0.255103641644562 
659	 0.254675011648888 
660	 0.253816321442161 
661	 0.253304518984827 
662	 0.253006268843253 
663	 0.252296683738302 
664	 0.251719390457144 
665	 0.251265337443605 
666	 0.250886164359991 
667	 0.250612528475946 
668	 0.250285060035678 
669	 0.249885448123382 
670	 0.249483363731236 
671	 0.249275637126228 
672	 0.249221610948209 
673	 0.249143060398461 
674	 0.248781215643061 
675	 0.248590041493021 
676	 0.248449559459518 
677	 0.248250918769971 
678	 0.24821749646538 
679	 0.248129853148066 
680	 0.247933935326522 
681	 0.24766072217231 
682	 0.247307845960712 
683	 0.247232957044416 
684	 0.247312529089377 
685	 0.246719149665408 
686	 0.245860454183561 
687	 0.245337198261335 
688	 0.245414374254862 
689	 0.2450899698728 
690	 0.244482157421496 
691	 0.243664017949521 
692	 0.242703954245958 
693	 0.241889794426935 
694	 0.241358664955583 
695	 0.240926354839478 
696	 0.239975914263714 
697	 0.238770975633076 
698	 0.237550017605107 
699	 0.236551936324836 
700	 0.23530752869647 
701	 0.234013004338748 
702	 0.232728972701082 
703	 0.231346710356227 
704	 0.230122239328976 
705	 0.228690352884917 
706	 0.226943874592285 
707	 0.22541188347525 
708	 0.223629783187124 
709	 0.221566943219405 
710	 0.219369080467266 
711	 0.217173065955513 
712	 0.214898385247713 
713	 0.212384866698956 
714	 0.209351315169902 
715	 0.206505943677688 
716	 0.203332222864278 
717	 0.199493284993407 
718	 0.195541260705259 
719	 0.192498128166078 
720	 0.190561817605833 
721	 0.188747413809563 
722	 0.18580355552067 
723	 0.182209381259219 
724	 0.178893278543139 
725	 0.175880094798196 
726	 0.172282410511626 
727	 0.168545653804408 
728	 0.165088489062803 
729	 0.161282511441949 
730	 0.156779387029776 
731	 0.152673967237371 
732	 0.149850657532686 
733	 0.146900848989364 
734	 0.144057515972291 
735	 0.141622538092129 
736	 0.139827343350469 
737	 0.138375431990374 
738	 0.13716520134265 
739	 0.136198418850508 
740	 0.135564176789905 
741	 0.134980665476522 
742	 0.134366724975602 
743	 0.133785096778884 
744	 0.133554379198792 
745	 0.133241867747161 
746	 0.132775453499023 
747	 0.132650072670582 
748	 0.132379129988213 
749	 0.132055146946459 
750	 0.131822572900143 
751	 0.131471163668943 
752	 0.131287810776651 
753	 0.131199965368937 
754	 0.130942096221485 
755	 0.130434957777608 
756	 0.130144514092776 
757	 0.130166520782771 
758	 0.129982586911989 
759	 0.129377252079552 
760	 0.128664986752996 
761	 0.128729756456575 
762	 0.128395700275052 
763	 0.128318401994352 
764	 0.128662285503142 
765	 0.129249603519918 
766	 0.129605278129927 
767	 0.129664985320559 
768	 0.129628423622809 
769	 0.129913430258219 
770	 0.130031916850171 
771	 0.13010228298538 
772	 0.13027891535437 
773	 0.130462207086377 
774	 0.130845487286691 
775	 0.131134391357172 
776	 0.131034706154733 
777	 0.13158233260278 
778	 0.132063525493218 
779	 0.132344759436893 
780	 0.132957895130035 
781	 0.133146600139463 
782	 0.133482910442852 
783	 0.134254576221299 
784	 0.134554095354812 
785	 0.134989853249621 
786	 0.135484218134693 
787	 0.135805357393505 
788	 0.136243233152408 
789	 0.136900570003671 
790	 0.137609090274079 
791	 0.138076751034463 
792	 0.138957925183541 
793	 0.139694874213635 
794	 0.140064293119565 
795	 0.140605842835865 
796	 0.141147623979157 
797	 0.141648384132651 
798	 0.142128087009118 
799	 0.142597571925838 
800	 0.143302474414863 
801	 0.143991737408614 
802	 0.144224224604748 
803	 0.144328314412544 
804	 0.144822997985304 
805	 0.145404738713642 
806	 0.14497482059059 
807	 0.144824649088153 
808	 0.144934116211891 
809	 0.144952532303564 
810	 0.144346723811165 
811	 0.143788895662404 
812	 0.143305104880247 
813	 0.142636142759433 
814	 0.141650989986385 
815	 0.140707483804197 
816	 0.140185247142217 
817	 0.140146816416844 
818	 0.139312097101156 
819	 0.13791955971947 
820	 0.136512942840618 
821	 0.13591654075116 
822	 0.13386724229824 
823	 0.131118159670784 
824	 0.128942044287918 
825	 0.12742856308142 
826	 0.125171812578996 
827	 0.121942812275885 
828	 0.118469363481374 
829	 0.116095013002846 
830	 0.114029138790758 
831	 0.111999742080299 
832	 0.110242591649421 
833	 0.108069282608413 
834	 0.106949743428156 
835	 0.1067592847395 
836	 0.105195159437156 
837	 0.104434940149047 
838	 0.104072638653885 
839	 0.103416234168417 
840	 0.102440921892989 
841	 0.101698849662326 
842	 0.101355111608906 
843	 0.101239221046571 
844	 0.100524176128753 
845	 9.98688443622232E-02 
846	 9.93875880967551E-02 
847	 9.88276027134228E-02 
848	 9.86121495508067E-02 
849	 9.80278909683097E-02 
850	 9.70741847677743E-02 
851	 0.096748883806147 
852	 9.65898226123369E-02 
853	 0.096198024931561 
854	 9.54308968674454E-02 
855	 9.46177526633688E-02 
856	 0.094346983275758 
857	 0.094309708952514 
858	 9.40082566849801E-02 
859	 9.32165736941249E-02 
860	 9.30220025447985E-02 
861	 9.30518073805714E-02 
862	 9.23887793316112E-02 
863	 0.091859603896625 
864	 9.15899089220342E-02 
865	 9.12929019127513E-02 
866	 9.04605426841275E-02 
867	 8.99534806688223E-02 
868	 8.93028305242423E-02 
869	 8.86683968265934E-02 
870	 8.91693738161741E-02 
871	 8.82600491666514E-02 
872	 8.72622432594696E-02 
873	 8.71762249106363E-02 
874	 8.63052440320135E-02 
875	 8.58554242556726E-02 
876	 8.57115916829218E-02 
877	 0.085298503474578 
878	 8.38761735490988E-02 
879	 8.32824009002826E-02 
880	 8.33527377197772E-02 
881	 8.29606960331068E-02 
882	 8.18663826065036E-02 
883	 8.14608290629285E-02 
884	 8.14813277832084E-02 
885	 8.05397338038868E-02 
886	 7.95770743970295E-02 
887	 7.92279821842002E-02 
888	 7.93765420499048E-02 
889	 7.91266480442665E-02 
890	 7.84960664026737E-02 
891	 7.75938339177975E-02 
892	 7.68225132595588E-02 
893	 7.70576552629296E-02 
894	 7.54652565338683E-02 
895	 7.47086408772158E-02 
896	 7.65314505223059E-02 
897	 7.35197947672618E-02 
898	 7.28663053683347E-02 
899	 7.31776416966037E-02 
900	 7.16415233892447E-02 
901	 7.24120949591414E-02 
902	 7.32120774674255E-02 
903	 7.27998166457762E-02 
904	 7.11978176534947E-02 
905	 7.23351399820046E-02 
906	 7.20056134466124E-02 
907	 0.069963085215466 
908	 6.90491508965686E-02 
909	 6.85779502724994E-02 
910	 6.82623836277092E-02 
911	 6.76573494514547E-02 
912	 6.64477637607108E-02 
913	 6.65590235076813E-02 
914	 6.54477893454787E-02 
915	 6.34900449276482E-02 
916	 6.43138301458701E-02 
917	 6.31281516840734E-02 
918	 6.32873797164279E-02 
919	 6.45250339989168E-02 
920	 6.10713596521752E-02 
921	 6.09164073700677E-02 
922	 0.060829286341222 
923	 5.83787983100717E-02 
924	 0.057521152885214 
925	 5.73767576295766E-02 
926	 5.64875800104764E-02 
927	 5.42992108448342E-02 
928	 0.055306319751001 
929	 5.41766570043085E-02 
930	 0.052586161434682 
931	 5.53796879439909E-02 
932	 5.11231560701137E-02 
933	 5.28114409087338E-02 
934	 5.97533817483574E-02 
935	 5.92601909969629E-02 
936	 3.96543699739163E-02 
937	 4.34332825910049E-02 
938	 5.06534831708603E-02 
939	 3.75765769783437E-02 
940	 4.08245621960978E-02 
941	 0.043387017995791 
942	 4.27490549409952E-02 
943	 4.34877675359623E-02 
944	 4.52169288570288E-02 
945	 3.83085848764448E-02 
946	 3.41837588071577E-02 
947	 4.68286381311872E-02 
948	 3.23762744428551E-02 
949	 3.89112992778537E-02 
950	 5.48447185965285E-02 
951	 0.041639927349068 
952	 4.18009607792714E-02 
953	 0.048296593218636 
954	 4.97016533052584E-02 
955	 3.92307217133663E-02 
956	 3.62545202515542E-02 
957	 0.037225541164558 
958	 4.16432512247777E-02 
959	 4.98533933020634E-02 
960	 4.40228272110699E-02 
961	 4.06858085707405E-02 
962	 4.31990475958247E-02 
963	 4.39288190028599E-02 
964	 4.18022208599478E-02 
965	 3.82172403395739E-02 
966	 3.64204621471885E-02 
967	 3.92449822123616E-02 
968	 3.94318309653409E-02 
969	 3.92983981994026E-02 
970	 3.91676011954595E-02 
971	 3.75493134828325E-02 
972	 3.86025658048072E-02 
973	 4.12492893674895E-02 
974	 4.27306078968574E-02 
975	 4.02628028137262E-02 
976	 3.71984883865561E-02 
977	 3.74577879701359E-02 
978	 3.98197389926999E-02 
979	 3.94336000854365E-02 
980	 3.73570312150764E-02 
981	 3.84980808923587E-02 
982	 4.08149944752151E-02 
983	 3.81531571838517E-02 
984	 3.73059665626696E-02 
985	 0.039566664072298 
986	 4.10719740076115E-02 
987	 3.65246165088499E-02 
988	 3.57745878267518E-02 
989	 0.037853980902443 
990	 0.039905418959478 
991	 3.95116537356668E-02 
992	 4.12055351859454E-02 
993	 3.85226948064579E-02 
994	 3.58732713527271E-02 
995	 4.16391270845031E-02 
996	 3.77484696966564E-02 
997	 3.79994072003863E-02 
998	 4.03920109843611E-02 
999	 3.52695937911411E-02 
1000	 3.58611035749204E-02 
1001	 4.07979483735578E-02 
1002	 4.15356400049125E-02 
1003	 4.19234752447645E-02 
1004	 4.30868196307594E-02 
1005	 4.28578002053387E-02 
1006	 4.10021671587131E-02 
1007	 4.06210138134576E-02 
1008	 4.09654185942564E-02 
1009	 4.06177483429093E-02 
1010	 0.043040101425315 
1011	 4.47654756883372E-02 
1012	 4.42122222649921E-02 
1013	 0.043882654917413 
1014	 4.37346185296661E-02 
1015	 4.28781337581298E-02 
1016	 4.29460419925821E-02 
1017	 4.37118515993466E-02 
1018	 4.42294453200904E-02 
1019	 4.50815367292708E-02 
1020	 4.53991104434569E-02 
1021	 4.54374351290294E-02 
1022	 4.59986576410099E-02 
1023	 4.56350510023044E-02 
1024	 4.46674362957462E-02 
1025	 4.33756492261685E-02 
1026	 4.20861209167228E-02 
1027	 4.23648031734751E-02 
1028	 4.35092340956161E-02 
1029	 4.44551421867944E-02 
1030	 4.69851760795174E-02 
1031	 4.78365441723299E-02 
1032	 4.81247889752298E-02 
1033	 4.80710567400303E-02 
1034	 4.67079455221311E-02 
1035	 4.64387232130095E-02 
1036	 4.62996419334664E-02 
1037	 4.60595567125239E-02 
1038	 4.58676966182405E-02 
1039	 4.68066164774823E-02 
1040	 4.65604342613294E-02 
1041	 4.62348467328865E-02 
1042	 4.62411382981004E-02 
1043	 4.62469702499345E-02 
1044	 4.63679241787037E-02 
1045	 4.67079068931707E-02 
1046	 4.70509337941302E-02 
1047	 4.74539927827732E-02 
1048	 4.79649722794697E-02 
1049	 4.86904601499559E-02 
1050	 4.92396170251224E-02 
1051	 5.01952591048031E-02 
1052	 5.02591921314343E-02 
1053	 0.049055226529782 
1054	 4.91131043359123E-02 
1055	 4.92438396298476E-02 
1056	 4.95532989227693E-02 
1057	 5.02905456676502E-02 
1058	 5.24639361021119E-02 
1059	 5.30101946977266E-02 
1060	 5.32222457353875E-02 
1061	 5.26897219437699E-02 
1062	 5.05545036080338E-02 
1063	 0.050374578472517 
1064	 5.06791245525084E-02 
1065	 5.06684782058178E-02 
1066	 5.20589059167701E-02 
1067	 0.052316048513909 
1068	 5.07939264469906E-02 
1069	 5.06391925580364E-02 
1070	 5.19039722310846E-02 
1071	 5.18546147732676E-02 
1072	 5.13462255064223E-02 
1073	 5.09579067423903E-02 
1074	 5.08737865837539E-02 
1075	 0.05007661730681 
1076	 4.97334874645664E-02 
1077	 5.03032195478097E-02 
1078	 5.03736278353185E-02 
1079	 4.98098444943255E-02 
1080	 4.97075868527925E-02 
1081	 5.00032483201669E-02 
1082	 5.01371518708671E-02 
1083	 5.02053210305102E-02 
1084	 5.02743465566186E-02 
1085	 5.05721075859487E-02 
1086	 5.07828688233184E-02 
1087	 0.050856286355245 
1088	 5.07572128805574E-02 
1089	 5.04510382919333E-02 
1090	 0.050405056075774 
1091	 5.00778852152891E-02 
1092	 4.96277252799944E-02 
1093	 4.92519731812001E-02 
1094	 4.84392559660564E-02 
1095	 4.82341888683272E-02 
1096	 4.87359857127246E-02 
1097	 4.82576977027534E-02 
1098	 4.76376593267504E-02 
1099	 4.72886906185155E-02 
1100	 4.54530280641247E-02 
1101	 4.52674524535581E-02 
1102	 4.75959077814979E-02 
1103	 4.79511829215249E-02 
1104	 4.76001103825249E-02 
1105	 4.79372178854683E-02 
1106	 4.73291791067595E-02 
1107	 4.55778204126056E-02 
1108	 4.75748390850696E-02 
1109	 4.92084604253681E-02 
1110	 4.89517191605021E-02 
1111	 4.79020103976295E-02 
1112	 4.72222486624443E-02 
1113	 4.18239510922238E-02 
1114	 4.32984125254516E-02 
1115	 5.59003848528263E-02 
1116	 5.73116768846937E-02 
1117	 5.24798083719192E-02 
1118	 5.18833049450552E-02 
1119	 0.034951292682499 
1120	 3.03760579366219E-02 
1121	 5.15563010914817E-02 
1122	 7.15490421655371E-02 
1123	 8.03993514924063E-02 
1124	 7.65061873429405E-02 
1125	 4.52899442428508E-02 
1126	 0.029801913656248 
1127	 0.044344736905201 
1128	 5.28246005035973E-02 
1129	 4.99758210991505E-02 
1130	 5.37948744652372E-02 
1131	 5.13166718057194E-02 
1132	 2.79674230235312E-02 
1133	 3.17319681915193E-02 
1134	 5.57081787990196E-02 
1135	 5.88434975711793E-02 
1136	 6.14371064808412E-02 
1137	 6.08428644074435E-02 
1138	 5.15904170875597E-02 
1139	 4.31134323699577E-02 
1140	 4.24168448120691E-02 
1141	 4.43539874512016E-02 
1142	 4.74731417337305E-02 
1143	 4.69635487927367E-02 
1144	 4.63643402163717E-02 
1145	 4.28072243272879E-02 
1146	 3.55426644349614E-02 
1147	 3.21042369824159E-02 
1148	 2.97289614411735E-02 
1149	 3.06496733279528E-02 
1150	 0.03187961114571 
1151	 3.33793686817966E-02 
1152	 3.40900040427128E-02 
1153	 3.88033075225021E-02 
1154	 3.81237812652038E-02 
1155	 3.30805887211695E-02 
1156	 3.34525849043756E-02 
1157	 3.72315126582308E-02 
1158	 3.58340840122899E-02 
1159	 3.62597837539851E-02 
1160	 3.88462106035126E-02 
1161	 4.01747134757945E-02 
1162	 4.05002632284515E-02 
1163	 4.08391881229002E-02 
1164	 3.92907039177238E-02 
1165	 3.54305481367713E-02 
1166	 3.34350912962265E-02 
1167	 3.37429230896739E-02 
1168	 3.47309800376517E-02 
1169	 3.68768787223682E-02 
1170	 3.76552812735338E-02 
1171	 3.75977682526637E-02 
1172	 3.62614686984407E-02 
1173	 3.61526023396206E-02 
1174	 3.61592891116671E-02 
1175	 3.50016556739123E-02 
1176	 3.56466261777848E-02 
1177	 3.60540218078019E-02 
1178	 3.47861532873846E-02 
1179	 3.44532301783249E-02 
1180	 3.56351138933445E-02 
1181	 3.59733076453218E-02 
1182	 0.036550982912827 
1183	 3.76310541019485E-02 
1184	 3.64529053263932E-02 
1185	 3.60589254398535E-02 
1186	 3.68752150218778E-02 
1187	 3.63497087294866E-02 
1188	 3.68274368655764E-02 
1189	 3.69576420895928E-02 
1190	 3.56239158930215E-02 
1191	 3.61383024180022E-02 
1192	 0.036886995364574 
1193	 3.88714617616289E-02 
1194	 3.86293779397805E-02 
1195	 3.66340682983528E-02 
1196	 3.52871818228644E-02 
1197	 3.44132717692955E-02 
1198	 3.49976091269721E-02 
1199	 3.77271519075421E-02 
1200	 3.86123424308264E-02 
1201	 3.71681346578654E-02 
1202	 3.53536619169653E-02 
1203	 3.43215321261532E-02 
1204	 3.47422639076592E-02 
1205	 3.63632033709631E-02 
1206	 0.038000995267828 
1207	 3.82569942991376E-02 
1208	 3.83986524492876E-02 
1209	 3.84038615404131E-02 
1210	 3.69337387577903E-02 
1211	 3.57182442030126E-02 
1212	 3.59149006877327E-02 
1213	 0.036025798065207 
1214	 3.60291054217724E-02 
1215	 0.036360556047003 
1216	 3.74641540193687E-02 
1217	 3.70013233621773E-02 
1218	 3.64464240784492E-02 
1219	 3.77713582263706E-02 
1220	 3.78858145758418E-02 
1221	 0.037642534509418 
1222	 3.81510125923707E-02 
1223	 0.03806465774369 
1224	 3.73398149897293E-02 
1225	 3.69381538069501E-02 
1226	 0.036911741713525 
1227	 3.66357853770035E-02 
1228	 3.64038207632088E-02 
1229	 3.62864046046723E-02 
1230	 3.70591923697562E-02 
1231	 3.72260064819503E-02 
1232	 3.59194835682877E-02 
1233	 0.03542737153015 
1234	 3.58022399948874E-02 
1235	 3.58249601607911E-02 
1236	 3.60777869879576E-02 
1237	 3.61751255046884E-02 
1238	 3.63869593057102E-02 
1239	 3.60410441308527E-02 
1240	 3.58477671054315E-02 
1241	 3.60236994686692E-02 
1242	 0.036903657225981 
1243	 3.68926415427233E-02 
1244	 3.57500839213696E-02 
1245	 3.57734859698885E-02 
1246	 3.54313333232871E-02 
1247	 3.47664725607452E-02 
1248	 3.59022786487111E-02 
1249	 3.72437521845089E-02 
1250	 3.77032841696673E-02 
1251	 3.77023259642649E-02 
1252	 3.71513898200057E-02 
1253	 3.69527590601109E-02 
1254	 3.74651901449982E-02 
1255	 0.037547099458901 
1256	 3.75739262408383E-02 
1257	 3.75978967829356E-02 
1258	 3.72347457680067E-02 
1259	 3.61864926394842E-02 
1260	 3.58878406056347E-02 
1261	 3.56877866424438E-02 
1262	 3.51822816621678E-02 
1263	 3.44921273058154E-02 
1264	 3.50132887178656E-02 
1265	 3.50119517269348E-02 
1266	 3.47973134584279E-02 
1267	 3.60944916438767E-02 
1268	 3.73982227219991E-02 
1269	 3.71145339630242E-02 
1270	 3.66181920714364E-02 
1271	 3.51034508707398E-02 
1272	 3.39128406722916E-02 
1273	 3.48386113314556E-02 
1274	 3.56225953119394E-02 
1275	 3.56051083735275E-02 
1276	 3.52936879507874E-02 
1277	 3.52951730978293E-02 
1278	 3.56817051129407E-02 
1279	 3.51261781481956E-02 
1280	 3.47078260880438E-02 
1281	 0.03482406802362 
1282	 3.43773125790509E-02 
1283	 3.43236701889291E-02 
1284	 3.54347856161227E-02 
1285	 3.56277701882589E-02 
1286	 3.50770719493834E-02 
1287	 3.50417468452501E-02 
1288	 3.51911251994493E-02 
1289	 3.56858036743198E-02 
1290	 3.72044842063554E-02 
1291	 3.65561368114267E-02 
1292	 3.54614354683417E-02 
1293	 3.46580976944118E-02 
1294	 3.35356830628466E-02 
1295	 3.35544481338251E-02 
1296	 3.38612749020881E-02 
1297	 0.035008994871816 
1298	 3.59167395542287E-02 
1299	 3.43718667900678E-02 
1300	 3.38481429323337E-02 
1301	 3.46293601466388E-02 
1302	 0.033787220312417 
1303	 3.26001257571499E-02 
1304	 3.29722788400009E-02 
1305	 3.40525598406976E-02 
1306	 0.034533837343912 
1307	 3.59489402786868E-02 
1308	 3.67961988577673E-02 
1309	 3.66897351261976E-02 
1310	 0.036657497674321 
1311	 3.69025010408374E-02 
1312	 3.71603159436175E-02 
1313	 3.69881934468704E-02 
1314	 3.66708075644281E-02 
1315	 3.69697403758072E-02 
1316	 3.60390728936889E-02 
1317	 3.24828451891366E-02 
1318	 3.21054400350234E-02 
1319	 3.39776730982323E-02 
1320	 3.44680603759546E-02 
1321	 3.72763885003578E-02 
1322	 3.70789972968881E-02 
1323	 3.66456556851207E-02 
1324	 3.64686235974012E-02 
1325	 3.45034758366424E-02 
1326	 3.40647758949541E-02 
1327	 0.03292831811493 
1328	 3.08654427378497E-02 
1329	 3.26705151599436E-02 
1330	 3.51591987065172E-02 
1331	 3.44571493580538E-02 
1332	 0.033111207693618 
1333	 3.38019687016154E-02 
1334	 3.38045076324167E-02 
1335	 3.29816395183369E-02 
1336	 3.30926554062604E-02 
1337	 3.29878956306068E-02 
1338	 3.12260755372226E-02 
1339	 3.00554657476498E-02 
1340	 3.16542725086731E-02 
1341	 2.91394281047346E-02 
1342	 1.51823920378435E-02 
1343	 1.59559460249747E-02 
1344	 3.62058081073256E-02 
1345	 3.91579327796877E-02 
1346	 3.41717464249131E-02 
1347	 0.04361606266336 
1348	 5.58831833253367E-02 
1349	 4.68740316454678E-02 
1350	 2.45995424705398E-02 
1351	 4.47467489169009E-02 
1352	 5.89888238303297E-02 
1353	 4.77233616931031E-02 
1354	 9.52636218995749E-02 
1355	 0.348556127567025 
1356	 0.529870358429017 
1357	 0.266361474593138 
1358	 0.263803366747974 
1359	 0.506211584852038 
1360	 0.398334006818194 
1361	 0.336630814951369 
1362	 0.417953133690975 
1363	 0.46614259285468 
1364	 0.458236086667381 
1365	 0.271313779095997 
1366	 0.142102556587127 
1367	 8.69916199990891E-02 
1368	 9.34385575636646E-02 
1369	 0.307544267547315 
1370	 0.487781524046796 
1371	 1.16952512619386 
1372	 1.63433226240274 
1373	 0.225497880857861 
1374	-3.07680182510384E-02 
1375	-0.224057113908709 
1376	 2.35533087038546E-02 
1377	 0.9037971747653 
1378	 0.831056119451178 
1379	 0.43850431745585 
1380	 0.49774915754413 
1381	 0.814016660510761 
1382	 0.285291867579641 
1383	-0.60607780232049 
1384	-0.76284736023087 
1385	-0.584710722926953 
1386	-0.678890708918016 
1387	 0.1011402867613 
1388	 1.87409465958645 
1389	-0.673701286007996 
1390	-2.14415226923086 
1391	-2.70913955353339 
1392	 2.42778848593754 
1393	 1.12822503399411 
1394	-0.442493199974775 
1395	 0.36161793737581 
1396	 0.121549782600033 
1397	 1.89815131875536E-02 
1398	 0.310570292862991 
1399	 0.057106078520852 
1400	 0.2061237009532 
1401	 0.51986236285111 
1402	 0.353484618742157 
1403	 0.387953715492586 
1404	 0.701364590744054 
1405	 0.49370658160059 
1406	-0.442332896618837 
1407	-0.497480485166502 
1408	 0.333416201944122 
1409	 1.23237451636025 
1410	 1.90933095748505 
1411	 2.39396292802637 
1412	 0.852485003800787 
1413	 0.551159742379849 
1414	 0.527229082978556 
1415	 0.529700741586171 
1416	 0.76070134349087 
1417	 0.457998984045227 
1418	-5.88191463046767E-02 
1419	-8.84470075462765E-02 
1420	-1.90936200456353E-02 
1421	-5.91107587488892E-02 
1422	-4.10258324157438E-03 
1423	 0.109806288674554 
1424	 0.213553370229541 
1425	 0.156081783559076 
1426	 0.121979579494213 
1427	 0.131723819830278 
1428	 0.041002644725877 
1429	-2.57755079958372E-02 
1430	-4.76287920630664E-02 
1431	-1.80884794175194E-02 
1432	 0.027599407645146 
1433	 4.86598612948757E-03 
1434	 8.58322820939516E-03 
1435	 2.51191467680525E-02 
1436	-6.31449856701323E-02 
1437	-0.104507281360819 
1438	-2.45339360455457E-02 
1439	 5.36145227320024E-02 
1440	 8.77242720899742E-02 
1441	 7.47298235321717E-02 
1442	 6.63476953738819E-02 
1443	 4.82303780677046E-02 
1444	-0.0538086955361 
1445	-6.45306348166658E-02 
1446	-3.67053358350685E-03 
1447	-1.99813940156255E-02 
1448	-2.91726311547644E-02 
1449	 1.53615726718581E-02 
1450	 1.13585176012989E-02 
1451	-2.82362475349435E-03 
1452	 0.032297111962397 
1453	 0.053946488592964 
1454	 0.050413768653812 
1455	 4.20276957819393E-02 
1456	 3.88926858214744E-02 
1457	 2.03673613631959E-02 
1458	 0.015417478268448 
1459	 2.11919842629109E-02 
1460	 2.61734749279452E-02 
1461	 3.36303816352076E-02 
1462	 2.83222356198001E-02 
1463	 1.35538145352976E-02 
1464	 2.01522610595915E-02 
1465	 3.72916594019411E-02 
1466	 3.11442688840078E-02 
1467	 0.027910715638133 
1468	 2.83193685544895E-02 
1469	 5.49257406392054E-04 
1470	-7.12312599903293E-03 
1471	 1.75121804155095E-02 
1472	 1.98553662410847E-02 
1473	 3.78730291917966E-03 
1474	 4.56861494803963E-03 
1475	 0.015200343672105 
1476	 1.61686540407009E-02 
1477	 1.51993998509474E-02 
1478	 1.41567131649313E-02 
1479	 8.01586227022913E-03 
1480	 9.42540908870272E-03 
1481	 1.60918244431909E-02 
1482	 1.88716155362865E-02 
1483	 2.20501881745386E-02 
1484	 2.25959968123872E-02 
1485	 1.90513299310062E-02 
1486	 2.22570248316902E-02 
1487	 3.14647288594592E-02 
1488	 3.01269830354118E-02 
1489	 2.49818643617312E-02 
1490	 2.48088068951051E-02 
1491	 2.13371364480091E-02 
1492	 1.97281035948025E-02 
1493	 2.29353934396121E-02 
1494	 2.42183006536404E-02 
1495	 2.40430150352167E-02 
1496	 2.35910617696367E-02 
1497	 2.35656822924265E-02 
1498	 2.30429436190894E-02 
1499	 2.01171243417433E-02 
1500	 1.93520412158345E-02 
1501	 2.14346079077357E-02 
1502	 0.021705146589286 
1503	 2.00973714150282E-02 
1504	 2.08482755554786E-02 
1505	 2.35493382274554E-02 
1506	 2.33912309602197E-02 
1507	 2.21963804854124E-02 
1508	 2.16978918708121E-02 
1509	 2.21436872499574E-02 
1510	 2.30947542398143E-02 
1511	 2.18111703991806E-02 
1512	 2.25215013664994E-02 
1513	 2.36197844004699E-02 
1514	 2.11946810467707E-02 
1515	 2.01801306694792E-02 
1516	 2.21808471682317E-02 
1517	 2.31656450818877E-02 
1518	 0.02203285735432 
1519	 2.35771592451463E-02 
1520	 2.46951512802268E-02 
1521	 2.31666532691746E-02 
1522	 2.41090737739095E-02 
1523	 2.43683444310232E-02 
1524	 2.34882706062681E-02 
1525	 2.38965114024399E-02 
1526	 2.25673981759534E-02 
1527	 2.09705994079151E-02 
1528	 2.26627075334252E-02 
1529	 2.46727463049487E-02 
1530	 2.38411659803339E-02 
1531	 2.30944208581645E-02 
1532	 2.26937948748496E-02 
1533	 2.21736068985089E-02 
1534	 2.26854409111438E-02 
1535	 2.25983590224244E-02 
1536	 2.28348104161307E-02 
1537	 0.023560797810427 
1538	 2.37950893597888E-02 
1539	 2.43712809400325E-02 
1540	 2.41590534043703E-02 
1541	 2.31158860199638E-02 
1542	 2.30450152540507E-02 
1543	 0.022926657048144 
1544	 2.28704888520347E-02 
1545	 0.024125476905323 
1546	 2.47903736459635E-02 
1547	 2.48236551245469E-02 
1548	 2.47938568721522E-02 
1549	 2.48902794357721E-02 
1550	 2.56423188023165E-02 
1551	 2.55144884126234E-02 
1552	 2.53218782274884E-02 
1553	 2.53144571290473E-02 
1554	 2.36300450799771E-02 
1555	 2.30161776099604E-02 
1556	 2.48322070281433E-02 
1557	 2.57598865890468E-02 
1558	 2.55501768534845E-02 
1559	 2.56524456869327E-02 
1560	 2.57881804968395E-02 
1561	 0.025744582579042 
1562	 2.51645981364273E-02 
1563	 2.38028988964461E-02 
1564	 2.39563507339069E-02 
1565	 2.52093109624212E-02 
1566	 0.025253424584916 
1567	 2.58333416541559E-02 
1568	 2.62699203683119E-02 
1569	 2.61912286360302E-02 
1570	 2.65588717602882E-02 
1571	 2.65383581230998E-02 
1572	 2.66021121459223E-02 
1573	 2.70675988049666E-02 
1574	 2.84747576897484E-02 
1575	 2.84174465994273E-02 
1576	 2.68722002219256E-02 
1577	 2.69164878178637E-02 
1578	 2.61510371685977E-02 
1579	 2.54529749858936E-02 
1580	 0.026887842854 
1581	 2.75267974423621E-02 
1582	 2.73203926516549E-02 
1583	 2.69299419607628E-02 
1584	 2.64614525516436E-02 
1585	 2.65143737905792E-02 
1586	 2.58970351158596E-02 
1587	 2.61795922194091E-02 
1588	 2.72500267718823E-02 
1589	 2.66337330675309E-02 
1590	 2.63272570560175E-02 
1591	 2.62323640647347E-02 
1592	 2.58473910863604E-02 
1593	 0.027060294976318 
1594	 0.027634121417972 
1595	 2.66236596329895E-02 
1596	 2.66684631322875E-02 
1597	 2.67119177883907E-02 
1598	 2.52479106105133E-02 
1599	 2.41229749908757E-02 
1600	 2.48716073753116E-02 
1601	 2.56585261525386E-02 
1602	 2.51993884366571E-02 
1603	 2.65001727234528E-02 
1604	 2.74196248572848E-02 
1605	 2.73888165503677E-02 
1606	 2.82636028324631E-02 
1607	 2.63711776800554E-02 
1608	 2.60331297207066E-02 
1609	 2.74930032429191E-02 
1610	 2.63294338032836E-02 
1611	 2.72669468387974E-02 
1612	 0.028260904313543 
1613	 2.69509741362996E-02 
1614	 2.74890908754226E-02 
1615	 2.82959175603462E-02 
1616	 2.78017652297955E-02 
1617	 2.76220919010236E-02 
1618	 2.78152526808244E-02 
1619	 2.83725486784998E-02 
1620	 0.028259025199183 
1621	 2.78460588962528E-02 
1622	 2.81208052861852E-02 
1623	 2.71066370379347E-02 
1624	 2.70728160755419E-02 
1625	 2.77609700571014E-02 
1626	 2.71012497042603E-02 
1627	 2.74581813013796E-02 
1628	 2.73283738623156E-02 
1629	 0.027358461699784 
1630	 2.73583858227864E-02 
1631	 2.59479707747153E-02 
1632	 2.62283078961457E-02 
1633	 2.69630549047805E-02 
1634	 2.60439257792368E-02 
1635	 2.58109768499894E-02 
1636	 2.66531639636875E-02 
1637	 2.65077577505419E-02 
1638	 2.70227070786789E-02 
1639	 2.81796918827672E-02 
1640	 2.81628451841883E-02 
1641	 2.83228697794853E-02 
1642	 2.80611575780473E-02 
1643	 2.82735173926887E-02 
1644	 2.86861959920626E-02 
1645	 2.71177969776374E-02 
1646	 2.71200295827847E-02 
1647	 2.90833939754964E-02 
1648	 2.94984539428439E-02 
1649	 2.86184468578803E-02 
1650	 2.78545979448492E-02 
1651	 2.67011498157129E-02 
1652	 2.54819264071523E-02 
1653	 2.79611758017835E-02 
1654	 2.80621408121317E-02 
1655	 2.48646419024496E-02 
1656	 2.47396162542644E-02 
1657	 2.66380311567277E-02 
1658	 2.69180859962054E-02 
1659	 2.73739120305071E-02 
1660	 2.78509134133326E-02 
1661	 2.72204130759437E-02 
1662	 2.72954921501841E-02 
1663	 2.87197726805747E-02 
1664	 2.94304149288198E-02 
1665	 2.95917818674324E-02 
1666	 2.90742293850682E-02 
1667	 2.78480954687941E-02 
1668	 2.81502822948427E-02 
1669	 2.79302375353051E-02 
1670	 2.66408206164844E-02 
1671	 2.72440652273391E-02 
1672	 0.02855052499285 
1673	 2.91427471602986E-02 
1674	 3.10504106564132E-02 
1675	 3.02794139643505E-02 
1676	 2.61924866152936E-02 
1677	 2.48972859672032E-02 
1678	 2.52852740523612E-02 
1679	 2.48995699230628E-02 
1680	 2.61980827853048E-02 
1681	 2.79152927268118E-02 
1682	 2.70309771539775E-02 
1683	 2.64705729741222E-02 
1684	 2.74417237241359E-02 
1685	 2.68784750185261E-02 
1686	 2.59429691989202E-02 
1687	 2.73283100703937E-02 
1688	 2.91962551012903E-02 
1689	 2.83964480863965E-02 
1690	 2.75409867751215E-02 
1691	 2.85413380594932E-02 
1692	 2.78965627948193E-02 
1693	 2.84744790324877E-02 
1694	 3.06790245546526E-02 
1695	 2.89771487697909E-02 
1696	 2.61302584731201E-02 
1697	 2.65727303800209E-02 
1698	 2.71251679661712E-02 
1699	 2.74441642983668E-02 
1700	 3.00717299027247E-02 
1701	 2.94863702572303E-02 
1702	 2.70635008816258E-02 
1703	 2.78807791086525E-02 
1704	 0.027326943611517 
1705	 2.62227174048604E-02 
1706	 2.77525964733301E-02 
1707	 2.83782660003918E-02 
1708	 2.72595370547242E-02 
1709	 2.74319481626922E-02 
1710	 2.81470638617981E-02 
1711	 2.70768684150295E-02 
1712	 2.79325851015981E-02 
1713	 2.88724817846224E-02 
1714	 2.94598575660016E-02 
1715	 3.01836371817302E-02 
1716	 3.02731274664578E-02 
1717	 2.96657460455525E-02 
1718	 2.74274614361951E-02 
1719	 3.01746275156282E-02 
1720	 3.19851621510459E-02 
1721	 3.11024119213624E-02 
1722	 3.08594842559213E-02 
1723	 2.82485633839752E-02 
1724	 2.65728227393501E-02 
1725	 2.83876142908353E-02 
1726	 2.93807216112051E-02 
1727	 2.78977792471703E-02 
1728	 2.66333559778312E-02 
1729	 2.48627969124361E-02 
1730	 0.021623818246696 
1731	 2.14832528435504E-02 
1732	 2.32703027914606E-02 
1733	 2.21152050291268E-02 
1734	 2.22276250708812E-02 
1735	 2.34480703222348E-02 
1736	 2.26199550675634E-02 
1737	 2.59465395072194E-02 
1738	 2.97272537605612E-02 
1739	 2.75689665678698E-02 
1740	 2.47660639687599E-02 
1741	 2.26029255440863E-02 
1742	 2.26566987174992E-02 
1743	 2.45024085823398E-02 
1744	 2.55230319283873E-02 
1745	 2.71532086155119E-02 
1746	 2.58438969414973E-02 
1747	 2.61232022932802E-02 
1748	 0.030556762497189 
1749	 3.08186363759514E-02 
1750	 0.027821271315083 
1751	 2.69452146822734E-02 
1752	 2.50826314652574E-02 
1753	 2.31341019799489E-02 
1754	 2.16676142671566E-02 
1755	 2.26207229349121E-02 
1756	 2.57016355525684E-02 
1757	 2.29750156264082E-02 
1758	 2.21737640980388E-02 
1759	 0.023119949958047 
1760	 2.17192473814835E-02 
1761	 2.37859368442126E-02 
1762	 2.43228122006837E-02 
1763	 1.75232420328294E-02 
1764	 1.55156137278687E-02 
1765	 2.11374224176663E-02 
1766	 0.024724537348606 
1767	 2.46453858919161E-02 
1768	 2.69114580579343E-02 
1769	 2.62335318244675E-02 
1770	 1.99837128634815E-02 
1771	 1.65197023020322E-02 
1772	 1.40263640228008E-02 
1773	 1.59563656018011E-02 
1774	 2.13550979069273E-02 
1775	 1.45257514874005E-02 
1776	 1.73352670906706E-02 
1777	 0.018189727554745 
1778	 1.85311410298413E-02 
1779	 3.80258573894911E-02 
1780	 4.17690235225746E-02 
1781	 2.15334187412814E-02 
1782	 1.77946625424905E-02 
1783	 2.07404674086844E-02 
1784	 2.00351817049917E-02 
1785	 2.75318320323026E-02 
1786	 2.65053481460692E-02 
1787	 1.12984379708619E-02 
1788	 8.66966578025741E-03 
1789	 1.23347675743777E-02 
1790	 1.00538892436634E-02 
1791	 1.56200317571361E-02 
1792	-5.20163445901222E-03 
1793	-2.05006315329487E-02 
1794	-0.022072731646116 
1795	-4.13483487348628E-02 
1796	-1.93413638195431E-02 
1797	-1.22038727903008E-02 
1798	-0.028120637111837 
1799	 1.43387651596398E-02 
1800	 1.55766161110679E-03 
1801	-0.024947862136836 
1802	-0.196590354218177 
1803	-0.218459341978036 
1804	-3.59578892260682E-03 
1805	 7.71722193577979E-02 
1806	 0.283502238090259 
1807	 0.341981975960959 
1808	-3.72855967461274E-02 
1809	-0.243030679234462 
1810	-0.720173564146521 
1811	-0.959316422439488 
1812	-0.206222522591646 
1813	-5.68633563444279E-02 
1814	 0.268789650056392 
1815	 0.218303550183058 
1816	-0.202333562419534 
1817	-0.471553684134652 
1818	-0.445985080963308 
1819	-0.630993908947176 
1820	-0.819783618571008 
1821	-1.20384110223006 
1822	-1.18571007545519 
1823	 3.26278826611609 
1824	 0.690993646546591 
1825	-0.854328308727367 
1826	-0.900960661588665 
1827	-1.08013736818251 
1828	-0.793347305947911 
1829	 0.623380472185773 
1830	 0.803974161238122 
1831	-5.57496545218719 
1832	-5.95990667475031 
1833	-1.30365843875565 
1834	-0.770924894976736 
1835	 5.0996137298191 
1836	-5.79301893943541 
1837	-0.322118935052357 
1838	 5.05944632435194E-02 
1839	 0.167753838351111 
1840	 0.209327049473971 
1841	 0.53049951448167 
1842	 0.794360190385831 
1843	 0.777986811462325 
1844	 0.666905421186424 
1845	 0.277791045570591 
1846	-0.547270414068099 
1847	-0.818306861202831 
1848	-0.918998825724203 
1849	-44.9278918143865 
1850	 0.240834574239859 
1851	-9.05174493167589E-02 
1852	-0.238558053650621 
1853	-0.277497516031493 
1854	-0.227648508077331 
1855	-0.591061315811618 
1856	-0.51675214009498 
1857	 0.229909376607584 
1858	 0.301818124193457 
1859	 0.180178226339446 
1860	 7.74347594550696E-02 
1861	 0.332469446607868 
1862	 0.311713653358609 
1863	 4.40865854473543E-02 
1864	-0.534955192188399 
1865	-0.516052363985593 
1866	 0.436493110845574 
1867	 0.547850625632556 
1868	 4.71758326411711E-02 
1869	 0.202948351049847 
1870	 0.317457312704266 
1871	-0.879300547359836 
1872	-1.88438254461362 
1873	 4.61981357384395 
1874	 1.78302876814308 
1875	 1.5440360450805 
1876	 1.13887525548671 
1877	 8.15475294013781E-03 
1878	-0.247364404455851 
1879	 0.664559113418561 
1880	 1.17101505957 
1881	 2.68755559080234 
1882	 14.0420857893045 
1883	 12.9058817316432 
1884	-8.08175634137248 
1885	-1.08296412325129 
1886	 1.03227889145234 
1887	 10.8835054376967 
1888	-4.27753578308252 
1889	-3.68170647868113 
1890	-2.70820013157431 
1891	-3.51663545392104 
1892	 0.716049351224293 
1893	-0.32268709559987 
1894	-0.452053921800862 
1895	-0.384633934082033 
1896	 5.61267618182828 
1897	-3.92026439793724 
1898	-1.42035119609239 
1899	-0.997134056589343 
1900	-0.834590493226656 
1901	 0.599069054480829 
1902	 1.534871853029 
1903	 1.58235736405519 
1904	 1.31368376581644 
1905	 2.02426164373697 
1906	 3.88936626557782 
1907	 3.27562662757411 
1908	 1.84341301698855 
1909	 2.62824370857175 
1910	 3.75534160930637 
1911	 2.34922571530346 
1912	 0.617760597820165 
1913	 1.1456533825856 
1914	 7.2003192376318 
1915	-23.6944875682755 
1916	-25.1339990986328 
1917	-1.38691594849922 
1918	-0.585231435237077 
1919	 7.6168319453995 
1920	 0.32356134518935 
1921	 0.369965546031134 
1922	 11.0985759960353 
1923	-10.9822439105343 
1924	 3.98356237171678 
1925	 1.85513003729939 
1926	 2.38975413456598 
1927	-0.892009433245058 
1928	-3.38618392044292 
1929	 3.70436207321169 
1930	 0.221669096026753 
1931	-4.99093076173689 
1932	 9.20095910075467E-02 
1933	 0.590550681147948 
1934	 0.32111102890813 
1935	-0.493902796488572 
1936	-0.917387245216093 
1937	-1.09515852611543 
1938	-0.898595446022427 
1939	-0.745119824871193 
1940	-6.35927022258675E-02 
1941	-0.311313927524179 
1942	-1.45523081407477 
1943	-0.917795580614559 
1944	-4.09255345875031 
1945	 5.80524295385459E-02 
1946	-0.64223624190353 
1947	-0.501169025144954 
1948	 0.295862200873519 
1949	 0.292953681534628 
1950	 6.56377618791705 
1951	-6.33042504625474 
1952	-2.90729748568639 
1953	-1.77689327298295 
1954	-1.13858304819335 
1955	-0.416508910212012 
1956	-0.105215260509372 
1957	 0.212633537923776 
1958	 0.169971585667837 
1959	 0.108187003041948 
1960	 0.114073204961092 
1961	 0.050293173253972 
1962	 2.57740051698139E-02 
1963	 3.30889937306303E-02 
1964	-9.91341922549038E-03 
1965	 2.64237561860652E-02 
1966	 5.61644947748963E-02 
1967	 9.60990852845343E-02 
1968	 8.42729634540565E-02 
1969	 8.28953962344411E-02 
1970	 6.74490486578287E-02 
1971	 4.96274883963322E-02 
1972	 3.56886758320821E-02 
1973	 3.31606513460276E-02 
1974	 4.12156494561146E-02 
1975	 3.31516748552358E-02 
1976	 2.61874873839285E-02 
1977	 1.67352656439149E-02 
1978	-4.9933531092266E-03 
1979	-7.66257010671717E-03 
1980	-6.27008377208261E-03 
1981	 7.64845302278206E-04 
1982	 5.49556345175937E-03 
1983	 1.26797037262805E-02 
1984	-9.56776346002581E-04 
1985	-1.08639464867364E-02 
1986	 1.10508942420469E-02 
1987	 2.98427340405059E-02 
1988	 3.91278961735616E-02 
1989	 4.50735695170795E-02 
1990	 3.68040216090731E-02 
1991	 2.23087346390831E-02 
1992	 1.32043648451008E-02 
1993	 4.76963024561664E-03 
1994	 4.25568225866991E-03 
1995	 1.63823339597186E-03 
1996	 1.15396289919104E-02 
1997	 2.91593608141653E-02 
1998	 4.30568072527735E-02 
1999	 3.99898665475222E-02 
2000	 3.52041251499777E-02 
2001	 5.06315932971223E-02 
2002	 7.02666705702628E-02 
2003	 6.29769604800833E-02 
2004	 3.97070500998138E-02 
2005	 4.42134691828222E-02 
2006	 6.33883304668293E-02 
2007	 8.60917665661148E-02 
2008	 0.108342961359679 
2009	 0.103590991397389 
2010	 3.95618669724786E-02 
2011	 1.83511945009607E-03 
2012	-3.88300558219753E-02 
2013	-5.25527022277342E-02 
2014	-7.27709085797642E-02 
2015	-7.08744359531542E-02 
2016	-0.086513453069612 
2017	-7.88090227386773E-02 
2018	-0.022055646267601 
2019	 4.88371614650082E-03 
2020	 3.52161303136774E-02 
2021	 5.95497841707242E-02 
2022	 4.19655326008298E-02 
2023	 1.97755427679963E-02 
2024	 1.00201677365205E-02 
2025	 2.44878365177025E-03 
2026	 7.99400926238188E-05 
2027	 1.6242659214724E-03 
2028	 4.59211626383721E-03 
2029	 6.4013106455756E-03 
2030	 6.06826230607033E-03 
2031	 2.16897126628265E-03 
2032	 1.2221174329405E-03 
2033	-7.12926029910805E-04 
2034	 1.31388360853146E-03 
2035	 9.71521948500881E-03 
2036	 7.68345220635263E-03 
2037	 6.29918302729853E-03 
2038	 5.42099550065685E-03 
2039	 5.3727532762857E-03 
2040	 7.08020747226726E-03 
2041	 5.66721702090227E-03 
2042	-2.09893523330908E-03 
2043	 1.6533265473491E-03 
2044	 1.05659127454651E-02 
2045	 1.19188692768834E-02 
2046	 2.18439213448434E-02 
2047	 0.034823924649273 
2048	 3.42438385121794E-02 
2049	 3.25625942700152E-02 
2050	 0.025940212654773 
2051	 2.04686858916743E-02 
2052	 1.98304508425137E-02 
2053	 9.98605972978695E-03 
2054	 8.33579712123695E-03 
2055	 0.013963851128976 
2056	 1.57763139926237E-02 
2057	 1.05537732833599E-02 
2058	 1.45199813286584E-02 
2059	 3.10101921125121E-02 
2060	 3.15891798454951E-02 
2061	 2.58221221269433E-02 
2062	 2.09929099813269E-02 
2063	 0.012730940147446 
2064	 8.73679439325472E-03 
2065	 3.81608949882795E-03 
2066	-2.09429703615965E-04 
2067	 4.0081747491025E-03 
2068	 6.17958414092134E-03 
2069	 1.55354780836774E-02 
2070	 2.30095013884744E-02 
2071	 2.45104164158317E-02 
2072	 2.22049584977165E-02 
2073	 1.72666291486183E-02 
2074	 9.62676126959631E-03 
2075	 4.2006666477669E-03 
2076	-8.76943767668866E-03 
2077	-9.70222992883325E-03 
2078	-2.48854461663817E-03 
2079	 8.25670778852819E-04 
2080	 8.80137524828125E-03 
2081	 1.10320133289584E-02 
2082	 0.01971139269628 
2083	 2.61426075895841E-02 
2084	 2.33754783158497E-02 
2085	 3.38186734908461E-02 
2086	 2.99771797112913E-02 
2087	 1.01967429714362E-02 
2088	 1.10511308573193E-02 
2089	 1.24433372306562E-02 
2090	 7.90133369226986E-03 
2091	 1.95757785899525E-02 
2092	 2.51011303723118E-02 
2093	 2.65924618427849E-02 
2094	 2.74382632138979E-02 
2095	 3.17396356267706E-02 
2096	 3.26435516948559E-02 
2097	 2.75761168491388E-02 
2098	 2.70389454282602E-02 
2099	 3.17749859609885E-02 
2100	 0.027684034606086 
2101	 1.93847449037047E-02 
2102	 1.48286778574618E-02 
2103	 0.013478752639339 
2104	 8.81088660452494E-03 
2105	 2.08192207026368E-03 
2106	 8.46184747877953E-03 
2107	 9.43439387293816E-03 
2108	 1.79590775142523E-03 
2109	 8.00679341052896E-03 
2110	 1.22847318695766E-02 
2111	 1.00457494720088E-02 
2112	 2.15354637612623E-02 
2113	 2.61642003642615E-02 
2114	 2.74879515551142E-02 
2115	 2.64927437711203E-02 
2116	 2.12851733726513E-02 
2117	 2.10411042410626E-02 
2118	 2.49461925080054E-02 
2119	 2.63023476793646E-02 
2120	 2.95738935588657E-02 
2121	 0.029074070678393 
2122	 3.11926862778757E-02 
2123	 2.71462365028288E-02 
2124	 2.63754652384073E-02 
2125	 2.98823487943116E-02 
2126	 3.36409998530598E-02 
2127	 3.49056769355246E-02 
2128	 3.76439462017144E-02 
2129	 4.35893960800118E-02 
2130	 3.80216244354478E-02 
2131	 0.028517154517486 
2132	 2.01085799646421E-02 
2133	 1.24678480484695E-02 
2134	 1.06671498836613E-02 
2135	 1.58899555851574E-02 
2136	 1.38927833377274E-02 
2137	 0.014136243119211 
2138	 1.36869535624685E-02 
2139	 2.7971777765847E-03 
2140	 5.22892927520587E-03 
2141	 2.20187573699993E-02 
2142	 2.51068148560443E-02 
2143	 2.36024717601321E-02 
2144	 2.84262038864503E-02 
2145	 3.20858835146607E-02 
2146	 2.93488793908116E-02 
2147	 2.95790486520091E-02 
2148	 0.035940877183191 
2149	 2.99674378358865E-02 
2150	 1.71370129501656E-02 
2151	 1.80221509965581E-02 
2152	 1.60653473406586E-02 
2153	 1.41367092966994E-02 
2154	 2.12344301890782E-02 
2155	 1.71340626684686E-02 
2156	 1.46666814144431E-02 
2157	 1.58463555328752E-02 
2158	 1.72806870868884E-02 
2159	 1.97235281217276E-02 
2160	 2.66969864304913E-02 
2161	 3.33109280367734E-02 
2162	 4.05944556289298E-02 
2163	 4.50119722670502E-02 
2164	 5.32146462882314E-02 
2165	 5.30346268847212E-02 
2166	 4.57080731865013E-02 
2167	 3.92628921061601E-02 
2168	 2.79251788533378E-02 
2169	 0.022078361133695 
2170	 1.66152982767454E-02 
2171	 1.01946423669486E-02 
2172	 1.54872708423601E-02 
2173	 1.29134961034977E-02 
2174	 1.26489821735117E-02 
2175	 2.09240505550713E-02 
2176	 2.80270373728524E-02 
2177	 3.07268573118774E-02 
2178	 2.01233933691537E-02 
2179	 2.12201347273495E-02 
2180	 2.18864109622031E-02 
2181	 1.24268858490556E-02 
2182	 2.25586844446095E-02 
2183	 2.26603830181485E-02 
2184	 1.11722718145217E-02 
2185	 2.12951327315257E-04 
2186	-5.17223662357407E-03 
2187	-1.20723941167446E-02 
2188	-1.24370698308981E-02 
2189	-4.54884017586029E-03 
2190	 6.37747766190705E-03 
2191	 2.22744560568086E-02 
2192	 2.65465933168876E-02 
2193	 3.33212658959849E-02 
2194	 3.65180739828995E-02 
2195	 2.38872662603633E-02 
2196	 2.46494704748442E-02 
2197	 3.83593382463736E-02 
2198	 3.74906922371685E-02 
2199	 2.95778015971239E-02 
2200	 3.01712826133544E-02 
2201	 2.62191595018297E-02 
2202	 0.027613201271142 
2203	 3.54140413458165E-02 
2204	 4.30566509400652E-02 
2205	 2.99834746459437E-02 
2206	 9.48225778548539E-03 
2207	 1.19992824963678E-02 
2208	 1.31099856468694E-02 
2209	 1.49545785164597E-02 
2210	 0.025914835256836 
2211	 3.11683838370908E-02 
2212	 2.22163494842025E-02 
2213	 1.29576049162929E-02 
2214	 1.96987463463565E-02 
2215	 1.97311304809974E-02 
2216	 2.15135027827569E-02 
2217	 1.87999801738192E-02 
2218	 1.10743642213268E-02 
2219	 6.39902577374492E-03 
2220	 3.55137583346325E-04 
2221	-4.88049840503601E-03 
2222	-6.52775550165502E-03 
2223	-1.64138628480579E-03 
2224	 1.99803044805286E-03 
2225	 9.81712185505348E-03 
2226	 3.59415833935761E-02 
2227	 3.66242151046534E-02 
2228	 2.38746985884639E-02 
2229	 1.64349154734067E-02 
2230	-1.23108568123482E-02 
2231	-1.89212019629544E-02 
2232	-5.43897966558911E-03 
2233	-5.32086855947605E-04 
2234	 3.53336566462116E-03 
2235	 0.020963975470046 
2236	 3.61398020422491E-02 
2237	 2.67151041367399E-02 
2238	 1.93403699587677E-02 
2239	 1.82703366673335E-02 
2240	 5.66706279886751E-03 
2241	 5.3762822508062E-03 
2242	 1.27567256407054E-02 
2243	 5.95873822535314E-03 
2244	 0.013525737173671 
2245	 0.02613394168032 
2246	 2.61127171245062E-02 
2247	 4.28204309439939E-02 
2248	 4.19655421194163E-02 
2249	 3.15093685117231E-02 
2250	 4.40818451445652E-02 
2251	 6.34211831467379E-02 
2252	 7.38120751750847E-02 
2253	 7.03321224753106E-02 
2254	 6.01091834984274E-02 
2255	 3.58629141528726E-02 
2256	 8.10929880278019E-03 
2257	-1.94353909959265E-03 
2258	-1.00089038557238E-02 
2259	-1.40813026475141E-02 
2260	-3.21457870212528E-03 
2261	 3.03441492233619E-02 
2262	 4.85607192044237E-02 
2263	 8.07374660162055E-02 
2264	 0.085193790900016 
2265	 7.12185682129941E-02 
2266	 6.15529773349919E-02 
2267	 0.039528022090448 
2268	 2.59332721534775E-02 
2269	 2.52196935754349E-03 
2270	-5.97134383696258E-03 
2271	 1.36535804614557E-03 
2272	-5.85777096531435E-03 
2273	-1.86839685499344E-02 
2274	-1.40246232370844E-02 
2275	-0.01039946993335 
2276	-3.98568524051131E-03 
2277	 3.01698195942573E-02 
2278	 4.84976811622903E-02 
2279	 6.29937686070813E-02 
2280	 6.43588776055145E-02 
2281	 5.50806499478156E-02 
2282	 3.03556913228925E-02 
2283	 1.84557927772588E-02 
2284	 0.012372492080146 
2285	 1.37440372220486E-02 
2286	 2.48623933704875E-02 
2287	 4.19663582429677E-02 
2288	 3.45828326266293E-02 
2289	 2.06013563081998E-02 
2290	 2.84332420238308E-02 
2291	 1.85556902312893E-02 
2292	 1.05820918765203E-02 
2293	 8.49316183407664E-03 
2294	 4.25387660965233E-03 
2295	 1.68532342066394E-02 
2296	 2.76477119490866E-02 
2297	 3.80984313696846E-02 
2298	 2.39442726029415E-02 
2299	-2.43472800303828E-02 
2300	-7.54614647209075E-02 
2301	-0.112449399569215 
2302	-8.46346850081532E-02 
2303	-4.42555211970439E-02 
2304	-1.63526181378527E-02 
2305	 2.08250263856122E-02 
2306	-0.010276569734969 
2307	-2.56315502431402E-02 
2308	 3.14046317220403E-03 
2309	 2.06838813635541E-02 
2310	 7.13194671521616E-02 
2311	 0.098358538774177 
2312	 8.51660547488168E-02 
2313	 6.45183044176939E-02 
2314	 4.47605945950474E-02 
2315	 6.38697695875935E-03 
2316	-4.97960940802062E-02 
2317	-2.77922201404311E-02 
2318	-2.47835791239676E-02 
2319	-4.59958572353727E-02 
2320	 1.73721097739828E-03 
2321	 5.74379457994758E-03 
2322	-1.94077053461815E-03 
2323	 3.67017305626715E-02 
2324	 7.79002883678501E-02 
2325	 5.35174678430066E-02 
2326	 3.33638937602505E-02 
2327	 5.06106372837624E-02 
2328	 1.04736787067614E-02 
2329	 3.41028969591656E-02 
2330	 5.66977531981371E-02 
2331	 0.036880006533283 
2332	 3.35725227388678E-02 
2333	-2.83057924066898E-02 
2334	-0.069002335220073 
2335	-9.79259673645293E-02 
2336	-7.63066003606393E-02 
2337	-2.00578954857377E-02 
2338	-7.75201581216874E-03 
2339	-3.47902437832894E-02 
2340	-9.87999459229308E-02 
2341	-0.1306436843716 
2342	-9.34429405768422E-02 
2343	 2.07699743436113E-02 
2344	 8.99336163473269E-02 
2345	 9.41338596521341E-02 
2346	 4.23076170267522E-02 
2347	-5.19799093683463E-02 
2348	-1.90101332740167E-02 
2349	 3.69148878661673E-02 
2350	 1.55335612678022E-02 
2351	-8.68518031156158E-03 
2352	-1.23266931545703E-02 
2353	-6.02627396130815E-02 
2354	-0.154424044348569 
2355	-0.188653687229284 
2356	-0.285209624470207 
2357	-0.268130318877426 
2358	-0.177554304347119 
2359	-0.154850755167872 
2360	-4.54544443883672E-02 
2361	 0.101688385603654 
2362	 0.205165306330107 
2363	 0.374597499531343 
2364	 0.423373659398025 
2365	 0.275467222794299 
2366	 6.49933544833854E-02 
2367	 0.108037667992981 
2368	 0.131720265654817 
2369	 0.196101245913348 
2370	 2.33033274376446 
2371	 1.37523527251234 
2372	 0.510316455322578 
2373	 0.798881462102944 
2374	 0.708970815182976 
2375	 0.302587765738092 
2376	-0.258662701961425 
2377	-0.622289389805258 
2378	-0.731144464826357 
2379	-0.764642155732094 
2380	-0.151179579630226 
2381	 0.020592210076057 
2382	 3.18159162086968E-02 
2383	 6.21537509609549E-02 
2384	 0.157439000383841 
2385	 0.364572802598826 
2386	 0.430118647587629 
2387	 0.739308252789178 
2388	 0.684787317824104 
2389	-0.440065467507896 
2390	-0.510920180689448 
2391	-0.502970865324267 
2392	-0.627422721899864 
2393	-0.46614933064226 
2394	-0.350425083478587 
2395	-0.527126549612575 
2396	-0.308437200587055 
2397	-6.68749657543459E-02 
2398	-7.82408963416464E-02 
2399	 1.27478935388155E-02 
2400	-4.71347629283066E-02 
2401	-0.207972844362704 
2402	-0.224999946718257 
2403	-3.32213101780244E-02 
2404	 0.170122817513244 
2405	 0.187230861218322 
2406	 0.448496987702985 
2407	 0.269782372242997 
2408	 0.158489877078276 
2409	 0.356855489667922 
2410	 0.255346316761022 
2411	 2.77522679033129E-02 
2412	 0.256623273212067 
2413	 0.366297554076805 
2414	 8.09484622598118E-02 
2415	 0.360969607979095 
2416	 0.66698721134099 
2417	-0.289883532622145 
2418	 1.15327634875827 
2419	 2.88659383945378 
2420	-2.3453886408894 
2421	 0.116982017299781 
2422	 1.50696570827067 
2423	-0.41419022505797 
2424	 0.200646530410921 
2425	 4.57091434865846 
2426	 4.58140308702751 
2427	-1.0225775312708 
2428	-0.676183958138957 
2429	-0.339646680613159 
2430	-7.32064087894886E-02 
2431	-0.445298131717103 
2432	-0.673389820399371 
2433	-0.490912281146945 
2434	-0.605545929844492 
2435	-0.645154752592304 
2436	-0.842733477630593 
2437	 2.0661144524713 
2438	 1.30507071621114 
2439	 0.465293397024963 
2440	-0.013933334789948 
2441	 0.305660652644187 
2442	-2.28496021962088E-02 
2443	 2.20637297674394 
2444	-9.10093964245062 
2445	-4.41406984928673 
2446	-2.17940391154547 
2447	-1.42753504467076 
2448	-1.59508471339152 
2449	-11.49509440049 
2450	 13.2779614754705 
2451	 0.16622596037872 
2452	 1.30728761284701E-04 
2453	-4.37873894440858 
2454	 2.41099039098518 
2455	-41.1827565162428 
2456	-1.95317440536794 
2457	-3.86881609286528 
2458	-5.96077752699814 
2459	-2.310499575459 
2460	-5.00989896348919 
2461	-1.9783248894879 
2462	 4.54115435532344 
2463	 42.7572496812764 
2464	 0.267179187360493 
2465	-0.459548091126601 
2466	-5.69147453953664 
2467	 0.498852560461982 
2468	 0.388952245309105 
2469	 3.11588048555337E-02 
2470	 0.146333918615914 
2471	 1.06259680208825 
2472	 0.976752911864548 
2473	 3.22994134265372 
2474	 1.65152023938099 
2475	 2.66254370231211E-02 
2476	 2.13746162385197 
2477	 1.17882548897366 
2478	 0.619792139234721 
2479	 1.33147085118491 
2480	-2.11963075629131 
2481	-3.81316429294412 
2482	-17.3231064586898 
2483	-9.53436756522433 
2484	 2.51789025979119 
2485	 0.773500289145184 
2486	 0.444958456269751 
2487	 1.21657861360809 
2488	 1.34419381920195 
2489	 1.2295833341767 
2490	 1.13075395966185 
2491	 0.673082442858704 
2492	 0.460234632619152 
2493	 0.292269860470278 
2494	 0.1048950467333 
2495	-0.35738039844873 
2496	-0.296653115437546 
2497	 3.29071156685237 
2498	 8.47431973084929 
2499	-4.6640398077351 
2500	-3.25014765579991 
