Wavelength	rt0629clean00005.asd
350	 5.44182300126339E-02 
351	 5.45095029660798E-02 
352	 5.47921353370641E-02 
353	 5.51449035375037E-02 
354	 5.52286584280904E-02 
355	 5.42116728186006E-02 
356	 5.37391095991621E-02 
357	 5.37953237111542E-02 
358	 5.38712061060231E-02 
359	 5.38882815503666E-02 
360	 5.40342361684823E-02 
361	 5.43436449312596E-02 
362	 5.46893535366189E-02 
363	 5.44704990934435E-02 
364	 5.44606520163796E-02 
365	 5.47942618798248E-02 
366	 5.44129164555118E-02 
367	 5.40971838377493E-02 
368	 5.41885269302798E-02 
369	 5.46075551462291E-02 
370	 5.42475131039822E-02 
371	 5.42033414334886E-02 
372	 5.44895687629658E-02 
373	 5.44851856181886E-02 
374	 5.40803589697299E-02 
375	 5.41690722693244E-02 
376	 5.47243768239114E-02 
377	 5.43897832848271E-02 
378	 5.45205732395801E-02 
379	 5.49409188179934E-02 
380	 5.51894269178018E-02 
381	 5.50774245397067E-02 
382	 5.52345332526413E-02 
383	 5.53552873753735E-02 
384	 5.49421374017257E-02 
385	 5.55763078806876E-02 
386	 5.57256038650613E-02 
387	 5.51191711264496E-02 
388	 5.51097637339921E-02 
389	 5.55372867483358E-02 
390	 5.58498085286709E-02 
391	 5.57831250480881E-02 
392	 5.59467073340592E-02 
393	 5.61601393247904E-02 
394	 5.62698107932141E-02 
395	 0.05621112563959 
396	 5.63340291214289E-02 
397	 5.62674235368438E-02 
398	 5.60878614598472E-02 
399	 5.62418027375449E-02 
400	 5.62056679998141E-02 
401	 5.62912116775414E-02 
402	 5.66152290595688E-02 
403	 5.65930556513689E-02 
404	 5.64769861380708E-02 
405	 5.64557935069588E-02 
406	 5.66321760124452E-02 
407	 0.056739449929537 
408	 5.68502563179161E-02 
409	 5.69151500192575E-02 
410	 5.67739326202975E-02 
411	 5.70018881208641E-02 
412	 5.72963249097203E-02 
413	 0.057393459622961 
414	 5.75151440190526E-02 
415	 5.75490853784636E-02 
416	 5.75403879441312E-02 
417	 5.75876551275603E-02 
418	 5.77105003467775E-02 
419	 5.77907881055569E-02 
420	 0.05788045046626 
421	 5.82073608040701E-02 
422	 5.83959576118503E-02 
423	 5.85870187156393E-02 
424	 5.88937536593872E-02 
425	 5.90480066630802E-02 
426	 5.91623307658967E-02 
427	 5.93859583361932E-02 
428	 5.98090071612561E-02 
429	 5.99952731335446E-02 
430	 0.060155794186805 
431	 6.04202222659314E-02 
432	 6.07477022096983E-02 
433	 6.08246112262324E-02 
434	 6.09439924093453E-02 
435	 6.13370437530919E-02 
436	 6.16657708046087E-02 
437	 0.061918649888117 
438	 0.062120368305925 
439	 6.23318496135322E-02 
440	 0.06270130552864 
441	 6.30127886662732E-02 
442	 6.31871421374289E-02 
443	 6.33998250951009E-02 
444	 6.35917102553879E-02 
445	 6.37619351588798E-02 
446	 6.39414093675554E-02 
447	 6.42566283369692E-02 
448	 6.43764197285728E-02 
449	 6.44330234493251E-02 
450	 6.48396198361304E-02 
451	 6.49154335496631E-02 
452	 6.50279573271359E-02 
453	 6.53772696827869E-02 
454	 6.55145161876802E-02 
455	 6.56687096660231E-02 
456	 6.58177156912342E-02 
457	 6.59025420852692E-02 
458	 6.61212286690611E-02 
459	 6.63544962557225E-02 
460	 6.64954786900286E-02 
461	 6.64806465812911E-02 
462	 6.65815436647458E-02 
463	 6.67474499255847E-02 
464	 6.68896858635865E-02 
465	 6.70134518422228E-02 
466	 6.71096218130365E-02 
467	 6.72198442027006E-02 
468	 6.73861861600518E-02 
469	 6.74422829695067E-02 
470	 0.067604052185194 
471	 6.78546580574761E-02 
472	 6.78276655525629E-02 
473	 6.79652003575093E-02 
474	 6.81852918713907E-02 
475	 6.83319051650939E-02 
476	 6.85010920792783E-02 
477	 6.86791364584128E-02 
478	 6.88319515804082E-02 
479	 0.068926158647601 
480	 0.069075096128052 
481	 6.93189262367541E-02 
482	 6.95912584811129E-02 
483	 6.96163591570395E-02 
484	 6.98173352664264E-02 
485	 7.01288702455114E-02 
486	 7.03376139610889E-02 
487	 7.05118392712908E-02 
488	 7.07155858618046E-02 
489	 7.09504832488091E-02 
490	 7.11613073580475E-02 
491	 0.071398479514629 
492	 7.16508822072217E-02 
493	 7.19131582338191E-02 
494	 7.22434143509105E-02 
495	 7.25128728052387E-02 
496	 7.27259456825652E-02 
497	 7.29633903484429E-02 
498	 7.33029617874046E-02 
499	 7.35756632034776E-02 
500	 7.37775582933587E-02 
501	 7.41984425068844E-02 
502	 7.44477960293568E-02 
503	 7.46699928555115E-02 
504	 7.50556515180006E-02 
505	 7.53299068351756E-02 
506	 7.55602581791215E-02 
507	 7.58045046909998E-02 
508	 7.61068168443594E-02 
509	 7.65437630782957E-02 
510	 7.68953676400896E-02 
511	 7.70776196904208E-02 
512	 7.74270804705387E-02 
513	 7.77795528506374E-02 
514	 7.81381823418185E-02 
515	 7.85493825120904E-02 
516	 7.88979030174522E-02 
517	 7.92827889769014E-02 
518	 7.97117571080193E-02 
519	 8.00613945029244E-02 
520	 8.05194335879099E-02 
521	 8.09207820451037E-02 
522	 8.11520165468721E-02 
523	 8.15393951351674E-02 
524	 8.19666442287048E-02 
525	 8.23994951338961E-02 
526	 8.28550704553047E-02 
527	 8.32032529138223E-02 
528	 8.35632744939899E-02 
529	 8.39988600274946E-02 
530	 8.43924845654876E-02 
531	 8.48683178758595E-02 
532	 8.53303627515763E-02 
533	 8.56459799607413E-02 
534	 8.59806494011093E-02 
535	 8.63832546867321E-02 
536	 0.086831374275346 
537	 8.72327025062114E-02 
538	 8.76598027789764E-02 
539	 8.81497010148927E-02 
540	 8.86791828477856E-02 
541	 8.90591332377877E-02 
542	 8.94732694791149E-02 
543	 8.99241879859471E-02 
544	 9.03121302790622E-02 
545	 9.07302379088097E-02 
546	 9.11746063579067E-02 
547	 9.16248872949909E-02 
548	 0.092053190565113 
549	 9.25219247850118E-02 
550	 9.29823655109157E-02 
551	 9.33654201520938E-02 
552	 9.37089392152401E-02 
553	 9.41484490325219E-02 
554	 9.46566117719489E-02 
555	 9.50223512115496E-02 
556	 9.54949955165529E-02 
557	 9.59553607606893E-02 
558	 9.62860444669751E-02 
559	 9.66811106193548E-02 
560	 9.70973687223293E-02 
561	 9.74917817051014E-02 
562	 0.097833109413375 
563	 9.82061931549631E-02 
564	 9.85577756100184E-02 
565	 9.88472689685018E-02 
566	 0.099086930031334 
567	 9.93890779851126E-02 
568	 0.099739407890511 
569	 0.10006537095932 
570	 0.100304664690666 
571	 0.100466675363365 
572	 0.100631072563507 
573	 0.100935072972188 
574	 0.101072017964196 
575	 0.101186460739354 
576	 0.101420643678111 
577	 0.101564254191929 
578	 0.101690512608566 
579	 0.101792264992645 
580	 0.101826113358785 
581	 0.10188474987557 
582	 0.101912070499249 
583	 0.101874265003195 
584	 0.101798531286585 
585	 0.101884591209432 
586	 0.10194250631154 
587	 0.101730182456455 
588	 0.10166424973509 
589	 0.10164166613326 
590	 0.101587815327696 
591	 0.101496658179391 
592	 0.101292220693539 
593	 0.101014840608707 
594	 0.100713680616054 
595	 0.100367664759643 
596	 0.099995033714765 
597	 9.95835232677069E-02 
598	 9.91198886831388E-02 
599	 9.87249435381714E-02 
600	 9.83575515186731E-02 
601	 9.80144891881762E-02 
602	 9.77931763106159E-02 
603	 9.76227206174643E-02 
604	 9.74839057521419E-02 
605	 9.73767351330529E-02 
606	 9.73029378384789E-02 
607	 0.097300834230639 
608	 9.73087233854369E-02 
609	 9.71722611480203E-02 
610	 9.71026392481979E-02 
611	 9.71427089257254E-02 
612	 9.72240818855578E-02 
613	 9.70578022345879E-02 
614	 9.69775057109165E-02 
615	 9.70029710537951E-02 
616	 9.69761150316823E-02 
617	 0.096874489153362 
618	 9.68814067914022E-02 
619	 9.69876329221125E-02 
620	 9.68365059522129E-02 
621	 9.67483637560867E-02 
622	 9.67610239060395E-02 
623	 0.096809321323501 
624	 9.68022050348792E-02 
625	 9.68023205673515E-02 
626	 0.096776113011969 
627	 0.096611698536753 
628	 9.66632879911804E-02 
629	 9.66895379711884E-02 
630	 9.65241637722994E-02 
631	 9.65056521971094E-02 
632	 9.64754485458994E-02 
633	 9.64420338518415E-02 
634	 9.64628021545294E-02 
635	 9.63674215737914E-02 
636	 9.62484657594697E-02 
637	 9.61678652579106E-02 
638	 9.61067838230492E-02 
639	 9.60319694210614E-02 
640	 9.59368711551278E-02 
641	 0.095828745728473 
642	 9.57214823866337E-02 
643	 9.56261506733786E-02 
644	 9.55394509359683E-02 
645	 9.54467972809579E-02 
646	 0.095342408844936 
647	 9.52252869232517E-02 
648	 9.50744551342192E-02 
649	 0.094799375902016 
650	 0.094580146694282 
651	 9.44177582180115E-02 
652	 9.42398224904958E-02 
653	 9.39603828095042E-02 
654	 9.36502499544026E-02 
655	 9.32835364654677E-02 
656	 9.27481344652199E-02 
657	 9.23673210824743E-02 
658	 9.20619290007801E-02 
659	 9.17019419704392E-02 
660	 9.12807539106606E-02 
661	 9.10475000277829E-02 
662	 9.09483071914798E-02 
663	 9.07526875052197E-02 
664	 9.05370260429407E-02 
665	 9.03115938437876E-02 
666	 9.00946526601224E-02 
667	 8.99324405663589E-02 
668	 8.98299477923547E-02 
669	 8.97669876164778E-02 
670	 8.97079232994421E-02 
671	 0.089584485112434 
672	 8.95726191959113E-02 
673	 8.96578471926494E-02 
674	 0.089646375962807 
675	 8.95893151263771E-02 
676	 8.96041454926065E-02 
677	 8.97275869303816E-02 
678	 8.97625506724409E-02 
679	 8.97934909011122E-02 
680	 8.98572994302894E-02 
681	 8.99591426951696E-02 
682	 9.00122864273641E-02 
683	 9.01207924275735E-02 
684	 0.090299176402513 
685	 0.090436769236414 
686	 9.05214214064263E-02 
687	 9.06368461823427E-02 
688	 9.08214212364044E-02 
689	 9.08819468805003E-02 
690	 9.08798752902507E-02 
691	 9.08338767990769E-02 
692	 9.07477321360328E-02 
693	 9.07895150056257E-02 
694	 9.06696768544381E-02 
695	 9.03086799347226E-02 
696	 8.99991795099499E-02 
697	 8.98026666359638E-02 
698	 8.95852607994067E-02 
699	 8.92193024457681E-02 
700	 0.088928685660502 
701	 8.85083349306547E-02 
702	 8.79968284778895E-02 
703	 0.087589756478212 
704	 8.69382109045379E-02 
705	 8.62193718940872E-02 
706	 8.55917547323512E-02 
707	 8.49560600146309E-02 
708	 8.41955308629282E-02 
709	 8.33139686814179E-02 
710	 0.082363483358206 
711	 8.13418558850548E-02 
712	 8.01977066659067E-02 
713	 7.90009388948127E-02 
714	 7.79203848718588E-02 
715	 7.70226459640606E-02 
716	 7.59526528334129E-02 
717	 7.44232138403748E-02 
718	 7.28037319257101E-02 
719	 7.11308042935301E-02 
720	 6.97391711601903E-02 
721	 6.85481995929002E-02 
722	 6.73033364052076E-02 
723	 6.58514281910216E-02 
724	 6.42948842378103E-02 
725	 6.25985362722176E-02 
726	 6.09537126050614E-02 
727	 5.92664951073349E-02 
728	 5.74386851950908E-02 
729	 0.055490484723582 
730	 5.34255247754364E-02 
731	 5.14338444562688E-02 
732	 0.049643095063571 
733	 4.82853799371117E-02 
734	 4.70819788867447E-02 
735	 4.59923013634431E-02 
736	 4.52830105717801E-02 
737	 4.46082567711184E-02 
738	 4.40318445170173E-02 
739	 0.04363440842695 
740	 4.31948105915243E-02 
741	 4.28889194969668E-02 
742	 4.27630501694234E-02 
743	 4.27543324014909E-02 
744	 4.26054395405042E-02 
745	 4.24059438688641E-02 
746	 4.22630583638384E-02 
747	 4.22509169879848E-02 
748	 0.042198373083316 
749	 4.21028835688754E-02 
750	 4.20073382708763E-02 
751	 4.19363655305571E-02 
752	 4.19206881504246E-02 
753	 4.18686581329636E-02 
754	 4.16758857235165E-02 
755	 4.17172775635373E-02 
756	 0.041691108384601 
757	 4.15229219692144E-02 
758	 4.15725700401647E-02 
759	 4.18135455311335E-02 
760	 4.19172894578717E-02 
761	 4.15673979684755E-02 
762	 4.16097059928521E-02 
763	 4.16867319800591E-02 
764	 4.16791904590675E-02 
765	 4.16110470946067E-02 
766	 0.041640617747982 
767	 4.17184552539688E-02 
768	 0.04178965950789 
769	 0.041794994135917 
770	 4.19448625440257E-02 
771	 4.20893222480225E-02 
772	 4.21213116234983E-02 
773	 4.22540858971682E-02 
774	 4.23713008171346E-02 
775	 0.042485014751913 
776	 4.26640748819645E-02 
777	 4.29712365620368E-02 
778	 4.31981746747307E-02 
779	 4.33289551163558E-02 
780	 4.35550824949114E-02 
781	 4.38003456714708E-02 
782	 0.044017955939812 
783	 4.42090456843962E-02 
784	 4.44732524627321E-02 
785	 4.47713666982367E-02 
786	 4.50381574569841E-02 
787	 4.52564087505585E-02 
788	 4.57253757619671E-02 
789	 4.61068846317973E-02 
790	 4.63119511752498E-02 
791	 4.65149544946206E-02 
792	 4.69960984997624E-02 
793	 4.74445126678863E-02 
794	 0.047682464909589 
795	 4.78588259789942E-02 
796	 4.82722133409242E-02 
797	 4.87019694466902E-02 
798	 4.89346326733726E-02 
799	 4.92675859119731E-02 
800	 0.049635701411537 
801	 4.98961245327282E-02 
802	 4.99243011580066E-02 
803	 4.99752325433803E-02 
804	 5.02060506478973E-02 
805	 5.04863038744693E-02 
806	 5.04219398535089E-02 
807	 5.03249811025878E-02 
808	 5.03549163324782E-02 
809	 5.04984538991791E-02 
810	 5.03658076784143E-02 
811	 5.02735775760326E-02 
812	 5.01533872520918E-02 
813	 4.98257440750242E-02 
814	 4.95237924598195E-02 
815	 4.92242249040577E-02 
816	 4.88734478476323E-02 
817	 4.84100597806498E-02 
818	 4.78233063397743E-02 
819	 4.72745566826336E-02 
820	 4.67499437113865E-02 
821	 0.04605425615493 
822	 4.52261789967829E-02 
823	 4.40800217772361E-02 
824	 4.27155609474925E-02 
825	 4.17721731575454E-02 
826	 4.05957654047926E-02 
827	 3.91622262560998E-02 
828	 3.77535031812373E-02 
829	 3.62283459059871E-02 
830	 3.51388994732507E-02 
831	 3.43349624549096E-02 
832	 3.32566852497696E-02 
833	 3.24610170863608E-02 
834	 3.19411936084389E-02 
835	 3.15898108080638E-02 
836	 3.12841374841687E-02 
837	 3.08768491137044E-02 
838	 3.04316064625768E-02 
839	 3.00567586378909E-02 
840	 2.98351720628555E-02 
841	 2.97006432891323E-02 
842	 2.94992875977194E-02 
843	 0.029122451159889 
844	 2.87854843908036E-02 
845	 2.86246373951262E-02 
846	 2.85025092669425E-02 
847	 2.81523853023235E-02 
848	 2.79434642170957E-02 
849	 2.77090056575583E-02 
850	 2.74617678018916E-02 
851	 2.74826523323786E-02 
852	 2.72161672048354E-02 
853	 2.68866128830234E-02 
854	 2.66731213052792E-02 
855	 2.62679100599198E-02 
856	 2.61411604984781E-02 
857	 2.61972008342173E-02 
858	 0.026168474358514 
859	 2.57654403567608E-02 
860	 2.55816064614692E-02 
861	 0.025576080583364 
862	 2.53948499523921E-02 
863	 2.50023827442203E-02 
864	 2.49196260724292E-02 
865	 2.50392999631468E-02 
866	 2.47318807303512E-02 
867	 2.46506650242568E-02 
868	 0.024434171288246 
869	 2.40179649070192E-02 
870	 2.38718840715246E-02 
871	 2.36496967549045E-02 
872	 2.34724600313329E-02 
873	 2.34188396769876E-02 
874	 2.32720111534175E-02 
875	 2.28691309423854E-02 
876	 2.25987101977723E-02 
877	 2.27315355994715E-02 
878	 2.24850948375454E-02 
879	 2.21997747369301E-02 
880	 2.19127340839724E-02 
881	 2.15721381037586E-02 
882	 2.14999323133532E-02 
883	 2.11864609635567E-02 
884	 2.08532909140564E-02 
885	 2.11167517647294E-02 
886	 0.020755959607844 
887	 2.04575399629017E-02 
888	 2.04110168340217E-02 
889	 2.00532039811139E-02 
890	 2.00473452738761E-02 
891	 0.02009646553636 
892	 1.99071618679478E-02 
893	 1.95298341704279E-02 
894	 1.94474414104277E-02 
895	 1.95050383865378E-02 
896	 1.93883835162206E-02 
897	 1.90213335727529E-02 
898	 0.019011089776253 
899	 0.019252831414007 
900	 1.93248320154765E-02 
901	 1.88900698777036E-02 
902	 1.84047413263375E-02 
903	 1.79700678325817E-02 
904	 1.76418873546971E-02 
905	 1.80910763338193E-02 
906	 1.82514219299694E-02 
907	 0.017815564813157 
908	 0.017188554311896 
909	 1.68782621315459E-02 
910	 1.68902482768352E-02 
911	 1.70337312253031E-02 
912	 1.70310615602611E-02 
913	 1.68578681576919E-02 
914	 1.68490494982694E-02 
915	 1.68294234914134E-02 
916	 1.61301795434572E-02 
917	 1.54401514349344E-02 
918	 1.51318472728739E-02 
919	 1.53018250182856E-02 
920	 1.57771584052639E-02 
921	 0.015811204626478 
922	 1.52419326944455E-02 
923	 1.43488473924511E-02 
924	 1.40457769052972E-02 
925	 1.50684543546426E-02 
926	 0.015570068434261 
927	 1.40741310343658E-02 
928	 1.43208585892845E-02 
929	 1.52695364799129E-02 
930	 1.66303995870236E-02 
931	 0.017638874121443 
932	 1.41209180470853E-02 
933	 1.38873062388781E-02 
934	 1.55576737588858E-02 
935	 1.31201714830547E-02 
936	 1.07022991934899E-02 
937	 1.46510827828743E-02 
938	 1.74654691031644E-02 
939	 1.31253331951358E-02 
940	 1.53600747429204E-02 
941	 1.54144902824072E-02 
942	 1.42844772161501E-02 
943	 1.64607843480581E-02 
944	 1.50310445415608E-02 
945	 1.25767241620554E-02 
946	 1.23933703166073E-02 
947	 1.56739485812685E-02 
948	 1.46317909195474E-02 
949	 1.28161569583651E-02 
950	 0.013064109939602 
951	 1.56417164410965E-02 
952	 1.21121751683961E-02 
953	 1.09052174498731E-02 
954	 1.26165862104475E-02 
955	 1.26030719457506E-02 
956	 1.49193074069159E-02 
957	 1.43251661150068E-02 
958	 1.16860506056249E-02 
959	 1.15351635349218E-02 
960	 1.06014691278406E-02 
961	 1.11893821146682E-02 
962	 0.012993861506298 
963	 1.36785310305802E-02 
964	 1.15940332545415E-02 
965	 1.16016199608977E-02 
966	 1.27920603040187E-02 
967	 1.08860567807073E-02 
968	 9.74316237004411E-03 
969	 1.05932259640286E-02 
970	 1.20730701198991E-02 
971	 1.14825226774239E-02 
972	 1.19264304499435E-02 
973	 0.011649320601084 
974	 1.08256064809978E-02 
975	 1.16198036166299E-02 
976	 1.23353993101286E-02 
977	 1.12530960002019E-02 
978	 9.55954843497301E-03 
979	 1.02727166612183E-02 
980	 1.16771088699034E-02 
981	 1.25318468344816E-02 
982	 1.26505643167675E-02 
983	 1.24740756024421E-02 
984	 1.02997995908234E-02 
985	 9.7718216478201E-03 
986	 1.08780673563161E-02 
987	 0.010781116548549 
988	 1.12232716530184E-02 
989	 1.14327351801602E-02 
990	 1.10736853937982E-02 
991	 1.05748428661366E-02 
992	 0.011904971898802 
993	 1.23653830591746E-02 
994	 1.15042947581451E-02 
995	 1.06630042258249E-02 
996	 9.55919928051011E-03 
997	 9.67072418130858E-03 
998	 1.04172592492602E-02 
999	 1.05472037179193E-02 
1000	 1.35087283263859E-02 
1001	 9.51876332019112E-03 
1002	 9.35508475358165E-03 
1003	 9.37405830595197E-03 
1004	 9.40023933761269E-03 
1005	 9.55607163111078E-03 
1006	 0.010073532250924 
1007	 1.01210832997998E-02 
1008	 1.01634633135827E-02 
1009	 0.010333418612496 
1010	 1.00031018242853E-02 
1011	 9.93749462762647E-03 
1012	 1.00517039218412E-02 
1013	 9.88610394008848E-03 
1014	 9.89016941892421E-03 
1015	 0.010074290751364 
1016	 1.00808753788289E-02 
1017	 9.95721823481641E-03 
1018	 9.98664634021061E-03 
1019	 1.01271766811901E-02 
1020	 1.00734982018857E-02 
1021	 9.90424758909599E-03 
1022	 9.95006562514312E-03 
1023	 9.74262578644106E-03 
1024	 9.57927175077906E-03 
1025	 9.74061628667897E-03 
1026	 9.76232748890337E-03 
1027	 9.86169408293821E-03 
1028	 1.00533391678543E-02 
1029	 1.01730274535028E-02 
1030	 1.03220633286794E-02 
1031	 1.03624748455179E-02 
1032	 1.03911575590501E-02 
1033	 1.02915802513881E-02 
1034	 9.88910430605734E-03 
1035	 9.82237155868691E-03 
1036	 9.82167378518696E-03 
1037	 9.86706743020261E-03 
1038	 1.01197807487905E-02 
1039	 1.04200880165483E-02 
1040	 1.05473040819576E-02 
1041	 1.06417953715177E-02 
1042	 0.010584383324393 
1043	 1.04007298826806E-02 
1044	 1.02700438978041E-02 
1045	 9.89589468980458E-03 
1046	 9.9078855710723E-03 
1047	 1.02076800281635E-02 
1048	 0.010248379456976 
1049	 1.04173843847897E-02 
1050	 1.04374825789414E-02 
1051	 1.01150158117623E-02 
1052	 1.00844326150603E-02 
1053	 1.02584746365489E-02 
1054	 1.03004458735752E-02 
1055	 1.04317698925193E-02 
1056	 1.04522151500785E-02 
1057	 1.03980095499671E-02 
1058	 1.01315100841291E-02 
1059	 1.01602125669011E-02 
1060	 1.02988196136536E-02 
1061	 1.03410554987086E-02 
1062	 1.05094331434664E-02 
1063	 1.05582154404293E-02 
1064	 1.04441977419747E-02 
1065	 1.04254242691809E-02 
1066	 1.05001242742695E-02 
1067	 1.04774580565245E-02 
1068	 1.03452916328443E-02 
1069	 1.03111541662842E-02 
1070	 1.03371308178678E-02 
1071	 1.02767794772313E-02 
1072	 1.00621643916934E-02 
1073	 1.01860984856518E-02 
1074	 1.01203266320006E-02 
1075	 9.92475729397693E-03 
1076	 9.9123926651131E-03 
1077	 1.00299367328426E-02 
1078	 1.00184025727638E-02 
1079	 9.97510884562258E-03 
1080	 9.98257204042116E-03 
1081	 1.01552938684064E-02 
1082	 0.009981203377996 
1083	 9.41112100116481E-03 
1084	 9.32507350882237E-03 
1085	 9.11758895248448E-03 
1086	 9.13279149373894E-03 
1087	 9.94471369646062E-03 
1088	 1.02703814916993E-02 
1089	 1.04454133964959E-02 
1090	 1.05039227252361E-02 
1091	 1.02277224240966E-02 
1092	 9.38121713235692E-03 
1093	 9.21083861144904E-03 
1094	 9.06204836418272E-03 
1095	 8.95294380175079E-03 
1096	 9.42937894992324E-03 
1097	 9.46707318684738E-03 
1098	 8.92028895136138E-03 
1099	 8.85816598633701E-03 
1100	 9.11436589713144E-03 
1101	 9.07965433875365E-03 
1102	 9.20562230806956E-03 
1103	 9.30231856617396E-03 
1104	 9.3042496780249E-03 
1105	 8.98396266411436E-03 
1106	 9.0685427509855E-03 
1107	 8.61172836925106E-03 
1108	 8.43645953670751E-03 
1109	 8.76714701866858E-03 
1110	 8.81806875155136E-03 
1111	 9.10716018552601E-03 
1112	 9.41083116566415E-03 
1113	 9.73602350891034E-03 
1114	 9.64495480830795E-03 
1115	 9.05702651505991E-03 
1116	 9.07308814662638E-03 
1117	 8.75902244281695E-03 
1118	 8.79329219814297E-03 
1119	 1.12665842266279E-02 
1120	 1.27289424020269E-02 
1121	 1.34284080326492E-02 
1122	 1.28283462184516E-02 
1123	 1.21083402069809E-02 
1124	 8.05777054915802E-03 
1125	 7.61805379884785E-03 
1126	 1.14954182050118E-02 
1127	 1.15243447712099E-02 
1128	 1.21406195603342E-02 
1129	 1.20976979338758E-02 
1130	 7.85386868862457E-03 
1131	 7.62920064293095E-03 
1132	 1.20080103108232E-02 
1133	 1.16962739329531E-02 
1134	 8.81984728483211E-03 
1135	 8.44881629217948E-03 
1136	 7.73882823014261E-03 
1137	 7.19948124080437E-03 
1138	 7.58454814216354E-03 
1139	 8.64147499849924E-03 
1140	 8.40958470162293E-03 
1141	 7.42060771905523E-03 
1142	 8.19677886390572E-03 
1143	 9.54363377595341E-03 
1144	 1.06476342312673E-02 
1145	 1.19679735949225E-02 
1146	 1.06477798991312E-02 
1147	 8.47572872584579E-03 
1148	 9.00224708267567E-03 
1149	 9.40164241671075E-03 
1150	 8.57625800891103E-03 
1151	 7.76005973321222E-03 
1152	 8.04366895342858E-03 
1153	 7.52003998648012E-03 
1154	 7.20371156187519E-03 
1155	 7.60499256635202E-03 
1156	 8.43602612135142E-03 
1157	 7.83965899420161E-03 
1158	 7.28552708144077E-03 
1159	 7.43978110878351E-03 
1160	 7.56635236683759E-03 
1161	 7.33821266333262E-03 
1162	 7.26674272627296E-03 
1163	 7.62912533034925E-03 
1164	 7.69200340316981E-03 
1165	 7.52152834386243E-03 
1166	 7.8000050967153E-03 
1167	 7.90068135430581E-03 
1168	 7.57779325122377E-03 
1169	 7.63102465054735E-03 
1170	 7.88570773788968E-03 
1171	 7.88384677767344E-03 
1172	 7.60517804272647E-03 
1173	 7.63613235616269E-03 
1174	 7.79006586365444E-03 
1175	 0.007786377647132 
1176	 7.83291418757954E-03 
1177	 7.79243961506078E-03 
1178	 7.42329497713437E-03 
1179	 7.14108604674979E-03 
1180	 7.11489530690833E-03 
1181	 7.28675988243215E-03 
1182	 7.7966001590532E-03 
1183	 7.99472434983706E-03 
1184	 7.56707214051857E-03 
1185	 7.48439080518701E-03 
1186	 7.68693417664941E-03 
1187	 7.70280644657825E-03 
1188	 7.68533468323626E-03 
1189	 7.42107828883369E-03 
1190	 7.16096726213179E-03 
1191	 7.30489359009918E-03 
1192	 7.30206350832894E-03 
1193	 7.55979132404551E-03 
1194	 7.63576019022107E-03 
1195	 7.4881726796508E-03 
1196	 7.35531372490769E-03 
1197	 7.36109078827645E-03 
1198	 7.54041731447607E-03 
1199	 7.73933912519701E-03 
1200	 7.53957609995774E-03 
1201	 7.37232660543433E-03 
1202	 7.61083464866008E-03 
1203	 7.64373289397163E-03 
1204	 7.38559517229611E-03 
1205	 7.34825781313894E-03 
1206	 7.39691781146902E-03 
1207	 7.2977987035388E-03 
1208	 7.3879131818401E-03 
1209	 7.44320272385609E-03 
1210	 7.30137640503432E-03 
1211	 7.40551536637385E-03 
1212	 7.5597342745783E-03 
1213	 7.5029825094666E-03 
1214	 7.44872827363543E-03 
1215	 7.28848740055715E-03 
1216	 7.15962743818968E-03 
1217	 7.17468591897108E-03 
1218	 7.28958888223962E-03 
1219	 7.27674771693943E-03 
1220	 7.08665009286576E-03 
1221	 7.07169587217878E-03 
1222	 7.12708565126587E-03 
1223	 7.05054515679454E-03 
1224	 7.06908048191175E-03 
1225	 7.07479989045367E-03 
1226	 6.96306672734267E-03 
1227	 6.88884246143629E-03 
1228	 7.01048642159904E-03 
1229	 7.16647799106086E-03 
1230	 7.07447746132141E-03 
1231	 7.09597555541762E-03 
1232	 7.32716820190726E-03 
1233	 7.26371443817678E-03 
1234	 7.07577411798103E-03 
1235	 7.06080837584176E-03 
1236	 7.15809643134094E-03 
1237	 7.11430938079011E-03 
1238	 7.00296411470271E-03 
1239	 7.17316954952387E-03 
1240	 7.24258706555679E-03 
1241	 7.1132275809305E-03 
1242	 7.12131801266048E-03 
1243	 7.13934513487469E-03 
1244	 6.97135251077166E-03 
1245	 6.95996987406469E-03 
1246	 7.12284478571602E-03 
1247	 7.11232292436022E-03 
1248	 7.09132245700751E-03 
1249	 7.10913959247981E-03 
1250	 7.08000101619653E-03 
1251	 7.02170776953664E-03 
1252	 6.87217779602827E-03 
1253	 0.006847289704804 
1254	 6.92807519541343E-03 
1255	 6.88685260385643E-03 
1256	 6.85582875391858E-03 
1257	 6.94005548799613E-03 
1258	 6.95596100098784E-03 
1259	 6.82096500661768E-03 
1260	 6.80570651946619E-03 
1261	 6.99190007923629E-03 
1262	 6.98657412971357E-03 
1263	 6.87822778738909E-03 
1264	 6.66783738012341E-03 
1265	 6.67445031896813E-03 
1266	 6.76927819568224E-03 
1267	 6.85465320098931E-03 
1268	 6.97456732973075E-03 
1269	 6.93416912237446E-03 
1270	 6.78587982407411E-03 
1271	 6.73048206470575E-03 
1272	 6.78053693494219E-03 
1273	 6.9373561485965E-03 
1274	 7.03743345073376E-03 
1275	 6.89913077186123E-03 
1276	 6.82290195119759E-03 
1277	 6.81510717693179E-03 
1278	 6.77718072837362E-03 
1279	 6.95765126717425E-03 
1280	 7.05077790412482E-03 
1281	 6.97455159171451E-03 
1282	 6.66628086223311E-03 
1283	 6.63997328928729E-03 
1284	 6.66100403563247E-03 
1285	 6.61381027274417E-03 
1286	 6.66747613229002E-03 
1287	 6.71112417913466E-03 
1288	 6.57553681692364E-03 
1289	 6.5199091110743E-03 
1290	 6.55826563921937E-03 
1291	 6.83203404332952E-03 
1292	 6.78819540068191E-03 
1293	 6.70228859438859E-03 
1294	 6.75356032433096E-03 
1295	 6.77212633061949E-03 
1296	 6.81659505124095E-03 
1297	 6.81712037577277E-03 
1298	 6.70696312481275E-03 
1299	 6.47724556531718E-03 
1300	 6.14462208567733E-03 
1301	 6.1317473558168E-03 
1302	 6.36358224940792E-03 
1303	 6.47441691481097E-03 
1304	 6.73072515544411E-03 
1305	 6.80880306202464E-03 
1306	 6.80698306962293E-03 
1307	 6.6927523505557E-03 
1308	 6.66972855714138E-03 
1309	 6.59526799726417E-03 
1310	 6.49162983654326E-03 
1311	 6.24963304863097E-03 
1312	 6.32376911007658E-03 
1313	 6.64256641878174E-03 
1314	 6.67003897948295E-03 
1315	 6.80150044003692E-03 
1316	 6.9209907520455E-03 
1317	 6.83489133054322E-03 
1318	 6.62955123499173E-03 
1319	 6.30407801112068E-03 
1320	 6.28780107848719E-03 
1321	 6.18971359311997E-03 
1322	 6.19784093646167E-03 
1323	 6.5154513534649E-03 
1324	 6.77969459500177E-03 
1325	 6.73573534939386E-03 
1326	 6.46299214451958E-03 
1327	 6.55792280084425E-03 
1328	 7.32870175711475E-03 
1329	 7.17356652044959E-03 
1330	 6.40289377835272E-03 
1331	 6.40708088292701E-03 
1332	 6.33806930010629E-03 
1333	 6.12273631477396E-03 
1334	 6.37156127068918E-03 
1335	 6.68626072784108E-03 
1336	 6.5115718418778E-03 
1337	 6.26720279061952E-03 
1338	 6.64702677432611E-03 
1339	 7.09659777391981E-03 
1340	 7.19380781474721E-03 
1341	 7.13605661113879E-03 
1342	 7.12987320439105E-03 
1343	 7.38299354271526E-03 
1344	 7.30971444208196E-03 
1345	 7.46495296807765E-03 
1346	 9.1423710107791E-03 
1347	 1.05277987893621E-02 
1348	 1.17907637564498E-02 
1349	 0.012222907977022 
1350	 1.03560762207074E-02 
1351	 1.06402646225285E-02 
1352	 5.82948471266798E-03 
1353	 5.62323350406761E-03 
1354	 1.89823215761189E-02 
1355	 6.58551805850688E-02 
1356	 7.64804334740156E-02 
1357	 4.10340617088004E-02 
1358	 1.59299762215551E-02 
1359	 1.26752297151393E-02 
1360	 4.75267641378287E-02 
1361	 0.109526677863358 
1362	 0.171827322738573 
1363	 0.20489761260517 
1364	 0.2522054866843 
1365	 0.369360944578142 
1366	 0.380790882819232 
1367	 0.294040747123067 
1368	 0.292789818683892 
1369	 0.336136427085571 
1370	 0.391760193797477 
1371	 0.531980056357595 
1372	 0.56007328023878 
1373	 0.620411960751225 
1374	 0.634012073840528 
1375	 0.434380692547466 
1376	 0.401569527702414 
1377	 0.445035061143233 
1378	 0.495701598868893 
1379	 0.624585924079181 
1380	 0.635480421687573 
1381	 0.658906782563558 
1382	 0.57148832810507 
1383	 0.148381266467058 
1384	 0.227942603277965 
1385	 0.76172814614299 
1386	 0.800581812701956 
1387	 0.701773558519445 
1388	 0.763213133668058 
1389	 0.641253754576806 
1390	 0.490768899539862 
1391	 0.437618736454968 
1392	 0.539721106703789 
1393	 0.710870320800045 
1394	 0.807199622727148 
1395	 0.988026652443814 
1396	 1.17530859396202 
1397	 0.998236852737377 
1398	 0.570008250325709 
1399	 0.370814862889306 
1400	 0.360984408919901 
1401	 0.241919067396887 
1402	 6.66366293151385E-02 
1403	 0.242063453091305 
1404	 0.412046136161528 
1405	 0.479946427218516 
1406	 0.440142290102398 
1407	 0.338351131378005 
1408	 0.25200504265652 
1409	 0.215317873858244 
1410	 7.19352449621431E-02 
1411	 0.110993143919224 
1412	 0.302605940088358 
1413	 0.26953659741567 
1414	 0.184199138587804 
1415	 0.153877255528588 
1416	 5.86479510978263E-02 
1417	 4.00865971544691E-02 
1418	 9.39315724810347E-02 
1419	 0.104966667744158 
1420	 0.121611420711895 
1421	 0.102400321801051 
1422	 6.54700251218387E-02 
1423	 5.17546790802898E-02 
1424	 2.92237377612371E-02 
1425	 2.25882812529304E-02 
1426	 3.10028658980472E-02 
1427	 3.58398873330463E-02 
1428	 4.20783231859028E-02 
1429	 4.17736248102121E-02 
1430	 0.042828719325131 
1431	 4.00965836094009E-02 
1432	 2.92212633275422E-02 
1433	 2.30247805048311E-02 
1434	 1.68306835121422E-02 
1435	 1.16793192600436E-02 
1436	 8.02031044871636E-04 
1437	 2.96766801660281E-03 
1438	 1.38531983158424E-02 
1439	 2.82395041099571E-02 
1440	 3.31621892362573E-02 
1441	 3.37998517805856E-02 
1442	 2.93550981511303E-02 
1443	 1.85505287801014E-02 
1444	 2.09255050123632E-02 
1445	 2.49042598649326E-02 
1446	 1.86011960490445E-02 
1447	 1.46384011671841E-02 
1448	 1.49219543000585E-02 
1449	 1.24494178822678E-02 
1450	 1.01407227029203E-02 
1451	 1.08175483556765E-02 
1452	 1.11970853032941E-02 
1453	 1.19244190043821E-02 
1454	 1.11089417892261E-02 
1455	 1.19793779552633E-02 
1456	 1.09072069859153E-02 
1457	 6.81097349129809E-03 
1458	 6.24179996218969E-03 
1459	 7.72306945174191E-03 
1460	 7.72385950463982E-03 
1461	 7.40997321607839E-03 
1462	 7.40355783361065E-03 
1463	 7.39652557540236E-03 
1464	 7.44842134621711E-03 
1465	 8.03357310237698E-03 
1466	 7.83198585312136E-03 
1467	 6.56058669915418E-03 
1468	 6.4671280327909E-03 
1469	 6.80952455902418E-03 
1470	 6.96814894447854E-03 
1471	 8.44759080545883E-03 
1472	 7.9108227857093E-03 
1473	 5.06960877690612E-03 
1474	 4.97756813245541E-03 
1475	 6.33750891907083E-03 
1476	 5.76765139549396E-03 
1477	 4.56321469839959E-03 
1478	 5.19294592682913E-03 
1479	 6.15578648414343E-03 
1480	 5.91102450948573E-03 
1481	 6.1476003277966E-03 
1482	 6.93741371286689E-03 
1483	 7.06696074920892E-03 
1484	 6.64909074262828E-03 
1485	 6.75161887233007E-03 
1486	 7.0310353529879E-03 
1487	 6.6833172518074E-03 
1488	 6.3845854050895E-03 
1489	 6.84504398743302E-03 
1490	 6.74239899748243E-03 
1491	 5.7613636618228E-03 
1492	 5.52594933559335E-03 
1493	 5.9260058351136E-03 
1494	 5.74509886676644E-03 
1495	 5.2038925960611E-03 
1496	 5.18052445795783E-03 
1497	 5.20220853536219E-03 
1498	 5.1658814873517E-03 
1499	 5.45615678689551E-03 
1500	 5.58022774998446E-03 
1501	 5.34293946112236E-03 
1502	 5.38166129042876E-03 
1503	 5.84483121415139E-03 
1504	 5.89029163735776E-03 
1505	 5.77788506332958E-03 
1506	 5.67225419174217E-03 
1507	 5.65993394813731E-03 
1508	 5.46162178005287E-03 
1509	 5.4191279895965E-03 
1510	 5.54196878559862E-03 
1511	 5.6161802773715E-03 
1512	 5.53529382488762E-03 
1513	 5.43980112930889E-03 
1514	 5.6380832862907E-03 
1515	 5.73839513221507E-03 
1516	 5.38741616012411E-03 
1517	 5.36423303645018E-03 
1518	 0.005614409539887 
1519	 5.45611119743315E-03 
1520	 5.5397743119238E-03 
1521	 5.77149418271852E-03 
1522	 5.54928929986507E-03 
1523	 5.41003956124923E-03 
1524	 5.49437031383542E-03 
1525	 5.51650636827889E-03 
1526	 5.49525813785939E-03 
1527	 5.40524459894276E-03 
1528	 5.42200130503732E-03 
1529	 5.56131270729686E-03 
1530	 5.57299921322177E-03 
1531	 5.60722774386581E-03 
1532	 5.69061599316345E-03 
1533	 5.5692538077786E-03 
1534	 5.35597389376759E-03 
1535	 5.38848569796136E-03 
1536	 5.47572664514851E-03 
1537	 5.30843899198661E-03 
1538	 5.29044477683518E-03 
1539	 5.39202680595996E-03 
1540	 5.26521318420778E-03 
1541	 5.29306554795334E-03 
1542	 5.48227485994983E-03 
1543	 5.48727245993371E-03 
1544	 5.38417975113019E-03 
1545	 5.40504541895029E-03 
1546	 5.47348853638411E-03 
1547	 5.28279094490399E-03 
1548	 5.24954010228169E-03 
1549	 5.5078357215033E-03 
1550	 5.45705011477763E-03 
1551	 5.42910296158433E-03 
1552	 5.61919071748132E-03 
1553	 5.5874541145972E-03 
1554	 5.5324023907349E-03 
1555	 5.51685700435832E-03 
1556	 5.46977447956426E-03 
1557	 5.56054173375329E-03 
1558	 5.53530046102871E-03 
1559	 5.35235778475256E-03 
1560	 5.34825231894416E-03 
1561	 5.41983043593095E-03 
1562	 5.37103327764924E-03 
1563	 5.24586634726425E-03 
1564	 5.26402617915498E-03 
1565	 5.47672372399912E-03 
1566	 5.52192912303761E-03 
1567	 5.52449179734067E-03 
1568	 5.63857388140761E-03 
1569	 5.56452626152954E-03 
1570	 5.42050550829973E-03 
1571	 5.48216552025767E-03 
1572	 5.59326692918571E-03 
1573	 5.4867889267882E-03 
1574	 5.46244009571868E-03 
1575	 5.6639801101347E-03 
1576	 5.64589492709947E-03 
1577	 5.57824709826736E-03 
1578	 5.62704571770512E-03 
1579	 5.42977301456696E-03 
1580	 5.32325104644348E-03 
1581	 5.49110206469842E-03 
1582	 5.3519877994605E-03 
1583	 5.16018961921416E-03 
1584	 5.35907921916844E-03 
1585	 5.38195211756922E-03 
1586	 5.27531978521888E-03 
1587	 5.42792784588565E-03 
1588	 5.40336419401976E-03 
1589	 5.18511825876381E-03 
1590	 5.26017418814733E-03 
1591	 5.51094812960196E-03 
1592	 5.56949246108604E-03 
1593	 5.64355778311625E-03 
1594	 5.64349992860126E-03 
1595	 5.34577988254497E-03 
1596	 5.25214785021651E-03 
1597	 5.35828448317761E-03 
1598	 5.39587722940061E-03 
1599	 5.47244111979223E-03 
1600	 5.41596570977996E-03 
1601	 5.32700632791201E-03 
1602	 5.31862208350429E-03 
1603	 5.28302588732564E-03 
1604	 5.36563531352858E-03 
1605	 5.36036176897405E-03 
1606	 5.19598557749022E-03 
1607	 5.09871512539193E-03 
1608	 5.10114713453636E-03 
1609	 5.10498510527739E-03 
1610	 5.09714971165672E-03 
1611	 5.32584521708422E-03 
1612	 5.50765438681813E-03 
1613	 5.48021375896721E-03 
1614	 5.53075219809881E-03 
1615	 5.38796048326252E-03 
1616	 5.11784649423506E-03 
1617	 5.07960799079847E-03 
1618	 5.13262296888313E-03 
1619	 5.20233405128899E-03 
1620	 5.27150044664307E-03 
1621	 5.25723871476914E-03 
1622	 5.2072179805859E-03 
1623	 5.24110366584561E-03 
1624	 5.33869865256452E-03 
1625	 5.35442447367455E-03 
1626	 5.23658490773012E-03 
1627	 5.13624681028464E-03 
1628	 5.14323996481682E-03 
1629	 4.99267004541937E-03 
1630	 4.92408036069168E-03 
1631	 5.33869393341587E-03 
1632	 5.49353617985667E-03 
1633	 5.24051853762047E-03 
1634	 5.36216061447613E-03 
1635	 5.52342780058313E-03 
1636	 5.39549212157895E-03 
1637	 5.35395166452387E-03 
1638	 0.005390961987244 
1639	 5.22762913556882E-03 
1640	 4.96320210712403E-03 
1641	 4.96596786595423E-03 
1642	 5.20106407130175E-03 
1643	 5.18866008423011E-03 
1644	 4.88701706365446E-03 
1645	 5.03147525528558E-03 
1646	 5.34494098817413E-03 
1647	 5.24940317925105E-03 
1648	 5.27247907766175E-03 
1649	 0.00536836237389 
1650	 5.15391384404727E-03 
1651	 4.84830334280562E-03 
1652	 4.91161863418359E-03 
1653	 5.21702897696516E-03 
1654	 5.18161676726572E-03 
1655	 5.40905391999525E-03 
1656	 5.40366605212919E-03 
1657	 4.7503419907451E-03 
1658	 4.6864137646849E-03 
1659	 5.06452194941546E-03 
1660	 5.11142550202265E-03 
1661	 5.20529411089487E-03 
1662	 5.24120147450992E-03 
1663	 5.04507426518424E-03 
1664	 5.0836625526782E-03 
1665	 0.005308946980232 
1666	 5.26347022892844E-03 
1667	 5.08633629436687E-03 
1668	 5.02836075946845E-03 
1669	 5.17458722242647E-03 
1670	 5.12869045520408E-03 
1671	 5.07772100547021E-03 
1672	 5.31102532277839E-03 
1673	 5.30082234798849E-03 
1674	 5.16357097877309E-03 
1675	 5.32147884430944E-03 
1676	 5.37934795345204E-03 
1677	 5.10290997105651E-03 
1678	 4.85210576325122E-03 
1679	 4.88406936677812E-03 
1680	 4.88206437775366E-03 
1681	 4.88448870835606E-03 
1682	 5.17544262007039E-03 
1683	 5.19325029788942E-03 
1684	 4.90568577787714E-03 
1685	 4.78433351127482E-03 
1686	 4.7609178220286E-03 
1687	 4.81689520250623E-03 
1688	 4.81999543279259E-03 
1689	 4.63751143999528E-03 
1690	 4.52357617943926E-03 
1691	 4.75919798093259E-03 
1692	 5.03243321945535E-03 
1693	 4.97764988872221E-03 
1694	 4.98889466789286E-03 
1695	 5.0635959840613E-03 
1696	 4.86306123934802E-03 
1697	 4.92451861747183E-03 
1698	 5.26212008418574E-03 
1699	 5.2169099205195E-03 
1700	 5.23576307426221E-03 
1701	 5.48048852343999E-03 
1702	 5.37302551696727E-03 
1703	 5.14441745566857E-03 
1704	 5.09299521674814E-03 
1705	 5.07624193102817E-03 
1706	 4.99359311623126E-03 
1707	 4.80009543464563E-03 
1708	 4.66727493674835E-03 
1709	 4.66369213950469E-03 
1710	 4.74741852402801E-03 
1711	 0.005072838933658 
1712	 5.22237969018313E-03 
1713	 5.25515387953689E-03 
1714	 5.16506653203449E-03 
1715	 4.70392922048682E-03 
1716	 4.71590068356723E-03 
1717	 4.72036683812518E-03 
1718	 4.80378908252106E-03 
1719	 4.57768195921253E-03 
1720	 4.56644144965938E-03 
1721	 4.81947769341186E-03 
1722	 5.03263985580496E-03 
1723	 5.47354437002623E-03 
1724	 5.30357642267907E-03 
1725	 4.77532400105475E-03 
1726	 4.76389026780156E-03 
1727	 4.60008777013838E-03 
1728	 4.61961445420418E-03 
1729	 4.78998966994864E-03 
1730	 4.66970442185967E-03 
1731	 5.00473647723101E-03 
1732	 5.17088685810535E-03 
1733	 4.97834611732607E-03 
1734	 4.98106754594642E-03 
1735	 4.63902222130737E-03 
1736	 4.72096628693709E-03 
1737	 5.33229342025026E-03 
1738	 5.21198492125607E-03 
1739	 4.9372035783038E-03 
1740	 4.93013523408815E-03 
1741	 4.91103364313849E-03 
1742	 5.03372429870111E-03 
1743	 5.05332338605937E-03 
1744	 4.54977892131714E-03 
1745	 4.10414403768915E-03 
1746	 4.45416684174332E-03 
1747	 4.70180978718749E-03 
1748	 5.41351775754174E-03 
1749	 5.51436272508341E-03 
1750	 5.16536057202268E-03 
1751	 5.0587015446502E-03 
1752	 4.68623633253013E-03 
1753	 4.71006657472753E-03 
1754	 5.19988597619661E-03 
1755	 5.26161525012305E-03 
1756	 5.13577290572534E-03 
1757	 4.8454238693148E-03 
1758	 4.64604803482929E-03 
1759	 5.06128741186744E-03 
1760	 5.65243966659489E-03 
1761	 5.51865871494265E-03 
1762	 5.40537548266423E-03 
1763	 4.66216457065198E-03 
1764	 3.45259026529844E-03 
1765	 3.55891073188726E-03 
1766	 4.17445983701371E-03 
1767	 4.77033421528588E-03 
1768	 5.64609227074604E-03 
1769	 5.57418204249121E-03 
1770	 4.77822249333434E-03 
1771	 4.62133521180262E-03 
1772	 4.9434991143924E-03 
1773	 5.3178394562977E-03 
1774	 5.58444869760774E-03 
1775	 4.84186547154479E-03 
1776	 4.58595991101886E-03 
1777	 4.64968700287306E-03 
1778	 4.9203911216421E-03 
1779	 5.77326906999085E-03 
1780	 6.25884258690057E-03 
1781	 6.88219019403156E-03 
1782	 6.8982775413234E-03 
1783	 5.91481101381339E-03 
1784	 5.7390539676005E-03 
1785	 5.43554143802685E-03 
1786	 5.54142679580219E-03 
1787	 7.52040555492055E-03 
1788	 6.97550567134167E-03 
1789	 4.00570094092622E-03 
1790	 5.98189748971154E-03 
1791	 4.75869024297939E-03 
1792	 7.22656957621879E-03 
1793	 1.17031918747592E-02 
1794	 8.79380290261982E-03 
1795	 8.51910441248882E-03 
1796	 9.0881752789654E-03 
1797	 6.76155588992191E-03 
1798	 7.56907110103427E-03 
1799	 6.0947731314798E-03 
1800	 1.12561496542649E-02 
1801	 0.012748426991906 
1802	 1.74216017336897E-02 
1803	 1.72996718282194E-02 
1804	-4.36815677027049E-03 
1805	-1.47671361477042E-02 
1806	-0.021726490529165 
1807	-2.37697694026865E-02 
1808	 1.22804022207521E-02 
1809	 2.06123808484509E-02 
1810	 1.04279279992276E-02 
1811	 4.65187277813562E-04 
1812	-0.080570961554292 
1813	-6.73219737954767E-02 
1814	 3.72589538377164E-02 
1815	 0.102234012018448 
1816	 0.278866618847985 
1817	 0.312510718905911 
1818	 0.365058120865548 
1819	 0.19723210817488 
1820	 0.224906741732036 
1821	-1.16931440054744 
1822	-0.49207846835438 
1823	 56.2878204919441 
1824	 3.11472648909435 
1825	 0.862627078225056 
1826	 0.562094378802315 
1827	 0.324070150707163 
1828	 0.25294258163308 
1829	 0.45110014154403 
1830	 0.449084635983417 
1831	 0.146674748378387 
1832	 0.13784773530065 
1833	 0.48264209009926 
1834	-94.4872103372204 
1835	-1.74196260774623 
1836	-2.51896998684937 
1837	-96.5044531210318 
1838	 12.8809639371795 
1839	 2.98636321787574 
1840	 0.865378653771926 
1841	 0.804787578158983 
1842	 1.50867027647321 
1843	 1.12251591943479 
1844	 1.58578089741232 
1845	 1.23774746487345 
1846	 2.96665411664942E-02 
1847	-0.488567980937308 
1848	 18.4644628887166 
1849	 3.6953963729097 
1850	 1.62514931130424 
1851	 1.58882169551322 
1852	 3.31761017559677E-03 
1853	 1.04008991338016 
1854	 1.07312884177606 
1855	 1.08719761141093 
1856	 1.08402137383755 
1857	-7.85865908276181E-02 
1858	-0.546119485768607 
1859	-1.78559451531895 
1860	-1.80449240831747 
1861	-2.48364479128586 
1862	-2.38595688076024 
1863	-11.9472577199872 
1864	 0.971614090050544 
1865	 0.915945555252053 
1866	-8.13883050723823 
1867	-7.78035182499925 
1868	 26.8130037579525 
1869	-6.23213038724071 
1870	 6.4323437081923 
1871	 6.57010964325127E-02 
1872	-0.781795276230149 
1873	-1.86869865748544 
1874	-3.23161077889687 
1875	-0.456267698771952 
1876	-4.04757630123017E-02 
1877	-3.19444002508437 
1878	-2.18174101924889 
1879	-1.93265600705195 
1880	-3.20437680186705 
1881	-50.6302928340758 
1882	 1.78260823700639 
1883	 1.15815717520629 
1884	 3.00306049549984 
1885	 0.800025782948509 
1886	-0.359145178099042 
1887	-34.5997294263253 
1888	 14.1844910336374 
1889	 6.96779814171769 
1890	 0.151440209902492 
1891	 2.78515503700702E-02 
1892	-0.247212430684268 
1893	-0.769764840380997 
1894	 1.72591651515844 
1895	 0.59212572028625 
1896	 0.667202896736415 
1897	 1.67333620178307 
1898	-10.5221597013925 
1899	-0.412235521248433 
1900	-6.31277518859086E-02 
1901	 0.731889307701698 
1902	 1.02960868671619 
1903	 3.51393229491445 
1904	-0.282762717458331 
1905	 1.09350077492942 
1906	 0.246450622103254 
1907	-0.554823820900073 
1908	-1.29239702243782 
1909	-1.25772008751354 
1910	-1.67329990086173 
1911	-1.8540637369338 
1912	-0.997913434857891 
1913	-0.912460011432977 
1914	-0.701216931983462 
1915	-0.462606785957409 
1916	-0.178397912245964 
1917	-0.999769148645662 
1918	-0.690278612204381 
1919	 0.009379701614763 
1920	-0.518199096076453 
1921	-0.71057827138572 
1922	-0.307957647121598 
1923	-0.634854464994639 
1924	 0.162596627493745 
1925	 0.181033149729093 
1926	 8.92508603585954E-02 
1927	 0.173942678460723 
1928	-2.59154476397662E-02 
1929	 3.25177648545675 
1930	-0.299415788483805 
1931	-1.26638067745992 
1932	-0.646799309433573 
1933	-0.545011106802685 
1934	-0.376031867575783 
1935	-0.019167292727 
1936	 6.62449451560781E-03 
1937	-8.49993905597281E-02 
1938	-7.28024683587594E-02 
1939	-5.62259880420358E-02 
1940	-0.081094052981353 
1941	-9.84997445406527E-02 
1942	-5.98748083541024E-02 
1943	-4.54922776133374E-02 
1944	-4.86732791443588E-02 
1945	-0.04071668051798 
1946	-5.65692520291671E-02 
1947	-1.93510971667814E-02 
1948	 4.55049129952899E-02 
1949	 5.14445283900751E-02 
1950	 5.27956180106497E-02 
1951	 6.63885294341521E-02 
1952	 0.044427510748814 
1953	-1.68779367500256E-02 
1954	-5.74489519733405E-02 
1955	-4.10412730853654E-02 
1956	-0.030788666290261 
1957	-1.62751020015236E-02 
1958	 7.09178393299675E-03 
1959	 7.35191271722398E-03 
1960	-7.9936237929516E-04 
1961	-1.06286899264948E-03 
1962	 4.53475361121156E-03 
1963	 6.60733262014614E-03 
1964	 8.08895761247791E-03 
1965	 6.97562068412176E-03 
1966	 5.42687824528667E-03 
1967	 1.96825274078899E-03 
1968	 1.72666893069789E-03 
1969	 2.64905494171951E-03 
1970	 3.54139971154534E-03 
1971	 3.93172634583489E-03 
1972	 3.62654959717299E-03 
1973	 3.01292812702695E-03 
1974	 3.33165512564692E-03 
1975	 3.68953840302204E-03 
1976	 3.74060118004019E-03 
1977	 5.01772758307968E-03 
1978	 5.06399634160452E-03 
1979	 4.43122308940723E-03 
1980	 3.32972538259113E-03 
1981	 3.68062105289966E-03 
1982	 3.47309954627956E-03 
1983	 2.7632627397781E-03 
1984	 3.65469649440107E-03 
1985	 4.73526972165276E-03 
1986	 4.46318546732485E-03 
1987	 5.10611392866904E-03 
1988	 5.57387208610663E-03 
1989	 4.71815322259448E-03 
1990	 4.1919624309923E-03 
1991	 2.18668604404439E-03 
1992	 6.60621549018279E-04 
1993	 1.08141931924756E-03 
1994	 1.01839929201196E-03 
1995	 9.86767494509387E-04 
1996	 1.82120339299832E-03 
1997	 3.9348053130665E-03 
1998	 4.46129426993182E-03 
1999	 4.09552378994956E-03 
2000	 5.57258647938568E-03 
2001	 4.6685216147944E-03 
2002	 2.39097358968775E-03 
2003	 4.48449499670441E-03 
2004	 5.33543609448411E-03 
2005	 2.66298317573377E-03 
2006	 1.49233753572171E-03 
2007	 1.31740202270654E-03 
2008	 1.81172987126487E-03 
2009	 1.44448836888627E-03 
2010	 3.82982420355618E-03 
2011	 4.51921732159967E-03 
2012	 3.64803370014108E-03 
2013	 5.45510097977032E-04 
2014	 8.35439039513562E-04 
2015	-1.48457747430367E-03 
2016	-4.15293060709817E-03 
2017	-2.01568400607531E-03 
2018	 2.00488398924441E-04 
2019	 3.00003595195775E-03 
2020	 6.87398684122489E-03 
2021	 7.30597112250091E-03 
2022	 5.4964266732647E-03 
2023	 4.76138255284731E-03 
2024	 4.21451761774962E-03 
2025	 2.95374494644367E-03 
2026	 2.42512636789674E-03 
2027	 2.51265305991487E-03 
2028	 2.65060310018257E-03 
2029	 2.75052590255954E-03 
2030	 3.2181541784413E-03 
2031	 3.15413153388365E-03 
2032	 3.10896899556415E-03 
2033	 3.04959629851535E-03 
2034	 2.74763310373331E-03 
2035	 0.00308697764242 
2036	 3.1674963857335E-03 
2037	 3.17873626849812E-03 
2038	 3.3896690232885E-03 
2039	 3.48879286650204E-03 
2040	 3.90416441440905E-03 
2041	 3.9575069757344E-03 
2042	 3.71802629438217E-03 
2043	 3.29193716489094E-03 
2044	 2.5210696239631E-03 
2045	 1.76717222274511E-03 
2046	 1.39473065537066E-03 
2047	 1.60211909562202E-03 
2048	 2.3178445134236E-03 
2049	 3.03122464338423E-03 
2050	 2.88503392838538E-03 
2051	 2.41800458004445E-03 
2052	 2.22376070835939E-03 
2053	 2.48137339668981E-03 
2054	 3.05025071135463E-03 
2055	 4.05988542072258E-03 
2056	 4.1673503472046E-03 
2057	 2.83926494378188E-03 
2058	 2.52575644007222E-03 
2059	 2.59796080605789E-03 
2060	 2.66388913878146E-03 
2061	 3.18108540320361E-03 
2062	 3.36942618039914E-03 
2063	 3.69661358345923E-03 
2064	 3.20679614174502E-03 
2065	 2.80602733888099E-03 
2066	 3.76227516411797E-03 
2067	 4.23562671874922E-03 
2068	 3.75264360460291E-03 
2069	 2.68303608779768E-03 
2070	 2.18094796026102E-03 
2071	 1.98845528153768E-03 
2072	 1.59857530864097E-03 
2073	 1.63656300305264E-03 
2074	 2.50788255894907E-03 
2075	 2.25833604880849E-03 
2076	 1.27906232656763E-03 
2077	 1.27901736182002E-03 
2078	 1.18458756871799E-03 
2079	 1.26585598656969E-03 
2080	 1.99860414545734E-03 
2081	 2.73927402057758E-03 
2082	 2.51601706051351E-03 
2083	 2.44819576960268E-03 
2084	 2.4205692879613E-03 
2085	 2.45223714433043E-03 
2086	 2.62693320074323E-03 
2087	 2.47593186529055E-03 
2088	 2.59542654262534E-03 
2089	 2.54232933784578E-03 
2090	 2.2556987397787E-03 
2091	 1.99258378950497E-03 
2092	 1.94694013177348E-03 
2093	 1.59497987686186E-03 
2094	 1.87920284859915E-03 
2095	 3.10725176711744E-03 
2096	 3.71798980556012E-03 
2097	 4.40863100914733E-03 
2098	 4.83717759298128E-03 
2099	 5.19437595049885E-03 
2100	 4.6157551811773E-03 
2101	 4.3949621718911E-03 
2102	 4.29367252591312E-03 
2103	 3.49413684126243E-03 
2104	 3.31632216553834E-03 
2105	 3.29431562508965E-03 
2106	 3.42989784254545E-03 
2107	 4.07304181552403E-03 
2108	 4.15082293505471E-03 
2109	 4.49107092938268E-03 
2110	 4.91667894347036E-03 
2111	 4.89299995272672E-03 
2112	 4.74410809694165E-03 
2113	 4.30508884762975E-03 
2114	 2.86342007168727E-03 
2115	 2.57533185370954E-03 
2116	 2.89990712049991E-03 
2117	 2.79762456756951E-03 
2118	 3.13709586779627E-03 
2119	 3.16099963052509E-03 
2120	 2.57881699958162E-03 
2121	 2.4081758058582E-03 
2122	 2.69028448889896E-03 
2123	 2.17839791089046E-03 
2124	 2.36347001935002E-03 
2125	 2.9418570224205E-03 
2126	 2.36273431606407E-03 
2127	 2.59670298822662E-03 
2128	 3.01207513191318E-03 
2129	 2.10358721525892E-03 
2130	 1.8444539440996E-03 
2131	 2.19573936051334E-03 
2132	 1.89729056654202E-03 
2133	 2.05977765277641E-03 
2134	 2.17664444404361E-03 
2135	 2.69242958676376E-03 
2136	 2.7937978869721E-03 
2137	 2.48051128659028E-03 
2138	 2.41637213637959E-03 
2139	 2.20705512433205E-03 
2140	 0.002365968826264 
2141	 3.43679532669456E-03 
2142	 3.64503633222477E-03 
2143	 3.52023903003554E-03 
2144	 3.19290357811767E-03 
2145	 3.51284217423999E-03 
2146	 3.31478625835318E-03 
2147	 3.04335509786289E-03 
2148	 3.87512112316073E-03 
2149	 4.40569674315586E-03 
2150	 4.2347680969031E-03 
2151	 4.3726739708337E-03 
2152	 4.54828284747759E-03 
2153	 4.8144739843209E-03 
2154	 4.71294813048105E-03 
2155	 4.37872517804097E-03 
2156	 4.74626386959099E-03 
2157	 4.47974539622541E-03 
2158	 2.9197899917143E-03 
2159	 2.73994666626039E-03 
2160	 3.3367623799552E-03 
2161	 3.32839862886548E-03 
2162	 3.7744989801428E-03 
2163	 3.86625754398427E-03 
2164	 3.52562477861771E-03 
2165	 3.31496804817361E-03 
2166	 3.16155909914539E-03 
2167	 2.85786583079496E-03 
2168	 2.08056500384479E-03 
2169	 1.84617948312017E-03 
2170	 2.02877510999971E-03 
2171	 1.75781089504474E-03 
2172	 2.01279543745821E-03 
2173	 2.17732533237247E-03 
2174	 1.89264012385017E-03 
2175	 2.03990985690345E-03 
2176	 2.35403455608925E-03 
2177	 3.26430480002801E-03 
2178	 4.25110927664926E-03 
2179	 4.38692796959972E-03 
2180	 4.18936273245362E-03 
2181	 4.14022008147024E-03 
2182	 3.90665312164111E-03 
2183	 4.29995616470689E-03 
2184	 5.1463591549667E-03 
2185	 4.63462256760589E-03 
2186	 4.07165614780745E-03 
2187	 2.77925984024841E-03 
2188	 2.43880476142223E-03 
2189	 2.39806413543365E-03 
2190	 1.97355469298994E-03 
2191	 1.70457834881274E-03 
2192	 1.28372696574095E-03 
2193	 1.38160906543092E-04 
2194	-2.35705723216735E-04 
2195	 1.50104397053427E-04 
2196	 5.2273445980427E-04 
2197	 9.0085853696681E-04 
2198	 1.54130098487542E-03 
2199	 3.0770041840408E-03 
2200	 3.40643111433741E-03 
2201	 2.87251542713537E-03 
2202	 2.77446636435219E-03 
2203	 1.7747344732402E-03 
2204	 1.89210224530721E-03 
2205	 3.3436849234218E-03 
2206	 4.02582062210208E-03 
2207	 4.26618836241838E-03 
2208	 4.25329525491218E-03 
2209	 3.9564962083259E-03 
2210	 3.58771481919581E-03 
2211	 2.51995528324912E-03 
2212	 1.23046861593636E-03 
2213	 1.3185213069553E-03 
2214	 2.05714855315267E-03 
2215	 2.48323916686349E-03 
2216	 3.45463843783443E-03 
2217	 3.7520940436534E-03 
2218	 2.65343726750961E-03 
2219	 2.25966463156941E-03 
2220	 2.56774017833965E-03 
2221	 2.31446088524433E-03 
2222	 1.50796084498877E-03 
2223	 1.15054853053927E-03 
2224	 6.53560708364926E-04 
2225	 6.55890879367918E-04 
2226	 1.33009405295724E-03 
2227	 1.6315427025085E-03 
2228	 2.4257585074259E-03 
2229	 2.13579611025149E-03 
2230	 6.28010012010461E-04 
2231	 2.21983283793666E-04 
2232	-6.92489578277715E-04 
2233	-4.19306331784429E-04 
2234	 1.63555558266993E-03 
2235	 2.48694649980991E-03 
2236	 2.42345802188251E-03 
2237	 2.21122258860758E-03 
2238	 1.54122826388405E-03 
2239	 1.9880010138474E-03 
2240	 2.3627004707659E-03 
2241	 2.84984775410888E-03 
2242	 3.2137603196608E-03 
2243	 1.33359611768426E-03 
2244	 1.15988469503329E-03 
2245	 1.97146460019288E-03 
2246	 1.86298221677857E-03 
2247	 3.1272109852906E-03 
2248	 2.88684478890518E-03 
2249	 1.98717377387308E-03 
2250	 1.79517423101157E-03 
2251	 5.83622071297248E-04 
2252	-1.85104298452944E-04 
2253	-2.74021871505588E-04 
2254	-5.29738958169479E-04 
2255	 5.2518024758127E-05 
2256	 1.2714267315952E-03 
2257	 1.87058920968799E-03 
2258	 1.95787738703563E-03 
2259	 2.11597248720669E-03 
2260	 1.85699001043152E-03 
2261	 9.05365236647643E-04 
2262	 6.51037129577832E-06 
2263	-1.31077729357977E-03 
2264	-1.73402442731557E-03 
2265	-2.41872981923762E-03 
2266	-1.27267932502227E-03 
2267	 2.19227648575319E-03 
2268	 2.59622705291181E-03 
2269	 2.65270622096888E-03 
2270	 3.33639555001805E-03 
2271	 2.68860039500609E-03 
2272	 3.02769411498128E-03 
2273	 4.60024534512214E-03 
2274	 4.5744156623411E-03 
2275	 3.02296796286956E-03 
2276	 2.36038737792356E-03 
2277	 1.74083028946204E-03 
2278	 1.64678173488312E-03 
2279	 2.93169437791853E-03 
2280	 2.25272857561132E-03 
2281	-8.9181349454151E-06 
2282	 4.42682081167065E-06 
2283	-1.07864706366234E-03 
2284	-1.18027893422963E-03 
2285	 1.07914524474395E-03 
2286	 1.6584745393266E-03 
2287	 8.33857494438484E-04 
2288	 9.37735718835277E-05 
2289	-2.22024603754238E-05 
2290	-7.81934336185524E-04 
2291	-1.95627353429051E-03 
2292	-1.28219415811735E-03 
2293	-6.01221145179686E-04 
2294	-4.67813117937107E-04 
2295	-1.03734513562339E-03 
2296	-2.44312822748036E-03 
2297	-1.79672464818379E-03 
2298	-2.09134245509229E-03 
2299	-7.02425295152519E-04 
2300	 2.94978266816527E-03 
2301	 8.13727955928502E-04 
2302	-2.94241071219439E-04 
2303	 9.57572944452629E-04 
2304	-5.23916043641096E-04 
2305	-9.85117107098819E-04 
2306	-1.33306731778025E-03 
2307	-1.12611308229138E-03 
2308	-1.63452946443379E-03 
2309	-4.17078569314468E-03 
2310	-2.64741092255233E-03 
2311	-1.22681287856663E-03 
2312	-1.31741340643362E-03 
2313	 1.69625819148293E-03 
2314	 5.29415252870409E-04 
2315	-2.9037010816385E-03 
2316	-1.73804298068372E-03 
2317	 9.23081002522095E-04 
2318	 2.41218333980515E-03 
2319	 0.002899181508048 
2320	 8.83779720822903E-04 
2321	-1.0103743962916E-03 
2322	-1.86134975251618E-03 
2323	-4.96672699025865E-03 
2324	-5.0967437273228E-03 
2325	-6.12202423839899E-03 
2326	-8.46661877654682E-03 
2327	-6.77805128933552E-03 
2328	-7.17566531072155E-03 
2329	-8.4119807167223E-03 
2330	-8.64341141580469E-03 
2331	-8.16098155864689E-03 
2332	-4.37545243988008E-03 
2333	-2.39067336999782E-04 
2334	 2.48411516983207E-03 
2335	 1.14757144544201E-03 
2336	-4.23915005403534E-03 
2337	-1.18578016307542E-02 
2338	-1.89836071997267E-02 
2339	-1.43759594262167E-02 
2340	-4.80725727029031E-03 
2341	 4.83158889921356E-03 
2342	 0.014375633510186 
2343	 1.86380713263674E-02 
2344	 0.018311179323244 
2345	 9.10371046581453E-03 
2346	 6.89670533223699E-03 
2347	 8.05238243474685E-03 
2348	 6.48639020980288E-03 
2349	 9.66375762543302E-03 
2350	 4.68546091039641E-03 
2351	-3.27976648661351E-03 
2352	-1.19139727597681E-02 
2353	-1.99885018062428E-02 
2354	-1.26480760887077E-02 
2355	-2.18975234973015E-03 
2356	-1.16455772906624E-02 
2357	-1.88913135480389E-02 
2358	-1.21758298382848E-02 
2359	-1.27768291102211E-02 
2360	-5.75109810604833E-03 
2361	 7.28136885365475E-03 
2362	 5.0028909902814E-03 
2363	-2.90763603515509E-03 
2364	-3.27580932907502E-03 
2365	 7.881278982952E-04 
2366	 2.80203823348634E-03 
2367	 0.005970207774683 
2368	 1.50489325062721E-02 
2369	 1.44743262287097E-02 
2370	 7.61810144196237E-03 
2371	 1.25508927967154E-02 
2372	-3.85548925710856E-03 
2373	-1.91054078401234E-02 
2374	-7.58186775003261E-03 
2375	-0.0127729030548 
2376	-1.64213975513481E-02 
2377	-1.42828160639586E-02 
2378	-1.96734817463148E-02 
2379	-1.87680223986859E-02 
2380	-1.70766204666139E-02 
2381	-9.06432531637382E-03 
2382	-9.60471161815215E-03 
2383	-2.89040311322655E-02 
2384	-4.25965864033454E-02 
2385	-0.037287860389486 
2386	-2.48618827446126E-02 
2387	-9.72558053291872E-03 
2388	-0.011829449803882 
2389	-3.66774770641726E-02 
2390	-4.39698596667263E-02 
2391	-0.062318408540802 
2392	-6.38448557250363E-02 
2393	-1.68392961065835E-02 
2394	 5.4115439118675E-03 
2395	 1.43163782047576E-02 
2396	 4.34084135545079E-02 
2397	 3.65870865681313E-02 
2398	 3.87232326931967E-03 
2399	-1.00506126828815E-02 
2400	-4.55766071436879E-02 
2401	-8.54103662328848E-02 
2402	-0.103287851973398 
2403	-0.12299522810357 
2404	-0.123594874426756 
2405	-0.126679223078883 
2406	-0.112413140172197 
2407	-0.105431752673453 
2408	-0.123852053744754 
2409	-0.087764318615402 
2410	-7.73149872329579E-02 
2411	-7.84895486463556E-02 
2412	-3.52837591033298E-02 
2413	-8.75292617717703E-02 
2414	-0.13467058403735 
2415	-9.52041335048204E-02 
2416	-7.86313902131996E-02 
2417	 3.12356985954095E-02 
2418	 0.10999099841108 
2419	 7.64019407887374E-02 
2420	 6.00249777444976E-03 
2421	-7.28652074049329E-02 
2422	-7.40668968038335E-02 
2423	-0.147256848829831 
2424	-0.194809425261447 
2425	-0.138469230072384 
2426	-0.179590128603386 
2427	-0.16819359423657 
2428	-0.101160106648933 
2429	-7.96144910022655E-02 
2430	-9.74312707160921E-02 
2431	-4.96567466376676E-02 
2432	 1.64367886236389E-02 
2433	-6.33003099644732E-02 
2434	-0.120429555613236 
2435	-0.154475417515462 
2436	-0.211889374409463 
2437	-0.221992450445207 
2438	-0.223435084497785 
2439	-0.23331583743451 
2440	-0.238194957733042 
2441	-0.229004871377068 
2442	-0.167318605831063 
2443	-0.11890930188517 
2444	-0.215329283798424 
2445	-0.192368676151337 
2446	-0.164481914044335 
2447	-0.263533335148951 
2448	-0.276585014902346 
2449	-0.478866159145575 
2450	-0.734983310768349 
2451	-1.19503387222732 
2452	-1.73757968044956 
2453	-1.21747634301673 
2454	-0.902834658621932 
2455	-0.534008483663211 
2456	-0.430318009417423 
2457	-0.488694648643387 
2458	-0.487845218664738 
2459	-0.379121843235027 
2460	-0.301366651158761 
2461	-0.19131961805353 
2462	-0.202125777293966 
2463	-0.513045752589789 
2464	-0.638354289447638 
2465	-0.520190974869762 
2466	-0.478701342733831 
2467	-8.56007508240483E-02 
2468	-0.177854549128868 
2469	-1.06635989095047 
2470	 3.63820264159685 
2471	 0.901112669798333 
2472	 5.59650144093567 
2473	 0.496206103227263 
2474	 0.409999951244619 
2475	-0.145876866552821 
2476	-1.27902139678839 
2477	-1.80466765670543 
2478	-2.69930211352708 
2479	-2.14985740899129 
2480	-2.42504092482711 
2481	 1.03269988951868 
2482	 1.32394311834503 
2483	-24.3268633370144 
2484	 35.1399856019177 
2485	 4.85731108849532 
2486	-9.94116745618865 
2487	-5.3936880456623 
2488	 2.04032650349063 
2489	 5.27161031986957E-02 
2490	-4.08689040859626E-02 
2491	 2.17177677512785 
2492	 1.03868194048022 
2493	 0.584792405710846 
2494	 0.532131440741388 
2495	-0.928035637521281 
2496	-0.323904761965184 
2497	-0.125863607105751 
2498	-0.313639588752966 
2499	-8.39062829709433 
2500	 1.03928902266384 
