Wavelength	rt0629dirtre00007.asd
350	 0.120364529345386 
351	 0.12018741986325 
352	 0.120493473573789 
353	 0.120575314970244 
354	 0.120112482988158 
355	 0.119937852678759 
356	 0.119619322810675 
357	 0.119769623866228 
358	 0.120910256538108 
359	 0.122155439761415 
360	 0.121613479262018 
361	 0.120445894890326 
362	 0.121426234980972 
363	 0.121077751907702 
364	 0.120692650195952 
365	 0.121008697564986 
366	 0.12103590637273 
367	 0.121124383294951 
368	 0.121573468757739 
369	 0.122218479381209 
370	 0.121136479601588 
371	 0.12160102201332 
372	 0.12282037109997 
373	 0.122058056383553 
374	 0.122761358486142 
375	 0.123250643398735 
376	 0.12317912420971 
377	 0.124688662268392 
378	 0.124316085432438 
379	 0.123749046383234 
380	 0.124677510938807 
381	 0.12473530434636 
382	 0.125305683260272 
383	 0.125879938252612 
384	 0.125479897558381 
385	 0.126577749324911 
386	 0.127390269765303 
387	 0.127358889970045 
388	 0.127665202885346 
389	 0.128182410367047 
390	 0.129052187034874 
391	 0.130018067539326 
392	 0.129753788949881 
393	 0.129708543972861 
394	 0.130326907097825 
395	 0.13134159141877 
396	 0.131235363419594 
397	 0.131230452814471 
398	 0.131681442153684 
399	 0.132062723255613 
400	 0.13241546174103 
401	 0.132672650112751 
402	 0.132891298128158 
403	 0.133445323762984 
404	 0.133863539229922 
405	 0.134105856507646 
406	 0.134350504816025 
407	 0.135025832058001 
408	 0.135388174375062 
409	 0.135427788532737 
410	 0.135887198235923 
411	 0.136458966047594 
412	 0.136926840013179 
413	 0.137262766091921 
414	 0.137858290930983 
415	 0.138405855789099 
416	 0.138767369552886 
417	 0.138981861888505 
418	 0.139703115701398 
419	 0.140187366779553 
420	 0.140435154984025 
421	 0.141312191484767 
422	 0.141959755071937 
423	 0.142395265582475 
424	 0.142887277180786 
425	 0.143916810383986 
426	 0.144628915791525 
427	 0.145154184659213 
428	 0.146033184516092 
429	 0.146909866994148 
430	 0.147789409031651 
431	 0.14867634217267 
432	 0.149540483881922 
433	 0.150542770060668 
434	 0.151461434802449 
435	 0.152136678778918 
436	 0.152796500927171 
437	 0.153695441132847 
438	 0.154644906257589 
439	 0.155290836638395 
440	 0.156233589024192 
441	 0.157014627123822 
442	 0.157587732941661 
443	 0.158688098700579 
444	 0.159342387768706 
445	 0.15984306578153 
446	 0.160621413366815 
447	 0.16119050309422 
448	 0.1619291052814 
449	 0.162695568630388 
450	 0.163015914480451 
451	 0.163378313423101 
452	 0.163889044678772 
453	 0.164479248528961 
454	 0.164841715066589 
455	 0.165233516855977 
456	 0.165600049191094 
457	 0.165846391378724 
458	 0.166289955852428 
459	 0.166573522889276 
460	 0.166727083256304 
461	 0.167170308161952 
462	 0.167315690923986 
463	 0.167522727932202 
464	 0.168059743282873 
465	 0.168429549351635 
466	 0.168756812243574 
467	 0.169065497960942 
468	 0.169347096575562 
469	 0.169626881101811 
470	 0.169947320605148 
471	 0.170300584529772 
472	 0.170609770353173 
473	 0.171065147771964 
474	 0.171460135422895 
475	 0.171694708907712 
476	 0.17245344061857 
477	 0.17302203422889 
478	 0.173301654132041 
479	 0.173650823598228 
480	 0.174284234402665 
481	 0.174918696827776 
482	 0.175411946349547 
483	 0.176048827173669 
484	 0.176731059487305 
485	 0.177372480063086 
486	 0.177963325524984 
487	 0.17887293607548 
488	 0.17988195328215 
489	 0.180767467789474 
490	 0.181369542741323 
491	 0.18207003727419 
492	 0.182802135298177 
493	 0.18352444722325 
494	 0.184565960628331 
495	 0.185448993404715 
496	 0.18633182439241 
497	 0.187590108181051 
498	 0.188495879156781 
499	 0.189324381618896 
500	 0.190276845762167 
501	 0.191269682920334 
502	 0.192360789837088 
503	 0.193423807016951 
504	 0.194361905490379 
505	 0.195365541396665 
506	 0.196564554594674 
507	 0.197938549967735 
508	 0.199335485418979 
509	 0.200498192699613 
510	 0.201639651507561 
511	 0.202920127618923 
512	 0.204206811609916 
513	 0.205481957401137 
514	 0.206868119330796 
515	 0.208466212812456 
516	 0.209805720582291 
517	 0.211181469706736 
518	 0.212682598832064 
519	 0.214064593287133 
520	 0.215695369348952 
521	 0.217271055580168 
522	 0.218556850464634 
523	 0.220017171617691 
524	 0.221667778367345 
525	 0.223362925411754 
526	 0.22488632759681 
527	 0.226537465476306 
528	 0.228214559994092 
529	 0.229864518531807 
530	 0.231671644491781 
531	 0.233412253932963 
532	 0.235055054118132 
533	 0.236661914794702 
534	 0.238383058823621 
535	 0.240275520628667 
536	 0.242234862869717 
537	 0.243982564631029 
538	 0.245693115947238 
539	 0.247531147279004 
540	 0.249535250458472 
541	 0.251352740352298 
542	 0.253243164318601 
543	 0.255181903441034 
544	 0.257001503092869 
545	 0.258918647295583 
546	 0.260977404679585 
547	 0.26306933948269 
548	 0.264823953890296 
549	 0.2668049123072 
550	 0.268875330853687 
551	 0.27071491335965 
552	 0.272464865639727 
553	 0.274294868862772 
554	 0.276214499556369 
555	 0.278041171771156 
556	 0.279910000822155 
557	 0.281844520049085 
558	 0.2837658792442 
559	 0.285430548355022 
560	 0.287022398761271 
561	 0.288679037384912 
562	 0.290473976717956 
563	 0.292032554594589 
564	 0.293608434499089 
565	 0.295259756213655 
566	 0.296478581672148 
567	 0.297854479989744 
568	 0.299346513939812 
569	 0.300708858782319 
570	 0.302005973294979 
571	 0.303320300584609 
572	 0.304622036436454 
573	 0.305762715432505 
574	 0.306976180004769 
575	 0.308318935532475 
576	 0.309717844223165 
577	 0.310885477539801 
578	 0.31192269111184 
579	 0.312964498408689 
580	 0.31413456206439 
581	 0.315217522815242 
582	 0.316075507410197 
583	 0.316788547935631 
584	 0.317836760552322 
585	 0.318460381659338 
586	 0.318732895348199 
587	 0.319010489689738 
588	 0.319278465993508 
589	 0.319708188264079 
590	 0.320291507094496 
591	 0.320867630532067 
592	 0.321655312677399 
593	 0.32240449375191 
594	 0.322905992411537 
595	 0.323381863843609 
596	 0.324110078583436 
597	 0.324815702784139 
598	 0.32503791983349 
599	 0.325877914766029 
600	 0.326597307636373 
601	 0.326841213906212 
602	 0.327282066470751 
603	 0.327707497393838 
604	 0.328225242693837 
605	 0.328892061112206 
606	 0.329049724662323 
607	 0.32931008501027 
608	 0.329802031472018 
609	 0.33010557211172 
610	 0.330601093361251 
611	 0.330961827830087 
612	 0.331038045857191 
613	 0.331648421239099 
614	 0.33204438289268 
615	 0.332239000631463 
616	 0.332626316243688 
617	 0.332880202360082 
618	 0.333056630047107 
619	 0.333284081211448 
620	 0.333755596605815 
621	 0.333926762066082 
622	 0.334067642199719 
623	 0.334504947852227 
624	 0.334408643539586 
625	 0.334597658382122 
626	 0.335009701903226 
627	 0.334760077618048 
628	 0.335267177397049 
629	 0.335816315981047 
630	 0.335817667480251 
631	 0.336091891818976 
632	 0.336308321814943 
633	 0.3366012290578 
634	 0.337201043908751 
635	 0.337389560108829 
636	 0.337516339240334 
637	 0.337752980198225 
638	 0.337862134005508 
639	 0.33826887304394 
640	 0.338634217907637 
641	 0.338614631824078 
642	 0.338820124050946 
643	 0.338967483835947 
644	 0.33890804414473 
645	 0.338624459078655 
646	 0.338218339341362 
647	 0.338154000823813 
648	 0.338608749858015 
649	 0.339006843780475 
650	 0.339253275517653 
651	 0.33939958982447 
652	 0.339546356187704 
653	 0.339615525465248 
654	 0.339448452546519 
655	 0.339215594744068 
656	 0.339551093817961 
657	 0.339634452294383 
658	 0.339753907925014 
659	 0.340146880475689 
660	 0.340160597873916 
661	 0.340245445471735 
662	 0.340406065408696 
663	 0.340382885874353 
664	 0.34023961244947 
665	 0.340206812532796 
666	 0.340383357245338 
667	 0.340624027190902 
668	 0.340644929698588 
669	 0.340477899588643 
670	 0.340317082976561 
671	 0.340498975037922 
672	 0.340675258498118 
673	 0.34069370847886 
674	 0.340623566700202 
675	 0.340492380635053 
676	 0.340455372404695 
677	 0.340571618831621 
678	 0.340630442342773 
679	 0.340636873408472 
680	 0.34050392092913 
681	 0.340194493781727 
682	 0.340236203266687 
683	 0.340286541634539 
684	 0.340028393540025 
685	 0.339215275215762 
686	 0.338417037604305 
687	 0.338057309873706 
688	 0.338191928066504 
689	 0.338159229409972 
690	 0.337842548828782 
691	 0.337186221859702 
692	 0.33624777426035 
693	 0.335931181260668 
694	 0.336011370722836 
695	 0.336117948722774 
696	 0.336075632754045 
697	 0.33563096759733 
698	 0.334884969270461 
699	 0.334152232838133 
700	 0.333794335945105 
701	 0.333601027364696 
702	 0.33334607531526 
703	 0.332868441958572 
704	 0.332626240147702 
705	 0.332204679148743 
706	 0.331525840564696 
707	 0.331542627991563 
708	 0.331027928073068 
709	 0.330201055956816 
710	 0.329652114503138 
711	 0.328802702438309 
712	 0.328134262272362 
713	 0.32747731362543 
714	 0.325910952925469 
715	 0.323954705150038 
716	 0.321753761405916 
717	 0.319658003393159 
718	 0.317593325672716 
719	 0.317384583388245 
720	 0.317895229201276 
721	 0.317437250760586 
722	 0.316044569731381 
723	 0.314303173769771 
724	 0.312832467418456 
725	 0.311569475579478 
726	 0.31032800183547 
727	 0.309035889936549 
728	 0.307674000097566 
729	 0.306213293903993 
730	 0.304601197587263 
731	 0.30336179443007 
732	 0.302786806504136 
733	 0.301495527948756 
734	 0.300070289543644 
735	 0.298921335181848 
736	 0.298116197200273 
737	 0.297445006559098 
738	 0.296981482008415 
739	 0.296762542437501 
740	 0.296493130541929 
741	 0.296241192482885 
742	 0.29603118155623 
743	 0.295848567133526 
744	 0.295566341211259 
745	 0.295303392083657 
746	 0.295101813764263 
747	 0.294865709183354 
748	 0.294828982640812 
749	 0.294831209493856 
750	 0.294701976975408 
751	 0.294593783943642 
752	 0.29440567073485 
753	 0.294149783597264 
754	 0.293896081063553 
755	 0.293619908571518 
756	 0.29345348210898 
757	 0.293318804118363 
758	 0.292676448076911 
759	 0.291165665502854 
760	 0.289523484296321 
761	 0.289657019275305 
762	 0.289071065185478 
763	 0.289524505590422 
764	 0.290602057634727 
765	 0.291412011272173 
766	 0.292184413151633 
767	 0.29270057389995 
768	 0.29292512891315 
769	 0.292965168710627 
770	 0.293139810565069 
771	 0.293322828947302 
772	 0.293377762565437 
773	 0.293381378568394 
774	 0.293643763802291 
775	 0.293825031546992 
776	 0.29352396615594 
777	 0.29381193726953 
778	 0.294173559967861 
779	 0.294372104231886 
780	 0.294566720508083 
781	 0.294658575980784 
782	 0.294898080499685 
783	 0.295289108691731 
784	 0.295119566876931 
785	 0.295163787045337 
786	 0.295412191400355 
787	 0.29556180129124 
788	 0.295420502781558 
789	 0.295438242412702 
790	 0.295801136136399 
791	 0.296374651939661 
792	 0.296562330170475 
793	 0.296771838939062 
794	 0.297117439103377 
795	 0.296976567620705 
796	 0.297257746263396 
797	 0.297554686600872 
798	 0.297454251558593 
799	 0.297819136558763 
800	 0.298117534001586 
801	 0.29818573991822 
802	 0.298146376605203 
803	 0.298359288314889 
804	 0.298661211753115 
805	 0.298815433606665 
806	 0.298585506595026 
807	 0.298114009841891 
808	 0.297816778240407 
809	 0.297788674933327 
810	 0.297110802983269 
811	 0.296351164443134 
812	 0.295660268481861 
813	 0.29495362396505 
814	 0.293601504135237 
815	 0.293022155605432 
816	 0.293157115625971 
817	 0.292683622145396 
818	 0.292371430449951 
819	 0.292165904588618 
820	 0.291697943745885 
821	 0.290282827097307 
822	 0.289339085404378 
823	 0.288544776113268 
824	 0.287488989623381 
825	 0.286753112408121 
826	 0.285124005212271 
827	 0.282793461506479 
828	 0.280682169509861 
829	 0.278954854294293 
830	 0.277713801723917 
831	 0.276636341773702 
832	 0.275263023204549 
833	 0.274142977234419 
834	 0.273156719665952 
835	 0.2723116701794 
836	 0.271869876434225 
837	 0.271123354589487 
838	 0.270557556370694 
839	 0.270402796343777 
840	 0.269548217296279 
841	 0.268950204750792 
842	 0.268650717114834 
843	 0.268335140390456 
844	 0.267713540804671 
845	 0.267377357259426 
846	 0.267106028537621 
847	 0.266226488001087 
848	 0.265495378275822 
849	 0.265026589556604 
850	 0.264613807198135 
851	 0.263783896087357 
852	 0.263294813921489 
853	 0.262988623767432 
854	 0.26258805916214 
855	 0.262000030123072 
856	 0.261440534646615 
857	 0.260979721672853 
858	 0.260658399373812 
859	 0.260662095971132 
860	 0.260243728518573 
861	 0.259523490688071 
862	 0.259032663935489 
863	 0.258764927333906 
864	 0.258363020280274 
865	 0.257750684842422 
866	 0.257161023057125 
867	 0.256888294842297 
868	 0.256167116225368 
869	 0.255150107322702 
870	 0.255273097472965 
871	 0.255223010675231 
872	 0.254289836407653 
873	 0.252716997056091 
874	 0.252497533033423 
875	 0.25218893054369 
876	 0.251597951039913 
877	 0.250871645342743 
878	 0.249868491934215 
879	 0.24919744821214 
880	 0.248634769170328 
881	 0.247727028120104 
882	 0.247249138565631 
883	 0.246730805684207 
884	 0.24590162695879 
885	 0.244832114345713 
886	 0.24459685247174 
887	 0.244196282223504 
888	 0.243301364721891 
889	 0.242606609241147 
890	 0.242090386974945 
891	 0.241358679378937 
892	 0.240246592199917 
893	 0.239192662455811 
894	 0.238191518322334 
895	 0.237563387973346 
896	 0.237031298510345 
897	 0.234183357907442 
898	 0.232672903129083 
899	 0.232975622877897 
900	 0.233772553193669 
901	 0.233310714298426 
902	 0.2323666887556 
903	 0.231810479766944 
904	 0.23206159633255 
905	 0.231502010156862 
906	 0.230087117475857 
907	 0.228249772729985 
908	 0.226742391450903 
909	 0.225026603456882 
910	 0.224664614991216 
911	 0.224579908081934 
912	 0.221914692903531 
913	 0.221432596947611 
914	 0.221047359488076 
915	 0.219362186943641 
916	 0.217037449522583 
917	 0.215551316111906 
918	 0.215657712985122 
919	 0.216001505260115 
920	 0.213118701377676 
921	 0.210750700773373 
922	 0.208672859275958 
923	 0.206187500623045 
924	 0.203272700684104 
925	 0.200345933683432 
926	 0.198584758967253 
927	 0.198159610450759 
928	 0.194196207345371 
929	 0.188532949565681 
930	 0.184633535351004 
931	 0.186178277696867 
932	 0.183042374215327 
933	 0.177068707736928 
934	 0.178308211757483 
935	 0.186112399284485 
936	 0.156040316667164 
937	 0.146048164038641 
938	 0.152497199632522 
939	 0.153778791613568 
940	 0.148304439017131 
941	 0.143443211648004 
942	 0.141033177320326 
943	 0.139867423121947 
944	 0.139179651537242 
945	 0.134604127215177 
946	 0.130478932587769 
947	 0.132144371248297 
948	 0.120090490308195 
949	 0.120405711048746 
950	 0.126971845093357 
951	 0.119142386208317 
952	 0.120037706130616 
953	 0.121301862188916 
954	 0.116725671866434 
955	 0.106017039217868 
956	 0.10204158615403 
957	 0.100258026169935 
958	 0.10074218254687 
959	 0.105886236846692 
960	 0.10583210474112 
961	 0.102802197189599 
962	 0.100361563760657 
963	 0.100412235024322 
964	 9.60311776481293E-02 
965	 9.23004933028479E-02 
966	 9.22948870811157E-02 
967	 9.57525684394091E-02 
968	 9.40018570936328E-02 
969	 9.41515153939954E-02 
970	 9.65265950074814E-02 
971	 9.54674884692948E-02 
972	 9.47626653783582E-02 
973	 9.67527970835269E-02 
974	 9.75790888986942E-02 
975	 9.04162441719757E-02 
976	 9.20001680679377E-02 
977	 0.095474234121059 
978	 9.55826605041682E-02 
979	 9.27127087014523E-02 
980	 9.52533672809668E-02 
981	 9.74775334620894E-02 
982	 9.68218767997713E-02 
983	 9.50935624108364E-02 
984	 0.097389842075384 
985	 9.82211790039706E-02 
986	 9.53948814468922E-02 
987	 9.11542647172121E-02 
988	 0.092169021869079 
989	 9.70927604992149E-02 
990	 0.100289759507205 
991	 0.096668771066963 
992	 9.95111570967519E-02 
993	 0.100351865451393 
994	 0.100527809970602 
995	 0.106180502885896 
996	 0.102262638391015 
997	 9.91029316328687E-02 
998	 0.100042271905927 
999	 0.102248620001651 
1000	 0.103750819898317 
1001	 0.107090452211109 
1002	 0.109068642812081 
1003	 0.110748964829062 
1004	 0.113318845316107 
1005	 0.114747577617171 
1006	 0.116291329916972 
1007	 0.116465877872643 
1008	 0.115344547120771 
1009	 0.115562764235936 
1010	 0.114974381952277 
1011	 0.115541080345259 
1012	 0.117874662564753 
1013	 0.119431465427957 
1014	 0.120786485744117 
1015	 0.121871745286757 
1016	 0.123913399084132 
1017	 0.126750167276287 
1018	 0.128256155191802 
1019	 0.130086901282973 
1020	 0.131446295865415 
1021	 0.131200805657911 
1022	 0.131190852480744 
1023	 0.133690467199873 
1024	 0.135260149796893 
1025	 0.13590881712897 
1026	 0.136499440920351 
1027	 0.138275786760536 
1028	 0.140078713265068 
1029	 0.142491818142324 
1030	 0.146773453181339 
1031	 0.149326521756624 
1032	 0.151155546542753 
1033	 0.152511629295163 
1034	 0.152999261688567 
1035	 0.154145935114782 
1036	 0.154826515036734 
1037	 0.155969105751347 
1038	 0.157521633601449 
1039	 0.159548200744662 
1040	 0.161529142175425 
1041	 0.162768826624408 
1042	 0.163696552724257 
1043	 0.16410797406969 
1044	 0.165013517851037 
1045	 0.165276194210441 
1046	 0.166741195103932 
1047	 0.169780044963944 
1048	 0.171130258749227 
1049	 0.171923768812449 
1050	 0.173033765912095 
1051	 0.172713398495363 
1052	 0.173898903656902 
1053	 0.177717751200122 
1054	 0.179149852745801 
1055	 0.178758885890314 
1056	 0.179876879594006 
1057	 0.181074105446257 
1058	 0.181167357718639 
1059	 0.182457759653219 
1060	 0.186242989012926 
1061	 0.187099795735154 
1062	 0.18621598703224 
1063	 0.186213885175499 
1064	 0.184564809608938 
1065	 0.185326807625771 
1066	 0.18847266579516 
1067	 0.18971513558515 
1068	 0.192249596886546 
1069	 0.192751058995191 
1070	 0.190507331124981 
1071	 0.189143325131982 
1072	 0.186405737731404 
1073	 0.185069790793346 
1074	 0.184848480728708 
1075	 0.185916549066436 
1076	 0.18598060327754 
1077	 0.187297135288834 
1078	 0.186917562663448 
1079	 0.184364840225919 
1080	 0.183963809927483 
1081	 0.184800941670373 
1082	 0.184360169200023 
1083	 0.18462455901155 
1084	 0.183892741269346 
1085	 0.180503320501059 
1086	 0.179174935886751 
1087	 0.179600772318722 
1088	 0.178703264077399 
1089	 0.177785250438507 
1090	 0.177197701147661 
1091	 0.175966048335811 
1092	 0.173148027710392 
1093	 0.171734005631821 
1094	 0.170870253325334 
1095	 0.17037861682426 
1096	 0.171086237333678 
1097	 0.170190872808208 
1098	 0.168675242775403 
1099	 0.167277360505569 
1100	 0.164400027363634 
1101	 0.162520114836893 
1102	 0.162396088519374 
1103	 0.161110071866757 
1104	 0.158885641164964 
1105	 0.156203040157799 
1106	 0.158034541690846 
1107	 0.156566252932621 
1108	 0.154934197380129 
1109	 0.155717796983895 
1110	 0.154339816431095 
1111	 0.148126315388712 
1112	 0.147643610515795 
1113	 0.150911349349023 
1114	 0.152017125368106 
1115	 0.158391668645718 
1116	 0.157908056547119 
1117	 0.149868540595434 
1118	 0.145884729979923 
1119	 0.131169854876786 
1120	 0.122496340356982 
1121	 0.127100283797843 
1122	 0.129198890225198 
1123	 0.12927913623022 
1124	 0.134129128145894 
1125	 0.116966271874236 
1126	 9.68527772700466E-02 
1127	 0.110676308088411 
1128	 0.124349711181058 
1129	 0.113028585239831 
1130	 9.66380619373223E-02 
1131	 9.02837051035582E-02 
1132	 7.29924372618864E-02 
1133	 6.88239729397167E-02 
1134	 8.05834634708119E-02 
1135	 8.46605429668015E-02 
1136	 8.02664803784548E-02 
1137	 7.57561265358128E-02 
1138	 6.76784949773876E-02 
1139	 7.73343927073037E-02 
1140	 7.68715797276419E-02 
1141	 6.82887494203156E-02 
1142	 6.49939771267936E-02 
1143	 6.58810978829686E-02 
1144	 7.19918247195022E-02 
1145	 8.16068393032298E-02 
1146	 8.43342766283314E-02 
1147	 8.19460305928899E-02 
1148	 7.95772194290125E-02 
1149	 7.44875303941053E-02 
1150	 0.069101341581387 
1151	 6.70885042763956E-02 
1152	 6.43168447881018E-02 
1153	 5.67324834015376E-02 
1154	 5.49196130063626E-02 
1155	 5.73475463092023E-02 
1156	 0.057257206850844 
1157	 5.73868167752545E-02 
1158	 5.93977206582476E-02 
1159	 0.057547099982359 
1160	 5.70161089077345E-02 
1161	 5.78635948512754E-02 
1162	 5.74314967025587E-02 
1163	 5.85442724504622E-02 
1164	 5.86586693631706E-02 
1165	 5.75855707930126E-02 
1166	 5.70637711071036E-02 
1167	 5.66517674486321E-02 
1168	 5.73475871726319E-02 
1169	 5.81897616602347E-02 
1170	 5.76657014546614E-02 
1171	 5.75019653868161E-02 
1172	 5.76278153874193E-02 
1173	 5.74556517481522E-02 
1174	 0.05662022998646 
1175	 5.68666080099144E-02 
1176	 0.057708480875776 
1177	 5.87415807039865E-02 
1178	 5.90225320052519E-02 
1179	 5.78702823383442E-02 
1180	 5.72133760461526E-02 
1181	 5.71442321243329E-02 
1182	 5.66141653174877E-02 
1183	 5.73170613993213E-02 
1184	 5.78456950410213E-02 
1185	 5.59608099101926E-02 
1186	 5.47481216174496E-02 
1187	 5.44602161775103E-02 
1188	 5.41382376505299E-02 
1189	 5.52648913672747E-02 
1190	 5.59662055542953E-02 
1191	 5.56340177311063E-02 
1192	 5.56819881907162E-02 
1193	 0.055622904536685 
1194	 5.46951777780156E-02 
1195	 5.47954779526056E-02 
1196	 0.056831442338893 
1197	 5.72290170471306E-02 
1198	 5.61156469756591E-02 
1199	 5.60910652303968E-02 
1200	 5.55200330672817E-02 
1201	 5.48741834925729E-02 
1202	 5.53405698280107E-02 
1203	 0.055314746987055 
1204	 5.53059328337061E-02 
1205	 5.45537838925355E-02 
1206	 0.054054585331213 
1207	 5.53967474987647E-02 
1208	 5.60326092270304E-02 
1209	 5.58357568652238E-02 
1210	 5.63017693847498E-02 
1211	 5.70355493695065E-02 
1212	 5.71049591034263E-02 
1213	 5.74544402915132E-02 
1214	 5.78157926459556E-02 
1215	 5.88923074670528E-02 
1216	 5.84195398065043E-02 
1217	 5.71551645694749E-02 
1218	 5.69961153824317E-02 
1219	 5.72487430473802E-02 
1220	 5.64286879773404E-02 
1221	 5.63350488854739E-02 
1222	 5.69492094320861E-02 
1223	 5.70182887653013E-02 
1224	 5.78488179502205E-02 
1225	 5.84399193365799E-02 
1226	 5.80569456972129E-02 
1227	 5.84217881139612E-02 
1228	 5.88311318124752E-02 
1229	 5.84900053523668E-02 
1230	 5.90356890359901E-02 
1231	 0.059131490901391 
1232	 5.77238750312978E-02 
1233	 5.72248844732881E-02 
1234	 5.74463970270516E-02 
1235	 5.77811628877073E-02 
1236	 5.84824283731598E-02 
1237	 5.88341099437784E-02 
1238	 5.94218721390411E-02 
1239	 6.01331669582335E-02 
1240	 5.94847356306644E-02 
1241	 5.93636563715031E-02 
1242	 6.02066286607964E-02 
1243	 5.96966571499763E-02 
1244	 5.92678850400492E-02 
1245	 6.00981568236442E-02 
1246	 6.01944541090503E-02 
1247	 5.92703155705786E-02 
1248	 5.95585868996318E-02 
1249	 5.96011838406837E-02 
1250	 5.85651189115001E-02 
1251	 5.90149505211683E-02 
1252	 5.97406140510105E-02 
1253	 5.90368443712637E-02 
1254	 5.86522784858545E-02 
1255	 0.059255113642554 
1256	 5.97691629032549E-02 
1257	 6.04618977607004E-02 
1258	 6.04338697968229E-02 
1259	 6.01574183658697E-02 
1260	 5.99783980654395E-02 
1261	 5.91801392991472E-02 
1262	 5.86695088297814E-02 
1263	 5.83024467372446E-02 
1264	 5.89707256817006E-02 
1265	 5.96494602423965E-02 
1266	 5.91213391785687E-02 
1267	 5.93426284945572E-02 
1268	 5.98758120972763E-02 
1269	 5.91504683588393E-02 
1270	 5.84460439880305E-02 
1271	 5.86185857225087E-02 
1272	 5.89971328235552E-02 
1273	 5.89847517880806E-02 
1274	 5.85939099664679E-02 
1275	 5.94016443259514E-02 
1276	 5.98163150976694E-02 
1277	 0.058975348587153 
1278	 5.92006682034586E-02 
1279	 5.85500513426737E-02 
1280	 5.71652351754701E-02 
1281	 5.70840882581389E-02 
1282	 5.86154016965751E-02 
1283	 5.86389925655593E-02 
1284	 5.85378841293397E-02 
1285	 5.82581255290927E-02 
1286	 5.64047128673428E-02 
1287	 5.61979290517589E-02 
1288	 0.05744982250234 
1289	 5.78973616041444E-02 
1290	 5.87007015700059E-02 
1291	 5.93473512256882E-02 
1292	 0.058641996395134 
1293	 5.81836248333055E-02 
1294	 5.76469649608552E-02 
1295	 5.62683260867024E-02 
1296	 5.65267232589045E-02 
1297	 5.68157179066648E-02 
1298	 5.65211748480855E-02 
1299	 5.66493280847408E-02 
1300	 5.66370969254106E-02 
1301	 5.65157225052762E-02 
1302	 5.42618753617416E-02 
1303	 5.32708017426778E-02 
1304	 0.054474402866779 
1305	 5.20013070333803E-02 
1306	 5.10603799686723E-02 
1307	 0.052717301831379 
1308	 5.30141014654209E-02 
1309	 0.051222906376308 
1310	 5.07886624043524E-02 
1311	 5.20478539887029E-02 
1312	 5.15672849111573E-02 
1313	 4.99174011003118E-02 
1314	 4.95247257145831E-02 
1315	 0.049043717277949 
1316	 4.85437644376284E-02 
1317	 4.92654392803285E-02 
1318	 4.77532344500003E-02 
1319	 4.31833768592402E-02 
1320	 0.042525187475662 
1321	 4.22412462447636E-02 
1322	 4.37395247879488E-02 
1323	 4.89599735380542E-02 
1324	 0.050563179217679 
1325	 4.81223841027061E-02 
1326	 4.74382611645385E-02 
1327	 0.046725071386539 
1328	 4.37123845044404E-02 
1329	 4.14222188093927E-02 
1330	 4.23765547992369E-02 
1331	 4.87092243420955E-02 
1332	 5.53630046728588E-02 
1333	 5.57762292844668E-02 
1334	 5.53958043709738E-02 
1335	 0.05404066159861 
1336	 0.043983955953828 
1337	 4.04610382017824E-02 
1338	 4.21598702231558E-02 
1339	 4.19865897396533E-02 
1340	 4.17034144275094E-02 
1341	 3.96341433389534E-02 
1342	 3.86223097986332E-02 
1343	 3.69513475203052E-02 
1344	 2.59430994301464E-02 
1345	 0.026125782884007 
1346	 3.95971462029455E-02 
1347	 4.96647385502754E-02 
1348	 8.27986588288237E-02 
1349	 0.108115413932116 
1350	 0.11560130722361 
1351	 0.133245453174398 
1352	 9.78931300843833E-02 
1353	 0.11203363625157 
1354	 0.193436031201714 
1355	 0.33377367593664 
1356	 0.4793958151481 
1357	 0.542937325099102 
1358	 0.518578791371639 
1359	 0.330879381715787 
1360	-4.55060796630977E-02 
1361	-0.184775082067632 
1362	 2.19529132190737E-02 
1363	-5.19293200303411E-02 
1364	 6.25507163496613E-02 
1365	 0.426299528146201 
1366	-0.178812184386162 
1367	-0.62157775562105 
1368	-0.825415331233838 
1369	-1.02866565689805 
1370	-1.40610111406178 
1371	-1.98559135052306 
1372	-4.17419759265728 
1373	-9.79097951844585 
1374	-4.70188977545894 
1375	-1.23880000003192 
1376	-0.879132153267175 
1377	-0.290047252696086 
1378	 0.162687147288775 
1379	 0.100862678953818 
1380	 0.208137074390536 
1381	 1.04017675896302 
1382	 1.21003880467093 
1383	 0.608542594154778 
1384	 0.754814074631097 
1385	 1.20606688877653 
1386	 1.30655364140573 
1387	 2.93459037232292 
1388	 7.10131915497119 
1389	 3.40830925939061 
1390	 3.74655537913439 
1391	 3.78279543760784 
1392	-6.61659349100341 
1393	-1.74743319181805 
1394	 1.13485112546914 
1395	 0.803634896963512 
1396	 0.426353140317568 
1397	 0.567170191883453 
1398	 0.810370208053834 
1399	 0.412648846638003 
1400	 3.17394266978402E-02 
1401	 4.53453900577394E-03 
1402	 0.107614891945443 
1403	 0.301059286855876 
1404	 0.53747164687197 
1405	 0.545999319738494 
1406	 0.446751485347686 
1407	 0.447701178669294 
1408	-0.378263928205431 
1409	-0.345898475796069 
1410	 0.240904967423913 
1411	 0.788470006006355 
1412	 1.40432868116932 
1413	 1.17844429953718 
1414	 1.56497328397129 
1415	 1.3595217365251 
1416	 0.455729497795176 
1417	 0.269678085470927 
1418	 0.213517463299331 
1419	 4.78614628652811E-02 
1420	-0.235110233170004 
1421	-0.123078240449665 
1422	 0.192499457547231 
1423	 0.119895948827008 
1424	-3.15303369823332E-02 
1425	-5.83816713360292E-03 
1426	-0.153774114148062 
1427	-0.201028596835362 
1428	-2.08994136592989E-03 
1429	 8.26073139684067E-02 
1430	 8.18989130016135E-02 
1431	 8.24633542111489E-02 
1432	 0.128363140674236 
1433	 0.153025389995451 
1434	 5.97108742655956E-02 
1435	 7.05939980155156E-02 
1436	 0.193649865486493 
1437	 0.274434731470949 
1438	 0.295612697279509 
1439	 0.246388832482583 
1440	-5.44759926171734E-02 
1441	-0.144140953636895 
1442	-5.75036454884574E-02 
1443	-2.80099825783838E-02 
1444	 0.067174491265224 
1445	 0.166063028448083 
1446	 0.168985650612267 
1447	 0.145469815715276 
1448	 0.134859586775708 
1449	 0.136528225111314 
1450	 0.121362239830552 
1451	 8.36799833990067E-02 
1452	 7.79322344412611E-02 
1453	 6.74963900526643E-02 
1454	 5.50091848711747E-02 
1455	 4.28993405017033E-02 
1456	 3.92662181866004E-02 
1457	 3.30630388937363E-02 
1458	 2.84143337561386E-02 
1459	 2.96863594429908E-02 
1460	 2.91112388744795E-02 
1461	 0.024183060723344 
1462	 2.55646385902717E-02 
1463	 3.55607288227177E-02 
1464	 3.14452302600439E-02 
1465	 1.92116786176967E-02 
1466	 1.82222607387683E-02 
1467	 0.011926651638524 
1468	 9.80494361687344E-03 
1469	 2.25172287186805E-02 
1470	 2.60516079231498E-02 
1471	 2.40689699168484E-02 
1472	 2.41117705227107E-02 
1473	 0.021546550182444 
1474	 2.41982413061666E-02 
1475	 2.95931311469763E-02 
1476	 2.82938940289051E-02 
1477	 2.72530460567708E-02 
1478	 3.00533743697389E-02 
1479	 2.77018657796032E-02 
1480	 2.81623538486053E-02 
1481	 0.035733552896339 
1482	 3.76095632788668E-02 
1483	 3.35017772130591E-02 
1484	 3.77345639587919E-02 
1485	 4.75417934358306E-02 
1486	 4.90113516168091E-02 
1487	 4.97368926836808E-02 
1488	 4.88377034065106E-02 
1489	 4.49323056838061E-02 
1490	 4.17577604730984E-02 
1491	 3.82217452465009E-02 
1492	 3.64295117201967E-02 
1493	 3.35563219513334E-02 
1494	 3.28316039144577E-02 
1495	 3.43471425947695E-02 
1496	 3.54712171449635E-02 
1497	 3.80899877174082E-02 
1498	 3.81336361123462E-02 
1499	 3.71848794668268E-02 
1500	 3.63682729388956E-02 
1501	 3.31102818495963E-02 
1502	 3.25062956859567E-02 
1503	 3.38520216192497E-02 
1504	 0.03386154290532 
1505	 3.34594470495385E-02 
1506	 3.49440055239127E-02 
1507	 3.54004748801155E-02 
1508	 3.51582250581124E-02 
1509	 3.59573333246611E-02 
1510	 3.55615857184836E-02 
1511	 3.49235225988226E-02 
1512	 3.61310460672014E-02 
1513	 3.77364863083507E-02 
1514	 3.70796948943769E-02 
1515	 0.03606890350372 
1516	 3.63798567733092E-02 
1517	 3.52655520586822E-02 
1518	 3.47868741060928E-02 
1519	 3.50742144234402E-02 
1520	 3.54881280911894E-02 
1521	 3.53416603531872E-02 
1522	 3.38720418665686E-02 
1523	 3.50990263505444E-02 
1524	 3.54972335958462E-02 
1525	 3.37884662693528E-02 
1526	 3.49571457074773E-02 
1527	 3.57032180415593E-02 
1528	 3.43019838165396E-02 
1529	 3.41486153751913E-02 
1530	 3.50084735787513E-02 
1531	 3.44927743351793E-02 
1532	 3.44436396876694E-02 
1533	 3.70322654284279E-02 
1534	 3.81068508651902E-02 
1535	 3.56222663697321E-02 
1536	 3.34192660636013E-02 
1537	 3.29922344894642E-02 
1538	 3.33052535614212E-02 
1539	 3.66644924273466E-02 
1540	 4.05118234414981E-02 
1541	 3.97822803271941E-02 
1542	 3.79226362240671E-02 
1543	 3.77374018534886E-02 
1544	 3.72814668262925E-02 
1545	 3.65846997624974E-02 
1546	 0.036582822999689 
1547	 3.55355495125388E-02 
1548	 3.38078061130849E-02 
1549	 3.32848804853008E-02 
1550	 3.46444391958763E-02 
1551	 3.67990898745742E-02 
1552	 3.68937760708768E-02 
1553	 3.66787450567855E-02 
1554	 3.74416395821497E-02 
1555	 3.67579545832003E-02 
1556	 0.036079716938064 
1557	 3.66079658102003E-02 
1558	 3.68612707574021E-02 
1559	 3.72670708476434E-02 
1560	 3.78652162681633E-02 
1561	 3.74333384473966E-02 
1562	 3.74788499532895E-02 
1563	 3.74682507725909E-02 
1564	 3.61432757246249E-02 
1565	 3.75560336146285E-02 
1566	 3.84558944750214E-02 
1567	 3.71293323714028E-02 
1568	 0.038389038656487 
1569	 3.79493749907473E-02 
1570	 3.62172038184486E-02 
1571	 3.64183488923674E-02 
1572	 3.69317934833303E-02 
1573	 3.78539593281876E-02 
1574	 0.037662001502124 
1575	 3.70247613525127E-02 
1576	 3.64660957002906E-02 
1577	 3.59156417811092E-02 
1578	 3.51796713346667E-02 
1579	 3.41125020415804E-02 
1580	 3.43779012004887E-02 
1581	 0.034184095623082 
1582	 3.42349407423977E-02 
1583	 3.53063428847087E-02 
1584	 0.035970375202921 
1585	 3.69844521829431E-02 
1586	 0.037177441577112 
1587	 3.71953002135471E-02 
1588	 0.038229404551722 
1589	 3.80427828157026E-02 
1590	 3.79439086744661E-02 
1591	 3.84048574120687E-02 
1592	 3.73377613446016E-02 
1593	 3.75732122119326E-02 
1594	 3.84889215882197E-02 
1595	 3.77391716658116E-02 
1596	 3.67003399757926E-02 
1597	 3.50593405238129E-02 
1598	 3.42611034586011E-02 
1599	 3.42647438826644E-02 
1600	 3.50859935931965E-02 
1601	 3.69791769017704E-02 
1602	 3.70885884327878E-02 
1603	 0.037250296676347 
1604	 3.76745228802861E-02 
1605	 3.74085638941387E-02 
1606	 3.78367151579103E-02 
1607	 3.78181857496469E-02 
1608	 3.77636144418879E-02 
1609	 3.84591815448198E-02 
1610	 3.83619143190448E-02 
1611	 3.81828392603025E-02 
1612	 3.72871155489484E-02 
1613	 3.47138149211818E-02 
1614	 3.33736795738212E-02 
1615	 3.33520089194978E-02 
1616	 3.50971215386328E-02 
1617	 3.75995369012712E-02 
1618	 3.83213110478461E-02 
1619	 3.87712044227575E-02 
1620	 0.038759093109777 
1621	 3.82504113453473E-02 
1622	 3.82914080360732E-02 
1623	 3.79447073851465E-02 
1624	 3.76500075796832E-02 
1625	 3.79209680631526E-02 
1626	 3.86414483329479E-02 
1627	 0.039492800200991 
1628	 3.88941187759667E-02 
1629	 3.79140165100793E-02 
1630	 3.71063317709474E-02 
1631	 3.56468360061364E-02 
1632	 3.60021495221685E-02 
1633	 3.73102634209124E-02 
1634	 3.69049463019364E-02 
1635	 0.037140976269834 
1636	 3.78316425022294E-02 
1637	 3.71514334309897E-02 
1638	 3.67700545136716E-02 
1639	 3.69829995213866E-02 
1640	 3.63310257218975E-02 
1641	 3.53344294220486E-02 
1642	 3.73806776565956E-02 
1643	 4.03137036419808E-02 
1644	 3.99242437471162E-02 
1645	 3.92331625198186E-02 
1646	 3.88922991585956E-02 
1647	 3.72187781691551E-02 
1648	 3.67495022793856E-02 
1649	 3.83751313023628E-02 
1650	 3.83371405144187E-02 
1651	 3.66537779612043E-02 
1652	 3.75952287730107E-02 
1653	 3.94501490464436E-02 
1654	 3.95887049305601E-02 
1655	 3.96441014367466E-02 
1656	 3.88392233071437E-02 
1657	 3.66149159913292E-02 
1658	 3.60152654752336E-02 
1659	 3.51486530737116E-02 
1660	 3.51893590335916E-02 
1661	 3.65661192483768E-02 
1662	 3.70547862039373E-02 
1663	 3.81185969818096E-02 
1664	 3.86911755948255E-02 
1665	 3.91139417283278E-02 
1666	 3.92003722442121E-02 
1667	 3.75887861634575E-02 
1668	 3.63101861161662E-02 
1669	 3.68463846335742E-02 
1670	 3.79638724819674E-02 
1671	 4.06062920604477E-02 
1672	 4.27418520851026E-02 
1673	 4.08090174787044E-02 
1674	 3.47996625458898E-02 
1675	 3.24315272451667E-02 
1676	 3.33314034982265E-02 
1677	 0.033304324670939 
1678	 3.59148415935673E-02 
1679	 3.79649736644677E-02 
1680	 3.66148399501474E-02 
1681	 0.036532054364731 
1682	 3.69702171151913E-02 
1683	 3.55833452784299E-02 
1684	 3.56055841954488E-02 
1685	 3.71540519954214E-02 
1686	 3.82080533941317E-02 
1687	 3.81592673273058E-02 
1688	 3.65311620784657E-02 
1689	 3.56901533666001E-02 
1690	 3.53672733884267E-02 
1691	 3.55621202460418E-02 
1692	 3.72997117781035E-02 
1693	 0.037209108799296 
1694	 3.64913625044081E-02 
1695	 0.037834976378271 
1696	 3.77013615520773E-02 
1697	 3.69234585786794E-02 
1698	 3.93448835715343E-02 
1699	 3.91846696897235E-02 
1700	 3.69840744966898E-02 
1701	 3.90547268886123E-02 
1702	 3.91633061891287E-02 
1703	 3.74595283882466E-02 
1704	 3.98505478034387E-02 
1705	 0.041618994105487 
1706	 3.92194522444431E-02 
1707	 3.84188664007049E-02 
1708	 4.05764862754271E-02 
1709	 3.95201488726667E-02 
1710	 3.72813522285911E-02 
1711	 3.71772009254642E-02 
1712	 3.62757800665659E-02 
1713	 3.62753456516067E-02 
1714	 3.71225458526237E-02 
1715	 3.93210094940179E-02 
1716	 3.89082308626004E-02 
1717	 3.82985550164942E-02 
1718	 3.99346034906526E-02 
1719	 0.040934514404215 
1720	 3.93029180766676E-02 
1721	 4.01269521734784E-02 
1722	 4.11426427155905E-02 
1723	 0.038555090333311 
1724	 3.88864159052533E-02 
1725	 3.94453352184514E-02 
1726	 3.44297909222632E-02 
1727	 0.034314023197333 
1728	 0.039007450788037 
1729	 3.91879147476297E-02 
1730	 3.98345309811117E-02 
1731	 4.16908939086338E-02 
1732	 3.93659059859035E-02 
1733	 3.80912074466577E-02 
1734	 3.89434955751097E-02 
1735	 3.83354204352607E-02 
1736	 3.79090338929942E-02 
1737	 0.03786625789592 
1738	 3.99877444051256E-02 
1739	 4.12956266234041E-02 
1740	 4.04850591843237E-02 
1741	 4.01566114245641E-02 
1742	 3.58467485607092E-02 
1743	 3.05684106101998E-02 
1744	 3.20163543854516E-02 
1745	 3.31670861198194E-02 
1746	 4.02360026551003E-02 
1747	 4.29628823213888E-02 
1748	 3.89860957237689E-02 
1749	 3.76650245346669E-02 
1750	 3.64869321485853E-02 
1751	 3.45162596893964E-02 
1752	 3.23399885021036E-02 
1753	 3.13370840242414E-02 
1754	 2.97464071145977E-02 
1755	 3.16377121453846E-02 
1756	 3.70627900654531E-02 
1757	 4.01703369330254E-02 
1758	 4.14957944913235E-02 
1759	 3.86417378798893E-02 
1760	 3.77754981766954E-02 
1761	 3.86456315298321E-02 
1762	 3.94748703876598E-02 
1763	 3.92240880830826E-02 
1764	 3.79725579319494E-02 
1765	 3.94594975221154E-02 
1766	 4.17983833358571E-02 
1767	 4.45465432246535E-02 
1768	 4.90822221319372E-02 
1769	 4.04853096766376E-02 
1770	 0.02609270394121 
1771	 2.69814354755788E-02 
1772	 2.37662392638378E-02 
1773	 2.39042627682083E-02 
1774	 4.02521226968484E-02 
1775	 3.99799761830752E-02 
1776	 0.038372668544797 
1777	 0.037914743422858 
1778	 3.73616840638725E-02 
1779	 0.030141983235737 
1780	 2.50592454417708E-02 
1781	 2.36405847922667E-02 
1782	 0.022750282867132 
1783	 2.10924038667081E-02 
1784	 2.19477759429179E-02 
1785	 3.02084983825243E-02 
1786	 3.40436494037947E-02 
1787	 3.38998692830477E-02 
1788	 3.16696940767427E-02 
1789	 2.55008801353208E-02 
1790	 3.79434436957459E-02 
1791	 4.32720919442096E-02 
1792	 5.08568259076878E-02 
1793	 6.39463617334018E-02 
1794	 5.11299534878479E-02 
1795	 4.67688173819444E-02 
1796	 6.78997493562545E-02 
1797	 3.28776124954911E-02 
1798	-3.61380456086836E-02 
1799	-0.059870033463818 
1800	 7.74367342473569E-03 
1801	 3.64176554971139E-02 
1802	 0.168628375723187 
1803	 0.20602939866755 
1804	-7.46593143674566E-02 
1805	-0.118117336024486 
1806	 1.63088520832497E-02 
1807	 0.118341926433415 
1808	 0.686141796590374 
1809	 0.873283174728675 
1810	 0.566957786108264 
1811	 0.411105604408493 
1812	-0.516134643142951 
1813	-0.421573750745668 
1814	 0.737152820680711 
1815	 0.869762148371851 
1816	 0.922715855251579 
1817	 0.586956276587979 
1818	 0.429629545952251 
1819	-5.66343495878664E-02 
1820	-1.5176725173592 
1821	-1.13859763805041 
1822	-1.21808943287851 
1823	 8.76451625158982 
1824	 3.37898474559865 
1825	-5.69507299112491E-02 
1826	-0.347468402497886 
1827	 6.37496925246744E-02 
1828	 7.83199241576859E-02 
1829	 0.207100393419768 
1830	 0.465011453937903 
1831	-1.46991092448305 
1832	 0.122027816094355 
1833	 1.40770831779368 
1834	 1.59671975003477 
1835	-2.22401119900796 
1836	 1.78651204188351 
1837	 3.58329815847208E-02 
1838	-0.105339220447331 
1839	-1.02305848400858 
1840	-1.02580117947178 
1841	-0.944880587670245 
1842	-0.41306464858798 
1843	 0.192628956839167 
1844	 1.69622521354227 
1845	 1.61459918955872 
1846	 0.708584029540626 
1847	 0.671881607415648 
1848	-0.267258792841837 
1849	-42.4716679622704 
1850	 0.272340507073211 
1851	 6.66427112091086E-02 
1852	-0.051874006845384 
1853	-0.523589619797433 
1854	-0.989844912674025 
1855	 0.62019824909942 
1856	 1.38736355941559 
1857	-2.16169984119431 
1858	-1.4205493124188 
1859	-0.535110231115846 
1860	-0.764645513244077 
1861	-0.853211357166519 
1862	-0.718313849945499 
1863	-1.85195007374994 
1864	-2.09491956147713 
1865	-1.52718199366844 
1866	 0.144812881328637 
1867	 2.16334297737919 
1868	 2.43214271690287 
1869	 2.9978657654134 
1870	 4.95597789289981 
1871	 9.91210885977949 
1872	 7.81556258816087 
1873	-13.1724646936688 
1874	-2.88658449409915 
1875	-1.45085283474793 
1876	-0.629271568510882 
1877	 0.14325071601731 
1878	 1.13379498022151 
1879	 2.47144065049738 
1880	 3.16035553963879 
1881	 4.04729743539163 
1882	 21.634309144 
1883	 20.0054916976264 
1884	-10.8098458801658 
1885	-2.69107112883349 
1886	-1.29684713507047 
1887	-2.78698581655878 
1888	 0.684163349977926 
1889	 0.355360907005747 
1890	-0.539168053111843 
1891	-1.55293809547514 
1892	 0.70082538519497 
1893	 7.72057628585653E-02 
1894	-0.231069881184667 
1895	-0.318474987600439 
1896	-13.5401923819945 
1897	 1.76956256413876 
1898	-0.140003403491256 
1899	 3.05813840448036E-02 
1900	 0.210629203352637 
1901	 1.22752145019793 
1902	 1.2025509286482 
1903	 1.36486997665868 
1904	 0.355618958613646 
1905	 0.323332616738618 
1906	 0.556035616358716 
1907	 0.135484897167424 
1908	 1.14190155082507 
1909	 1.62852091467148 
1910	 2.23072323281831 
1911	 2.79051357171919 
1912	-2.27391367813546 
1913	 0.670211563848752 
1914	 13.1219964193878 
1915	-43.437800299238 
1916	-75.5884613879366 
1917	 5.59679833598165 
1918	 0.288070076618826 
1919	-0.514609546101175 
1920	-0.196120525963502 
1921	-2.43577740866792 
1922	-9.87871150401428 
1923	 3.46479377847565 
1924	-0.764463132839401 
1925	-0.797711039835955 
1926	-1.48820258370517 
1927	 1.50238915612738 
1928	-4.11539282981802 
1929	 2.69101754072085 
1930	 0.468399317401849 
1931	-2.25093895310216 
1932	 0.368961952880649 
1933	 0.118530186002695 
1934	-0.128592327520197 
1935	-0.410534759992643 
1936	-0.863368214626667 
1937	-1.09347806522466 
1938	-1.201743310801 
1939	-0.914141977279268 
1940	-0.234196675065678 
1941	-0.28126452114531 
1942	-0.588963373694119 
1943	-5.62843416644084E-02 
1944	-12.4133326101012 
1945	 1.65504382775121 
1946	 0.398738527955522 
1947	-0.143344937968754 
1948	-0.381358608544695 
1949	 0.749821238337384 
1950	-18.9310631623799 
1951	 18.8008878383205 
1952	 7.73035498007646 
1953	 2.83503048765461 
1954	 1.48401819860482 
1955	 1.00135282897128 
1956	 0.866380371500078 
1957	 0.761887491639941 
1958	 0.586097023623562 
1959	 0.332364211819702 
1960	 2.97880356850435E-02 
1961	-0.216405964491232 
1962	-0.162771204740687 
1963	-6.28664486081868E-02 
1964	-4.29035160275708E-02 
1965	 3.99681246300866E-02 
1966	 8.17067588324336E-02 
1967	 8.10573387748414E-02 
1968	 3.74860080933076E-02 
1969	 3.16777034043873E-02 
1970	 3.96775205779819E-02 
1971	 4.06907154745366E-03 
1972	-2.36406909670619E-02 
1973	-9.39547196864587E-03 
1974	-4.10691981840713E-03 
1975	 9.64986077560172E-04 
1976	 1.23798039541709E-02 
1977	 1.27200529503542E-02 
1978	 2.24895602524922E-03 
1979	 5.62018168715637E-03 
1980	 1.14983165162453E-02 
1981	 1.49070401381923E-02 
1982	 0.030191986851583 
1983	 4.33150226712343E-02 
1984	 0.034506875434853 
1985	 2.86032224151247E-02 
1986	 2.33077963530863E-02 
1987	 2.64743560958991E-02 
1988	 0.032108699627349 
1989	 2.55775627502356E-02 
1990	 1.63023867276443E-02 
1991	 4.16306304449808E-03 
1992	 1.63722000844952E-03 
1993	 2.51390645523815E-02 
1994	 3.63782472492586E-02 
1995	 5.23847280607185E-02 
1996	 5.56158255760896E-02 
1997	 6.13547861421763E-02 
1998	 6.20912459996735E-02 
1999	 7.86330177450636E-02 
2000	 0.103618111810891 
2001	 0.111864892115702 
2002	 6.74222997589246E-02 
2003	 1.41598951944252E-02 
2004	 2.90889937106804E-03 
2005	-0.022108715236808 
2006	-1.48488860311385E-02 
2007	 9.9153528754544E-03 
2008	 8.64173698964022E-03 
2009	-2.31207860151225E-03 
2010	-2.31860203600962E-02 
2011	-1.49924429965678E-02 
2012	-2.84196418416015E-03 
2013	-8.81791190695919E-03 
2014	 0.016541123537963 
2015	 5.72359310879941E-02 
2016	 5.86031934188751E-02 
2017	 4.54134658146829E-02 
2018	 3.66751434866635E-02 
2019	 2.54593309305891E-02 
2020	 1.33019037243817E-02 
2021	-1.31730901839751E-03 
2022	 4.03725755108078E-03 
2023	 1.29289726502223E-02 
2024	 1.71582263608117E-02 
2025	 3.25509478849217E-02 
2026	 0.034008630332978 
2027	 2.68329135381576E-02 
2028	 1.86087444380979E-02 
2029	 0.02092229063537 
2030	 2.04539378982319E-02 
2031	 2.35747171398224E-02 
2032	 3.16384177526398E-02 
2033	 3.50269356694371E-02 
2034	 3.17429337135486E-02 
2035	 0.030751807115781 
2036	 3.67894379039335E-02 
2037	 3.15727103297987E-02 
2038	 3.12054974205155E-02 
2039	 3.26813880681906E-02 
2040	 3.26107133996663E-02 
2041	 2.93293256493799E-02 
2042	 2.83352396381087E-02 
2043	 2.83063813590063E-02 
2044	 2.50982718777138E-02 
2045	 2.83567187848756E-02 
2046	 2.82786000760448E-02 
2047	 2.92429125691748E-02 
2048	 2.52388510193939E-02 
2049	 9.91136385715174E-03 
2050	 4.98255149344891E-03 
2051	-3.34326069233429E-03 
2052	-0.018141659021953 
2053	-1.33463759792709E-02 
2054	-6.34915063239455E-03 
2055	-2.4354743899376E-03 
2056	-3.11057946345841E-03 
2057	-1.00404535495584E-02 
2058	-1.13959627025184E-02 
2059	-1.88049344936309E-02 
2060	-1.28275942431885E-02 
2061	 4.72504359285052E-03 
2062	 2.18593957609574E-02 
2063	 3.61977076788686E-02 
2064	 3.73013122469651E-02 
2065	 3.10065789494018E-02 
2066	 2.43559049243242E-02 
2067	 2.04587670985506E-02 
2068	 1.97869495066438E-02 
2069	 2.18269988908825E-02 
2070	 3.08703148635826E-02 
2071	 2.79792665082649E-02 
2072	 2.64386406360597E-02 
2073	 2.98169431863156E-02 
2074	 3.20708509246217E-02 
2075	 3.56409295350651E-02 
2076	 4.80211995145254E-02 
2077	 4.86797011354203E-02 
2078	 4.15853654430888E-02 
2079	 3.82231546878637E-02 
2080	 3.10302605604397E-02 
2081	 3.03639857007568E-02 
2082	 3.10801583678498E-02 
2083	 3.13055613193088E-02 
2084	 3.10740063383614E-02 
2085	 3.14612305770304E-02 
2086	 3.69073885429289E-02 
2087	 3.85449601426641E-02 
2088	 4.17616258354283E-02 
2089	 4.81373186206555E-02 
2090	 4.37242025986014E-02 
2091	 3.90796858609928E-02 
2092	 3.66054443029062E-02 
2093	 3.00931742884902E-02 
2094	 2.77794951783691E-02 
2095	 3.43896834200551E-02 
2096	 3.36782167674761E-02 
2097	 2.39821969651776E-02 
2098	 2.36974786051508E-02 
2099	 2.61892331484595E-02 
2100	 2.87629773177239E-02 
2101	 3.36289020529238E-02 
2102	 4.21293884035306E-02 
2103	 4.84457061091918E-02 
2104	 4.46842890291708E-02 
2105	 3.69127239184135E-02 
2106	 3.66057488385293E-02 
2107	 3.37294714340183E-02 
2108	 2.74382200164935E-02 
2109	 2.84629776827159E-02 
2110	 3.06539582914476E-02 
2111	 0.030053167624017 
2112	 3.17147829943306E-02 
2113	 3.11326441388504E-02 
2114	 2.95447805848623E-02 
2115	 2.75800676706685E-02 
2116	 2.42363728616821E-02 
2117	 1.98772330639614E-02 
2118	 1.29633321732343E-02 
2119	 1.02283993727359E-02 
2120	 8.08145605104175E-03 
2121	 8.15513141542942E-03 
2122	 0.010885985868152 
2123	 6.52868082801753E-03 
2124	 8.08806340588071E-03 
2125	 1.30006981564795E-02 
2126	 1.59903079152028E-02 
2127	 0.019637615796209 
2128	 1.83562878772194E-02 
2129	 2.12138307478734E-02 
2130	 2.32950598556556E-02 
2131	 2.52635531992749E-02 
2132	 2.85680636091342E-02 
2133	 2.69010823040748E-02 
2134	 2.68077378651455E-02 
2135	 2.59321550529758E-02 
2136	 2.79984460586985E-02 
2137	 0.033072101093833 
2138	 0.034691678006683 
2139	 3.17797437911835E-02 
2140	 3.58946684428713E-02 
2141	 4.64874198222928E-02 
2142	 4.94485716136226E-02 
2143	 5.29419216316812E-02 
2144	 5.65533337472965E-02 
2145	 5.24321586897779E-02 
2146	 4.04222661314326E-02 
2147	 2.93210547241296E-02 
2148	 2.99561776627529E-02 
2149	 3.11154389743077E-02 
2150	 2.83734423826951E-02 
2151	 3.03206368347977E-02 
2152	 3.45513765468754E-02 
2153	 3.00439892750896E-02 
2154	 2.70843559114321E-02 
2155	 3.35200411233357E-02 
2156	 3.10961815861515E-02 
2157	 2.66748413213035E-02 
2158	 2.19322380292542E-02 
2159	 1.65057927644734E-02 
2160	 4.93376506648177E-03 
2161	-1.97519737914143E-04 
2162	-3.57520551629415E-03 
2163	-2.47230169274829E-04 
2164	 9.29454573155604E-03 
2165	 1.37739776100048E-02 
2166	 2.08455231749492E-02 
2167	 2.81181722142358E-02 
2168	 3.23640502319615E-02 
2169	 3.57296544155158E-02 
2170	 3.86581004840485E-02 
2171	 5.15098448705504E-02 
2172	 5.16305924281279E-02 
2173	 4.28205703052246E-02 
2174	 4.24734015905383E-02 
2175	 3.74251103401692E-02 
2176	 2.92540871290546E-02 
2177	 2.51195811973618E-02 
2178	 1.07763543114442E-02 
2179	 1.31565688561792E-03 
2180	 4.70125691602463E-03 
2181	 2.76578189721769E-04 
2182	 1.37998758308724E-02 
2183	 2.87938084988862E-02 
2184	 3.00709539454871E-02 
2185	 4.42591923987017E-02 
2186	 0.051975729475108 
2187	 5.55782663645016E-02 
2188	 5.47255338380074E-02 
2189	 5.13476848446739E-02 
2190	 4.63031976555124E-02 
2191	 0.03199698397915 
2192	 0.025573092923379 
2193	 1.80982850861335E-02 
2194	 1.97443590107039E-02 
2195	 3.29781273531507E-02 
2196	 3.82981134624829E-02 
2197	 5.21767390112728E-02 
2198	 5.51131814776305E-02 
2199	 4.67248196392676E-02 
2200	 3.75782869124528E-02 
2201	 3.57969334465483E-02 
2202	 3.52544073157111E-02 
2203	 4.65231249474203E-02 
2204	 5.95379312173391E-02 
2205	 5.58633837860375E-02 
2206	 0.055043342287717 
2207	 6.00247243003038E-02 
2208	 5.22978797971283E-02 
2209	 5.63321018175689E-02 
2210	 4.12643482325846E-02 
2211	 2.54377778502344E-02 
2212	 3.33864484932989E-02 
2213	 1.74519155631549E-02 
2214	 1.63099938587394E-02 
2215	 2.50441180081106E-02 
2216	 1.33912608293602E-02 
2217	 1.02028284725504E-02 
2218	 1.91353658851209E-02 
2219	 2.17025535939715E-02 
2220	 1.19296833391807E-02 
2221	 1.46477164420286E-02 
2222	 2.45835646199597E-02 
2223	 0.029463479601298 
2224	 4.49849459436323E-02 
2225	 4.84639249580086E-02 
2226	 3.93569296931404E-02 
2227	 4.15196330605154E-02 
2228	 4.35529034152477E-02 
2229	 4.32408971351166E-02 
2230	 5.13220559219743E-02 
2231	 4.74911504002358E-02 
2232	 3.40801168316059E-02 
2233	 2.22680420322906E-02 
2234	-1.14159146516295E-03 
2235	-6.72146542439139E-03 
2236	-5.72749148020038E-03 
2237	 1.88722000228553E-04 
2238	 0.020931534002613 
2239	 3.01232836440258E-02 
2240	 2.93568723495645E-02 
2241	 2.65452641732584E-02 
2242	 1.58977477682888E-02 
2243	 1.52912616748221E-02 
2244	 2.59042919388721E-02 
2245	 0.029017985416531 
2246	 2.51874279107572E-02 
2247	 2.56832568321787E-02 
2248	 2.23484918636376E-02 
2249	 7.24119947741513E-03 
2250	 1.10619986098239E-02 
2251	 0.013827807910344 
2252	-1.49034123991961E-03 
2253	-4.37467873326796E-03 
2254	-9.20641716991258E-03 
2255	 1.99299500310431E-03 
2256	 2.89483722119859E-02 
2257	 4.76821855725029E-02 
2258	 6.97412410843589E-02 
2259	 5.90576804527994E-02 
2260	 5.46393024998157E-02 
2261	 0.045843564892617 
2262	 4.35506503592339E-02 
2263	 4.10030140338015E-02 
2264	 4.19251341016822E-02 
2265	 3.69651752108577E-02 
2266	 3.63403639495279E-02 
2267	 4.24578097142875E-02 
2268	 4.17171307425562E-02 
2269	 4.70218288083049E-02 
2270	 0.050568441963196 
2271	 4.38076279834519E-02 
2272	 4.84655676102753E-02 
2273	 6.29428967461584E-02 
2274	 6.37756399926114E-02 
2275	 5.93039603653659E-02 
2276	 5.94257011213595E-02 
2277	 5.14268774041778E-02 
2278	 5.20147904867542E-02 
2279	 6.79685684146991E-02 
2280	 6.92040272036365E-02 
2281	 6.09957943654239E-02 
2282	 6.31390459830297E-02 
2283	 5.82432819599205E-02 
2284	 5.77740355967827E-02 
2285	 6.29871058191014E-02 
2286	 4.59795777086654E-02 
2287	 1.89945615937028E-02 
2288	-3.00565879648866E-03 
2289	-1.11521790525241E-02 
2290	-1.19124778472472E-03 
2291	 2.15393488560105E-02 
2292	 4.73752088240121E-02 
2293	 4.65052389872506E-02 
2294	 6.60349568349002E-02 
2295	 0.104991258988145 
2296	 0.10757599597276 
2297	 0.112287710013631 
2298	 0.102205685064223 
2299	 5.37417408440109E-02 
2300	 2.79206701843724E-02 
2301	 3.15216259022728E-02 
2302	 1.41661731247875E-02 
2303	-2.1056771217639E-03 
2304	-1.32048854620065E-02 
2305	-0.021219429713563 
2306	-1.11360769820832E-02 
2307	-3.75824464409416E-03 
2308	-8.48121367642623E-03 
2309	-4.67890524779599E-02 
2310	-7.26236628003851E-02 
2311	-0.062277165642133 
2312	-5.01908785812206E-02 
2313	-2.65724474796893E-02 
2314	-2.78462783319234E-02 
2315	-3.96839595464673E-02 
2316	-5.38586458664672E-02 
2317	-3.07499471999032E-02 
2318	 2.53967681868906E-02 
2319	 2.03658405850266E-02 
2320	 1.11307924323517E-02 
2321	-3.79511928541653E-02 
2322	-9.12015206052268E-02 
2323	-5.86609347247871E-02 
2324	-6.46721802801182E-03 
2325	 4.10898562313491E-02 
2326	 9.33891289859889E-02 
2327	 6.62020089261647E-02 
2328	 3.30644314473777E-02 
2329	 2.82931302434721E-02 
2330	-2.16696687004594E-02 
2331	-1.13695752579086E-02 
2332	 2.69202415627238E-02 
2333	 2.06718071766542E-02 
2334	 4.97914850436617E-02 
2335	 0.038838765174793 
2336	-3.01153377011935E-02 
2337	-0.114182149633892 
2338	-0.182050280334708 
2339	-0.211296375337742 
2340	-0.215437394124285 
2341	-0.128754871497389 
2342	 2.51403210131841E-02 
2343	 8.36229180798617E-02 
2344	 0.104785963864608 
2345	 0.100664290264312 
2346	 2.79487227053094E-03 
2347	 4.54571153571969E-03 
2348	 6.48630483500124E-02 
2349	 8.95289129084465E-02 
2350	 7.97241000064837E-02 
2351	-2.97716116316054E-02 
2352	-9.18267592354379E-02 
2353	-0.16633008217264 
2354	-0.213147663849286 
2355	-0.190088718452906 
2356	-0.302113381777209 
2357	-0.271805017828868 
2358	-0.248518954447775 
2359	-0.344377910979547 
2360	-0.358313044189265 
2361	-0.291465094677284 
2362	-0.323213081158913 
2363	-0.273393345463013 
2364	 3.26108057457593E-02 
2365	 0.099378178035392 
2366	 0.123693015864041 
2367	 0.108132031022276 
2368	-0.194975231266074 
2369	-0.612622653762262 
2370	-1.43081378405981 
2371	-0.127916870015976 
2372	 0.66616038647245 
2373	 0.561053655630855 
2374	 0.632366882601716 
2375	 1.26829149815852 
2376	 1.06437051527972 
2377	 1.23734520265797 
2378	 0.795096682770165 
2379	 0.325672399900906 
2380	 0.23072253691913 
2381	 0.125346333211101 
2382	 0.260256284490962 
2383	 0.29057624950392 
2384	 0.210799756534848 
2385	 0.129924110227647 
2386	-9.01776165426412E-02 
2387	-0.539112482913936 
2388	-0.863444364743575 
2389	-0.242117419922464 
2390	-3.78715228566411E-02 
2391	 0.185318843508623 
2392	 0.127405469198867 
2393	 9.46698867789097E-02 
2394	 0.119402307181033 
2395	-2.13745982345955E-02 
2396	-4.48442609475208E-02 
2397	-0.096032102908259 
2398	-0.321893156515718 
2399	-0.521970073223152 
2400	-0.56983349864141 
2401	-0.553343575814884 
2402	-0.282785410351026 
2403	-2.39376028892983E-02 
2404	-0.169673202741385 
2405	-0.371194431355554 
2406	-0.285102512454105 
2407	-0.386508068680536 
2408	 0.21053289433603 
2409	 0.730538440030074 
2410	 0.964253219660981 
2411	 1.01576253910684 
2412	 0.745408179196226 
2413	 0.368688010050888 
2414	 0.235161873004897 
2415	 0.430206951829569 
2416	 1.00795247693077 
2417	 1.4696475024714 
2418	 3.25732459185649 
2419	 1.84204215938872 
2420	-5.01495713810953 
2421	-3.59446590639837 
2422	-1.37789146640149 
2423	-1.25343947465571 
2424	-1.03343568173752 
2425	-5.67713561278193 
2426	-11.2146835784725 
2427	 1.60524233072371 
2428	 0.741448078480099 
2429	 0.740568391336834 
2430	 0.241886619455752 
2431	 0.235280980421813 
2432	 7.65433037827195E-02 
2433	-1.02705703490346E-02 
2434	 0.305048012147921 
2435	 0.410522554883739 
2436	 0.642462994713402 
2437	 1.49535846246499 
2438	-20.7302972305774 
2439	-4.68575854031515 
2440	-3.28463841679194 
2441	-1.55358045048129 
2442	 0.682279426652991 
2443	 2.84491180252191 
2444	-6.40701524109735 
2445	-3.73674178494371 
2446	-1.00931333174844 
2447	-0.498625460490336 
2448	-0.483275446473716 
2449	-1.71075269883501 
2450	 1.44027839185424 
2451	 5.19648739879153E-02 
2452	 0.957155634763819 
2453	 1.06021181041291 
2454	-5.08243443280076 
2455	 12.753421240026 
2456	 0.830604412838366 
2457	 1.51319161461164 
2458	 0.715045658643536 
2459	 0.721274119044094 
2460	 1.56045868875958 
2461	-0.367479380513996 
2462	-0.219394041735842 
2463	-7.10192167533697 
2464	 1.92464600796833 
2465	 0.601170719249167 
2466	-2.06012057868343 
2467	 0.439835951555549 
2468	 0.427940887473396 
2469	 0.448024272684507 
2470	 0.177303981998466 
2471	 0.291202098456891 
2472	 4.18907103014189E-02 
2473	-0.775043540914662 
2474	-1.54372240835683 
2475	-0.294903281646868 
2476	-2.14368360235704 
2477	-1.61820336912199 
2478	-1.38765676571156 
2479	-7.13110811097717 
2480	-4.96439473702297 
2481	-3.02088456210309 
2482	-12.4598742956059 
2483	-7.0037767806389 
2484	 2.50216665067012 
2485	 1.54926599740251 
2486	 1.18055277894842 
2487	 0.934983433151182 
2488	 0.430075503817846 
2489	 0.186548958201738 
2490	 0.194338410356185 
2491	 0.193184553163023 
2492	 0.193090583179462 
2493	 0.470231527559617 
2494	 0.877024540039385 
2495	 0.950748339188691 
2496	 1.59707693559231 
2497	 5.06461805952402 
2498	 5.96625277275508 
2499	-1.83027026413025 
2500	-3.58216699490237 
