Wavelength	rt0629algeare00004.asd
350	 4.81375442636221E-02 
351	 4.67152948760095E-02 
352	 4.72209565093089E-02 
353	 4.75905457065996E-02 
354	 4.66192685752966E-02 
355	 4.63097638307735E-02 
356	 0.046461754536909 
357	 4.61713452578013E-02 
358	 4.50473670063916E-02 
359	 4.58966169652548E-02 
360	 4.62125198435346E-02 
361	 4.55655396477536E-02 
362	 0.045061537254884 
363	 4.49219385158207E-02 
364	 4.50295093687527E-02 
365	 4.50682848896006E-02 
366	 4.45062279613714E-02 
367	 4.47261537439686E-02 
368	 4.49460406395661E-02 
369	 4.43160617772141E-02 
370	 4.37352280974893E-02 
371	 4.38601339276969E-02 
372	 4.44222286693231E-02 
373	 4.46288518177713E-02 
374	 4.45112221116985E-02 
375	 4.42113981040924E-02 
376	 4.37294827424781E-02 
377	 4.28576481587851E-02 
378	 4.35968581490987E-02 
379	 4.41452696175843E-02 
380	 4.32024747783613E-02 
381	 4.38607976421708E-02 
382	 4.43856179920539E-02 
383	 0.044331503332764 
384	 4.39929334777362E-02 
385	 4.41161846176825E-02 
386	 4.38769842821121E-02 
387	 4.33378845414752E-02 
388	 4.36104724909246E-02 
389	 4.40696037858337E-02 
390	 4.43898421167585E-02 
391	 4.43628451445833E-02 
392	 4.37636544015859E-02 
393	 4.40674489041331E-02 
394	 4.45571857133371E-02 
395	 4.41486885833132E-02 
396	 4.44899920565826E-02 
397	 4.46101340955994E-02 
398	 4.42912136389826E-02 
399	 4.40662498836798E-02 
400	 4.39225073018697E-02 
401	 4.40774715737005E-02 
402	 4.44374415585832E-02 
403	 4.41024982695446E-02 
404	 4.44511808989271E-02 
405	 4.48280814594976E-02 
406	 4.42494482945362E-02 
407	 4.44669122807907E-02 
408	 4.45016074898869E-02 
409	 4.42456086501386E-02 
410	 4.45379117446608E-02 
411	 4.45307270361757E-02 
412	 4.44563862767127E-02 
413	 4.45516471264774E-02 
414	 4.45856454380465E-02 
415	 4.47358941837388E-02 
416	 4.48828082816436E-02 
417	 4.48650415822684E-02 
418	 0.045025841812989 
419	 4.51955406639737E-02 
420	 4.53100836168663E-02 
421	 4.54587341493152E-02 
422	 4.58418719322745E-02 
423	 0.046008571103517 
424	 4.57924879156058E-02 
425	 4.62153822398904E-02 
426	 4.62997318640045E-02 
427	 4.62281522480741E-02 
428	 4.66308784539025E-02 
429	 4.70333624181556E-02 
430	 4.72499104525986E-02 
431	 4.73863093795223E-02 
432	 4.78422019618634E-02 
433	 4.79650303686883E-02 
434	 4.81464190270714E-02 
435	 0.048675407500668 
436	 4.88545378085077E-02 
437	 4.90462782249311E-02 
438	 4.93267808017415E-02 
439	 0.049611707804887 
440	 4.98880376881528E-02 
441	 0.050136821948789 
442	 5.03576624134769E-02 
443	 5.05742952362761E-02 
444	 5.07921831834813E-02 
445	 5.10059119980815E-02 
446	 5.12216227177993E-02 
447	 5.15237539424127E-02 
448	 5.16906375325814E-02 
449	 5.18091379534371E-02 
450	 5.21539253825614E-02 
451	 5.22951860490917E-02 
452	 5.24027627075914E-02 
453	 5.25881102794232E-02 
454	 5.26557483576311E-02 
455	 5.28104733242993E-02 
456	 5.29997632943337E-02 
457	 5.31099151970181E-02 
458	 5.32338246577393E-02 
459	 5.33513876164954E-02 
460	 0.05343951708133 
461	 5.34852223456422E-02 
462	 5.36945270811436E-02 
463	 5.38921073693276E-02 
464	 5.39218595646311E-02 
465	 5.38678410970979E-02 
466	 5.39549863944981E-02 
467	 5.41762345705354E-02 
468	 5.43750118241818E-02 
469	 5.43019246144794E-02 
470	 5.44220436989629E-02 
471	 5.47430077584404E-02 
472	 5.45883007888769E-02 
473	 5.46993873124098E-02 
474	 5.49803330178975E-02 
475	 5.51686241307833E-02 
476	 5.52270062652022E-02 
477	 0.055319860870487 
478	 5.55217813370934E-02 
479	 5.58146595937412E-02 
480	 5.59403262006916E-02 
481	 5.60471511064752E-02 
482	 0.056235659041239 
483	 5.63934559597822E-02 
484	 5.65528805657831E-02 
485	 0.05679767168547 
486	 5.71579054103137E-02 
487	 5.72830749713552E-02 
488	 5.74544340669851E-02 
489	 5.77656033966062E-02 
490	 5.80918747185294E-02 
491	 5.82494649650771E-02 
492	 0.058341842343094 
493	 5.85453582646116E-02 
494	 0.059123585070024 
495	 5.93466808821667E-02 
496	 5.93633108741531E-02 
497	 5.97132827115004E-02 
498	 6.00488300721804E-02 
499	 6.03087300577031E-02 
500	 6.05390762095508E-02 
501	 0.060906198288188 
502	 6.12354800081775E-02 
503	 6.15156887506618E-02 
504	 6.17725489248254E-02 
505	 6.19484385036003E-02 
506	 6.22628786971434E-02 
507	 6.26859689269037E-02 
508	 6.30001428907471E-02 
509	 6.33635891808675E-02 
510	 6.37209665779042E-02 
511	 0.06402250943206 
512	 6.42974040242372E-02 
513	 6.46266611558614E-02 
514	 6.50427208421883E-02 
515	 6.55150779938712E-02 
516	 6.57999570474533E-02 
517	 0.066138458953777 
518	 6.65970030386906E-02 
519	 6.69775398110237E-02 
520	 0.067319303527741 
521	 0.06762462234248 
522	 6.79162426522282E-02 
523	 6.82958633357693E-02 
524	 6.86745516391625E-02 
525	 6.90621242054524E-02 
526	 6.95227255210655E-02 
527	 6.98632093755292E-02 
528	 7.01885038097314E-02 
529	 0.070578263009533 
530	 7.09867750144837E-02 
531	 7.13524618446002E-02 
532	 7.17366241845713E-02 
533	 7.21909921005596E-02 
534	 7.23992302342134E-02 
535	 7.27364061248849E-02 
536	 7.32344640577324E-02 
537	 7.34983757755004E-02 
538	 7.39076216140282E-02 
539	 7.43978078145934E-02 
540	 0.074819128141049 
541	 7.50955260042287E-02 
542	 7.54440082406742E-02 
543	 7.58466160414252E-02 
544	 7.61537708183202E-02 
545	 7.64956217793261E-02 
546	 7.68644748519086E-02 
547	 7.72322208114855E-02 
548	 7.75612028466827E-02 
549	 7.79578460392456E-02 
550	 7.83507377066064E-02 
551	 7.86473181769764E-02 
552	 7.90138667508963E-02 
553	 7.94104780317643E-02 
554	 7.97917806063622E-02 
555	 8.01190197092405E-02 
556	 8.03933102566093E-02 
557	 8.06886354722747E-02 
558	 8.10482945528045E-02 
559	 8.13755440766271E-02 
560	 8.16585365483527E-02 
561	 8.19118551169269E-02 
562	 8.21655349442245E-02 
563	 8.23815813371465E-02 
564	 8.26178491883301E-02 
565	 8.28859745646481E-02 
566	 8.30906275055856E-02 
567	 0.083218590605062 
568	 8.33731345290232E-02 
569	 8.36381016671654E-02 
570	 0.083706953395362 
571	 8.38252373806388E-02 
572	 8.40483986367968E-02 
573	 8.41956412155769E-02 
574	 8.43092055505309E-02 
575	 8.43768960991008E-02 
576	 8.44005696953685E-02 
577	 8.44493701184907E-02 
578	 8.45179252293936E-02 
579	 0.084560004719942 
580	 8.45172726816871E-02 
581	 8.44804165352489E-02 
582	 8.44337427501131E-02 
583	 8.43593474478714E-02 
584	 8.42695611639788E-02 
585	 8.40171370055385E-02 
586	 8.36709049209789E-02 
587	 8.33821704578427E-02 
588	 8.32670004505524E-02 
589	 8.30939104890628E-02 
590	 8.28187109997984E-02 
591	 8.26059656544684E-02 
592	 8.23643271702758E-02 
593	 8.20758419709283E-02 
594	 8.17526064357768E-02 
595	 8.14382380213657E-02 
596	 8.10656835881814E-02 
597	 8.06052584947519E-02 
598	 8.00722989841956E-02 
599	 7.96459352391069E-02 
600	 7.92259273396578E-02 
601	 7.87770471028405E-02 
602	 7.84235659275363E-02 
603	 0.078309321316277 
604	 7.82236149307763E-02 
605	 7.79500330943326E-02 
606	 7.78957505418213E-02 
607	 7.78388300565247E-02 
608	 7.77054957949073E-02 
609	 7.76054999305332E-02 
610	 0.077600113321961 
611	 7.75141582474642E-02 
612	 7.72736552294721E-02 
613	 7.72518949299319E-02 
614	 7.72225802177848E-02 
615	 0.077116864942667 
616	 7.69777856021513E-02 
617	 7.69996599271906E-02 
618	 7.70218873978383E-02 
619	 7.69539530669524E-02 
620	 7.68822556494741E-02 
621	 7.67016642913158E-02 
622	 7.65712255870487E-02 
623	 7.66250196105302E-02 
624	 7.64379237139056E-02 
625	 7.63605677163569E-02 
626	 7.63953930174526E-02 
627	 7.62087733338269E-02 
628	 7.61257717055632E-02 
629	 7.60899123176725E-02 
630	 7.60085783846401E-02 
631	 7.58773154679334E-02 
632	 7.58991852161566E-02 
633	 7.59736464367362E-02 
634	 7.58793748215117E-02 
635	 7.57269472694113E-02 
636	 7.55914826761086E-02 
637	 7.54964640711208E-02 
638	 7.53941933388007E-02 
639	 7.53772193468962E-02 
640	 7.53224449607318E-02 
641	 7.51154739293566E-02 
642	 0.074921886557942 
643	 7.48180290523862E-02 
644	 7.47318279754398E-02 
645	 7.44847073568614E-02 
646	 7.42607366096246E-02 
647	 7.40127350002032E-02 
648	 7.37303763455208E-02 
649	 0.073564861305652 
650	 7.34691476937162E-02 
651	 7.33163162141821E-02 
652	 7.29932387086738E-02 
653	 7.26484932139018E-02 
654	 7.23567423301996E-02 
655	 7.20353922937627E-02 
656	 7.14506275630303E-02 
657	 7.09817987527136E-02 
658	 0.070639307449771 
659	 7.03485308423593E-02 
660	 7.00945189091963E-02 
661	 6.97892940895482E-02 
662	 6.94838090164079E-02 
663	 6.92994394110666E-02 
664	 6.90447178171034E-02 
665	 6.87949975359153E-02 
666	 6.86276302764264E-02 
667	 6.85771133119957E-02 
668	 0.068466878415613 
669	 6.83339113155007E-02 
670	 6.82558034028171E-02 
671	 6.81076710602377E-02 
672	 6.80054464978638E-02 
673	 6.79531635141165E-02 
674	 6.78514399286874E-02 
675	 6.78788211451091E-02 
676	 6.79054015832288E-02 
677	 6.78491824044095E-02 
678	 6.78962085093578E-02 
679	 6.79665341526084E-02 
680	 0.068000489326398 
681	 6.79605581534214E-02 
682	 6.78958887576263E-02 
683	 6.79587112970901E-02 
684	 6.80916935988822E-02 
685	 6.79468629642372E-02 
686	 6.77702490115646E-02 
687	 6.76631083564641E-02 
688	 6.76517386391595E-02 
689	 6.76880942791579E-02 
690	 6.76030753768115E-02 
691	 6.73433369000131E-02 
692	 6.69551381792543E-02 
693	 6.68444315430617E-02 
694	 6.66792708245235E-02 
695	 6.63363525402178E-02 
696	 6.61721185542863E-02 
697	 6.58567718055475E-02 
698	 6.53624650355834E-02 
699	 6.48152510858754E-02 
700	 6.44511279234376E-02 
701	 6.40718499645414E-02 
702	 6.35575729009074E-02 
703	 6.28857528212224E-02 
704	 6.23492672557126E-02 
705	 6.18617948898348E-02 
706	 6.13096140863401E-02 
707	 6.06128910812257E-02 
708	 0.059815352398566 
709	 5.90010325552488E-02 
710	 0.058234126472043 
711	 5.73832281795302E-02 
712	 5.63805653161501E-02 
713	 5.52919400689161E-02 
714	 5.42824791518136E-02 
715	 5.32004451131827E-02 
716	 5.19809663896747E-02 
717	 5.06966681218243E-02 
718	 4.93332181763948E-02 
719	 4.82383693991343E-02 
720	 4.73613219675214E-02 
721	 4.63297929494134E-02 
722	 4.52823700007197E-02 
723	 4.39921153316363E-02 
724	 4.26519243396414E-02 
725	 4.16291725647774E-02 
726	 4.06049739760187E-02 
727	 3.92643140963829E-02 
728	 3.76026679265269E-02 
729	 3.64449219420204E-02 
730	 3.50323524716199E-02 
731	 3.35750139735108E-02 
732	 3.25019813679116E-02 
733	 3.13729784559663E-02 
734	 3.05160676029263E-02 
735	 2.99584962805871E-02 
736	 2.92526018552849E-02 
737	 2.88230021251815E-02 
738	 2.85433409309839E-02 
739	 0.028227891123761 
740	 2.78672813571434E-02 
741	 0.027691195645821 
742	 2.76489692237849E-02 
743	 2.75488856886584E-02 
744	 2.74105032274921E-02 
745	 2.73569078893876E-02 
746	 2.73828709521338E-02 
747	 2.72989132416442E-02 
748	 2.72397675024261E-02 
749	 2.71978373143774E-02 
750	 2.71542075892337E-02 
751	 2.71906264189475E-02 
752	 0.027050012936324 
753	 2.68333616812886E-02 
754	 0.026808735089543 
755	 2.68318930392726E-02 
756	 2.68020823297743E-02 
757	 2.67319772213489E-02 
758	 2.68153405543423E-02 
759	 2.66892825015135E-02 
760	 2.65386516629969E-02 
761	 2.67268170393596E-02 
762	 2.62840546522301E-02 
763	 2.61568634781634E-02 
764	 2.63488454516219E-02 
765	 2.65425577015209E-02 
766	 2.67419842846534E-02 
767	 2.67602522312222E-02 
768	 2.66744642992254E-02 
769	 2.67972936827917E-02 
770	 2.69455286461779E-02 
771	 2.69735301179818E-02 
772	 2.68784356255894E-02 
773	 2.70126655977796E-02 
774	 2.72074206017185E-02 
775	 2.73219910843197E-02 
776	 2.72928460106985E-02 
777	 2.74322550045546E-02 
778	 2.76391667343791E-02 
779	 2.78378069460736E-02 
780	 2.80048660133229E-02 
781	 2.79777097781997E-02 
782	 2.79889731979616E-02 
783	 0.028186098621042 
784	 2.83689304849096E-02 
785	 2.85164621601627E-02 
786	 2.86685928686753E-02 
787	 2.88710160777405E-02 
788	 2.90246207044496E-02 
789	 2.92708651686552E-02 
790	 2.95984598956171E-02 
791	 2.98635595280424E-02 
792	 2.99591042597003E-02 
793	 3.01109871650038E-02 
794	 3.04354696251081E-02 
795	 3.07947025061775E-02 
796	 3.10023822356675E-02 
797	 3.10761028619168E-02 
798	 3.11337347151367E-02 
799	 3.13551075582372E-02 
800	 3.15537738419533E-02 
801	 3.16610953692871E-02 
802	 3.17217050358291E-02 
803	 3.19966565789122E-02 
804	 0.032175610602297 
805	 3.21454973675848E-02 
806	 3.20632314088548E-02 
807	 3.20485678966213E-02 
808	 3.21141966844099E-02 
809	 3.21470266898372E-02 
810	 3.17574476214456E-02 
811	 3.15032380552409E-02 
812	 3.14656596866929E-02 
813	 3.15008343064124E-02 
814	 3.14957809393499E-02 
815	 0.031063583344649 
816	 3.04925045911009E-02 
817	 3.04713163117455E-02 
818	 3.02521246340452E-02 
819	 2.97809798130248E-02 
820	 2.92345920739137E-02 
821	 2.90002088145491E-02 
822	 2.83377564695932E-02 
823	 2.75361956670737E-02 
824	 2.69044394523112E-02 
825	 2.60274993029925E-02 
826	 2.50903781914141E-02 
827	 2.42254309905444E-02 
828	 2.35518831639771E-02 
829	 2.27848483130673E-02 
830	 2.19716301029699E-02 
831	 2.12326360758442E-02 
832	 2.07200077207543E-02 
833	 2.02970329342007E-02 
834	 1.98396772945192E-02 
835	 1.94391830242867E-02 
836	 1.94417152875204E-02 
837	 1.93252705628215E-02 
838	 1.90932611536291E-02 
839	 1.88676230282763E-02 
840	 1.87678174600025E-02 
841	 1.85310582142375E-02 
842	 1.83021559155607E-02 
843	 1.82819413373288E-02 
844	 1.81904187879257E-02 
845	 1.79763758412111E-02 
846	 1.77250195877989E-02 
847	 1.75737562943595E-02 
848	 1.72666435050322E-02 
849	 1.70095118555095E-02 
850	 1.69281332486572E-02 
851	 0.016958138471311 
852	 0.016680206263969 
853	 1.65369571729349E-02 
854	 0.016749163693407 
855	 1.66988120744846E-02 
856	 1.63015369517815E-02 
857	 1.59990001901263E-02 
858	 1.61139664432017E-02 
859	 1.60225040999245E-02 
860	 1.58489392259014E-02 
861	 1.57266004203003E-02 
862	 1.57402336545793E-02 
863	 1.56542584644408E-02 
864	 1.55453468481737E-02 
865	 1.53837127998807E-02 
866	 1.50600547079651E-02 
867	 1.47964758190551E-02 
868	 1.46523392679161E-02 
869	 1.46563152169379E-02 
870	 0.014824127694749 
871	 1.45915862828688E-02 
872	 1.42144017320048E-02 
873	 1.40056199723753E-02 
874	 1.39622650855634E-02 
875	 1.40335282184703E-02 
876	 1.39464377301088E-02 
877	 0.013574125016442 
878	 0.013497647688918 
879	 1.36296111459312E-02 
880	 1.35665829939171E-02 
881	 1.29701596605991E-02 
882	 1.26431314385704E-02 
883	 1.25834984034532E-02 
884	 1.26183512446942E-02 
885	 1.25100791501614E-02 
886	 1.23371865951162E-02 
887	 1.25231629449382E-02 
888	 1.28363880655749E-02 
889	 1.23613848880095E-02 
890	 1.18917383828189E-02 
891	 1.16418578133724E-02 
892	 1.16722036037568E-02 
893	 1.19335504528802E-02 
894	 0.012170364633273 
895	 1.22627194474415E-02 
896	 1.20398553588165E-02 
897	 1.09960827175409E-02 
898	 1.08304389700915E-02 
899	 1.10931005035723E-02 
900	 1.08934336290675E-02 
901	 0.011018701083616 
902	 1.09332419685145E-02 
903	 1.08627710530024E-02 
904	 1.10679514386386E-02 
905	 1.04893809199571E-02 
906	 9.94757170697002E-03 
907	 9.92324289138439E-03 
908	 0.010435404389332 
909	 1.05989391550998E-02 
910	 1.02772709814439E-02 
911	 9.62244938027985E-03 
912	 9.04871305417742E-03 
913	 9.69876818603001E-03 
914	 1.00380857474432E-02 
915	 9.30703199540345E-03 
916	 8.21070915943924E-03 
917	 8.22174929702585E-03 
918	 8.35464053601248E-03 
919	 8.10748448801484E-03 
920	 8.07360768608161E-03 
921	 8.20265152172165E-03 
922	 8.14757207076011E-03 
923	 7.83059800447102E-03 
924	 7.88176904142929E-03 
925	 7.33663371974927E-03 
926	 6.42949361192539E-03 
927	 5.94708733650031E-03 
928	 7.18799317339433E-03 
929	 8.13004660279357E-03 
930	 8.29803023103312E-03 
931	 8.4558206136751E-03 
932	 1.03599523883545E-02 
933	 1.23638272348536E-02 
934	 1.00265637796071E-02 
935	 2.81924419598445E-03 
936	 2.77922804113397E-03 
937	 5.84915355155459E-03 
938	 7.85496717412727E-03 
939	 7.02147633399045E-03 
940	 8.27004949990028E-03 
941	 7.38965501331657E-03 
942	 5.09691272006572E-03 
943	 4.17569293152007E-03 
944	 2.82485550801606E-03 
945	 2.75221476101979E-03 
946	 4.2520388149987E-03 
947	 6.13311126030408E-03 
948	 5.4518799728258E-03 
949	 5.04057150028502E-03 
950	 5.33719840005997E-03 
951	 5.47490605212542E-03 
952	 8.21194953664551E-03 
953	 7.31228045532134E-03 
954	 3.76498071991981E-03 
955	 3.2618410973174E-03 
956	 6.09590407561961E-03 
957	 5.03701770421271E-03 
958	 1.81193549990705E-03 
959	 0.003056431117118 
960	 2.97868137125935E-03 
961	 3.1178622747379E-03 
962	 2.98474016966355E-03 
963	 1.33285144070415E-03 
964	 3.99418878559565E-03 
965	 5.43303118876458E-03 
966	 4.16857335823025E-03 
967	 2.44769073929495E-03 
968	 2.99460748506799E-03 
969	 3.67504184875996E-03 
970	 3.50794554299538E-03 
971	 2.98082695698352E-03 
972	 2.67060114169971E-03 
973	 2.6383886156791E-03 
974	 2.59239916423472E-03 
975	 2.30160470059751E-03 
976	 4.78760727758276E-03 
977	 4.2058659157138E-03 
978	 1.23744364163549E-03 
979	 2.03987451331665E-03 
980	 3.74535027692312E-03 
981	 4.90723510729147E-03 
982	 5.14625693856237E-03 
983	 4.88077437145639E-03 
984	 3.89403200307288E-03 
985	 3.23465144949894E-03 
986	 3.75779811972133E-03 
987	 5.38243322113644E-03 
988	 3.80815208015084E-03 
989	 2.4475674801018E-03 
990	 2.63538181772223E-03 
991	 3.28099205124533E-03 
992	 2.72685128851048E-03 
993	 3.34739344947624E-03 
994	 4.03114108365009E-03 
995	 2.17181320935011E-03 
996	 2.65171242900168E-03 
997	 4.36736236751376E-03 
998	 4.35981299746263E-03 
999	 9.75739704325651E-04 
1000	 3.72220978933586E-03 
1001	 2.06709723126066E-03 
1002	 2.43993905737528E-03 
1003	 2.51890489468006E-03 
1004	 2.79310951362946E-03 
1005	 3.0216592169312E-03 
1006	 3.09486576429342E-03 
1007	 3.02517636838699E-03 
1008	 3.2439012379189E-03 
1009	 3.31717866681344E-03 
1010	 2.73293177895518E-03 
1011	 2.41146706235334E-03 
1012	 2.60913722538175E-03 
1013	 2.75042478270878E-03 
1014	 2.93530127513811E-03 
1015	 3.61864078178427E-03 
1016	 3.75462525779941E-03 
1017	 3.67479539527692E-03 
1018	 3.44602129367881E-03 
1019	 2.6778734794554E-03 
1020	 2.60332328572785E-03 
1021	 2.77824773723201E-03 
1022	 2.66417940853428E-03 
1023	 3.29628305784349E-03 
1024	 3.9159562947997E-03 
1025	 4.23037315675868E-03 
1026	 4.46489350081922E-03 
1027	 4.39641316276682E-03 
1028	 3.96955143700345E-03 
1029	 3.8091942320598E-03 
1030	 3.37114327606508E-03 
1031	 3.3697224391801E-03 
1032	 3.86346957282558E-03 
1033	 3.98423035154318E-03 
1034	 4.23187540036963E-03 
1035	 4.17710678839573E-03 
1036	 3.4973831551509E-03 
1037	 3.36006482917393E-03 
1038	 3.44073750807135E-03 
1039	 3.43954821037794E-03 
1040	 3.52122091708062E-03 
1041	 4.00277282845768E-03 
1042	 4.18769120116938E-03 
1043	 4.21023456986048E-03 
1044	 4.27153976377101E-03 
1045	 4.42934344474131E-03 
1046	 4.38528587373419E-03 
1047	 3.96740549620052E-03 
1048	 4.04250354848953E-03 
1049	 4.37606592500679E-03 
1050	 4.51987531721664E-03 
1051	 5.06431739821594E-03 
1052	 5.14756640200676E-03 
1053	 4.53664038110439E-03 
1054	 4.42839121641001E-03 
1055	 4.45809019047967E-03 
1056	 4.45543535143807E-03 
1057	 4.54933863019677E-03 
1058	 5.03460870245961E-03 
1059	 5.0422257338587E-03 
1060	 4.67002320970179E-03 
1061	 4.72864565169046E-03 
1062	 4.92220352822758E-03 
1063	 4.95115550012402E-03 
1064	 5.18630796418815E-03 
1065	 5.19239300779089E-03 
1066	 4.73849009681641E-03 
1067	 4.69559501958747E-03 
1068	 4.9836201903879E-03 
1069	 5.00473438362106E-03 
1070	 4.99606078250882E-03 
1071	 5.04653210065174E-03 
1072	 5.10039475748984E-03 
1073	 4.89072727678958E-03 
1074	 4.85867325049227E-03 
1075	 5.02605034901843E-03 
1076	 4.98148570795034E-03 
1077	 4.81412586589776E-03 
1078	 4.66207575655146E-03 
1079	 4.32593880820788E-03 
1080	 4.30214006847263E-03 
1081	 4.43649148087874E-03 
1082	 4.46975162931198E-03 
1083	 4.76489328151916E-03 
1084	 4.84190535608171E-03 
1085	 4.68379103318778E-03 
1086	 4.61303225906163E-03 
1087	 4.38687330090295E-03 
1088	 4.33024952308168E-03 
1089	 4.35904614748315E-03 
1090	 4.56790549170645E-03 
1091	 4.49842076357355E-03 
1092	 4.49473270279233E-03 
1093	 4.42456571225702E-03 
1094	 4.03136668544453E-03 
1095	 3.87612706293537E-03 
1096	 3.83710690376946E-03 
1097	 3.82465889879235E-03 
1098	 3.92420803519036E-03 
1099	 3.89028247707939E-03 
1100	 3.92704678615298E-03 
1101	 3.99164575628919E-03 
1102	 3.80290234629477E-03 
1103	 3.75103453070124E-03 
1104	 3.90390132410647E-03 
1105	 4.07934009353295E-03 
1106	 3.59444455416282E-03 
1107	 3.72242122159196E-03 
1108	 4.40846259742414E-03 
1109	 3.74936246967201E-03 
1110	 3.47124032677271E-03 
1111	 3.38962695429579E-03 
1112	 3.46784937755339E-03 
1113	 3.08827653628571E-03 
1114	 3.3014519084929E-03 
1115	 4.75166454577197E-03 
1116	 5.38546646110681E-03 
1117	 6.15380510595528E-03 
1118	 6.46557088175784E-03 
1119	 4.75936630878341E-03 
1120	 3.79806231142493E-03 
1121	 2.62593940588358E-03 
1122	 1.31092692049268E-03 
1123	-2.27577490756119E-03 
1124	 2.17717445545522E-04 
1125	 2.05632925789339E-03 
1126	 2.82108298492813E-03 
1127	 5.99150406943904E-03 
1128	 6.21856842891948E-03 
1129	 6.21472836883403E-03 
1130	 3.18361834462688E-03 
1131	 2.29359745022262E-03 
1132	 3.89193720048462E-03 
1133	 3.77472383436497E-03 
1134	 1.79453864069119E-03 
1135	 2.56540083402065E-03 
1136	 4.61969444821086E-03 
1137	 4.03151325980697E-03 
1138	 2.45078226527296E-03 
1139	 3.34186891650598E-03 
1140	 4.67204256061115E-03 
1141	 4.90669531035814E-03 
1142	 4.9807771024299E-03 
1143	 5.49817920662661E-03 
1144	 2.92652876532246E-03 
1145	 5.60488321008008E-04 
1146	 2.1882733766526E-03 
1147	 2.49998714046618E-03 
1148	 2.11937671892311E-03 
1149	 4.38843074402214E-03 
1150	 4.43275906438262E-03 
1151	 2.66442052623002E-03 
1152	 2.23079543712897E-03 
1153	 2.10561048696915E-03 
1154	 1.50177544582821E-03 
1155	 2.89128330250315E-04 
1156	 1.47616709444635E-03 
1157	 1.96467121809451E-03 
1158	 1.21374353534885E-03 
1159	 1.47986679013116E-03 
1160	 1.71641205868853E-03 
1161	 9.85669569791361E-04 
1162	 8.0038554467625E-04 
1163	 1.40041736608875E-03 
1164	 1.40308610491458E-03 
1165	 1.41142756656921E-03 
1166	 1.80353527678516E-03 
1167	 1.37455744980923E-03 
1168	 9.70898879190866E-04 
1169	 1.32193925198092E-03 
1170	 1.47545007562626E-03 
1171	 1.51415570768697E-03 
1172	 1.61729377877899E-03 
1173	 1.70569964395329E-03 
1174	 1.5542964938589E-03 
1175	 1.65751692855534E-03 
1176	 2.09027666380149E-03 
1177	 2.07338635037553E-03 
1178	 1.89360615963392E-03 
1179	 1.78023355850257E-03 
1180	 1.43244140206682E-03 
1181	 1.31013393260288E-03 
1182	 1.50236649509278E-03 
1183	 1.41903533852908E-03 
1184	 1.2451535095669E-03 
1185	 1.35207236500228E-03 
1186	 1.57517691436243E-03 
1187	 1.69700437775333E-03 
1188	 1.57692402897167E-03 
1189	 1.38223371079441E-03 
1190	 1.42444279445258E-03 
1191	 1.46552868178808E-03 
1192	 1.4441222987281E-03 
1193	 1.61048402463082E-03 
1194	 1.87628023961063E-03 
1195	 1.61881203747101E-03 
1196	 1.43615181549768E-03 
1197	 1.89663884457079E-03 
1198	 1.9107689034358E-03 
1199	 1.55342673813536E-03 
1200	 1.60008361165027E-03 
1201	 1.66825885697686E-03 
1202	 1.5526288939919E-03 
1203	 1.61643661572524E-03 
1204	 1.85444564024132E-03 
1205	 1.5254458690618E-03 
1206	 1.0954216420526E-03 
1207	 1.52006145115014E-03 
1208	 1.77804534839809E-03 
1209	 1.43033746713871E-03 
1210	 1.49209630485746E-03 
1211	 1.73833047631036E-03 
1212	 1.5864588778351E-03 
1213	 1.70448294517817E-03 
1214	 1.7372170560878E-03 
1215	 1.83392583605244E-03 
1216	 1.34961823718778E-03 
1217	 1.37546654503052E-03 
1218	 1.78699183324815E-03 
1219	 1.8328381423363E-03 
1220	 1.8243035520127E-03 
1221	 1.70038464012563E-03 
1222	 1.40784721905383E-03 
1223	 1.35609615980742E-03 
1224	 1.46272533058319E-03 
1225	 1.52134085676465E-03 
1226	 1.54404388341356E-03 
1227	 1.62855110197136E-03 
1228	 1.72894148145214E-03 
1229	 1.54435956528867E-03 
1230	 1.24230761085068E-03 
1231	 1.24459056819358E-03 
1232	 1.33886223917829E-03 
1233	 1.33789265490661E-03 
1234	 1.42541075745013E-03 
1235	 1.47069176405396E-03 
1236	 1.12734889366933E-03 
1237	 1.08741877667187E-03 
1238	 1.28512555857798E-03 
1239	 1.56185304170989E-03 
1240	 1.52697951383538E-03 
1241	 1.50108141355019E-03 
1242	 1.67903962789617E-03 
1243	 1.64721547132439E-03 
1244	 1.4395039490217E-03 
1245	 1.52203794341776E-03 
1246	 1.59004214460038E-03 
1247	 1.43550838773919E-03 
1248	 1.44897724733772E-03 
1249	 1.6161809179093E-03 
1250	 1.64262594108191E-03 
1251	 1.56833745199695E-03 
1252	 1.46651151635585E-03 
1253	 1.46983387699779E-03 
1254	 1.55845336929552E-03 
1255	 1.38185612817494E-03 
1256	 1.29551490112438E-03 
1257	 1.39600353129095E-03 
1258	 1.45811253458764E-03 
1259	 1.37156689796793E-03 
1260	 0.00133441622756 
1261	 1.43147911725566E-03 
1262	 1.48547551736575E-03 
1263	 1.37069445361289E-03 
1264	 1.48442214876667E-03 
1265	 1.6539677726586E-03 
1266	 1.33133154992673E-03 
1267	 1.07684746567766E-03 
1268	 1.34086666456195E-03 
1269	 1.43030925592627E-03 
1270	 1.33302158353417E-03 
1271	 1.43393044333887E-03 
1272	 1.33411607445256E-03 
1273	 1.29301573945668E-03 
1274	 1.62372492905864E-03 
1275	 1.7285349012291E-03 
1276	 1.52067438582233E-03 
1277	 1.43236349624814E-03 
1278	 1.52397014683856E-03 
1279	 1.41813569704742E-03 
1280	 1.19747616011041E-03 
1281	 1.20018094353601E-03 
1282	 1.35870634867134E-03 
1283	 1.31868210710541E-03 
1284	 1.28539357683749E-03 
1285	 1.36980125845259E-03 
1286	 1.4173245037191E-03 
1287	 1.39575588143732E-03 
1288	 1.42532322933117E-03 
1289	 1.51476675190092E-03 
1290	 1.57037403408898E-03 
1291	 1.53896306123945E-03 
1292	 1.56812351785837E-03 
1293	 1.58775126934004E-03 
1294	 1.5437130985508E-03 
1295	 1.58615524830504E-03 
1296	 1.61948204459055E-03 
1297	 1.59306778250035E-03 
1298	 1.48887831844904E-03 
1299	 1.40336288856198E-03 
1300	 1.2127204318747E-03 
1301	 1.09712515479042E-03 
1302	 1.43026322274449E-03 
1303	 1.61723966720883E-03 
1304	 1.49230108748707E-03 
1305	 1.52687640561206E-03 
1306	 1.57201109665894E-03 
1307	 1.21211758182345E-03 
1308	 1.14538950375423E-03 
1309	 1.55685492237343E-03 
1310	 1.67760934229052E-03 
1311	 1.56913292474562E-03 
1312	 1.4683238550211E-03 
1313	 1.36104413845713E-03 
1314	 1.34531953351067E-03 
1315	 1.38453856065415E-03 
1316	 1.27630447651422E-03 
1317	 9.83959264502867E-04 
1318	 9.33351497528439E-04 
1319	 1.03103986702126E-03 
1320	 9.25760250903308E-04 
1321	 8.80196943325371E-04 
1322	 8.54500553963114E-04 
1323	 7.99085085537018E-04 
1324	 5.06444087603543E-04 
1325	 3.69245668054311E-04 
1326	 8.10512046200751E-04 
1327	 1.32471908184665E-03 
1328	 1.67807548852984E-03 
1329	 1.69653018029446E-03 
1330	 1.54542623409604E-03 
1331	 1.40985563488586E-03 
1332	 1.14297348803726E-03 
1333	 1.38162906089922E-03 
1334	 1.86722627831512E-03 
1335	 1.98362307924587E-03 
1336	 1.62484263471445E-03 
1337	 1.57295341527206E-03 
1338	 1.6654093871276E-03 
1339	 1.65946740714946E-03 
1340	 1.30302171735416E-03 
1341	 1.22473630086995E-03 
1342	 1.74168998952239E-03 
1343	 1.59814243886447E-03 
1344	 1.05893412749299E-03 
1345	 8.15103830663912E-04 
1346	-5.10813935163303E-04 
1347	-1.05151045983154E-03 
1348	 1.07643781177627E-03 
1349	 7.14298464206832E-04 
1350	-4.86267477654298E-03 
1351	-7.54009388103001E-03 
1352	-7.76250988392349E-03 
1353	-7.9672111298254E-03 
1354	 1.12038037921351E-02 
1355	 2.70976253294836E-02 
1356	 4.44296177988336E-02 
1357	 0.014574840924495 
1358	-4.06472979552441E-02 
1359	-5.01052426631697E-02 
1360	 2.67961815326953E-02 
1361	 0.111203347925776 
1362	 6.82876308407533E-02 
1363	 7.70017175677451E-02 
1364	 0.132518038971067 
1365	 2.59503292639346E-02 
1366	 3.19886936304625E-02 
1367	 0.171286883825969 
1368	 0.148099274979128 
1369	-0.129585224568874 
1370	-0.138949506049284 
1371	 7.67084001058063E-02 
1372	 3.68269069168349E-02 
1373	-0.234475433066473 
1374	-0.187758446444814 
1375	-2.21664377946806E-02 
1376	-1.99108273779631E-02 
1377	 0.284433031363646 
1378	 0.31496155816437 
1379	-0.202527973686032 
1380	-0.324110625661502 
1381	-0.226194124093549 
1382	-0.237382663844324 
1383	-0.327101664233168 
1384	-0.240604063127764 
1385	 0.064882183035406 
1386	 0.104396931349003 
1387	 6.08749340370243E-02 
1388	 0.184061431636184 
1389	 0.790553989783553 
1390	 0.659590322602261 
1391	-7.85740066430699E-02 
1392	 0.380330397319039 
1393	 0.27439499230106 
1394	 8.21071747327483E-02 
1395	 0.156943823079018 
1396	 0.321566553326107 
1397	 0.16409269412462 
1398	-2.83435928012137E-02 
1399	-7.61070148702966E-02 
1400	 1.60063164030216E-02 
1401	 0.245358354250165 
1402	 0.339342897289571 
1403	 0.125688276456146 
1404	-0.298250512380565 
1405	-0.303513560497781 
1406	-0.349281804095842 
1407	-0.252777999782789 
1408	 0.234243437191399 
1409	 0.216098892091869 
1410	-1.82827190415777E-02 
1411	-2.54927712568291E-02 
1412	-6.82606954660978E-02 
1413	-6.83538084337577E-02 
1414	 6.8296313428374E-03 
1415	 2.94657339455311E-02 
1416	 1.30229345523206E-02 
1417	 1.94734931120341E-02 
1418	 4.91720888894738E-02 
1419	 5.61063383078704E-02 
1420	 5.53753363216888E-02 
1421	 4.66913706881867E-02 
1422	 3.15101297769484E-02 
1423	 2.73892231531096E-02 
1424	 2.49055436793479E-02 
1425	 0.02235716712983 
1426	 2.73472573182976E-02 
1427	 2.09049542294266E-02 
1428	 3.49363089566797E-04 
1429	-2.07792401962873E-03 
1430	 4.38283147947997E-03 
1431	 2.43912988915517E-04 
1432	-4.34671365091951E-03 
1433	 3.45284456094215E-04 
1434	 6.17275104384256E-03 
1435	 3.21505768782762E-03 
1436	 8.59654836194956E-03 
1437	 3.62284682913775E-03 
1438	-8.11404994852332E-03 
1439	-1.19593789213717E-02 
1440	 1.26967533218766E-03 
1441	 5.4480149263613E-03 
1442	-2.73458031341639E-03 
1443	-4.35450429532815E-03 
1444	-8.98408406583811E-03 
1445	-8.13373595723707E-03 
1446	-1.65313135980429E-03 
1447	-9.71963839263763E-04 
1448	 4.60658032246516E-04 
1449	 2.93822970450742E-03 
1450	 9.40693999166928E-04 
1451	 9.6133296442098E-05 
1452	 1.68091581216563E-03 
1453	 7.63480303466646E-05 
1454	-2.87130424659651E-04 
1455	-6.93738698197994E-05 
1456	 7.56339658635957E-04 
1457	 1.32657421986707E-03 
1458	 2.29325575378844E-03 
1459	 5.13106320220955E-03 
1460	 4.73740364479409E-03 
1461	 1.82869180235152E-03 
1462	 1.58630217872666E-03 
1463	 2.28600972141323E-03 
1464	 8.69589407933164E-04 
1465	-2.26160424041296E-03 
1466	-1.47779167661785E-03 
1467	 1.26658301665307E-03 
1468	 8.01092760675461E-04 
1469	 1.60529647764699E-03 
1470	 3.00592696204711E-03 
1471	 5.9444598112595E-04 
1472	-6.19310774477297E-06 
1473	 4.1877593446706E-03 
1474	 4.9579179049953E-03 
1475	 1.96837663603061E-03 
1476	 1.37563592321564E-03 
1477	 2.43073014018937E-03 
1478	 0.001860408467987 
1479	 2.19854465038951E-04 
1480	 6.60189037473269E-05 
1481	 1.29231614955404E-04 
1482	 2.05721115675845E-04 
1483	 1.23917228182356E-03 
1484	 1.44194272236129E-03 
1485	 1.13118730506828E-03 
1486	 7.33374545893191E-04 
1487	-1.34753669665699E-04 
1488	 6.75368946179081E-05 
1489	 8.90974942233256E-04 
1490	 7.20042817990524E-04 
1491	 3.71128721625122E-04 
1492	 5.76792016362942E-04 
1493	 7.31259758807838E-04 
1494	 5.05521584895359E-04 
1495	 2.74654876251595E-04 
1496	 4.92311260072147E-04 
1497	 6.21478443874926E-04 
1498	 5.61195326415141E-04 
1499	 1.00969099350628E-03 
1500	 1.15552101645935E-03 
1501	 7.28579545686498E-04 
1502	 5.19059617589175E-04 
1503	 4.9651062619904E-04 
1504	 4.38317047501368E-04 
1505	 1.77398161158055E-04 
1506	 1.76060381667824E-04 
1507	 5.90806816771673E-04 
1508	 6.85271026129611E-04 
1509	 5.90701824276507E-04 
1510	 6.83175194848335E-04 
1511	 7.74169174353411E-04 
1512	 6.88942371914771E-04 
1513	 4.95389559444763E-04 
1514	 6.36183826856301E-04 
1515	 9.39481097956834E-04 
1516	 7.89019833923988E-04 
1517	 5.61120336967842E-04 
1518	 5.2999142970577E-04 
1519	 5.2538847019488E-04 
1520	 5.92513232540196E-04 
1521	 6.45379123762821E-04 
1522	 7.13828945357105E-04 
1523	 7.23724302855974E-04 
1524	 6.30595757167984E-04 
1525	 7.80671980924048E-04 
1526	 9.63313829369824E-04 
1527	 7.67011947695614E-04 
1528	 6.97632003023826E-04 
1529	 7.63220034410186E-04 
1530	 6.42632522735748E-04 
1531	 7.03102053280308E-04 
1532	 7.79856366371898E-04 
1533	 7.99187829072112E-04 
1534	 9.54811420137608E-04 
1535	 9.90886824236305E-04 
1536	 9.727292918221E-04 
1537	 9.86223942115682E-04 
1538	 9.64318418490656E-04 
1539	 9.35449762142612E-04 
1540	 8.48245435832992E-04 
1541	 7.87041547009156E-04 
1542	 8.91456472546478E-04 
1543	 1.00672099383933E-03 
1544	 9.13599999786363E-04 
1545	 8.22127433712022E-04 
1546	 8.09939590945141E-04 
1547	 6.44680910312682E-04 
1548	 5.79066191432581E-04 
1549	 8.38337683738591E-04 
1550	 9.04077210824991E-04 
1551	 6.77790489969929E-04 
1552	 6.99239672939848E-04 
1553	 7.18669234557208E-04 
1554	 5.45221330997705E-04 
1555	 6.40491622863636E-04 
1556	 7.74804562109523E-04 
1557	 7.12764499080223E-04 
1558	 7.17348333117312E-04 
1559	 6.92408762418406E-04 
1560	 7.24356598332258E-04 
1561	 7.79884984815661E-04 
1562	 6.2633884881079E-04 
1563	 6.77428219186083E-04 
1564	 7.82633247606705E-04 
1565	 6.43725565978749E-04 
1566	 6.71092218128119E-04 
1567	 8.4595982923086E-04 
1568	 8.35090615486653E-04 
1569	 6.75276080830065E-04 
1570	 7.39887854948494E-04 
1571	 1.03562459777272E-03 
1572	 1.01848081819361E-03 
1573	 6.4114049625705E-04 
1574	 4.85509136652587E-04 
1575	 4.78626556302436E-04 
1576	 4.092749916121E-04 
1577	 4.43347964469427E-04 
1578	 4.80043547002764E-04 
1579	 4.55136259714913E-04 
1580	 3.99049524455803E-04 
1581	 4.89187317135279E-04 
1582	 6.63996381740309E-04 
1583	 5.93195289824117E-04 
1584	 3.85148112015715E-04 
1585	 4.87780301048773E-04 
1586	 6.52335724691147E-04 
1587	 5.19272779410143E-04 
1588	 5.86518663813203E-04 
1589	 7.92871097291614E-04 
1590	 7.72772603686226E-04 
1591	 6.2560922229882E-04 
1592	 4.95559707540245E-04 
1593	 4.5472153966151E-04 
1594	 4.89161222658981E-04 
1595	 6.2260610740363E-04 
1596	 6.33485460519191E-04 
1597	 6.78611488636296E-04 
1598	 8.58635086654786E-04 
1599	 8.03675425024278E-04 
1600	 7.17656029765242E-04 
1601	 6.7927146517372E-04 
1602	 6.08656176123313E-04 
1603	 6.93130412297359E-04 
1604	 7.88954331042919E-04 
1605	 7.72631811577923E-04 
1606	 8.36388901558574E-04 
1607	 8.33507792362006E-04 
1608	 7.40099337582285E-04 
1609	 6.75852127315708E-04 
1610	 4.22614960865142E-04 
1611	 3.02011576586998E-04 
1612	 5.59605801374238E-04 
1613	 8.60670598082637E-04 
1614	 7.9091687322577E-04 
1615	 4.78715545893533E-04 
1616	 5.54320294721512E-04 
1617	 6.61962307576973E-04 
1618	 4.59571975339339E-04 
1619	 4.48647233766766E-04 
1620	 5.78600902477353E-04 
1621	 6.4460165322739E-04 
1622	 6.48674239413115E-04 
1623	 6.95915129717024E-04 
1624	 8.04982607272276E-04 
1625	 5.60569825575764E-04 
1626	 3.53061387246006E-04 
1627	 5.6957671296151E-04 
1628	 6.12179285518026E-04 
1629	 5.21430763006412E-04 
1630	 6.61011279580178E-04 
1631	 7.42998335923914E-04 
1632	 6.02369219912948E-04 
1633	 4.75041401258408E-04 
1634	 5.46727997433787E-04 
1635	 6.9132626469257E-04 
1636	 6.63844000606009E-04 
1637	 6.05728921789422E-04 
1638	 5.99235452537922E-04 
1639	 5.25430990703737E-04 
1640	 4.60081156570336E-04 
1641	 4.76712830375234E-04 
1642	 5.8983420612851E-04 
1643	 6.53838776862788E-04 
1644	 6.46539759325842E-04 
1645	 7.79084829607885E-04 
1646	 8.4277606691313E-04 
1647	 7.25572989128579E-04 
1648	 6.5688080246526E-04 
1649	 6.32750169071051E-04 
1650	 7.71595897538215E-04 
1651	 9.52251458897336E-04 
1652	 8.2752764268126E-04 
1653	 6.9538620867879E-04 
1654	 6.97098608568598E-04 
1655	 7.52395113980227E-04 
1656	 8.37026403391847E-04 
1657	 1.04102646835967E-03 
1658	 1.04721579492816E-03 
1659	 8.39883332005002E-04 
1660	 8.70972016250669E-04 
1661	 1.13757305261863E-03 
1662	 9.74071671866289E-04 
1663	 5.35104102189323E-04 
1664	 6.56396175478315E-04 
1665	 8.78645161792994E-04 
1666	 6.8901546337559E-04 
1667	 6.33026433947063E-04 
1668	 5.71487682239618E-04 
1669	 6.02897179662092E-04 
1670	 8.2633646495012E-04 
1671	 8.79229179606301E-04 
1672	 8.99368939567895E-04 
1673	 8.23439599043816E-04 
1674	 6.47952274297944E-04 
1675	 6.72899906769358E-04 
1676	 5.4778436146747E-04 
1677	 4.62680042895085E-04 
1678	 7.26426733266011E-04 
1679	 8.3487833051103E-04 
1680	 9.07535271712598E-04 
1681	 9.04378378398337E-04 
1682	 5.3431600324079E-04 
1683	 5.11495158611075E-04 
1684	 6.58032007908604E-04 
1685	 3.40959840302004E-04 
1686	 4.43655057912983E-04 
1687	 8.93168504436199E-04 
1688	 6.97646619859794E-04 
1689	 3.38848831389464E-04 
1690	 3.34011759588886E-04 
1691	 2.51796226916445E-04 
1692	 1.58582791104211E-04 
1693	 6.07735488429442E-04 
1694	 1.10227796756489E-03 
1695	 8.23700088420016E-04 
1696	 4.55687204678288E-04 
1697	 6.41054283513438E-04 
1698	 5.40419467894076E-04 
1699	 1.71202784704944E-04 
1700	 5.60711623477451E-04 
1701	 9.20104358875416E-04 
1702	 4.61833430246067E-04 
1703	 4.54808128839008E-04 
1704	 6.46570631065883E-04 
1705	 3.47546305085148E-04 
1706	 5.93319292607449E-04 
1707	 1.07429641956539E-03 
1708	 1.05156081786636E-03 
1709	 7.41715564101391E-04 
1710	 3.86765826531773E-04 
1711	 2.9132342989107E-04 
1712	 5.57138951403066E-04 
1713	 7.49594899351106E-04 
1714	 8.53503816690353E-04 
1715	 7.20970044656847E-04 
1716	 4.84248380334012E-04 
1717	 5.97396869731027E-04 
1718	 8.33767070722085E-04 
1719	 7.73057827623243E-04 
1720	 3.88736590887557E-04 
1721	 2.97098162362667E-04 
1722	 5.53443611649913E-04 
1723	 5.37479135906835E-04 
1724	 4.82816807138254E-04 
1725	 9.17601956662609E-04 
1726	 7.57266524440456E-04 
1727	-9.62091820093162E-05 
1728	 3.20326375826168E-06 
1729	 2.84252789750651E-04 
1730	 7.51535520863545E-05 
1731	 6.5019490596985E-04 
1732	 1.02183484996671E-03 
1733	 3.71151627525722E-04 
1734	 2.80038934846557E-04 
1735	 4.9689352971437E-04 
1736	 5.39821551043509E-04 
1737	 9.92036462819401E-04 
1738	 7.39803646661214E-04 
1739	 2.7812487847468E-04 
1740	 5.5300320706291E-04 
1741	 4.58795374754083E-04 
1742	 6.6970214364645E-04 
1743	 1.10707768504051E-03 
1744	 6.07603601214046E-04 
1745	 5.20614141292383E-04 
1746	 3.35945878359523E-04 
1747	 1.85592539555991E-04 
1748	 1.99317524842134E-04 
1749	 3.92577159192872E-04 
1750	 1.07200037044734E-03 
1751	 1.32654005505937E-03 
1752	 1.42802405677454E-03 
1753	 1.17344034440011E-03 
1754	 3.65722734164139E-04 
1755	-7.79048943681346E-05 
1756	-7.08829234373478E-04 
1757	 5.04121266899223E-04 
1758	 9.27786337917188E-04 
1759	 5.69837401987851E-04 
1760	 9.30809021838038E-04 
1761	 5.84032584158564E-04 
1762	 4.76321897446833E-05 
1763	 9.3269959074075E-04 
1764	 1.25920832526472E-03 
1765	 3.71445109666262E-04 
1766	-1.26954696234299E-04 
1767	 1.02958897474656E-04 
1768	 5.27496108168519E-04 
1769	 4.96361807841987E-04 
1770	 3.37912981469025E-04 
1771	 4.17927037220873E-04 
1772	-6.61271934865169E-05 
1773	-3.73166437940825E-04 
1774	 1.36090639381602E-04 
1775	-1.60532995759708E-03 
1776	-1.61318657537216E-03 
1777	 1.32213475723207E-03 
1778	 2.00116848669689E-03 
1779	 2.76212575201521E-03 
1780	 2.76005660693234E-03 
1781	-6.81826437236598E-04 
1782	-2.20878263567233E-03 
1783	-3.71553253893676E-03 
1784	-3.21151314466441E-03 
1785	 8.63260001308988E-04 
1786	 1.69880568766107E-03 
1787	 3.16779508725368E-03 
1788	 2.98624609145352E-03 
1789	-2.30091532173421E-03 
1790	-2.95066751598963E-03 
1791	-3.23789869075934E-03 
1792	-5.37016692649858E-03 
1793	-3.11400124367952E-03 
1794	 1.33896520544708E-03 
1795	 3.08778479065949E-03 
1796	 5.25264977231444E-03 
1797	 3.05217125275678E-03 
1798	-7.61433904287162E-03 
1799	-1.08635409794257E-02 
1800	-1.60504932363074E-02 
1801	-1.96493514635162E-02 
1802	-1.71562666745672E-02 
1803	-1.66976657840203E-02 
1804	-6.54415006307153E-04 
1805	 4.75476562832329E-03 
1806	-3.12965944473569E-03 
1807	-2.33367511167536E-02 
1808	-0.116259832862198 
1809	-0.149016195041494 
1810	-0.111347417053086 
1811	-0.101323121746392 
1812	 3.66913206540615E-02 
1813	 8.85437499801722E-02 
1814	 9.72866193004914E-03 
1815	-4.27941467829465E-03 
1816	 4.23349633053657E-03 
1817	 0.186559149849856 
1818	-0.435918887801719 
1819	-0.750251792539617 
1820	-0.402461943033309 
1821	-0.361446667781827 
1822	-0.274768394445026 
1823	 0.388055093282313 
1824	 0.863464116306107 
1825	 1.72275798786509 
1826	 1.65014434882888 
1827	-0.723658839056148 
1828	-0.788208151151998 
1829	-0.708592597839353 
1830	-0.728413947868093 
1831	 0.378614594119597 
1832	 0.331001245606569 
1833	-0.299571077715952 
1834	-0.408618284660004 
1835	 0.571128895290306 
1836	 0.725569936558899 
1837	 0.458680851845903 
1838	 0.522811164116304 
1839	 0.779941134437422 
1840	 0.400406882016372 
1841	 0.28345095222797 
1842	 0.265800383690043 
1843	 0.439728698384695 
1844	 0.502814803894879 
1845	 0.718334149549625 
1846	 1.30868642536569 
1847	 1.37166612801582 
1848	 1.21971696683443 
1849	 0.576913495393891 
1850	 1.64355023093352 
1851	-2.84746042333036E-02 
1852	 0.142545962180808 
1853	-0.214173552934807 
1854	-0.285819127845966 
1855	-4.72826697862084E-02 
1856	 4.68859386880052E-02 
1857	 0.212810065943201 
1858	-0.238325250142661 
1859	-4.53060530575448 
1860	-1.39818262436939 
1861	-2.14915528695379 
1862	-4.64858477099491 
1863	-0.133996220898681 
1864	 6.86859267118126E-02 
1865	 0.667927810696351 
1866	-0.533573014489001 
1867	-0.162504844725311 
1868	-1.04754708663375 
1869	-0.552399088035503 
1870	-1.11987238978454 
1871	-0.908410395066252 
1872	-0.346767993764511 
1873	 2.46747756489323 
1874	 0.915942246956425 
1875	 1.77690571012571 
1876	 2.74625053557782 
1877	-1.47573892668133 
1878	 14.8669748691997 
1879	 0.77857949362354 
1880	 0.559882478889292 
1881	-0.210532896458082 
1882	-0.568409900967605 
1883	-0.272202002340973 
1884	-8.33359812139764E-02 
1885	-0.992429894458729 
1886	-4.42518757561673 
1887	 0.608772578190173 
1888	 0.129177521043139 
1889	-0.161058266565378 
1890	 3.65877104507967 
1891	 2.28610915885346 
1892	 0.629313579170407 
1893	-5.91259283387666E-02 
1894	 0.091964611146967 
1895	-1.31951632714453 
1896	-1.94858656068409 
1897	-1.77338406271382 
1898	-0.326717101305346 
1899	-0.538346218895352 
1900	-0.496681640571459 
1901	-0.23402068143828 
1902	-0.172717280669647 
1903	 6.54646157129467E-02 
1904	 0.930845064386555 
1905	-0.367181911954295 
1906	-0.437267104947207 
1907	-0.85749172568852 
1908	-1.25464119441643 
1909	-1.76690521969543 
1910	 3.26922205314615 
1911	 2.06081319684251 
1912	 2.90122252195958 
1913	 2.25446629029303 
1914	 97.8724739492346 
1915	-11.0955502170797 
1916	-1.03134869388462 
1917	-4.93759571575353 
1918	-0.707955435571269 
1919	-0.166192336335321 
1920	 7.88658159958322 
1921	 0.466482129456861 
1922	 0.139968414927223 
1923	 6.80659354407835E-02 
1924	 0.196681367185071 
1925	 0.494797900919824 
1926	 0.544460496486329 
1927	 0.647334756899938 
1928	 0.641414579382804 
1929	 0.954525725484582 
1930	 0.254476221685023 
1931	-0.330100683268062 
1932	-0.750627932367559 
1933	-0.600568391901592 
1934	-0.446024596269054 
1935	-4.76131498876896E-03 
1936	 0.203672520926257 
1937	 0.143600065656019 
1938	 6.42513179625602E-03 
1939	-1.95401598194161E-03 
1940	 6.60789708402749E-02 
1941	 8.99187180937815E-02 
1942	 6.36919370248018E-02 
1943	 6.27121150847274E-02 
1944	 4.41692490972716E-03 
1945	-5.36387542446712E-02 
1946	-7.57942488050477E-02 
1947	-9.03260946628773E-02 
1948	-0.124431312001482 
1949	-0.083444951669398 
1950	-2.25996020648046E-02 
1951	-3.39964788796504E-02 
1952	-2.39206974534856E-02 
1953	 2.81697335668867E-03 
1954	-2.87630668849418E-03 
1955	-2.20296846577273E-02 
1956	 1.04361988867338E-02 
1957	 2.35592733785062E-02 
1958	 1.24060194881121E-02 
1959	 1.69345566824133E-02 
1960	 1.37457555024114E-02 
1961	 1.48897656131864E-04 
1962	-5.97390916795894E-04 
1963	 6.98057058140641E-04 
1964	-3.31219107975836E-03 
1965	-2.47777995728507E-03 
1966	-1.59468689032467E-03 
1967	 1.32607490882647E-04 
1968	-2.06789475574826E-03 
1969	-1.17695756758432E-03 
1970	 1.41909889753351E-03 
1971	 1.74010675748171E-03 
1972	 9.59736490936936E-04 
1973	 9.20082279562363E-04 
1974	 1.01006278881104E-03 
1975	 3.4986287379432E-04 
1976	 4.78892851338687E-04 
1977	-1.19596641252454E-04 
1978	-1.36493098314638E-03 
1979	-1.6043555119292E-03 
1980	-1.55233307535899E-03 
1981	-7.51873361216235E-04 
1982	 3.3450089109457E-04 
1983	 8.39030512841482E-04 
1984	 1.62884270820469E-04 
1985	-1.14855782840862E-03 
1986	-2.01812157765273E-03 
1987	-2.10429202442123E-03 
1988	-5.99118277178222E-04 
1989	 8.90319946768094E-04 
1990	 8.12900368453148E-04 
1991	 1.24909798196381E-03 
1992	 1.25328727435048E-03 
1993	-2.68001910212991E-04 
1994	-8.64924034298123E-04 
1995	-5.64582899802572E-04 
1996	-4.74405555156444E-04 
1997	-7.4622678340086E-04 
1998	-2.25936616367106E-04 
1999	 1.20908618115415E-03 
2000	 3.53940803616675E-03 
2001	 2.97324520164745E-03 
2002	 3.09735216500429E-03 
2003	 5.8049933156302E-03 
2004	 3.28707888512726E-03 
2005	 3.18804982303023E-04 
2006	 2.28084122807195E-03 
2007	 5.24831106179353E-03 
2008	 5.48400044523089E-03 
2009	 4.12582708636291E-03 
2010	 1.84914108352467E-03 
2011	 1.67136922408488E-03 
2012	 4.23661689170977E-06 
2013	-2.30407292330252E-03 
2014	 1.14409767470858E-03 
2015	 1.17322163747683E-03 
2016	 4.96388632188189E-04 
2017	 3.40064086569673E-03 
2018	 3.0183134152606E-03 
2019	 1.50031594175126E-03 
2020	 1.00678630902885E-03 
2021	-9.57124982124727E-04 
2022	-8.57755797501511E-04 
2023	 1.18828925322314E-04 
2024	 1.65148717416918E-04 
2025	-2.65571450851627E-04 
2026	-1.68151329990874E-04 
2027	-3.46644146021229E-04 
2028	 8.11666028307511E-05 
2029	 7.97465900223233E-04 
2030	 1.35277116366786E-03 
2031	 1.72394282558781E-03 
2032	 1.16504480347998E-03 
2033	 1.75410919360043E-03 
2034	 1.96226621807736E-03 
2035	 1.4089901328937E-03 
2036	 1.81179248782094E-03 
2037	 1.00782735441682E-03 
2038	 5.96419155704022E-04 
2039	 7.48604162143343E-04 
2040	 1.82151566827703E-03 
2041	 1.84751071430099E-03 
2042	 1.53834476698079E-03 
2043	 1.52742909378815E-03 
2044	 1.23076261385394E-03 
2045	 1.33485890010624E-03 
2046	 8.77803533336774E-04 
2047	 8.74332528573724E-04 
2048	 4.91326298284269E-04 
2049	-9.3452440488961E-05 
2050	 5.42989115486348E-04 
2051	 1.1356911736126E-03 
2052	 1.15949320109092E-03 
2053	 1.17521566095374E-03 
2054	 1.57166923571546E-03 
2055	 2.15121482961702E-03 
2056	 2.01017594195082E-03 
2057	 1.19570598540019E-03 
2058	 1.07421774979276E-03 
2059	 4.66918986074663E-04 
2060	 6.74327098869329E-05 
2061	 7.38593913531231E-05 
2062	 9.40462481592339E-04 
2063	 1.88713111219402E-04 
2064	 1.15859620039569E-04 
2065	 9.72960355449656E-04 
2066	 1.45226164881642E-04 
2067	-4.23418598139021E-04 
2068	-2.57600396344827E-04 
2069	-1.51520361086225E-03 
2070	-1.42856175078695E-03 
2071	-5.43608159780929E-04 
2072	-3.3544359763888E-04 
2073	 1.44734788036681E-04 
2074	 1.22910491920497E-03 
2075	 1.16213427989988E-03 
2076	 5.29241402742489E-04 
2077	 1.45445438413219E-04 
2078	-7.68565552214626E-04 
2079	-6.45819059155397E-04 
2080	 2.1009699042522E-04 
2081	 3.08459484881868E-04 
2082	 4.74346704982276E-04 
2083	 4.17899806878311E-04 
2084	-7.45748716099408E-04 
2085	-1.14520218838664E-03 
2086	 1.23107142724837E-04 
2087	 5.29964147573377E-04 
2088	 5.42450698823984E-04 
2089	 6.84767897423364E-04 
2090	-3.86760509899733E-05 
2091	-3.12900185856206E-04 
2092	-4.08634671827802E-04 
2093	 4.42857535294995E-05 
2094	 1.45064234200188E-04 
2095	 1.49673069119212E-04 
2096	 4.36607253894531E-05 
2097	-3.28082148765232E-04 
2098	-1.527407250806E-04 
2099	 3.22913154575634E-04 
2100	 6.77177863428962E-04 
2101	 8.30471728835179E-04 
2102	 1.32114374713561E-03 
2103	 8.53077379120185E-04 
2104	 2.59531260225935E-04 
2105	 4.80990041948209E-04 
2106	 5.54813795031315E-04 
2107	 1.55001639878504E-03 
2108	 2.04597247694179E-03 
2109	 1.15668301335048E-03 
2110	 9.64992612476658E-04 
2111	 6.48711164280844E-04 
2112	 6.62040088705933E-05 
2113	-1.14801352003401E-04 
2114	 2.88195279081754E-04 
2115	 5.70786515769616E-04 
2116	 1.2872151178457E-03 
2117	 0.001214550614902 
2118	 7.51700260254511E-04 
2119	 6.70865193346749E-04 
2120	 3.56726663936423E-04 
2121	-4.99509431520878E-04 
2122	-6.43219709013034E-04 
2123	-9.27980782213243E-06 
2124	-4.45661725422954E-04 
2125	-9.26759798454697E-04 
2126	-3.65438937701983E-04 
2127	-5.74746297145015E-04 
2128	-8.02342340018438E-04 
2129	-7.50066619131668E-05 
2130	-1.57374104017343E-04 
2131	-5.11328570664088E-04 
2132	-5.11252673142935E-04 
2133	-8.9954054615966E-04 
2134	-9.43871655679929E-04 
2135	-5.82865688025635E-04 
2136	-4.15133951193076E-04 
2137	-4.17453014482218E-04 
2138	-3.14763583651227E-04 
2139	-2.98076248595551E-04 
2140	-1.21768444603324E-04 
2141	 7.36009424350319E-04 
2142	 9.40057876436654E-04 
2143	 1.12266297086071E-03 
2144	 3.1450297711297E-04 
2145	-5.47268903172553E-04 
2146	-6.73912611896346E-04 
2147	-7.46223170341164E-05 
2148	 4.42344397918824E-04 
2149	 1.07665785709669E-03 
2150	 1.53677550995041E-03 
2151	 5.40240607628279E-04 
2152	 1.57489161743869E-04 
2153	 7.3642477024571E-04 
2154	 2.22829602748492E-04 
2155	-4.42031049669002E-04 
2156	-3.05784587772869E-04 
2157	-3.21422264981096E-05 
2158	 3.43783534842254E-05 
2159	 1.80960256607546E-04 
2160	 1.5771298857653E-03 
2161	 1.42862181857638E-03 
2162	-5.6517053075526E-04 
2163	-7.43338562290912E-04 
2164	-2.53364477451393E-04 
2165	-4.16265340410347E-04 
2166	 2.98631592818741E-04 
2167	 2.1066837401405E-04 
2168	-1.61385373305739E-03 
2169	-1.73603051295612E-03 
2170	-9.47848743983283E-04 
2171	-2.07144056994633E-04 
2172	 8.72365467823894E-05 
2173	-8.95939353619557E-05 
2174	 1.38727344917546E-04 
2175	 6.62741988071539E-04 
2176	 7.06069726332765E-04 
2177	 6.09753706215728E-05 
2178	-5.27714620396323E-04 
2179	-1.08797405338415E-03 
2180	-1.12782427627562E-03 
2181	-2.68925105887361E-04 
2182	 2.31896941333742E-04 
2183	-3.85988645235265E-05 
2184	 4.99505603995969E-04 
2185	 2.01020760386656E-03 
2186	 2.09375045806595E-03 
2187	 8.76812845019075E-04 
2188	 4.60956838920723E-04 
2189	-8.92672852165761E-04 
2190	-9.46216941994517E-04 
2191	 8.61899580625063E-04 
2192	 1.04798310784609E-03 
2193	 8.40197787731892E-04 
2194	 9.78672018149225E-04 
2195	 1.36721292871597E-04 
2196	-3.11787728964088E-04 
2197	-3.47315764687114E-04 
2198	 4.10948276017246E-04 
2199	 2.07351072885434E-03 
2200	 2.32245240954738E-03 
2201	 3.80354207292005E-03 
2202	 3.89175351503558E-03 
2203	 7.42590731215463E-05 
2204	-3.71601807975692E-04 
2205	 1.69939554516134E-03 
2206	 2.37455627454109E-03 
2207	 3.3412981825894E-03 
2208	 3.5503336581678E-03 
2209	 1.43083338739597E-03 
2210	-2.1703178158054E-03 
2211	-4.38445677254537E-03 
2212	-4.1195717343301E-03 
2213	-2.99827539534756E-03 
2214	-1.9172737269137E-03 
2215	-3.34470372368444E-04 
2216	 4.1137730349978E-04 
2217	 5.77879748034715E-04 
2218	-5.34721424007519E-04 
2219	-8.93547170870599E-04 
2220	-1.45872696986557E-03 
2221	-1.4212682780534E-03 
2222	-1.21787469951294E-03 
2223	-1.21637245270056E-03 
2224	-3.55656399524292E-04 
2225	 3.78654157058729E-05 
2226	-4.31577893567643E-04 
2227	-6.28071163450379E-04 
2228	-4.70435581823279E-04 
2229	-8.75422231373618E-04 
2230	-2.15799125428858E-03 
2231	-2.02712746190996E-03 
2232	-1.20771066739888E-03 
2233	-1.03361505146062E-03 
2234	-7.75052340874633E-04 
2235	 5.30164674282193E-04 
2236	-4.87089453039037E-04 
2237	 7.61214348057747E-04 
2238	 2.97223119511536E-03 
2239	 2.06494692215326E-03 
2240	 1.75440281047238E-03 
2241	 3.54594525096605E-04 
2242	-3.51038650049275E-03 
2243	-4.38200378246599E-03 
2244	-2.3900701980064E-03 
2245	-1.8853003937381E-03 
2246	-1.97000416051914E-03 
2247	-1.3984936666361E-03 
2248	-2.44579094161556E-03 
2249	-2.55062211188034E-03 
2250	-1.37800981187428E-03 
2251	-2.17255253000493E-03 
2252	-1.64424486812696E-03 
2253	-3.98741126046244E-04 
2254	-5.12451184106292E-04 
2255	-4.43104668148042E-04 
2256	 4.14853305110454E-04 
2257	 8.37279052661619E-05 
2258	 4.6731279440088E-05 
2259	 2.98101064636331E-03 
2260	 2.82604580226962E-03 
2261	-3.03920346275146E-04 
2262	-9.68813629717551E-04 
2263	-2.30861028229355E-03 
2264	-3.20192677922103E-03 
2265	-1.74479822108506E-03 
2266	-5.4461708891257E-04 
2267	 2.30857622013283E-04 
2268	 2.20321143726673E-04 
2269	 3.36394936029573E-04 
2270	 1.49004051279073E-04 
2271	-1.36065304133096E-03 
2272	-1.12943571092765E-03 
2273	 1.49979439189278E-03 
2274	 9.86169757203637E-04 
2275	-2.85428958681808E-03 
2276	-2.98815569861866E-03 
2277	-2.05800159553749E-03 
2278	-1.32525873957054E-03 
2279	 3.10421623353669E-03 
2280	 4.63812442869696E-03 
2281	 4.30107165670064E-03 
2282	 2.57181399112804E-03 
2283	 1.50369434214044E-03 
2284	-1.89198546665679E-04 
2285	-1.00621482667582E-03 
2286	-1.47977891080539E-03 
2287	-1.88126386674374E-03 
2288	-1.35148425576167E-03 
2289	-8.48279195188326E-04 
2290	-1.39367102434036E-03 
2291	-7.98912281253359E-04 
2292	-1.88178160629061E-03 
2293	-4.86714329010025E-03 
2294	-3.79573829940508E-03 
2295	-4.23446668562504E-03 
2296	-5.49548938806155E-03 
2297	-4.67253260794384E-03 
2298	-3.75853696204433E-03 
2299	-1.96347781134374E-03 
2300	-9.48075475214563E-04 
2301	 3.12556055171873E-04 
2302	 3.70201406869257E-04 
2303	-2.35024544866763E-03 
2304	-4.77261964893667E-03 
2305	-5.23426394349931E-03 
2306	-5.6705476743695E-03 
2307	-6.42425158903322E-03 
2308	-5.49803680800589E-03 
2309	-3.98877584632571E-03 
2310	-4.50214992028986E-03 
2311	-6.92936954534835E-03 
2312	-8.45200538712019E-03 
2313	-6.19773247509422E-03 
2314	-1.17267061870119E-03 
2315	 3.44603265862354E-03 
2316	 8.72519695087216E-03 
2317	 1.09156715960752E-02 
2318	 6.70488633488455E-03 
2319	 3.10002725034385E-03 
2320	 8.57929315299976E-04 
2321	-2.32143282649859E-03 
2322	-2.4169911036236E-03 
2323	-1.91408231102942E-03 
2324	-3.9202088785416E-03 
2325	-3.93952556661472E-03 
2326	-3.67660202060376E-03 
2327	-4.89789145644245E-03 
2328	-1.59434083192287E-03 
2329	 5.11447999963282E-03 
2330	 6.67162186402022E-03 
2331	 3.6699846964517E-03 
2332	 2.8443211915802E-03 
2333	-2.74940556842935E-03 
2334	-1.32390542830671E-02 
2335	-1.30504111259711E-02 
2336	-9.05611842648472E-03 
2337	-2.81632874964414E-03 
2338	 7.43811020340547E-03 
2339	 7.22833979491312E-03 
2340	 6.23569798947293E-03 
2341	 5.02144227866878E-03 
2342	-1.787028801119E-04 
2343	-1.2188471772084E-03 
2344	-9.20138173744351E-03 
2345	-2.17767950005483E-02 
2346	-2.52499757397607E-02 
2347	-1.63855667261154E-02 
2348	-3.61654609341702E-03 
2349	 3.89607410100938E-04 
2350	-1.75608237422078E-03 
2351	-2.24740017768474E-03 
2352	-6.24972172223372E-03 
2353	-9.77227788706347E-03 
2354	 2.30781241119398E-03 
2355	 7.0262921596184E-03 
2356	 3.88222513157343E-03 
2357	 1.18924716042654E-02 
2358	 3.68756636239938E-03 
2359	-8.95014096696201E-03 
2360	-9.47808718771284E-03 
2361	-1.79793075973138E-02 
2362	-2.00613794478951E-02 
2363	-1.16325099581723E-02 
2364	-4.71350686519397E-03 
2365	 4.90582108004771E-03 
2366	 6.46869084212479E-03 
2367	 1.85725263370166E-03 
2368	-2.30059213205017E-03 
2369	-2.01984736979369E-02 
2370	-0.036788474641439 
2371	-4.10973529387413E-02 
2372	-4.83633375142113E-02 
2373	-3.69299027353387E-02 
2374	-1.54348277099041E-02 
2375	-9.23439314745196E-03 
2376	-1.80372433953799E-03 
2377	 1.14504668490133E-03 
2378	 7.29072033489096E-03 
2379	 6.59453380263762E-03 
2380	-1.66277775804471E-02 
2381	-2.91532919041187E-02 
2382	-1.68142310247724E-02 
2383	 1.13226638980998E-03 
2384	 2.21231824220685E-02 
2385	 4.10419578356894E-02 
2386	 1.38487152254306E-02 
2387	-1.53771798022402E-02 
2388	-3.38875078569604E-02 
2389	-7.65072070439998E-02 
2390	-0.077287149722574 
2391	-5.81099717470601E-02 
2392	-4.63315258374397E-02 
2393	-1.58993981511991E-02 
2394	-8.12546669798934E-03 
2395	-8.10032832337536E-03 
2396	 9.82838526402063E-03 
2397	 1.57054442109937E-02 
2398	 2.60805564144853E-02 
2399	 3.79235622532958E-02 
2400	-4.15583887658765E-03 
2401	-4.19606287632676E-02 
2402	-5.22761996368698E-02 
2403	-6.72729230900605E-02 
2404	-2.53475149297163E-02 
2405	 3.97948849611889E-03 
2406	 1.17466670145393E-02 
2407	 4.22567299996588E-02 
2408	-0.006053853401589 
2409	-2.43266364052637E-02 
2410	-1.10013936209676E-02 
2411	-8.19006623077396E-02 
2412	-0.105003255939629 
2413	-0.128712037826494 
2414	-0.167792139950708 
2415	-8.87934030355198E-02 
2416	-8.03760496423633E-02 
2417	-9.26960292251022E-02 
2418	 2.35240957730993E-02 
2419	 6.18409653819002E-02 
2420	 8.38174476666855E-02 
2421	 0.191453388157983 
2422	 9.86852302436467E-02 
2423	-6.09292302315665E-02 
2424	-3.78526844089127E-02 
2425	-3.24251606692538E-02 
2426	 9.43470159348637E-03 
2427	-2.76013761574429E-02 
2428	-0.143556944151968 
2429	-0.157782787599537 
2430	-0.160550556518945 
2431	-0.131914262719705 
2432	-5.47422829384456E-04 
2433	 6.79967348063963E-02 
2434	 2.83567073608307E-02 
2435	 2.07485913203372E-02 
2436	-0.01939111113402 
2437	-0.100108628433644 
2438	-0.135097950013984 
2439	-6.74039684823378E-02 
2440	-4.32901255545433E-02 
2441	-5.20470374735411E-02 
2442	-4.56473166979594E-02 
2443	-0.16193767772262 
2444	-0.235185795448185 
2445	-0.12167015425406 
2446	-8.86141748885857E-02 
2447	 1.74751994715362E-02 
2448	 0.11694903762342 
2449	 8.68921580680622E-03 
2450	 0.059371611237425 
2451	 0.393040874089414 
2452	 0.158304619041743 
2453	 2.30835765967471E-02 
2454	-0.310157275915207 
2455	-0.781815869323709 
2456	-0.527723294455713 
2457	 9.50955955848827E-02 
2458	-1.68216964474998E-02 
2459	-9.34063801464165E-02 
2460	-0.43075147016503 
2461	-1.15475498074129 
2462	-1.09047551080883 
2463	-1.12692200284175 
2464	-0.867020952829724 
2465	-0.625493920019532 
2466	-0.99734602435619 
2467	-0.999695170369701 
2468	-0.588847971320544 
2469	-1.2663396333022 
2470	-9.22727530390142 
2471	 4.54431554091583 
2472	-1.0428441532626 
2473	-0.574847323439306 
2474	 0.482391799412802 
2475	 0.295057306934356 
2476	 0.564066151236568 
2477	 1.04597886077805 
2478	 0.762936831834738 
2479	 0.541778712575908 
2480	 0.29295848249947 
2481	 4.94143565725482 
2482	-1.35036159650018 
2483	-7.90366223726623E-02 
2484	-0.450962426187271 
2485	-0.431379377815194 
2486	-1.78793216214791 
2487	-8.06482773347904 
2488	 1.28347165504854 
2489	 0.439151695471222 
2490	 0.229881002384701 
2491	-1.25524341441327 
2492	-0.407862945493013 
2493	 9.88617427495338E-02 
2494	 0.551058856432174 
2495	 0.113419192993653 
2496	-0.816097008660195 
2497	 2.48718663223216 
2498	-0.201654978811677 
2499	 0.923869299933092 
2500	-1.38287443763062 
