Wavelength	rt0629algea00006.asd
350	 4.31048473643913E-02 
351	 0.041946908373538 
352	 0.041775339421419 
353	 4.23142221922333E-02 
354	 4.28510717106803E-02 
355	 0.042430438450095 
356	 4.24403816347392E-02 
357	 4.23500874936603E-02 
358	 4.15753966261683E-02 
359	 4.19232797139246E-02 
360	 4.19851455515542E-02 
361	 4.14911212990926E-02 
362	 4.10438755651787E-02 
363	 4.09615301306894E-02 
364	 4.13810820500789E-02 
365	 4.19570812670453E-02 
366	 4.17134010075987E-02 
367	 4.13563451752585E-02 
368	 4.11850435119628E-02 
369	 4.12027049643888E-02 
370	 4.06995363670349E-02 
371	 4.08725185439077E-02 
372	 4.16414460765378E-02 
373	 4.21362040378653E-02 
374	 4.19572302088927E-02 
375	 4.14814714058283E-02 
376	 4.10337482663133E-02 
377	 4.07185151446335E-02 
378	 4.08177554037743E-02 
379	 4.09980483609179E-02 
380	 4.10262340488638E-02 
381	 4.14428933662334E-02 
382	 4.20975269391057E-02 
383	 4.23975401748321E-02 
384	 4.18318899604754E-02 
385	 4.18334918257063E-02 
386	 4.18307105788574E-02 
387	 4.17745620857747E-02 
388	 4.23150223956601E-02 
389	 4.22374478034643E-02 
390	 4.20767651929137E-02 
391	 4.23131027677538E-02 
392	 4.24700782117947E-02 
393	 0.042483974314574 
394	 4.24795867135284E-02 
395	 4.25940823352456E-02 
396	 4.25612759830644E-02 
397	 4.27325595113869E-02 
398	 4.30295422558728E-02 
399	 4.30176593335322E-02 
400	 4.29227611947471E-02 
401	 4.29696048492285E-02 
402	 4.31788027816077E-02 
403	 4.31050846387616E-02 
404	 4.34217746215479E-02 
405	 4.37210711067394E-02 
406	 4.34415972153043E-02 
407	 4.35729391625021E-02 
408	 4.36630897681457E-02 
409	 4.36278947062342E-02 
410	 4.38029098378972E-02 
411	 4.38197600826968E-02 
412	 4.37932391542201E-02 
413	 4.38462652147364E-02 
414	 0.043888573086736 
415	 4.41628537837916E-02 
416	 4.44562315966277E-02 
417	 4.44756147489969E-02 
418	 4.46471132605438E-02 
419	 4.48509903616511E-02 
420	 4.50316413559909E-02 
421	 0.045241416281383 
422	 4.54056404361901E-02 
423	 4.55904859639643E-02 
424	 4.58501778897437E-02 
425	 4.61652641653788E-02 
426	 4.61696938797879E-02 
427	 4.61049544181058E-02 
428	 4.64455323049723E-02 
429	 4.70201725697181E-02 
430	 4.73635297996365E-02 
431	 4.74432297148256E-02 
432	 4.77503086172076E-02 
433	 4.79998495191213E-02 
434	 4.83219176124969E-02 
435	 4.87907969131068E-02 
436	 4.90656969465833E-02 
437	 0.049406569740139 
438	 0.049698809607234 
439	 4.97126902146899E-02 
440	 0.050094429855585 
441	 5.05215388498776E-02 
442	 5.07511235114502E-02 
443	 5.08049585994103E-02 
444	 5.10422348027401E-02 
445	 5.13270415517532E-02 
446	 5.14964318913732E-02 
447	 5.19050752761276E-02 
448	 5.20520184440136E-02 
449	 5.20339877640941E-02 
450	 5.23537817172062E-02 
451	 5.26358589935679E-02 
452	 5.28309778853443E-02 
453	 5.29491563638351E-02 
454	 5.30070833473219E-02 
455	 0.053170132368992 
456	 5.33586926924359E-02 
457	 5.34409934539368E-02 
458	 5.35530711617205E-02 
459	 5.36310307170477E-02 
460	 5.36800919383014E-02 
461	 5.37809543154223E-02 
462	 5.39267319775539E-02 
463	 5.41032152892411E-02 
464	 5.42636861737267E-02 
465	 0.054274326227359 
466	 5.42837038983093E-02 
467	 5.43933098965289E-02 
468	 0.054632385386832 
469	 5.47030836019486E-02 
470	 5.48768015456273E-02 
471	 5.51339029080522E-02 
472	 5.50051228922516E-02 
473	 5.51116356551027E-02 
474	 5.53468908327246E-02 
475	 5.54894915315132E-02 
476	 5.56393123912248E-02 
477	 0.055736068102229 
478	 5.58563879431049E-02 
479	 5.61360292990428E-02 
480	 5.62764197192716E-02 
481	 5.63514144951558E-02 
482	 5.64811256693378E-02 
483	 5.67879283491476E-02 
484	 0.056957337052328 
485	 5.71135941761514E-02 
486	 5.74500131484467E-02 
487	 5.75777174158359E-02 
488	 5.77433418685842E-02 
489	 5.80401683433108E-02 
490	 5.83740423927951E-02 
491	 5.84876580812398E-02 
492	 5.85952774560962E-02 
493	 5.88999644276214E-02 
494	 5.93555993841708E-02 
495	 5.95511432526487E-02 
496	 5.95941914039884E-02 
497	 5.98443136436473E-02 
498	 6.02544728632494E-02 
499	 6.06038579617532E-02 
500	 0.06083660766198 
501	 6.11793504449201E-02 
502	 6.14224071549042E-02 
503	 0.061634738118411 
504	 0.061926876002119 
505	 6.22402651692837E-02 
506	 6.25608707596955E-02 
507	 6.28575035362149E-02 
508	 0.063100143481217 
509	 0.063502463949379 
510	 6.38777434690948E-02 
511	 6.41040328971332E-02 
512	 0.064342743776883 
513	 6.46870455316743E-02 
514	 6.51109162122581E-02 
515	 6.55108818470314E-02 
516	 6.57451895563456E-02 
517	 6.60792904307604E-02 
518	 6.65303006679532E-02 
519	 6.67746764200761E-02 
520	 6.71115068598619E-02 
521	 6.74636012326698E-02 
522	 6.77481085659798E-02 
523	 6.81657083662589E-02 
524	 6.85698181644593E-02 
525	 6.88918173448767E-02 
526	 6.91424692692835E-02 
527	 6.95033382072118E-02 
528	 0.069939785246244 
529	 7.03693901646514E-02 
530	 7.06816612579746E-02 
531	 7.10035541808882E-02 
532	 7.13715650093222E-02 
533	 7.17618329186968E-02 
534	 7.20093160013153E-02 
535	 7.23308286101584E-02 
536	 0.072763540843172 
537	 7.31172246628871E-02 
538	 7.34553947786245E-02 
539	 7.37997080385782E-02 
540	 7.41594281609577E-02 
541	 7.45295499198606E-02 
542	 7.48825138332026E-02 
543	 0.075205717318696 
544	 0.075504587139891 
545	 7.58406374696478E-02 
546	 7.61851454088059E-02 
547	 7.64972703135457E-02 
548	 7.67192007965813E-02 
549	 7.71266449231645E-02 
550	 7.75525171669188E-02 
551	 0.07775546864451 
552	 0.078051662259537 
553	 0.078381440896451 
554	 7.87028464626775E-02 
555	 7.90167426484764E-02 
556	 7.93284378317245E-02 
557	 7.96358427093317E-02 
558	 7.99329091455556E-02 
559	 8.02276519489816E-02 
560	 8.04361845634124E-02 
561	 8.05906881210376E-02 
562	 8.07958099459422E-02 
563	 8.10705422066881E-02 
564	 8.13266612547366E-02 
565	 0.081525058391113 
566	 8.17568676826121E-02 
567	 8.18849729712552E-02 
568	 8.19985007069181E-02 
569	 8.22197032041735E-02 
570	 8.23375000916878E-02 
571	 0.082531352893161 
572	 8.27815566264636E-02 
573	 0.082839755881813 
574	 8.28861623537569E-02 
575	 8.28997122030135E-02 
576	 8.28747049783537E-02 
577	 8.30003577938634E-02 
578	 8.31226461485576E-02 
579	 8.31377921191232E-02 
580	 8.30099616925121E-02 
581	 8.29977532376261E-02 
582	 8.30051176296449E-02 
583	 8.29388995080497E-02 
584	 8.27874698770762E-02 
585	 0.082686608844363 
586	 8.25532305388017E-02 
587	 8.22843120179156E-02 
588	 0.082201075615597 
589	 8.20814289034615E-02 
590	 8.18540264979945E-02 
591	 0.081637873304315 
592	 8.13928683855821E-02 
593	 8.11807441599108E-02 
594	 8.10091433797819E-02 
595	 0.080649269053374 
596	 8.02834720223704E-02 
597	 7.99059136863995E-02 
598	 7.94304551503075E-02 
599	 7.90618938705512E-02 
600	 7.86917708257153E-02 
601	 7.82812950273951E-02 
602	 7.79664851926098E-02 
603	 7.78309800066148E-02 
604	 7.77519509759521E-02 
605	 0.077586701139366 
606	 0.07748194623186 
607	 7.74326878237016E-02 
608	 7.73571539956628E-02 
609	 7.71200201929555E-02 
610	 7.71400055947725E-02 
611	 0.077178164887806 
612	 7.70251017050457E-02 
613	 7.69889625321216E-02 
614	 7.68937521325813E-02 
615	 0.076759721165499 
616	 7.67049160628282E-02 
617	 7.66750343494996E-02 
618	 7.65794771574894E-02 
619	 7.64350473514515E-02 
620	 0.076440700872699 
621	 7.63703083339841E-02 
622	 7.63175476303068E-02 
623	 7.63914758881264E-02 
624	 7.62581245543065E-02 
625	 7.61357996668196E-02 
626	 7.60742550904523E-02 
627	 7.59511545222814E-02 
628	 7.59106551554974E-02 
629	 7.58681345783877E-02 
630	 7.57598069219517E-02 
631	 7.56834512749244E-02 
632	 7.56969495921661E-02 
633	 7.57102207838132E-02 
634	 7.55902728474994E-02 
635	 7.55016074051652E-02 
636	 7.53983913825391E-02 
637	 7.52765965234331E-02 
638	 7.52172577356666E-02 
639	 7.52250776307099E-02 
640	 7.51652875462487E-02 
641	 7.49472937561902E-02 
642	 7.48164260206198E-02 
643	 7.47175673112878E-02 
644	 7.46315867873103E-02 
645	 7.45634772097617E-02 
646	 7.43495468315676E-02 
647	 7.40804826572742E-02 
648	 7.38796951566115E-02 
649	 7.38230089176708E-02 
650	 7.36650707839892E-02 
651	 7.34503977144721E-02 
652	 0.073299407715623 
653	 0.072959326167006 
654	 7.26168936408646E-02 
655	 7.22798749747343E-02 
656	 0.071728909276539 
657	 7.13751579866063E-02 
658	 7.10935680893895E-02 
659	 7.07377550444614E-02 
660	 7.04773637993341E-02 
661	 7.02230380686036E-02 
662	 6.99643790269573E-02 
663	 6.97423069178263E-02 
664	 6.95454952311451E-02 
665	 0.069333862518176 
666	 6.91249325696881E-02 
667	 6.90566907317597E-02 
668	 6.89179632713496E-02 
669	 0.068782870999737 
670	 6.87631660163419E-02 
671	 6.86471404080882E-02 
672	 6.85793861044097E-02 
673	 6.85792331590475E-02 
674	 6.85384447271514E-02 
675	 6.84736817051354E-02 
676	 6.84464613534242E-02 
677	 6.84910235391791E-02 
678	 6.85645245982939E-02 
679	 6.85655232451605E-02 
680	 6.85119620309218E-02 
681	 6.84853969553095E-02 
682	 6.85501046587653E-02 
683	 6.86034245007418E-02 
684	 6.86052443170901E-02 
685	 6.86187635256648E-02 
686	 0.068574113905427 
687	 0.068528038892944 
688	 6.85476910744424E-02 
689	 6.85868053777258E-02 
690	 6.85470784989153E-02 
691	 6.83530409956376E-02 
692	 6.79803376926628E-02 
693	 6.79007822705612E-02 
694	 6.78262299850977E-02 
695	 6.76011048410306E-02 
696	 6.74584875953912E-02 
697	 6.71519218453843E-02 
698	 6.67542417637013E-02 
699	 6.64231372959309E-02 
700	 0.066066669492969 
701	 0.065654121611379 
702	 6.51900910234079E-02 
703	 6.46956223388017E-02 
704	 6.42802843888443E-02 
705	 6.37681578672373E-02 
706	 6.31267796441943E-02 
707	 0.062709243192486 
708	 6.20364744851686E-02 
709	 0.06124552553257 
710	 6.06124186241726E-02 
711	 5.98084896882583E-02 
712	 5.89534994122127E-02 
713	 5.80707743398709E-02 
714	 5.70381289796276E-02 
715	 5.61932972718493E-02 
716	 5.52564045532279E-02 
717	 5.39932869668619E-02 
718	 5.28151697307612E-02 
719	 5.18655726119227E-02 
720	 5.10009332098739E-02 
721	 0.049911011102112 
722	 4.91379522503421E-02 
723	 4.81132735312299E-02 
724	 4.67890343639811E-02 
725	 4.56581126322582E-02 
726	 0.044566402119307 
727	 4.33670556232564E-02 
728	 4.20106880490728E-02 
729	 4.06816198187022E-02 
730	 3.92700730303196E-02 
731	 3.79758483081582E-02 
732	 3.69564890667958E-02 
733	 3.59525396052318E-02 
734	 3.51116556699968E-02 
735	 3.44777460892359E-02 
736	 3.39040187327526E-02 
737	 3.34633621422796E-02 
738	 3.31238852588128E-02 
739	 3.28428014776804E-02 
740	 3.25844930657595E-02 
741	 3.24296130773269E-02 
742	 3.23135378414786E-02 
743	 3.21211955329862E-02 
744	 3.19993313748368E-02 
745	 3.19903093391798E-02 
746	 3.20225641512624E-02 
747	 3.18919058433993E-02 
748	 3.18323359900965E-02 
749	 3.17978843259016E-02 
750	 3.17173251186725E-02 
751	 3.16809203430338E-02 
752	 0.031628760670513 
753	 3.15524391600757E-02 
754	 3.14729382543588E-02 
755	 3.13929411838366E-02 
756	 3.13285779323915E-02 
757	 3.12848076049035E-02 
758	 3.12485660385528E-02 
759	 0.031350249354958 
760	 3.15795756970337E-02 
761	 3.15722959753838E-02 
762	 3.10892426877014E-02 
763	 3.11316725993294E-02 
764	 3.13464937103404E-02 
765	 0.031185109707343 
766	 3.11991406915488E-02 
767	 0.031275259681285 
768	 3.13393338217008E-02 
769	 3.13646820527995E-02 
770	 0.031447643721523 
771	 3.14806114011127E-02 
772	 3.14230179267849E-02 
773	 3.15131926561343E-02 
774	 3.17352991786702E-02 
775	 0.031898406479018 
776	 3.18227707807515E-02 
777	 3.18863538503934E-02 
778	 3.20536235870548E-02 
779	 3.22558899426555E-02 
780	 3.24172498738741E-02 
781	 3.23574613763995E-02 
782	 3.24596008552299E-02 
783	 3.28654118293062E-02 
784	 3.29484033618616E-02 
785	 3.29974070029258E-02 
786	 3.31340684059931E-02 
787	 0.033378279425378 
788	 3.34849566599701E-02 
789	 3.37337231183086E-02 
790	 0.034066323541943 
791	 3.41761949952931E-02 
792	 3.43557667684332E-02 
793	 3.45603809110659E-02 
794	 0.034756081033418 
795	 3.49962937252227E-02 
796	 3.50938114879947E-02 
797	 3.52084706581751E-02 
798	 3.54939054805473E-02 
799	 3.57322823717039E-02 
800	 3.58722841772498E-02 
801	 3.59872391579964E-02 
802	 3.61851872554164E-02 
803	 3.62191615522506E-02 
804	 3.62412116399603E-02 
805	 3.62818284592251E-02 
806	 3.62128066114168E-02 
807	 3.63031448372712E-02 
808	 3.64220846179958E-02 
809	 3.64048022071274E-02 
810	 3.62083728521012E-02 
811	 3.59892222109355E-02 
812	 3.58385137968047E-02 
813	 3.57863364495256E-02 
814	 3.56667692183622E-02 
815	 3.53787093116969E-02 
816	 3.49858077442812E-02 
817	 3.46733452470754E-02 
818	 3.44686883950791E-02 
819	 3.41970345049753E-02 
820	 3.38185338863844E-02 
821	 3.34901622719288E-02 
822	 3.29041160370041E-02 
823	 3.20904634104638E-02 
824	 3.12598831817161E-02 
825	 3.06639229684384E-02 
826	 2.99100130022541E-02 
827	 2.90116077345794E-02 
828	 2.81966058649783E-02 
829	 2.75102423563147E-02 
830	 2.67334375500159E-02 
831	 0.025942338688569 
832	 2.54276821271265E-02 
833	 0.025048157700883 
834	 2.46302623302467E-02 
835	 2.42241038367104E-02 
836	 2.41566257336838E-02 
837	 2.41110446993867E-02 
838	 2.38329265673567E-02 
839	 2.33420538078381E-02 
840	 2.32956304328183E-02 
841	 2.32009877269662E-02 
842	 2.30476621334874E-02 
843	 0.022945585337624 
844	 2.27049604717641E-02 
845	 2.24731043277985E-02 
846	 2.23177596648427E-02 
847	 2.22278812406406E-02 
848	 2.21381904434931E-02 
849	 0.021852368546545 
850	 2.15189875326899E-02 
851	 2.16788312842958E-02 
852	 0.021582556193846 
853	 0.021383566673064 
854	 2.12892209447346E-02 
855	 2.11979034281328E-02 
856	 2.09347103669825E-02 
857	 2.07610081800121E-02 
858	 2.08711323519393E-02 
859	 2.08015445675002E-02 
860	 0.020631760720242 
861	 0.020446966654453 
862	 2.03498717524603E-02 
863	 2.05355728116452E-02 
864	 2.04819350845491E-02 
865	 2.01208767562251E-02 
866	 1.98532263994353E-02 
867	 1.97723931703602E-02 
868	 1.97157109766106E-02 
869	 1.95942739573403E-02 
870	 1.94701963393494E-02 
871	 1.91736293883233E-02 
872	 1.89276498261524E-02 
873	 1.88980937012803E-02 
874	 1.89460034528889E-02 
875	 1.88061732475533E-02 
876	 1.85787994445928E-02 
877	 1.84488937791986E-02 
878	 1.84177697328976E-02 
879	 1.83801779134094E-02 
880	 1.82301121612248E-02 
881	 1.79147605754676E-02 
882	 1.75775480757593E-02 
883	 1.74873142388998E-02 
884	 1.74862772179031E-02 
885	 1.71906542052376E-02 
886	 1.71935752550363E-02 
887	 1.74046539008225E-02 
888	 1.74320639665709E-02 
889	 1.67626548758436E-02 
890	 0.016947769904558 
891	 1.72662093444898E-02 
892	 1.71515032297725E-02 
893	 1.71454239265504E-02 
894	 1.71235074298958E-02 
895	 1.69734520368248E-02 
896	 1.66117020505289E-02 
897	 1.60360149131049E-02 
898	 1.62846164861323E-02 
899	 1.65252114695908E-02 
900	 1.59520624405813E-02 
901	 1.62927896940995E-02 
902	 1.64958747719245E-02 
903	 1.62846014657203E-02 
904	 1.58420162848092E-02 
905	 1.60062031032938E-02 
906	 0.015588924525013 
907	 1.49005913666398E-02 
908	 1.52645601050721E-02 
909	 1.60203107050008E-02 
910	 1.59217145593081E-02 
911	 1.51048945131947E-02 
912	 1.48663335076366E-02 
913	 1.44576561391291E-02 
914	 1.39029947996164E-02 
915	 1.35505330268575E-02 
916	 1.38484714343489E-02 
917	 1.37549267550569E-02 
918	 1.35282817887748E-02 
919	 0.01340645496939 
920	 1.33361552266026E-02 
921	 1.33339784661359E-02 
922	 1.36307624626813E-02 
923	 0.014118401572419 
924	 1.38899497631688E-02 
925	 1.37122462829807E-02 
926	 1.32806185600066E-02 
927	 1.24212305729682E-02 
928	 1.28790564176788E-02 
929	 1.23187367924917E-02 
930	 1.15300246205081E-02 
931	 1.27213614077931E-02 
932	 1.15687989410926E-02 
933	 1.01151463991745E-02 
934	 1.07212983847509E-02 
935	 1.34610762386114E-02 
936	 1.34562749697072E-02 
937	 1.24120829693406E-02 
938	 1.09798175376797E-02 
939	 1.03187599985952E-02 
940	 1.62407808557301E-02 
941	 1.51099638458852E-02 
942	 8.76964933861475E-03 
943	 6.37936973028046E-03 
944	 6.85714829288521E-03 
945	 1.24768716321701E-02 
946	 1.70914275944201E-02 
947	 0.012900537717483 
948	 8.76515775824656E-03 
949	 7.65916016497773E-03 
950	 9.56135466025567E-03 
951	 1.21131846253172E-02 
952	 1.03482342121379E-02 
953	 9.6182130167828E-03 
954	 9.84991003345622E-03 
955	 8.01311009697736E-03 
956	 1.06221949587627E-02 
957	 1.06528143980719E-02 
958	 6.99777334273718E-03 
959	 3.9915959361727E-03 
960	 8.37720392118695E-03 
961	 1.09756432913666E-02 
962	 9.45663121820817E-03 
963	 7.70176442188818E-03 
964	 9.54146298466828E-03 
965	 1.10510364388073E-02 
966	 1.05409134791991E-02 
967	 8.74860948547836E-03 
968	 7.95409059201571E-03 
969	 8.25956298852822E-03 
970	 8.60804655090727E-03 
971	 7.66033710927349E-03 
972	 8.48005113829326E-03 
973	 9.5756905823734E-03 
974	 9.34386641086274E-03 
975	 7.39491002796603E-03 
976	 9.25097517864602E-03 
977	 9.4845161360118E-03 
978	 7.68478265945452E-03 
979	 8.31293212476835E-03 
980	 9.84305817548242E-03 
981	 9.98193822473527E-03 
982	 9.13870072664217E-03 
983	 9.52625225439763E-03 
984	 9.57809144149046E-03 
985	 9.2716605547603E-03 
986	 9.16514201622383E-03 
987	 9.79882857586686E-03 
988	 9.14557025724637E-03 
989	 9.30999812724889E-03 
990	 1.01768904429871E-02 
991	 9.8942262875475E-03 
992	 8.75111740907117E-03 
993	 8.6021469474933E-03 
994	 8.62859384683207E-03 
995	 6.95406721558704E-03 
996	 7.53461708565145E-03 
997	 9.58245766236324E-03 
998	 1.00837231026566E-02 
999	 6.90514939138649E-03 
1000	 8.27682563699687E-03 
1001	 8.90787947821618E-03 
1002	 9.10177258605869E-03 
1003	 9.12738164244115E-03 
1004	 8.97078334424438E-03 
1005	 8.8840241188789E-03 
1006	 8.69397939519277E-03 
1007	 8.55853632796072E-03 
1008	 8.60909360209797E-03 
1009	 8.6693999623215E-03 
1010	 9.14660347184203E-03 
1011	 9.3691852929959E-03 
1012	 9.18706020890696E-03 
1013	 9.25681846667389E-03 
1014	 9.2149392011489E-03 
1015	 8.84501520866867E-03 
1016	 8.81544793120386E-03 
1017	 9.00221288352772E-03 
1018	 9.13938037324116E-03 
1019	 9.35274974514606E-03 
1020	 9.63648391263681E-03 
1021	 1.01222535971376E-02 
1022	 1.03640266250094E-02 
1023	 0.010518785850114 
1024	 1.02383802689076E-02 
1025	 9.62320454429572E-03 
1026	 9.28076834093757E-03 
1027	 9.14649373382465E-03 
1028	 9.25426228196872E-03 
1029	 9.27401679301527E-03 
1030	 9.32445490620271E-03 
1031	 9.4716195871389E-03 
1032	 9.68670838028596E-03 
1033	 9.82722624476857E-03 
1034	 1.02745788346061E-02 
1035	 1.03840874482848E-02 
1036	 1.01419172884677E-02 
1037	 0.010028819640735 
1038	 9.78341146102842E-03 
1039	 9.59409731558993E-03 
1040	 9.59097318742774E-03 
1041	 9.76491237752843E-03 
1042	 9.86516254390983E-03 
1043	 1.00806362428352E-02 
1044	 1.01203205218617E-02 
1045	 1.01484711178065E-02 
1046	 1.00679360391323E-02 
1047	 9.80953383459581E-03 
1048	 9.72119508609283E-03 
1049	 9.41046620540668E-03 
1050	 9.51061191205432E-03 
1051	 1.00996842563521E-02 
1052	 1.03490155956862E-02 
1053	 1.07098420025909E-02 
1054	 1.09639599382905E-02 
1055	 1.10238995466941E-02 
1056	 1.09997687642762E-02 
1057	 1.09156215655779E-02 
1058	 1.08438048753649E-02 
1059	 1.06669800034963E-02 
1060	 1.01549767449396E-02 
1061	 1.01169944651576E-02 
1062	 1.04134608637577E-02 
1063	 1.03696976879366E-02 
1064	 1.03490345232073E-02 
1065	 1.03474429458137E-02 
1066	 9.95939275818525E-03 
1067	 9.99378102558236E-03 
1068	 1.06421403618586E-02 
1069	 1.07702378231568E-02 
1070	 1.06484754416038E-02 
1071	 1.07211236994357E-02 
1072	 0.010840114805766 
1073	 0.010551362978501 
1074	 1.05227431622143E-02 
1075	 0.010785871664304 
1076	 1.07248750603404E-02 
1077	 1.03294238507918E-02 
1078	 1.03015413696021E-02 
1079	 1.04467714193071E-02 
1080	 1.04488642999088E-02 
1081	 1.06248241983228E-02 
1082	 1.05771989978073E-02 
1083	 1.01440333601671E-02 
1084	 1.00828839367215E-02 
1085	 1.01546913234221E-02 
1086	 1.02139954773291E-02 
1087	 1.05856679969218E-02 
1088	 1.06961159182107E-02 
1089	 0.010594113844011 
1090	 1.06155245387999E-02 
1091	 1.04079039820446E-02 
1092	 1.00327901244797E-02 
1093	 9.7800788184413E-03 
1094	 9.23748216133878E-03 
1095	 9.12611208005135E-03 
1096	 9.33200482829494E-03 
1097	 9.47723356800785E-03 
1098	 0.010060051417993 
1099	 1.01627244936973E-02 
1100	 9.73496686382754E-03 
1101	 9.73241873807617E-03 
1102	 1.00573881682869E-02 
1103	 9.92958395791491E-03 
1104	 9.70297226749225E-03 
1105	 9.57031881408744E-03 
1106	 9.13871837723277E-03 
1107	 8.54036674554138E-03 
1108	 9.21509620823253E-03 
1109	 1.01658683386543E-02 
1110	 1.04068746189332E-02 
1111	 1.06090383543572E-02 
1112	 0.010415289724262 
1113	 8.8383100566192E-03 
1114	 8.24860749478478E-03 
1115	 7.79319047339959E-03 
1116	 7.68984835226866E-03 
1117	 9.57882965735837E-03 
1118	 9.45984030389996E-03 
1119	 6.67458825502151E-03 
1120	 6.01216300934313E-03 
1121	 3.8939397984771E-03 
1122	 4.82348744627837E-03 
1123	 0.010554822485379 
1124	 1.17778842457532E-02 
1125	 1.21781906232677E-02 
1126	 1.40600526780695E-02 
1127	 9.61949541697123E-03 
1128	 9.29548610102834E-03 
1129	 1.01218403883761E-02 
1130	 9.77148891045234E-03 
1131	 8.50711363189468E-03 
1132	 9.8668295444707E-03 
1133	 9.83852981785474E-03 
1134	 7.9369860699608E-03 
1135	 7.64251421572309E-03 
1136	 7.89027660814968E-03 
1137	 0.008225387749545 
1138	 9.28434305883418E-03 
1139	 8.60593316030581E-03 
1140	 7.87942601093835E-03 
1141	 9.64173786149027E-03 
1142	 9.8009695335115E-03 
1143	 8.01512456772826E-03 
1144	 8.43782713721873E-03 
1145	 8.25929648066318E-03 
1146	 7.32898700930979E-03 
1147	 8.79477009202714E-03 
1148	 9.45046736682361E-03 
1149	 7.78127345216178E-03 
1150	 7.10180322097849E-03 
1151	 6.29460777123917E-03 
1152	 6.45156487045949E-03 
1153	 6.70353732395773E-03 
1154	 7.39893609807741E-03 
1155	 8.93483714876268E-03 
1156	 9.24535186498706E-03 
1157	 8.44761426766272E-03 
1158	 8.36576669755294E-03 
1159	 8.24911655549459E-03 
1160	 7.7722592892669E-03 
1161	 7.98276539050792E-03 
1162	 8.35248065210336E-03 
1163	 7.97585324005263E-03 
1164	 7.51598912757082E-03 
1165	 7.74982160462753E-03 
1166	 8.04493056790385E-03 
1167	 8.28670870572423E-03 
1168	 8.46952671915993E-03 
1169	 8.01901839901574E-03 
1170	 7.46737018502305E-03 
1171	 7.35905631549486E-03 
1172	 7.53432793972775E-03 
1173	 7.53361309293503E-03 
1174	 7.70662317506685E-03 
1175	 7.92179543682981E-03 
1176	 7.83572823588958E-03 
1177	 7.79690764560267E-03 
1178	 7.92538343675706E-03 
1179	 7.76831255705783E-03 
1180	 7.69637285638454E-03 
1181	 7.50306640265642E-03 
1182	 7.20505201301251E-03 
1183	 7.41990207718935E-03 
1184	 7.64940187782226E-03 
1185	 7.71728983674447E-03 
1186	 7.9555724115505E-03 
1187	 8.00368051909587E-03 
1188	 7.6716943850714E-03 
1189	 7.43878896857187E-03 
1190	 7.40513398249153E-03 
1191	 7.24988399726076E-03 
1192	 7.22904541471017E-03 
1193	 7.30450825129601E-03 
1194	 7.53887016332372E-03 
1195	 7.65141314145513E-03 
1196	 7.71455608521015E-03 
1197	 7.77542443197606E-03 
1198	 7.71574830177923E-03 
1199	 7.47476945053671E-03 
1200	 7.2878742408431E-03 
1201	 7.32146185428827E-03 
1202	 7.26758900919511E-03 
1203	 7.20728317612781E-03 
1204	 7.29113487701425E-03 
1205	 7.16046776763798E-03 
1206	 7.18617278186115E-03 
1207	 7.3089951689843E-03 
1208	 7.23189626103296E-03 
1209	 7.33608728894243E-03 
1210	 7.3028162538564E-03 
1211	 7.14863203392305E-03 
1212	 7.18742803703064E-03 
1213	 7.14908032870741E-03 
1214	 7.09940800970269E-03 
1215	 6.95526329354819E-03 
1216	 7.02143287720478E-03 
1217	 7.10853074743454E-03 
1218	 7.03801655930093E-03 
1219	 6.97713785177143E-03 
1220	 6.87890056250199E-03 
1221	 6.80503849470699E-03 
1222	 6.74784510497711E-03 
1223	 6.69438532827759E-03 
1224	 6.78185251223916E-03 
1225	 6.89775495457478E-03 
1226	 6.98728891185001E-03 
1227	 7.08961393551156E-03 
1228	 7.19027077291553E-03 
1229	 7.0843926010167E-03 
1230	 6.91372562098058E-03 
1231	 7.0838164264207E-03 
1232	 7.22247754935898E-03 
1233	 7.11073297398394E-03 
1234	 7.18029722259157E-03 
1235	 7.21990825242801E-03 
1236	 7.03687926889238E-03 
1237	 6.95478812381363E-03 
1238	 6.95230077743726E-03 
1239	 7.21138225063923E-03 
1240	 7.11198504436823E-03 
1241	 7.11412153540558E-03 
1242	 7.20291067802878E-03 
1243	 7.03866034316704E-03 
1244	 7.15665430359235E-03 
1245	 7.2370802007954E-03 
1246	 7.11221620495877E-03 
1247	 7.22085666861894E-03 
1248	 7.13625026360158E-03 
1249	 6.97013885029241E-03 
1250	 7.11528566132821E-03 
1251	 7.20326264498607E-03 
1252	 7.01928369556005E-03 
1253	 6.7868112263169E-03 
1254	 6.83156994265284E-03 
1255	 6.95769599328604E-03 
1256	 6.98295379563148E-03 
1257	 7.18290759448977E-03 
1258	 7.24079015409031E-03 
1259	 7.0154492493434E-03 
1260	 6.90029184207769E-03 
1261	 6.87938724770732E-03 
1262	 6.9170807487108E-03 
1263	 7.02145052056851E-03 
1264	 7.05370657783445E-03 
1265	 6.98614375084162E-03 
1266	 6.75406574728512E-03 
1267	 6.95139036726758E-03 
1268	 7.17625712984943E-03 
1269	 6.92282816886053E-03 
1270	 6.77239786506116E-03 
1271	 6.63918519542695E-03 
1272	 6.4336398350139E-03 
1273	 6.6321952311818E-03 
1274	 6.9655849483785E-03 
1275	 6.85151824476759E-03 
1276	 6.42538759087622E-03 
1277	 6.25510644665045E-03 
1278	 6.31914959390282E-03 
1279	 6.32515391961698E-03 
1280	 6.43093106978108E-03 
1281	 6.56647397918472E-03 
1282	 6.7661645237867E-03 
1283	 6.80344469335968E-03 
1284	 6.88126518870578E-03 
1285	 6.93142574119614E-03 
1286	 6.7538904728436E-03 
1287	 6.7521235176118E-03 
1288	 6.98258932216386E-03 
1289	 7.02795759603121E-03 
1290	 7.00712625310105E-03 
1291	 6.98132433588488E-03 
1292	 6.87223560239418E-03 
1293	 6.64173462131256E-03 
1294	 6.58145741392911E-03 
1295	 6.69349331141162E-03 
1296	 6.79081714329119E-03 
1297	 6.72237601973114E-03 
1298	 6.66276333014572E-03 
1299	 6.51215559331909E-03 
1300	 6.5374143110498E-03 
1301	 6.85221307257699E-03 
1302	 6.87679414750609E-03 
1303	 6.97123648430483E-03 
1304	 6.99076315072211E-03 
1305	 6.60136517473372E-03 
1306	 6.5161407644254E-03 
1307	 6.48038893794094E-03 
1308	 6.43848427616591E-03 
1309	 6.57478279989025E-03 
1310	 6.6820206405136E-03 
1311	 6.70750011364439E-03 
1312	 6.71986425115951E-03 
1313	 6.75172988691277E-03 
1314	 6.81445713747973E-03 
1315	 7.05721021288593E-03 
1316	 6.96036139389595E-03 
1317	 6.52471017049052E-03 
1318	 6.50721561341277E-03 
1319	 6.37051790665547E-03 
1320	 6.23197589279616E-03 
1321	 6.45929519383128E-03 
1322	 6.79154451472356E-03 
1323	 6.52375383535785E-03 
1324	 0.005923571898061 
1325	 5.86340911105456E-03 
1326	 6.15524097858882E-03 
1327	 6.29204317663128E-03 
1328	 7.21848149901352E-03 
1329	 7.70514130553054E-03 
1330	 7.26664328071101E-03 
1331	 7.40365163104737E-03 
1332	 7.58695216360043E-03 
1333	 7.04892346440273E-03 
1334	 5.96978120940954E-03 
1335	 5.58474301326777E-03 
1336	 5.03043445208859E-03 
1337	 4.96806874848178E-03 
1338	 5.96690270158835E-03 
1339	 6.42453008027712E-03 
1340	 6.8827702409169E-03 
1341	 6.69562531707883E-03 
1342	 5.75263895589612E-03 
1343	 5.47177716846041E-03 
1344	 4.55290571192335E-03 
1345	 4.50335216738437E-03 
1346	 7.03975099740498E-03 
1347	 7.62260757589508E-03 
1348	 6.78059829892175E-03 
1349	 6.98308891551074E-03 
1350	 4.40555093112778E-03 
1351	 1.97949025557801E-03 
1352	 3.49721167653654E-03 
1353	 2.92335343966922E-03 
1354	-5.23616231921115E-03 
1355	-1.03058887478281E-02 
1356	-8.26176231173723E-03 
1357	 5.49134610266859E-03 
1358	 3.39100044262447E-03 
1359	-1.48374884894624E-02 
1360	-3.33177507637551E-02 
1361	-1.30373495414762E-02 
1362	 1.04682740235587E-02 
1363	-2.19568615141921E-02 
1364	 7.39547815473185E-02 
1365	 0.132121383514426 
1366	-4.34508944803371E-02 
1367	 0.144336097738192 
1368	 0.168916328402401 
1369	-9.39887455006108E-03 
1370	-3.70478296747069E-02 
1371	 8.17039156427378E-02 
1372	 5.83781422446185E-02 
1373	-4.41948229586508E-02 
1374	-0.111510953848445 
1375	-0.328126517128891 
1376	-0.228301939761392 
1377	 0.255500730689816 
1378	 0.319799278677066 
1379	 0.35473223680396 
1380	 0.371369710684064 
1381	-5.47778321062575E-02 
1382	-0.259702666276887 
1383	-0.331456853565681 
1384	-0.296634317031444 
1385	-4.75829559296363E-02 
1386	 1.24048669599638E-02 
1387	 0.118329982014111 
1388	 0.121184942318278 
1389	-0.232449938929004 
1390	-0.94852149008724 
1391	-2.01919855200849 
1392	-2.66455318896907 
1393	-0.589248619277547 
1394	-0.363014092897592 
1395	-0.205409473598547 
1396	-8.82967142056744E-02 
1397	-0.111889014024473 
1398	 0.027281078123964 
1399	 2.93169099497286E-02 
1400	 7.07063844890913E-02 
1401	 7.55276610985656E-02 
1402	-0.253632349696139 
1403	-0.715338635049446 
1404	-0.791447906032331 
1405	-0.692694563194945 
1406	-0.490443126524415 
1407	-0.516096144535694 
1408	-0.474066201680687 
1409	-0.372695035601742 
1410	-0.461118802505134 
1411	-0.304956702428088 
1412	 9.81769239278721E-02 
1413	 3.36369354829726E-02 
1414	-0.271085940571325 
1415	-0.227175730999418 
1416	-0.196959233987663 
1417	-0.208858937237679 
1418	-6.75701822777107E-02 
1419	-4.24314991159754E-02 
1420	-0.184349354476195 
1421	-0.154710230899486 
1422	-1.87948296090285E-02 
1423	-0.016333937222812 
1424	-6.16049394748779E-02 
1425	-5.19102082525383E-02 
1426	-4.01495953623771E-02 
1427	-4.54852016412903E-02 
1428	-0.035389025673256 
1429	-2.41900024198432E-02 
1430	-2.30247272211961E-02 
1431	-3.26845117709617E-02 
1432	-5.31418859456438E-02 
1433	-4.39672337764338E-02 
1434	-3.03777331336567E-02 
1435	-0.023101568673488 
1436	 5.14701566591342E-03 
1437	 0.040415328627424 
1438	 0.040655919746155 
1439	 2.42761084223016E-02 
1440	 6.64810238996649E-03 
1441	-7.46684215706463E-03 
1442	-9.25685618116173E-03 
1443	-7.15477962525821E-04 
1444	 5.45328824248007E-03 
1445	 5.86217237259042E-03 
1446	 3.85491358880116E-03 
1447	-5.24270079392659E-04 
1448	-5.05521694443793E-04 
1449	 5.19175493332011E-03 
1450	 5.95868934653397E-03 
1451	 1.2192832699153E-03 
1452	-2.71812374537024E-03 
1453	-3.31339795666982E-03 
1454	-1.24690813598058E-03 
1455	 4.04931906920542E-03 
1456	 4.79672587493647E-03 
1457	 5.56975716286451E-03 
1458	 5.97469630766869E-03 
1459	 4.8004736685574E-03 
1460	 3.92067549175694E-03 
1461	 3.12648201602924E-03 
1462	 3.09442777705787E-03 
1463	 2.66089280383456E-03 
1464	 2.01759799131992E-03 
1465	 2.28108033787391E-03 
1466	 2.85664440540007E-03 
1467	 3.23175812859063E-03 
1468	 2.80419940117788E-03 
1469	 2.33337571301377E-03 
1470	 2.9402739745112E-03 
1471	 3.54438551787025E-03 
1472	 2.57148643876738E-03 
1473	 1.1128269378925E-03 
1474	 2.76454502323338E-03 
1475	 5.28037482634355E-03 
1476	 4.61693853684388E-03 
1477	 4.3503386147627E-03 
1478	 5.22725700177052E-03 
1479	 4.30638134101273E-03 
1480	 3.52084249038957E-03 
1481	 4.94409819562506E-03 
1482	 5.09895938609268E-03 
1483	 3.47748673685687E-03 
1484	 2.5210388984409E-03 
1485	 1.85670788460362E-03 
1486	 1.95045279965404E-03 
1487	 1.90240617102019E-03 
1488	 2.0982377806467E-03 
1489	 3.4182490477669E-03 
1490	 3.66251202713702E-03 
1491	 2.96524962665181E-03 
1492	 3.01473784160512E-03 
1493	 3.34977311079005E-03 
1494	 3.39077676450599E-03 
1495	 3.4734578333984E-03 
1496	 3.65211010182007E-03 
1497	 3.78408125950454E-03 
1498	 3.76253282751155E-03 
1499	 3.81612945239098E-03 
1500	 3.80367179155756E-03 
1501	 3.56977705933043E-03 
1502	 3.51196184415137E-03 
1503	 3.57477338795398E-03 
1504	 3.53976709463657E-03 
1505	 3.42861568645586E-03 
1506	 3.44497707731346E-03 
1507	 3.41254064219705E-03 
1508	 3.53943234859834E-03 
1509	 3.86956785139179E-03 
1510	 3.9189828584308E-03 
1511	 3.85540709113748E-03 
1512	 3.93216989535417E-03 
1513	 3.79275559564847E-03 
1514	 3.6420698128251E-03 
1515	 3.76218191718984E-03 
1516	 3.99291292733671E-03 
1517	 4.05711663465779E-03 
1518	 3.90571474921494E-03 
1519	 3.81671968295443E-03 
1520	 3.87616626199923E-03 
1521	 4.07146693598298E-03 
1522	 4.25845739565567E-03 
1523	 4.25797388358877E-03 
1524	 4.12610559764853E-03 
1525	 4.02026353490817E-03 
1526	 4.04195666635599E-03 
1527	 4.02590708370952E-03 
1528	 4.01337977013953E-03 
1529	 4.14701019412782E-03 
1530	 4.23480867608571E-03 
1531	 4.1741104455325E-03 
1532	 4.0559804157236E-03 
1533	 3.95473310798416E-03 
1534	 3.90080247409615E-03 
1535	 3.9918392537218E-03 
1536	 4.10738185698608E-03 
1537	 3.87896433060207E-03 
1538	 3.60894929930525E-03 
1539	 3.60196185884404E-03 
1540	 3.71050363722528E-03 
1541	 4.08623772887784E-03 
1542	 4.3062582833528E-03 
1543	 4.17137617962453E-03 
1544	 4.12958194505321E-03 
1545	 4.1156362006201E-03 
1546	 4.07940088834713E-03 
1547	 4.1621803333331E-03 
1548	 4.21240184503774E-03 
1549	 4.12191445166258E-03 
1550	 4.10391759737631E-03 
1551	 4.23732596903096E-03 
1552	 4.24918145093432E-03 
1553	 4.07473245424035E-03 
1554	 4.05773114720533E-03 
1555	 4.19818769367669E-03 
1556	 4.26785642569224E-03 
1557	 4.3199696057767E-03 
1558	 4.38026878831497E-03 
1559	 4.32279189684158E-03 
1560	 4.2356659594385E-03 
1561	 4.10449261797196E-03 
1562	 3.96865154646812E-03 
1563	 4.0865860040738E-03 
1564	 4.22036284991933E-03 
1565	 4.28808177950206E-03 
1566	 4.42048730447318E-03 
1567	 4.32775522327414E-03 
1568	 4.18443783756536E-03 
1569	 4.34558464147322E-03 
1570	 4.43620548293372E-03 
1571	 4.41630762367181E-03 
1572	 4.37958360856846E-03 
1573	 4.20910388329292E-03 
1574	 4.14920646652365E-03 
1575	 3.98476148871183E-03 
1576	 3.81417609158117E-03 
1577	 3.93869172913204E-03 
1578	 4.02235069510238E-03 
1579	 4.21727634539754E-03 
1580	 4.41479059757075E-03 
1581	 4.38681764739052E-03 
1582	 4.59256981983274E-03 
1583	 4.75667095811442E-03 
1584	 4.53579737572867E-03 
1585	 4.44635896782985E-03 
1586	 4.49948182795025E-03 
1587	 4.5360627153411E-03 
1588	 4.64088296339704E-03 
1589	 4.49654145365044E-03 
1590	 4.3520108891519E-03 
1591	 4.46267171366378E-03 
1592	 4.55894315397806E-03 
1593	 4.75778131320725E-03 
1594	 4.79917375865992E-03 
1595	 4.58939201644236E-03 
1596	 4.52752119641764E-03 
1597	 4.57981985426733E-03 
1598	 4.61898541268915E-03 
1599	 4.53621598770123E-03 
1600	 4.37558306326561E-03 
1601	 4.27847873885982E-03 
1602	 4.31068023738884E-03 
1603	 4.23289482417507E-03 
1604	 4.14156385186696E-03 
1605	 4.50019985432222E-03 
1606	 4.57218237893638E-03 
1607	 4.31178420796604E-03 
1608	 4.39693872599705E-03 
1609	 4.37118702778734E-03 
1610	 4.2988245772728E-03 
1611	 4.35862473988785E-03 
1612	 4.38654512225005E-03 
1613	 4.4491872806574E-03 
1614	 4.30333276746056E-03 
1615	 4.19566429626396E-03 
1616	 4.32536621490613E-03 
1617	 4.29579995485034E-03 
1618	 4.30788447496036E-03 
1619	 4.4406699322338E-03 
1620	 4.32465702813581E-03 
1621	 4.15375745682509E-03 
1622	 4.2954069901275E-03 
1623	 4.38490713470596E-03 
1624	 4.38373848087432E-03 
1625	 4.59199074490246E-03 
1626	 4.56451075838695E-03 
1627	 4.37343653879402E-03 
1628	 4.42245659794327E-03 
1629	 4.44311946579785E-03 
1630	 4.30050044164208E-03 
1631	 4.30164466983306E-03 
1632	 4.41938904053055E-03 
1633	 4.36142102985893E-03 
1634	 4.28076402548441E-03 
1635	 4.41274925502752E-03 
1636	 4.42968461219391E-03 
1637	 4.21766856187513E-03 
1638	 4.06845629028221E-03 
1639	 4.03386079537316E-03 
1640	 4.21034237449897E-03 
1641	 4.51552767671906E-03 
1642	 4.60272069327233E-03 
1643	 4.36141204984981E-03 
1644	 4.22395731666401E-03 
1645	 4.3289383848583E-03 
1646	 0.004295645806373 
1647	 4.35210364460633E-03 
1648	 4.4320554271215E-03 
1649	 4.43804915728949E-03 
1650	 4.62272030714315E-03 
1651	 4.60143756715053E-03 
1652	 4.45299801114385E-03 
1653	 4.54384943000383E-03 
1654	 4.53277453510165E-03 
1655	 4.67389025560232E-03 
1656	 4.66354776046145E-03 
1657	 4.32964473659617E-03 
1658	 4.24892641564006E-03 
1659	 4.26268265821594E-03 
1660	 4.21177260793896E-03 
1661	 4.38307227256182E-03 
1662	 4.46832321391703E-03 
1663	 4.38001176881064E-03 
1664	 4.36394331478552E-03 
1665	 0.004288469264424 
1666	 4.26984868118447E-03 
1667	 4.35833003213328E-03 
1668	 4.52079481124297E-03 
1669	 4.65300635352699E-03 
1670	 4.40824061065778E-03 
1671	 4.27322790919591E-03 
1672	 4.33224152421762E-03 
1673	 4.31513818600674E-03 
1674	 4.45980293046017E-03 
1675	 4.73490311829753E-03 
1676	 4.90851101277087E-03 
1677	 4.62011671895433E-03 
1678	 4.39171810954448E-03 
1679	 4.72383063537033E-03 
1680	 4.83865494112779E-03 
1681	 4.66466636835465E-03 
1682	 4.55403708939284E-03 
1683	 4.39019162520293E-03 
1684	 4.14903267628586E-03 
1685	 4.13777362976075E-03 
1686	 0.004644066493679 
1687	 4.72352742947131E-03 
1688	 4.46351862132297E-03 
1689	 4.7307589139675E-03 
1690	 4.71881761179112E-03 
1691	 4.48613216650719E-03 
1692	 4.72668789190745E-03 
1693	 4.96178882071409E-03 
1694	 4.77687633915317E-03 
1695	 4.48451772505281E-03 
1696	 4.50947059598363E-03 
1697	 4.74369829848038E-03 
1698	 4.61872412350107E-03 
1699	 4.38937932140355E-03 
1700	 4.32137766255598E-03 
1701	 3.87504835465113E-03 
1702	 3.89284800841416E-03 
1703	 4.66125865863188E-03 
1704	 4.81720152119503E-03 
1705	 4.4331261494486E-03 
1706	 4.30803801012457E-03 
1707	 4.36439693887197E-03 
1708	 4.45145319681315E-03 
1709	 4.85788482505781E-03 
1710	 5.31406977208781E-03 
1711	 5.21287301580653E-03 
1712	 4.90141691278445E-03 
1713	 4.82025092889566E-03 
1714	 4.70134484465524E-03 
1715	 4.56754615544489E-03 
1716	 4.70013920600397E-03 
1717	 4.39918797427787E-03 
1718	 4.25855362593236E-03 
1719	 4.73093817297281E-03 
1720	 4.90878851538113E-03 
1721	 5.21240403176217E-03 
1722	 5.60532180482572E-03 
1723	 4.97361108543205E-03 
1724	 4.00578811504026E-03 
1725	 3.43734091639591E-03 
1726	 3.41345201722512E-03 
1727	 3.98654012641984E-03 
1728	 4.54520005190197E-03 
1729	 4.51298399484748E-03 
1730	 4.10839634422497E-03 
1731	 4.04741117683942E-03 
1732	 4.34422865574318E-03 
1733	 4.77684006316566E-03 
1734	 4.87438248977213E-03 
1735	 4.44790624131212E-03 
1736	 4.13353867993173E-03 
1737	 0.003882272837169 
1738	 3.96502811749483E-03 
1739	 4.51550730710569E-03 
1740	 4.64329906503533E-03 
1741	 4.57969712673754E-03 
1742	 4.94376831871758E-03 
1743	 4.90483414158724E-03 
1744	 4.36505223387914E-03 
1745	 4.54697633631474E-03 
1746	 4.48776011370355E-03 
1747	 4.2442967802541E-03 
1748	 4.11691666805849E-03 
1749	 4.1418622976585E-03 
1750	 4.20476774618706E-03 
1751	 4.29035435471069E-03 
1752	 4.74369376973097E-03 
1753	 4.81715708363088E-03 
1754	 4.29876453652648E-03 
1755	 4.19978899156541E-03 
1756	 4.14658566285572E-03 
1757	 4.13860119554538E-03 
1758	 4.26309549169268E-03 
1759	 3.48510179988297E-03 
1760	 3.56575372141388E-03 
1761	 3.92173930695464E-03 
1762	 3.83627877067201E-03 
1763	 4.01811861202946E-03 
1764	 3.93325323637193E-03 
1765	 3.91052318163075E-03 
1766	 4.41223398240353E-03 
1767	 4.60950779660925E-03 
1768	 4.39820356800801E-03 
1769	 3.77794536021407E-03 
1770	 3.10160941204082E-03 
1771	 3.79776162331971E-03 
1772	 4.88928821351632E-03 
1773	 4.78121031706721E-03 
1774	 4.43023086960243E-03 
1775	 1.99190055244769E-03 
1776	 1.98661205301481E-03 
1777	 5.68913364961555E-03 
1778	 6.15902459498722E-03 
1779	 6.1524068486728E-03 
1780	 6.28067646560004E-03 
1781	 2.97832919611615E-03 
1782	 1.76453535770486E-03 
1783	 2.39077366102177E-03 
1784	 2.45502628016886E-03 
1785	 2.47641763965784E-03 
1786	 4.1104870158836E-03 
1787	 9.23214271787527E-03 
1788	 9.74843983040124E-03 
1789	 7.7066381174988E-03 
1790	 3.96278867691596E-03 
1791	-1.2994996801568E-03 
1792	-2.32725805438135E-03 
1793	 6.81750556601528E-04 
1794	 1.69684244966131E-03 
1795	 3.30341780933866E-03 
1796	 2.26057818090038E-03 
1797	-2.99610305538023E-03 
1798	-8.38326031035475E-03 
1799	-0.013968136077189 
1800	-1.09071193232978E-02 
1801	-8.74446706042405E-03 
1802	 1.09616816253395E-02 
1803	 1.53551948327988E-02 
1804	-7.26850301989057E-03 
1805	-1.90138925127535E-02 
1806	-5.93792536734104E-02 
1807	-6.78199817588077E-02 
1808	-7.1858324855662E-03 
1809	 2.92328559761011E-02 
1810	 0.113260790885262 
1811	 0.19459907924732 
1812	 0.2313900201883 
1813	 0.184623068546166 
1814	-1.74216410786539E-02 
1815	-6.19465606236846E-02 
1816	-0.146098620272122 
1817	-0.4549622115288 
1818	-0.383910981787178 
1819	-0.807757960149632 
1820	-1.30655392565723 
1821	-0.361946387541206 
1822	-0.116765472965349 
1823	 1.05245111338398 
1824	 1.9404151206747 
1825	-0.63942803067676 
1826	-1.60383155261227 
1827	-0.298607712351155 
1828	-0.206086095184281 
1829	 0.331042819453266 
1830	 0.193582078530981 
1831	 0.591949232202339 
1832	-0.257993588949964 
1833	-1.23608887374397 
1834	-2.0146367840721 
1835	-4.21699459091007 
1836	-3.27153605257643 
1837	-0.773801971216441 
1838	-0.391906190141085 
1839	-0.323810716558149 
1840	 0.284493163586841 
1841	 0.153377371303671 
1842	-0.90318145325705 
1843	-0.710356820219132 
1844	 0.73698378629707 
1845	 0.783305875974867 
1846	 0.602763465157575 
1847	 0.520619075469863 
1848	-0.156443246991654 
1849	-1.01617039336078 
1850	-1.43374575644449 
1851	-0.179868226862364 
1852	-0.382859722929964 
1853	-0.561892663679248 
1854	-0.419534201726447 
1855	 0.549638261401606 
1856	 2.66221316506986 
1857	-3.2155646931104 
1858	-3.19612978179797 
1859	-3.80453378401089 
1860	-0.65059223279712 
1861	-0.834979937689589 
1862	 4.88117674004992 
1863	 1.40427711744541 
1864	 0.984710187202534 
1865	 0.58446822824288 
1866	 0.217539059044024 
1867	 0.336671574788443 
1868	-9.0134270326526 
1869	-2.89894845407108 
1870	-0.727254768426991 
1871	 0.817006384790749 
1872	 2.79020050017493 
1873	 6.5529142056347 
1874	 2.03068992539811 
1875	 2.20076368858212 
1876	 3.9466421168033 
1877	 5.49262469887296 
1878	-16.7170947946725 
1879	-0.550977676262462 
1880	-0.487088488012296 
1881	-0.153556957503244 
1882	 0.787235723998853 
1883	 5.91867691319518E-02 
1884	 0.540044815804335 
1885	-0.845033173944987 
1886	-2.72141565107364 
1887	 0.488626605386138 
1888	 0.977477200189612 
1889	 1.25015678673631 
1890	-0.962793207120781 
1891	-0.258901193379293 
1892	-0.522158008645857 
1893	 0.214128734950909 
1894	 0.630949973174162 
1895	 3.32012129617601 
1896	 1.73556689252376 
1897	 1.19314187338521 
1898	 1.9412461695474 
1899	-0.312814540280468 
1900	-0.351614036462764 
1901	-0.730980953900143 
1902	-0.922781708010229 
1903	-1.47796763975733 
1904	-7.74501889674899 
1905	 2.13722875719666 
1906	 0.60285772690908 
1907	 6.98917562686011E-02 
1908	-0.417525328316908 
1909	-0.914380263223469 
1910	 1.74173323317846 
1911	 0.548578882275616 
1912	 1.38817850601807 
1913	 1.15588481534812 
1914	-24.8660490425204 
1915	 4.17640209294714 
1916	-1.18956872120017E-02 
1917	 0.346296212618143 
1918	-1.29426804419789 
1919	-1.52990723913227 
1920	-38.3770045977003 
1921	-1.8606489859272 
1922	-3.17132204246992E-02 
1923	 0.250427677438816 
1924	 0.257379229273409 
1925	 0.373649795866619 
1926	 0.292467410883962 
1927	-0.175292477645194 
1928	-0.408727716809234 
1929	-0.471487814397817 
1930	-0.293949114770429 
1931	-0.276983608609908 
1932	-0.401602570645978 
1933	-0.337314002984928 
1934	-0.281571981890664 
1935	-8.08693518349554E-02 
1936	 0.15288408224984 
1937	 0.374903588547209 
1938	 0.365932201428582 
1939	 0.307073613686988 
1940	 0.118684574294472 
1941	 0.117444794425719 
1942	 0.129573120536133 
1943	 0.04649283731414 
1944	 4.00210969938671E-02 
1945	 2.65552549303575E-02 
1946	-2.82431882010009E-02 
1947	-0.045943055049559 
1948	-6.13815811421814E-02 
1949	-4.59393804840398E-02 
1950	-4.93103427051024E-02 
1951	-7.08020050050617E-02 
1952	-5.79660520070462E-02 
1953	-5.43083433782631E-03 
1954	-2.72328789689808E-02 
1955	-5.30278274928952E-02 
1956	-1.77562078959415E-02 
1957	-1.24800398062266E-02 
1958	-7.13739773219784E-03 
1959	 2.1427907798908E-03 
1960	 4.09924638602216E-03 
1961	 5.1091338591801E-03 
1962	 1.10061467442167E-03 
1963	 4.85772723971817E-03 
1964	 8.63714116185533E-03 
1965	 7.06592475319062E-03 
1966	 7.09314669246745E-03 
1967	 8.49823783039371E-03 
1968	 8.55177254799956E-03 
1969	 6.60701867528034E-03 
1970	 5.21731195656536E-03 
1971	 4.56683387723061E-03 
1972	 4.09384793290214E-03 
1973	 3.48116673404272E-03 
1974	 4.05046001665476E-03 
1975	 5.64518803587234E-03 
1976	 5.11431360316089E-03 
1977	 4.28280636035492E-03 
1978	 4.13397246226419E-03 
1979	 3.5218325832424E-03 
1980	 2.08728293814522E-03 
1981	 2.01638107916292E-03 
1982	 1.80267153440427E-03 
1983	 8.55581416461852E-04 
1984	 1.40903092809583E-03 
1985	 1.46817388487151E-03 
1986	 1.41578988410613E-03 
1987	 2.90555911974715E-03 
1988	 3.9797383695442E-03 
1989	 3.69164386485612E-03 
1990	 3.28239420038945E-03 
1991	 2.44728139542375E-03 
1992	 8.02679969827979E-04 
1993	 3.28027955832691E-04 
1994	 1.20499368635117E-04 
1995	 7.19516843258064E-04 
1996	 9.58796334203568E-04 
1997	 2.24425974469352E-03 
1998	 3.44930325039317E-03 
1999	 4.64862304161856E-03 
2000	 6.02014155455094E-03 
2001	 6.38126261763497E-03 
2002	 7.13168387183097E-03 
2003	 8.31892317966986E-03 
2004	 8.91980114258495E-03 
2005	 7.86619122536219E-03 
2006	 4.44372805752458E-03 
2007	 1.73680959492481E-03 
2008	 1.49100226032698E-03 
2009	 6.20644996268437E-04 
2010	 1.63422946037904E-03 
2011	 1.36924214272533E-03 
2012	 1.1627801106722E-04 
2013	-7.62490915596414E-04 
2014	-1.89336205979226E-03 
2015	-6.19218575188721E-04 
2016	 1.30826908106982E-03 
2017	 2.30108898027543E-03 
2018	 3.54938967192364E-03 
2019	 4.30861779861975E-03 
2020	 3.83282193521711E-03 
2021	 1.47210308434046E-03 
2022	 7.66323835382208E-04 
2023	 2.10372455629028E-03 
2024	 2.41481524333103E-03 
2025	 3.39989034282923E-03 
2026	 3.84999092545117E-03 
2027	 4.34488096961112E-03 
2028	 3.12592680322703E-03 
2029	 2.18812093678625E-03 
2030	 1.92021737285848E-03 
2031	 1.35752012535737E-03 
2032	 5.81544497468811E-04 
2033	 7.575174339659E-04 
2034	 1.66018919625811E-03 
2035	 2.06140467623124E-03 
2036	 2.10889606834852E-03 
2037	 2.58680982883029E-03 
2038	 2.87824328717873E-03 
2039	 2.72695915034792E-03 
2040	 2.39727442149673E-03 
2041	 2.11509962506329E-03 
2042	 1.11913454772063E-03 
2043	 7.95081932821618E-04 
2044	 7.20767424126516E-04 
2045	 1.04811639623314E-03 
2046	 1.31720208107151E-03 
2047	 1.19731473866664E-03 
2048	 6.30815731733465E-04 
2049	 2.94650962115758E-04 
2050	 7.87216158781013E-04 
2051	 8.30193701165541E-04 
2052	 9.39851204784282E-04 
2053	 1.20233941149873E-03 
2054	 7.50824067016608E-04 
2055	 2.57592960243575E-04 
2056	 1.97921712333867E-04 
2057	 3.22845971469705E-04 
2058	 5.58752619942946E-04 
2059	 1.11547088111301E-03 
2060	 1.94980956046239E-03 
2061	 3.61763705993715E-03 
2062	 3.55085614873657E-03 
2063	 2.46283081075146E-03 
2064	 1.71282115176898E-03 
2065	 3.09942134352515E-04 
2066	-8.99151376274333E-06 
2067	 1.34894791048403E-03 
2068	 2.52987937983237E-03 
2069	 3.29018427581653E-03 
2070	 4.1811642538637E-03 
2071	 4.73651296847903E-03 
2072	 4.22447489388646E-03 
2073	 3.8747615688242E-03 
2074	 2.76029006677439E-03 
2075	 2.3993888471162E-03 
2076	 2.31212352120891E-03 
2077	 2.40858296022545E-03 
2078	 3.23154485129181E-03 
2079	 3.2123475750598E-03 
2080	 2.59098843103066E-03 
2081	 2.57581883159655E-03 
2082	 3.01192401825236E-03 
2083	 1.75288960053206E-03 
2084	 1.07110147485898E-03 
2085	 1.69795098200889E-03 
2086	 1.74583669233253E-03 
2087	 1.55415619401628E-03 
2088	 2.27558503526069E-03 
2089	 2.67906038814028E-03 
2090	 2.58226405480262E-03 
2091	 2.80387566771411E-03 
2092	 2.93641761840287E-03 
2093	 3.0418251688269E-03 
2094	 3.06466099135364E-03 
2095	 3.04003994997662E-03 
2096	 3.10459176874989E-03 
2097	 3.21944013480732E-03 
2098	 3.22202931504644E-03 
2099	 3.26065880560057E-03 
2100	 0.002943321750784 
2101	 2.88171115680387E-03 
2102	 2.18726992993421E-03 
2103	 1.62623255027815E-03 
2104	 2.37215843108317E-03 
2105	 2.61989868064648E-03 
2106	 2.89180519503013E-03 
2107	 3.44985544444279E-03 
2108	 3.38062490293682E-03 
2109	 3.37388205311122E-03 
2110	 3.19766634861206E-03 
2111	 3.0785498230949E-03 
2112	 3.11357634029778E-03 
2113	 2.80394793228583E-03 
2114	 2.51859342583439E-03 
2115	 2.24989214447272E-03 
2116	 1.34121495922177E-03 
2117	 9.74644251534562E-04 
2118	 8.73628573287922E-04 
2119	 1.24260252053945E-03 
2120	 2.09973791667377E-03 
2121	 3.0282270519809E-03 
2122	 3.50402867149123E-03 
2123	 0.003185487849718 
2124	 2.13144328112784E-03 
2125	 1.22506632954888E-03 
2126	 1.50328473581248E-03 
2127	 2.6743405935394E-03 
2128	 3.33594554882377E-03 
2129	 3.28090913403167E-03 
2130	 3.43261676623366E-03 
2131	 3.36013699858137E-03 
2132	 2.74158819335235E-03 
2133	 2.72378092790189E-03 
2134	 2.88034314043895E-03 
2135	 2.71271262676958E-03 
2136	 2.63446979267942E-03 
2137	 3.29486934487083E-03 
2138	 3.43189325273999E-03 
2139	 3.09449317104687E-03 
2140	 2.9738200639112E-03 
2141	 2.84141258108921E-03 
2142	 2.82468770013942E-03 
2143	 3.00935433382585E-03 
2144	 2.59533147948363E-03 
2145	 2.20943841080783E-03 
2146	 2.46811990268729E-03 
2147	 3.32426969642742E-03 
2148	 3.29548393676339E-03 
2149	 2.54434883688246E-03 
2150	 2.52145075053314E-03 
2151	 1.91873916591882E-03 
2152	 1.94180079088048E-03 
2153	 2.90229665311632E-03 
2154	 3.39822749413809E-03 
2155	 3.33612356355482E-03 
2156	 2.82205070423439E-03 
2157	 2.6530296324591E-03 
2158	 2.41739219272121E-03 
2159	 2.33909178825593E-03 
2160	 2.54796102399392E-03 
2161	 2.42821266614358E-03 
2162	 2.24257120027306E-03 
2163	 2.10874707534436E-03 
2164	 1.81124030490708E-03 
2165	 1.70382335593816E-03 
2166	 1.58182143646651E-03 
2167	 1.67166084363904E-03 
2168	 1.98507717757626E-03 
2169	 2.18981521638061E-03 
2170	 2.44650560705907E-03 
2171	 2.98212104930135E-03 
2172	 2.92576978651101E-03 
2173	 2.26250200683517E-03 
2174	 2.35194437174882E-03 
2175	 2.45968101405974E-03 
2176	 2.89291303468163E-03 
2177	 4.24592294410063E-03 
2178	 4.33792127573196E-03 
2179	 2.77703525790302E-03 
2180	 1.47505450706228E-03 
2181	 4.31579291343226E-04 
2182	-5.71451148565992E-04 
2183	 1.12705980093137E-04 
2184	 1.35177424967921E-03 
2185	 2.22230716713246E-03 
2186	 2.78943322187963E-03 
2187	 3.51205852435286E-03 
2188	 3.34626224362304E-03 
2189	 2.31809646591189E-03 
2190	 2.10081736899507E-03 
2191	 2.40439770826013E-03 
2192	 1.89255486975084E-03 
2193	-7.66286148632286E-05 
2194	-1.45321503836419E-04 
2195	 6.02849200853702E-04 
2196	 7.13384636930926E-04 
2197	 2.83710430461661E-03 
2198	 3.65130081102119E-03 
2199	 3.15057847999628E-03 
2200	 1.37724868176735E-03 
2201	 1.67448290089996E-03 
2202	 1.65522380268441E-03 
2203	 6.18420832840702E-04 
2204	 1.29275455263424E-03 
2205	 2.64955155979585E-03 
2206	 3.78477973506473E-03 
2207	 3.83027443149614E-03 
2208	 4.44128535670043E-03 
2209	 4.5743880221407E-03 
2210	 3.04103555886899E-03 
2211	 2.95508665285082E-03 
2212	 3.61330303675706E-03 
2213	 2.90146642890015E-03 
2214	 2.83125572620108E-03 
2215	 4.23815906305246E-03 
2216	 4.35603106000124E-03 
2217	 3.63720866542935E-03 
2218	 2.29279190856581E-03 
2219	 1.82206557730491E-03 
2220	 4.23600711074471E-04 
2221	 4.77317302226377E-05 
2222	 1.39633748266388E-03 
2223	 1.92609254749157E-03 
2224	 1.51008749891356E-03 
2225	 1.77176300652087E-03 
2226	 3.29021906735701E-03 
2227	 3.43033416403742E-03 
2228	 2.18630127449568E-03 
2229	 2.42655774435423E-03 
2230	 2.81839616808673E-03 
2231	 3.26787379010733E-03 
2232	 5.35507952865578E-03 
2233	 6.05104361500304E-03 
2234	 5.6464511908029E-03 
2235	 5.44853366233247E-03 
2236	 5.78973899657281E-03 
2237	 5.33925838897999E-03 
2238	 3.73379994452896E-03 
2239	 2.89319465345347E-03 
2240	 1.97238827869496E-03 
2241	 1.03123291031056E-03 
2242	 1.82077724238969E-03 
2243	 2.08085988199184E-03 
2244	 9.79103764899164E-04 
2245	 9.68711922936256E-04 
2246	 2.41615027200683E-03 
2247	 3.16504079686709E-03 
2248	 3.62122977998616E-03 
2249	 4.55957055425749E-03 
2250	 3.5253184320144E-03 
2251	 2.86896401477646E-03 
2252	 4.88388369973185E-03 
2253	 5.36533402371886E-03 
2254	 5.56783581661646E-03 
2255	 7.52558993442673E-03 
2256	 6.30691318966278E-03 
2257	 4.19384898011278E-03 
2258	 4.50951874595421E-03 
2259	 3.00801781160751E-03 
2260	 2.11608671451323E-03 
2261	 1.75833307329932E-03 
2262	 2.17245186420617E-03 
2263	 3.46226437073621E-03 
2264	 3.08090361384323E-03 
2265	 2.43436648937266E-03 
2266	 2.55869469158874E-03 
2267	 1.22252619426101E-03 
2268	 9.81705881017681E-04 
2269	 2.70049174278165E-03 
2270	 2.51135973670162E-03 
2271	 6.8163776381434E-04 
2272	 7.61001183297165E-04 
2273	 2.69433123984019E-03 
2274	 3.02221201403061E-03 
2275	 1.50748722184274E-03 
2276	 2.09080748076176E-03 
2277	 4.41265869313363E-03 
2278	 3.71174058902374E-03 
2279	 3.50488287799762E-03 
2280	 3.22449346399068E-03 
2281	 5.67543872301646E-04 
2282	-3.40480970513297E-03 
2283	-2.63878660573198E-03 
2284	-2.08372597270965E-03 
2285	-4.15154514642084E-03 
2286	-2.56722524258406E-03 
2287	 1.16421444143009E-03 
2288	 1.67397185431322E-03 
2289	 2.27873142357442E-03 
2290	 2.12663800885338E-03 
2291	-6.47024653290937E-04 
2292	-2.34222606630768E-03 
2293	-1.52338577812703E-03 
2294	 6.38622997879211E-04 
2295	 2.5588814062823E-03 
2296	 3.41484389514839E-03 
2297	 5.12298366048119E-03 
2298	 6.78528503788846E-03 
2299	 4.47930073395276E-03 
2300	 4.09288537160886E-03 
2301	 7.53387651411417E-03 
2302	 6.43079519423868E-03 
2303	 1.96259635951561E-03 
2304	 1.7682185373777E-03 
2305	 2.89968270812153E-03 
2306	 4.15544441740946E-04 
2307	-1.55497693876965E-04 
2308	 7.15117691770994E-04 
2309	-2.31149567243827E-03 
2310	-2.39374423753058E-03 
2311	 2.73774529377101E-03 
2312	 3.17005486241822E-03 
2313	 3.36781861116066E-03 
2314	 5.97481483868796E-03 
2315	 5.06246019347451E-03 
2316	 4.23653190159125E-03 
2317	 1.05923977377895E-03 
2318	 3.13669421843141E-04 
2319	 1.07629278423275E-03 
2320	-2.24128088650381E-03 
2321	-9.26982671054669E-04 
2322	-2.50289588818512E-03 
2323	-5.85345057451433E-03 
2324	-1.91435313952886E-03 
2325	 2.53829875786636E-03 
2326	 2.66167493779072E-03 
2327	 2.55461003625013E-04 
2328	-1.52004221846389E-03 
2329	-4.73480469740604E-03 
2330	-6.90595541870032E-03 
2331	-1.98907932086263E-03 
2332	 4.18840662370422E-03 
2333	 2.11702619424378E-03 
2334	-1.09503273996272E-03 
2335	-1.55137244872929E-03 
2336	-3.73380083725572E-03 
2337	-2.31841406492553E-03 
2338	 3.6989625318127E-03 
2339	 5.77639533258296E-03 
2340	 1.57498294800446E-03 
2341	-6.75511932257364E-04 
2342	-1.60802657357549E-03 
2343	-3.76841893529222E-03 
2344	-5.52595189771933E-04 
2345	 2.3676819873082E-03 
2346	 1.41079545336861E-03 
2347	 6.89499822688166E-03 
2348	 9.42534773301372E-03 
2349	 6.99098044600324E-03 
2350	 1.06692904316724E-02 
2351	 7.90159200409507E-03 
2352	-4.44638220833086E-04 
2353	-4.3187101474288E-03 
2354	-1.10407831919526E-02 
2355	-0.012007912961649 
2356	 1.74060402084985E-04 
2357	 7.66590670068254E-03 
2358	 2.75033904031716E-03 
2359	-2.28236785166005E-04 
2360	-7.32133896433012E-03 
2361	-2.36097892797801E-02 
2362	-2.01912485122375E-02 
2363	-4.48619111195687E-03 
2364	-1.14146227121425E-03 
2365	 4.98357968647785E-03 
2366	 1.53877453612987E-02 
2367	 5.44431740989546E-03 
2368	-2.09378555824019E-03 
2369	 9.10656036080456E-03 
2370	 9.13707730366085E-03 
2371	 1.74033255655653E-02 
2372	 0.021088173003119 
2373	-4.11103256745364E-03 
2374	-1.09643344216412E-02 
2375	-6.67077005557525E-03 
2376	-1.29197292195206E-02 
2377	-1.13030637085051E-02 
2378	-9.32922002163694E-03 
2379	-2.48846912332235E-02 
2380	-2.65876920703883E-02 
2381	 7.59688631918242E-03 
2382	 1.84407520363878E-02 
2383	 3.00086991353867E-03 
2384	 0.013695940100208 
2385	 1.71915217261937E-02 
2386	 1.22872786242811E-02 
2387	 0.05194716329856 
2388	 5.64377084231525E-02 
2389	 0.021072615527369 
2390	 3.17391049420109E-02 
2391	 2.21185770742294E-02 
2392	-3.97885916959072E-03 
2393	 9.70327907976376E-03 
2394	 2.62893736505927E-02 
2395	 0.019724595465046 
2396	 0.012912931427533 
2397	 1.72771854655116E-02 
2398	-7.00316326336926E-03 
2399	-2.94637210179791E-02 
2400	 7.77606243674645E-03 
2401	 2.77458248046195E-02 
2402	 1.40742676162577E-02 
2403	 4.25110573389221E-03 
2404	-1.27144226862021E-02 
2405	-2.74425791447502E-03 
2406	-5.19109843873123E-04 
2407	 2.01799355915137E-02 
2408	 5.09014821060459E-02 
2409	 1.84426892820102E-02 
2410	 2.63547954851933E-02 
2411	 4.30436108028465E-02 
2412	 7.42196453559396E-02 
2413	 9.84527369683993E-02 
2414	 0.056068785313288 
2415	 0.114342621213259 
2416	 0.109950493502745 
2417	 0.035263668971817 
2418	 0.051047029952056 
2419	-7.80150713856578E-02 
2420	-0.140708807487117 
2421	-0.156479264057296 
2422	-0.214436098361367 
2423	-3.30881949944199E-02 
2424	 1.45998488628606E-02 
2425	 4.99896698033454E-02 
2426	 0.107785637138694 
2427	 0.075730682542485 
2428	 8.42063496370554E-02 
2429	 6.57182410272785E-02 
2430	 0.110917926226111 
2431	 0.175012123188116 
2432	 0.172005320304706 
2433	 0.245732250521845 
2434	 0.211839091727256 
2435	 0.136219951879774 
2436	 0.18303339508254 
2437	 0.108995413961017 
2438	 0.01915401145556 
2439	 1.92705939768919E-02 
2440	-0.11481624363052 
2441	-0.149773346747487 
2442	-7.15608265104078E-02 
2443	-0.169752237378865 
2444	-0.255810732782301 
2445	-0.166914735566999 
2446	-9.59872097687047E-02 
2447	 0.21333276586748 
2448	 0.282622922636944 
2449	 9.86973327009978E-02 
2450	 2.10447132750221E-02 
2451	-0.239573188414025 
2452	-0.64524429446837 
2453	-0.853444913302975 
2454	-1.12309942966719 
2455	-1.34077399473002 
2456	-1.14267063204948 
2457	-0.29371124027478 
2458	-0.235157876991139 
2459	-0.13682110390769 
2460	 0.303319654643816 
2461	-0.651254617940991 
2462	-0.646014463654681 
2463	-5.95458188222898E-02 
2464	-0.377345681555411 
2465	-0.246776158696842 
2466	-0.232947172049152 
2467	-0.389124816706032 
2468	 0.22060393704762 
2469	 1.47189366629755 
2470	 11.7953743342861 
2471	-9.92937969183874 
2472	-0.593422819321819 
2473	-2.6254250364961 
2474	-1.19895271555064 
2475	-0.992476863358146 
2476	-2.21257908682455 
2477	-0.423279525209539 
2478	-0.786522917575792 
2479	-1.07409853217009 
2480	-0.21207935476784 
2481	-3.20403294828088 
2482	 2.82432965048624 
2483	 2.80411218533884 
2484	-1.21166507861603 
2485	-1.13102830716741 
2486	-0.947127558365223 
2487	 9.64237437053819E-02 
2488	-0.134907189932674 
2489	-0.194348126135781 
2490	 0.147059829735272 
2491	 0.744423294045314 
2492	 0.522487846846117 
2493	 7.66699536839302E-03 
2494	-1.22414623849752 
2495	-3.29827841015528 
2496	 5.03397368589312 
2497	 7.91041224431924 
2498	 1.10642568893307 
2499	 4.67715257197704 
2500	 7.97785975024159 
