Wavelength	rt0629clean00007.asd
350	 4.48980146840442E-02 
351	 4.55085047803107E-02 
352	 4.54543749846968E-02 
353	 4.52952239249714E-02 
354	 4.52561228064035E-02 
355	 4.43200716582064E-02 
356	 4.46745176136645E-02 
357	 4.50228565907583E-02 
358	 4.39505718137795E-02 
359	 4.42917153983799E-02 
360	 4.49618797737274E-02 
361	 4.54118198881169E-02 
362	 4.55407806682506E-02 
363	 4.48069215431753E-02 
364	 4.45957084837404E-02 
365	 4.51459630851773E-02 
366	 4.46712544973453E-02 
367	 4.46998890945366E-02 
368	 4.51142707960115E-02 
369	 4.53895709862986E-02 
370	 4.51187971667889E-02 
371	 4.52878047733639E-02 
372	 4.57038963647655E-02 
373	 4.55641034801151E-02 
374	 4.53409138618067E-02 
375	 4.53860166181149E-02 
376	 4.56379595244173E-02 
377	 4.55200173382664E-02 
378	 4.61122174962599E-02 
379	 4.64787335856774E-02 
380	 4.59670484571239E-02 
381	 4.62902026612057E-02 
382	 4.61699390300069E-02 
383	 4.58688636574417E-02 
384	 4.62569053433222E-02 
385	 4.69509500280859E-02 
386	 4.70883687374025E-02 
387	 4.67338789347914E-02 
388	 4.69536747291942E-02 
389	 4.69788998338207E-02 
390	 4.69780301120344E-02 
391	 4.71954667032359E-02 
392	 4.76863835112291E-02 
393	 4.78049008057438E-02 
394	 4.77422960053973E-02 
395	 4.79037078828749E-02 
396	 4.79546222987829E-02 
397	 4.80540823338572E-02 
398	 4.81817276874713E-02 
399	 4.81572646983679E-02 
400	 4.80856152734146E-02 
401	 4.81200624117261E-02 
402	 4.82781647581456E-02 
403	 4.82660973564786E-02 
404	 4.83966592207679E-02 
405	 4.84968999152909E-02 
406	 4.83486326460485E-02 
407	 4.85437971253592E-02 
408	 4.87508725343942E-02 
409	 4.88128404461165E-02 
410	 4.88127139239996E-02 
411	 4.90533449173505E-02 
412	 4.93712947945528E-02 
413	 4.95784823290714E-02 
414	 4.96166209387167E-02 
415	 4.98177667988618E-02 
416	 4.99641049090721E-02 
417	 0.049772467461112 
418	 5.00318276731728E-02 
419	 5.01992850103042E-02 
420	 5.02294834699478E-02 
421	 5.06795340419388E-02 
422	 5.09788116552946E-02 
423	 5.11614081602311E-02 
424	 5.13309668790064E-02 
425	 5.13943532287903E-02 
426	 5.16198794640232E-02 
427	 0.051942435971612 
428	 5.21670180570502E-02 
429	 5.24792868585694E-02 
430	 5.27828272639994E-02 
431	 5.30329149786143E-02 
432	 5.32756651782656E-02 
433	 5.33847856636779E-02 
434	 5.36067453825114E-02 
435	 5.40764442348882E-02 
436	 5.43968825641432E-02 
437	 5.45828123810628E-02 
438	 5.47503788673173E-02 
439	 5.50534630298549E-02 
440	 5.54304475674837E-02 
441	 5.57208980733178E-02 
442	 5.58780722785058E-02 
443	 5.60268161105911E-02 
444	 5.62760374990031E-02 
445	 0.056583510712286 
446	 5.68573429586278E-02 
447	 5.70187335007763E-02 
448	 5.71436119094463E-02 
449	 5.73482144422224E-02 
450	 5.77294829464913E-02 
451	 5.77996546938443E-02 
452	 5.78898979016439E-02 
453	 0.058195060936895 
454	 5.83929711174899E-02 
455	 5.85606966057712E-02 
456	 5.87225809318527E-02 
457	 0.058874393214109 
458	 5.89060156937624E-02 
459	 5.90174126435743E-02 
460	 5.92323133805197E-02 
461	 5.93864063712814E-02 
462	 5.95221991382026E-02 
463	 5.96815147361619E-02 
464	 5.98485754336646E-02 
465	 5.98288757780985E-02 
466	 5.98856074064636E-02 
467	 6.00571826525904E-02 
468	 6.02468652323756E-02 
469	 6.02713847335875E-02 
470	 6.04488070982342E-02 
471	 6.07679228468182E-02 
472	 6.07266948173812E-02 
473	 6.08012733366309E-02 
474	 6.10078438384935E-02 
475	 6.12420228068291E-02 
476	 6.14343123113168E-02 
477	 6.15773557152538E-02 
478	 6.17142734475764E-02 
479	 6.19072615205597E-02 
480	 6.20037054612955E-02 
481	 6.21578913615504E-02 
482	 6.24355152553582E-02 
483	 6.26418549885832E-02 
484	 6.28947834434859E-02 
485	 6.31098136349802E-02 
486	 6.31992622689662E-02 
487	 6.34329879198979E-02 
488	 6.36897306202202E-02 
489	 0.063923941735433 
490	 6.41847233059808E-02 
491	 6.44596353404154E-02 
492	 6.47566224409084E-02 
493	 0.065047763854484 
494	 6.51780989572564E-02 
495	 6.54777668729761E-02 
496	 6.58926008321633E-02 
497	 6.61868954659558E-02 
498	 6.64154248169117E-02 
499	 6.67231181754475E-02 
500	 6.71307064445789E-02 
501	 6.74583532422611E-02 
502	 6.76951506589646E-02 
503	 6.79501212481443E-02 
504	 6.83138793755873E-02 
505	 6.86499485550573E-02 
506	 6.89147346987287E-02 
507	 6.91944570774137E-02 
508	 6.96512760755216E-02 
509	 7.00105449838036E-02 
510	 7.02973635682334E-02 
511	 7.05976409284145E-02 
512	 7.10329185467149E-02 
513	 0.071402242020012 
514	 7.17165508491802E-02 
515	 7.20856122175358E-02 
516	 7.26110235316284E-02 
517	 7.30597985599442E-02 
518	 7.33949716205097E-02 
519	 7.38546755284182E-02 
520	 7.42719246683706E-02 
521	 7.46674364571564E-02 
522	 7.50849343790406E-02 
523	 7.54825218235244E-02 
524	 7.59154096876371E-02 
525	 7.63639876868819E-02 
526	 7.67674242306817E-02 
527	 7.72344238175572E-02 
528	 7.76661264588356E-02 
529	 7.80416974074574E-02 
530	 7.85583506301819E-02 
531	 7.90612395758318E-02 
532	 7.95027289142949E-02 
533	 7.98858986403099E-02 
534	 8.02615923531781E-02 
535	 8.07405095848749E-02 
536	 8.12955247422256E-02 
537	 8.17445292341077E-02 
538	 8.21736633655386E-02 
539	 8.26854928935551E-02 
540	 8.32952797072271E-02 
541	 8.37213367281124E-02 
542	 0.084171033800611 
543	 8.46688325684525E-02 
544	 8.51288661350615E-02 
545	 8.55846252617027E-02 
546	 8.60528931209864E-02 
547	 8.65393470704632E-02 
548	 8.70338641470817E-02 
549	 8.75551876257002E-02 
550	 8.80611069576825E-02 
551	 8.85024632054715E-02 
552	 8.89029839379243E-02 
553	 8.93750677354376E-02 
554	 8.98948611065859E-02 
555	 9.02844649813402E-02 
556	 9.07930812687714E-02 
557	 9.13323009528556E-02 
558	 9.17772560095098E-02 
559	 9.21741097809796E-02 
560	 9.26174737623789E-02 
561	 9.30657266896213E-02 
562	 9.34083533325741E-02 
563	 9.37548995185113E-02 
564	 9.41792786094727E-02 
565	 9.46414897788542E-02 
566	 9.48820606221306E-02 
567	 9.52384657086728E-02 
568	 9.56618048178315E-02 
569	 0.09598375210761 
570	 9.62519560418702E-02 
571	 9.65072276762084E-02 
572	 0.096764691818709 
573	 9.70089003852647E-02 
574	 9.71929096025926E-02 
575	 9.74224869840761E-02 
576	 9.77475204890511E-02 
577	 9.79402451566394E-02 
578	 9.80607380937713E-02 
579	 0.098174954969288 
580	 9.83393696480174E-02 
581	 9.84547644913549E-02 
582	 0.098539319037357 
583	 9.86096638429811E-02 
584	 9.86419877874908E-02 
585	 9.88092018236555E-02 
586	 9.89266541200688E-02 
587	 9.87784869802538E-02 
588	 9.88319237688249E-02 
589	 9.89085382311248E-02 
590	 9.89051365174918E-02 
591	 9.88584293686409E-02 
592	 9.87922709147264E-02 
593	 9.86436381811307E-02 
594	 9.83896147282863E-02 
595	 0.09818039195799 
596	 9.78863282261265E-02 
597	 9.75600683382319E-02 
598	 9.73271989303482E-02 
599	 9.69315530734072E-02 
600	 9.65925131195398E-02 
601	 9.64290709613134E-02 
602	 9.62969401483621E-02 
603	 9.61547964213029E-02 
604	 9.60419538206796E-02 
605	 9.60123671386653E-02 
606	 9.60154479791936E-02 
607	 9.60544773916875E-02 
608	 9.60906842372695E-02 
609	 9.60470090714381E-02 
610	 9.60582730115293E-02 
611	 9.61195061480301E-02 
612	 9.61665705659803E-02 
613	 9.60415139344913E-02 
614	 9.60054215220224E-02 
615	 9.60638495488167E-02 
616	 9.60735151541454E-02 
617	 0.095992134560882 
618	 9.60116611215873E-02 
619	 9.61552608716104E-02 
620	 0.09614055441444 
621	 9.60503386817983E-02 
622	 9.60368096324696E-02 
623	 9.61922326778247E-02 
624	 9.61760827124969E-02 
625	 9.62075632791352E-02 
626	 9.62811941805892E-02 
627	 9.61742545392767E-02 
628	 9.61452527296452E-02 
629	 9.61375722204357E-02 
630	 9.61016384705876E-02 
631	 9.61931688844806E-02 
632	 9.61377536580019E-02 
633	 9.60480599456364E-02 
634	 9.61581419166807E-02 
635	 9.60753620635827E-02 
636	 9.59587359808065E-02 
637	 9.59393543540097E-02 
638	 9.60376267346868E-02 
639	 9.59941897982141E-02 
640	 9.58897188933093E-02 
641	 9.58652342294506E-02 
642	 9.58441312021084E-02 
643	 9.58014796587392E-02 
644	 9.57543559964881E-02 
645	 9.57498304114171E-02 
646	 9.57279326340076E-02 
647	 9.56585916028642E-02 
648	 9.55261880307737E-02 
649	 9.53127334217579E-02 
650	 9.51777660730569E-02 
651	 9.50866433499548E-02 
652	 9.49310381975634E-02 
653	 9.46447357747714E-02 
654	 9.44292870721192E-02 
655	 9.42630353204247E-02 
656	 9.38270259944075E-02 
657	 9.35347114313318E-02 
658	 9.32704398853381E-02 
659	 0.092897865135048 
660	 9.25648902827589E-02 
661	 9.24391409138644E-02 
662	 9.24286096496646E-02 
663	 9.22926249303134E-02 
664	 9.21173787969161E-02 
665	 9.19391600049256E-02 
666	 9.17887507767921E-02 
667	 9.16991130475089E-02 
668	 9.16411842276944E-02 
669	 9.16281497830032E-02 
670	 9.16483710891659E-02 
671	 0.091486962868104 
672	 9.14586019827794E-02 
673	 9.16051229400258E-02 
674	 9.16923750781293E-02 
675	 9.16363965375623E-02 
676	 9.16319663010653E-02 
677	 9.17882734525282E-02 
678	 0.091861188973346 
679	 0.091908804906499 
680	 9.19874896952501E-02 
681	 9.21328499115012E-02 
682	 9.21912162168772E-02 
683	 9.23013694767449E-02 
684	 9.24915468678138E-02 
685	 9.26253257811116E-02 
686	 9.28397486662343E-02 
687	 9.29752939367525E-02 
688	 0.092925383368915 
689	 9.30635892692208E-02 
690	 9.31883133527991E-02 
691	 9.32415277937004E-02 
692	 9.32412106272269E-02 
693	 9.31128033268721E-02 
694	 9.29643108666051E-02 
695	 9.28161513984536E-02 
696	 9.24718654426465E-02 
697	 9.23410282815098E-02 
698	 9.22650013700213E-02 
699	 0.09199579328488 
700	 9.17695350686599E-02 
701	 9.14571736975625E-02 
702	 9.10332375494946E-02 
703	 9.05539823879466E-02 
704	 9.00497455751366E-02 
705	 0.089455031153939 
706	 8.88048560084894E-02 
707	 8.83614872216692E-02 
708	 8.77045146086926E-02 
709	 8.68944492863717E-02 
710	 8.61325023415185E-02 
711	 8.53056886517333E-02 
712	 8.43535333377273E-02 
713	 8.33459240024478E-02 
714	 8.24609148921145E-02 
715	 8.17583031570077E-02 
716	 8.08890434441229E-02 
717	 7.95657697408232E-02 
718	 7.82353865698502E-02 
719	 7.66771337002018E-02 
720	 7.52956275422821E-02 
721	 7.41924413767121E-02 
722	 7.31238993993686E-02 
723	 7.18348239544687E-02 
724	 7.03890839185121E-02 
725	 6.88862259022423E-02 
726	 0.067417603630222 
727	 6.58058664760037E-02 
728	 6.39312149974448E-02 
729	 0.061941169988738 
730	 5.99572732014769E-02 
731	 5.80908558346543E-02 
732	 5.63289058189641E-02 
733	 5.49121500535723E-02 
734	 5.37339482647555E-02 
735	 5.27159659447824E-02 
736	 0.051809227617378 
737	 5.10667253968963E-02 
738	 5.04850870140467E-02 
739	 5.00454981261327E-02 
740	 4.96807000970233E-02 
741	 4.94802799538855E-02 
742	 4.93795748087784E-02 
743	 4.92412424295031E-02 
744	 4.90751425653496E-02 
745	 4.89653383474309E-02 
746	 0.048895306714839 
747	 0.048703293741157 
748	 0.048701343523989 
749	 4.87227190810537E-02 
750	 4.85964967215587E-02 
751	 4.85550354933468E-02 
752	 4.85565546891717E-02 
753	 4.85226111994221E-02 
754	 4.83917452391302E-02 
755	 4.84252749111387E-02 
756	 4.83997263271707E-02 
757	 4.82930788491331E-02 
758	 4.84905416717041E-02 
759	 4.88522345831397E-02 
760	 4.90151408832919E-02 
761	 4.86836868337286E-02 
762	 0.048684418768333 
763	 4.87621149125705E-02 
764	 4.87644688978464E-02 
765	 4.86643026777365E-02 
766	 4.86887598482096E-02 
767	 4.87555402081761E-02 
768	 4.88187205640607E-02 
769	 4.88666183343274E-02 
770	 4.89572881236012E-02 
771	 4.90714633062099E-02 
772	 4.91795005267357E-02 
773	 4.92563027854119E-02 
774	 4.94641931211248E-02 
775	 4.97004928039608E-02 
776	 4.98041623000931E-02 
777	 5.00316615076633E-02 
778	 5.02148124010477E-02 
779	 5.03695027341533E-02 
780	 0.050706485855408 
781	 5.09554823724046E-02 
782	 5.12387018851644E-02 
783	 5.16096233116343E-02 
784	 5.17980644237326E-02 
785	 5.20229935121384E-02 
786	 5.23783421075714E-02 
787	 5.28492911608562E-02 
788	 5.31268868549955E-02 
789	 5.34555229880235E-02 
790	 5.38435081789806E-02 
791	 5.41188805176227E-02 
792	 5.45325711913207E-02 
793	 5.49873130480338E-02 
794	 5.53418980662135E-02 
795	 5.54328348472717E-02 
796	 5.59158105733212E-02 
797	 5.63709208078761E-02 
798	 5.64250845154793E-02 
799	 5.68901746829135E-02 
800	 5.73634358437545E-02 
801	 5.76418794602514E-02 
802	 5.76981236142957E-02 
803	 5.77424002856099E-02 
804	 5.78685564307752E-02 
805	 5.80689063285056E-02 
806	 5.82390350732101E-02 
807	 5.81129758315135E-02 
808	 5.80606195546736E-02 
809	 5.82823559116851E-02 
810	 5.81913328238164E-02 
811	 5.79933023877568E-02 
812	 5.78342060389874E-02 
813	 5.78162889843976E-02 
814	 5.77602501905022E-02 
815	 5.74370093461286E-02 
816	 0.056918930679469 
817	 5.64746174077889E-02 
818	 5.56659462311768E-02 
819	 5.50550030152185E-02 
820	 5.47001367841511E-02 
821	 5.40196445937608E-02 
822	 5.30078238596904E-02 
823	 5.18834709919136E-02 
824	 5.08248353177182E-02 
825	 4.95815335940749E-02 
826	 4.83378216956789E-02 
827	 4.69937790744288E-02 
828	 4.54594879348658E-02 
829	 4.37324277013463E-02 
830	 4.25134586575208E-02 
831	 4.16497209204831E-02 
832	 4.04758839382928E-02 
833	 3.95968832487925E-02 
834	 3.90002506058206E-02 
835	 3.85412184274869E-02 
836	 3.80329011858381E-02 
837	 0.0376163789678 
838	 0.037336979281224 
839	 3.71252540766538E-02 
840	 3.66695257274758E-02 
841	 3.62691394454341E-02 
842	 3.59790439215845E-02 
843	 3.57428355215278E-02 
844	 3.54513736092477E-02 
845	 0.035178232513231 
846	 3.48992100685467E-02 
847	 3.45471969547048E-02 
848	 3.43549869819259E-02 
849	 3.41127014208789E-02 
850	 3.38018953388211E-02 
851	 3.36890190114059E-02 
852	 3.35072742440899E-02 
853	 3.32510853230346E-02 
854	 3.29480568761791E-02 
855	 3.25466511756692E-02 
856	 3.24603295930825E-02 
857	 3.24314154835126E-02 
858	 3.21666901424812E-02 
859	 3.19522353742213E-02 
860	 0.031755086720429 
861	 3.15861919990624E-02 
862	 3.14469804703118E-02 
863	 3.11820753257798E-02 
864	 3.09424012592049E-02 
865	 3.07545547532021E-02 
866	 3.05442016728145E-02 
867	 3.07032777292427E-02 
868	 3.04815883816435E-02 
869	 2.97954747216743E-02 
870	 2.95720767902921E-02 
871	 2.94806154512029E-02 
872	 2.93140754246952E-02 
873	 2.90243923414326E-02 
874	 2.88991143577844E-02 
875	 2.84071707753506E-02 
876	 2.80662459246521E-02 
877	 0.028271477994125 
878	 2.77781920000519E-02 
879	 2.73670297901393E-02 
880	 2.71689722810295E-02 
881	 2.69836123211759E-02 
882	 2.67531270003343E-02 
883	 2.64708857795797E-02 
884	 2.62606321301058E-02 
885	 2.62783320472457E-02 
886	 2.61895020484812E-02 
887	 0.025751853505167 
888	 0.025231690311709 
889	 2.53651455750984E-02 
890	 2.54661576215737E-02 
891	 2.52683667769645E-02 
892	 2.47844410787205E-02 
893	 2.44223348625536E-02 
894	 2.42409353232366E-02 
895	 2.42083444851543E-02 
896	 2.42132737279986E-02 
897	 2.40697165276962E-02 
898	 2.42483858552279E-02 
899	 2.40662797366234E-02 
900	 2.30899159902612E-02 
901	 2.29404278898461E-02 
902	 2.29989155071715E-02 
903	 2.28238070345816E-02 
904	 2.22843486944565E-02 
905	 2.23468967812952E-02 
906	 2.21279745518731E-02 
907	 2.16722893522814E-02 
908	 0.021634357398974 
909	 2.12109827218157E-02 
910	 2.09595755982461E-02 
911	 2.09315391216426E-02 
912	 2.06511251233766E-02 
913	 2.03148302878371E-02 
914	 2.01845287486987E-02 
915	 2.00333801013375E-02 
916	 1.92533567509431E-02 
917	 1.92838421561203E-02 
918	 1.93966356258215E-02 
919	 1.91133596018492E-02 
920	 1.87072619605692E-02 
921	 1.91141011970387E-02 
922	 1.88471836137689E-02 
923	 1.74255115515056E-02 
924	 1.74926837404468E-02 
925	 1.79246376764804E-02 
926	 1.80617809103099E-02 
927	 1.75044693156724E-02 
928	 1.65581705078918E-02 
929	 1.67369072577686E-02 
930	 1.87419696810444E-02 
931	 2.14791074403434E-02 
932	 1.80886621078117E-02 
933	 1.42558112809782E-02 
934	 1.32724788106906E-02 
935	 1.42692180048279E-02 
936	 1.42620597744913E-02 
937	 1.76690490206232E-02 
938	 1.85985163260966E-02 
939	 1.32475639305542E-02 
940	 1.63822266914921E-02 
941	 1.45699930502804E-02 
942	 0.012048487703017 
943	 1.84537065945951E-02 
944	 1.64350336025564E-02 
945	 1.57680828961164E-02 
946	 1.69836575311905E-02 
947	 1.50439298872287E-02 
948	 0.014513916449219 
949	 0.013225550151184 
950	 1.08682060151187E-02 
951	 9.06914860814603E-03 
952	 1.24354598596215E-02 
953	 1.44474041896353E-02 
954	 1.31780126674043E-02 
955	 1.10956525666872E-02 
956	 1.24705122173442E-02 
957	 1.30266704708815E-02 
958	 1.17068221873269E-02 
959	 1.03973961766823E-02 
960	 1.10787349293048E-02 
961	 1.21754148517079E-02 
962	 1.27776450018953E-02 
963	 1.27574905216513E-02 
964	 1.14062113432908E-02 
965	 1.09775252480165E-02 
966	 1.17780828294867E-02 
967	 0.012443032394441 
968	 1.07176421794709E-02 
969	 1.06718174036538E-02 
970	 1.21723264581597E-02 
971	 1.16725448485991E-02 
972	 1.20576691505348E-02 
973	 1.15909269311763E-02 
974	 0.010985787132664 
975	 1.29109600855608E-02 
976	 1.19505014365649E-02 
977	 1.13107164324766E-02 
978	 1.20525334632163E-02 
979	 1.24395106266813E-02 
980	 1.16102440277928E-02 
981	 1.21815190777584E-02 
982	 1.33139679212933E-02 
983	 1.20129610858098E-02 
984	 1.23426649674634E-02 
985	 1.25598792198034E-02 
986	 1.18280445696629E-02 
987	 1.08425885828195E-02 
988	 0.012348697741517 
989	 1.30603041651545E-02 
990	 1.18560529618222E-02 
991	 1.02746630071182E-02 
992	 1.22643974291673E-02 
993	 0.012870303908363 
994	 1.21924727929108E-02 
995	 1.33906627116776E-02 
996	 1.19465812573723E-02 
997	 1.07638463440512E-02 
998	 1.11766212530768E-02 
999	 1.27731834635079E-02 
1000	 1.43155031306783E-02 
1001	 1.76730994151646E-02 
1002	 0.017602860808545 
1003	 1.75651285676681E-02 
1004	 1.74357299617325E-02 
1005	 1.73296574478903E-02 
1006	 1.72291704688784E-02 
1007	 1.72645851947637E-02 
1008	 1.71458185448982E-02 
1009	 1.67014933771767E-02 
1010	 1.62929399395346E-02 
1011	 1.58303210315019E-02 
1012	 1.55884893487063E-02 
1013	 1.56850721752567E-02 
1014	 1.55273137032863E-02 
1015	 1.54072506698114E-02 
1016	 0.015412607787002 
1017	 1.53146691512904E-02 
1018	 1.52027016482064E-02 
1019	 1.54317390704079E-02 
1020	 1.52395620626445E-02 
1021	 1.46333872538322E-02 
1022	 1.42374370672433E-02 
1023	 1.38753792834925E-02 
1024	 1.38124749058449E-02 
1025	 1.43418550807625E-02 
1026	 1.50029291159632E-02 
1027	 1.51654578791807E-02 
1028	 0.015211173221144 
1029	 1.53197671462425E-02 
1030	 1.50865020078661E-02 
1031	 1.50426901259961E-02 
1032	 1.53241984548112E-02 
1033	 1.53272735307216E-02 
1034	 0.01497760475141 
1035	 1.49351223936789E-02 
1036	 0.014839431398565 
1037	 1.49818086326639E-02 
1038	 1.53156225975479E-02 
1039	 1.57617072896894E-02 
1040	 0.016380496737549 
1041	 1.75563940902756E-02 
1042	 1.83023735279871E-02 
1043	 1.94843916552082E-02 
1044	 1.95962761707995E-02 
1045	 1.90628686293963E-02 
1046	 0.018664145108595 
1047	 1.73896768811592E-02 
1048	 1.70138892037925E-02 
1049	 1.70993626745248E-02 
1050	 1.70340508145403E-02 
1051	 1.72112077759748E-02 
1052	 1.74055595760924E-02 
1053	 1.76410701653032E-02 
1054	 1.78358190955263E-02 
1055	 1.83833864055625E-02 
1056	 1.85121260920636E-02 
1057	 1.84168731845312E-02 
1058	 1.79986080325412E-02 
1059	 1.77379679624968E-02 
1060	 1.71981891325499E-02 
1061	 1.69588063282887E-02 
1062	 1.69490059543713E-02 
1063	 1.67750120579925E-02 
1064	 1.64755210294377E-02 
1065	 1.64307161565381E-02 
1066	 1.64257179899505E-02 
1067	 1.65221196500563E-02 
1068	 0.016996343079062 
1069	 1.71939470035571E-02 
1070	 1.71888316579563E-02 
1071	 1.73295431468379E-02 
1072	 1.73186881221909E-02 
1073	 1.75754594366209E-02 
1074	 1.78156152933086E-02 
1075	 0.018128220335741 
1076	 1.85683949394102E-02 
1077	 1.91908249570749E-02 
1078	 1.95694793865084E-02 
1079	 2.03880303145336E-02 
1080	 2.02438005735445E-02 
1081	 1.94505022659701E-02 
1082	 1.87191569694984E-02 
1083	 1.70247190733015E-02 
1084	 1.62319223597363E-02 
1085	 1.58894982479891E-02 
1086	 1.55171199121928E-02 
1087	 1.55790389959138E-02 
1088	 1.54794406185745E-02 
1089	 1.54188063921436E-02 
1090	 1.51085731272142E-02 
1091	 1.49540095000264E-02 
1092	 1.47494730248626E-02 
1093	 1.49006551406985E-02 
1094	 1.54431393627818E-02 
1095	 1.54229079422365E-02 
1096	 1.54243478003651E-02 
1097	 1.52778068606136E-02 
1098	 1.42251135530983E-02 
1099	 1.40946401057801E-02 
1100	 1.49002063293011E-02 
1101	 1.50171042119225E-02 
1102	 1.50570960912284E-02 
1103	 1.52351575767952E-02 
1104	 1.52787099422803E-02 
1105	 1.48935836077658E-02 
1106	 1.51347532055083E-02 
1107	 1.56728113621291E-02 
1108	 1.50880940546373E-02 
1109	 0.014685285898503 
1110	 0.014752275485993 
1111	 1.48321991884184E-02 
1112	 1.49841554719001E-02 
1113	 1.65650899744265E-02 
1114	 1.66227091190927E-02 
1115	 1.45459702743955E-02 
1116	 1.44370687703703E-02 
1117	 0.014904017989058 
1118	 1.50587566174241E-02 
1119	 1.85619002622957E-02 
1120	 1.95764249372656E-02 
1121	 1.65340039289173E-02 
1122	 1.36352462648257E-02 
1123	 1.25865515799706E-02 
1124	 1.17925411735815E-02 
1125	 0.016844682774997 
1126	 2.05446189193348E-02 
1127	 1.79190929367334E-02 
1128	 1.88461308989769E-02 
1129	 1.80081468285313E-02 
1130	 1.33322469897207E-02 
1131	 1.34207090726867E-02 
1132	 1.69291466032677E-02 
1133	 1.67651994721503E-02 
1134	 1.61575908465838E-02 
1135	 1.63050160540646E-02 
1136	 1.50255504350928E-02 
1137	 1.43332431898931E-02 
1138	 0.014114445448387 
1139	 1.51953711175973E-02 
1140	 1.45202058636779E-02 
1141	 1.48986930841921E-02 
1142	 1.66542009546084E-02 
1143	 0.015756817041354 
1144	 1.31485470228927E-02 
1145	 1.23280831359303E-02 
1146	 0.011168158806913 
1147	 1.13589592894769E-02 
1148	 1.41971844437483E-02 
1149	 1.49265810164485E-02 
1150	 1.47674553432181E-02 
1151	 1.34860072559678E-02 
1152	 1.28978574333932E-02 
1153	 1.18287738672819E-02 
1154	 1.18275118784646E-02 
1155	 1.25724017279401E-02 
1156	 1.23370222584273E-02 
1157	 1.20578260473099E-02 
1158	 1.21737404370831E-02 
1159	 1.19805161042178E-02 
1160	 1.18717079803479E-02 
1161	 1.22373691485695E-02 
1162	 1.23331219757958E-02 
1163	 0.012347351000846 
1164	 1.22956456003019E-02 
1165	 1.23657913458857E-02 
1166	 0.012785355022423 
1167	 1.29626850437465E-02 
1168	 0.012997701467295 
1169	 1.33360346800466E-02 
1170	 1.35841238463239E-02 
1171	 1.35302995410873E-02 
1172	 1.33365078033308E-02 
1173	 1.32968373059485E-02 
1174	 1.32132299266249E-02 
1175	 1.27556319156657E-02 
1176	 1.26482771893697E-02 
1177	 1.27092489167483E-02 
1178	 0.012233020736169 
1179	 0.011898923463171 
1180	 1.19394510204504E-02 
1181	 1.18882042787321E-02 
1182	 1.20300527434402E-02 
1183	 1.21381506339896E-02 
1184	 0.011748351617273 
1185	 1.15762243323228E-02 
1186	 1.19469433017326E-02 
1187	 1.21554709301999E-02 
1188	 0.012193375591893 
1189	 1.21300340430325E-02 
1190	 1.18152311492568E-02 
1191	 0.011634974404752 
1192	 1.16603552890601E-02 
1193	 1.19982499389494E-02 
1194	 1.22559623928367E-02 
1195	 0.01217427552658 
1196	 1.20895532642024E-02 
1197	 1.20290467156422E-02 
1198	 1.18000048961225E-02 
1199	 1.18184070249899E-02 
1200	 1.19873172003627E-02 
1201	 1.18928387290141E-02 
1202	 1.19377936886407E-02 
1203	 0.012252957706377 
1204	 1.24784248066687E-02 
1205	 1.25320056958459E-02 
1206	 1.24604494937013E-02 
1207	 1.23519721800644E-02 
1208	 1.23267914658599E-02 
1209	 1.23695903046819E-02 
1210	 1.26835322722092E-02 
1211	 1.28771581603145E-02 
1212	 1.28721295660513E-02 
1213	 1.30354332829293E-02 
1214	 1.32294457230037E-02 
1215	 1.33952450880106E-02 
1216	 0.013775702413611 
1217	 1.41450695977627E-02 
1218	 1.43196056989229E-02 
1219	 1.43973135939034E-02 
1220	 1.44100759234298E-02 
1221	 1.41640941410619E-02 
1222	 1.38480140343204E-02 
1223	 1.35464768420623E-02 
1224	 1.31198786665152E-02 
1225	 0.012697336157223 
1226	 1.21352232984144E-02 
1227	 1.15381259144326E-02 
1228	 0.011046453052331 
1229	 1.08498623192035E-02 
1230	 1.06266911577442E-02 
1231	 1.04771137923292E-02 
1232	 0.010405669430222 
1233	 1.01894913041773E-02 
1234	 1.00584735500705E-02 
1235	 9.98288508613931E-03 
1236	 1.00885152406472E-02 
1237	 9.94848943009468E-03 
1238	 9.59224862701472E-03 
1239	 9.59103580367696E-03 
1240	 9.80333722771469E-03 
1241	 9.77819872672181E-03 
1242	 9.83622918922643E-03 
1243	 0.010064682719592 
1244	 1.00579839104475E-02 
1245	 9.95594259770709E-03 
1246	 0.010022188810606 
1247	 1.00351178129962E-02 
1248	 1.00408338365184E-02 
1249	 0.010220992309747 
1250	 1.02487902925795E-02 
1251	 1.01834145936873E-02 
1252	 1.03920334913236E-02 
1253	 1.05086432923457E-02 
1254	 1.05444532586213E-02 
1255	 1.06819122619932E-02 
1256	 1.07589720197869E-02 
1257	 1.04251328298559E-02 
1258	 1.04067517045555E-02 
1259	 1.07590427639219E-02 
1260	 1.09162862610676E-02 
1261	 1.10260901806223E-02 
1262	 1.10172518416849E-02 
1263	 1.09308875364961E-02 
1264	 1.08665328938839E-02 
1265	 1.06702017144201E-02 
1266	 0.010429007064742 
1267	 1.05864692211014E-02 
1268	 1.06775640161475E-02 
1269	 1.04625003758061E-02 
1270	 1.03968639083015E-02 
1271	 1.02268179910401E-02 
1272	 9.89420300145782E-03 
1273	 9.94327900062255E-03 
1274	 1.01083090678845E-02 
1275	 9.94104513196059E-03 
1276	 9.70447954965687E-03 
1277	 9.66312543485226E-03 
1278	 9.58490108188525E-03 
1279	 9.51030982171765E-03 
1280	 9.65179179852808E-03 
1281	 9.80248486700848E-03 
1282	 9.95867407283955E-03 
1283	 9.97775080029818E-03 
1284	 1.00415294494238E-02 
1285	 1.01956148922455E-02 
1286	 1.02346127375277E-02 
1287	 1.02796001382538E-02 
1288	 1.05287113329958E-02 
1289	 1.05948471416552E-02 
1290	 1.04241815771566E-02 
1291	 1.04110210672504E-02 
1292	 1.04037225141256E-02 
1293	 1.03357419356172E-02 
1294	 1.04022499030239E-02 
1295	 1.04186899048698E-02 
1296	 1.05884228357325E-02 
1297	 1.08699445692629E-02 
1298	 0.01082902120645 
1299	 1.08980565968612E-02 
1300	 0.011085610214631 
1301	 1.09523485663088E-02 
1302	 1.07218682802257E-02 
1303	 1.04702971053375E-02 
1304	 1.03641768472112E-02 
1305	 0.010311350732058 
1306	 1.01957251602563E-02 
1307	 0.010348347994929 
1308	 1.04095352757321E-02 
1309	 1.01825573192728E-02 
1310	 1.00896141941612E-02 
1311	 1.02716671575251E-02 
1312	 1.02807608454273E-02 
1313	 1.01499244360112E-02 
1314	 1.00920658210196E-02 
1315	 9.94564294789484E-03 
1316	 9.9698010172359E-03 
1317	 1.01702411862511E-02 
1318	 1.01245534931982E-02 
1319	 1.01452921254469E-02 
1320	 0.010165125030281 
1321	 9.92682210207971E-03 
1322	 9.72351921375113E-03 
1323	 9.8589542761133E-03 
1324	 9.90447272333442E-03 
1325	 9.93060321027951E-03 
1326	 9.94752098089583E-03 
1327	 1.00501656683901E-02 
1328	 0.010290017674124 
1329	 1.06148922988567E-02 
1330	 1.13004037127671E-02 
1331	 1.16960420838413E-02 
1332	 0.01142611976141 
1333	 1.11214323681145E-02 
1334	 1.04626255004093E-02 
1335	 1.02393413845042E-02 
1336	 1.04611991359386E-02 
1337	 1.04344036765458E-02 
1338	 1.05068473098917E-02 
1339	 1.05339039735105E-02 
1340	 1.03157952020874E-02 
1341	 9.84103917866694E-03 
1342	 8.96019803445714E-03 
1343	 8.77394857455964E-03 
1344	 8.79171475363151E-03 
1345	 8.87288200884343E-03 
1346	 1.03997683821411E-02 
1347	 1.12544479550945E-02 
1348	 1.08247869411365E-02 
1349	 1.15835673381033E-02 
1350	 1.41447388340817E-02 
1351	 1.61593852710832E-02 
1352	 1.56349327962044E-02 
1353	 0.019777312305928 
1354	 3.08940191082303E-02 
1355	 4.79321431013955E-02 
1356	 5.04461702605052E-02 
1357	 5.24532181281645E-02 
1358	 6.48024960046999E-02 
1359	 5.86122830247805E-02 
1360	 4.72402971564033E-02 
1361	 5.62600320139703E-02 
1362	 5.93594265415052E-02 
1363	 0.124068657184065 
1364	 0.362538236191804 
1365	 0.53711689342222 
1366	 0.437536693474199 
1367	 0.255482847239154 
1368	 0.141429434971861 
1369	-0.04849490939504 
1370	-4.09188040334023E-03 
1371	 0.429124275371287 
1372	 0.547385236359773 
1373	 0.767910128976609 
1374	 0.861698952973102 
1375	 0.376481806317807 
1376	 0.32737694204227 
1377	 0.578075582161463 
1378	 0.616831716677126 
1379	 0.503110787303499 
1380	 0.513155302479859 
1381	 0.544024891158308 
1382	 0.470469647478773 
1383	 0.507810337458186 
1384	 0.468351922997482 
1385	 0.186029597666089 
1386	-0.004030161156139 
1387	-0.155427851639747 
1388	-9.50244750482668E-02 
1389	 0.213274362860725 
1390	 0.294539455259065 
1391	 0.373629140629956 
1392	 0.570009633931836 
1393	 0.48526924204449 
1394	 0.348983770431615 
1395	 0.437445734284691 
1396	 0.645900474600463 
1397	 0.724904525153518 
1398	 0.603875971648888 
1399	 0.448597129507367 
1400	 0.412499366236045 
1401	 0.677793526980443 
1402	 0.930596539418745 
1403	 0.501752318945791 
1404	 0.34856928849434 
1405	 0.409642631956035 
1406	 0.427615407029735 
1407	 0.332797334360245 
1408	 0.398477885726865 
1409	 0.408143920176003 
1410	 0.193872687141886 
1411	 0.144660297484515 
1412	 0.301304194900614 
1413	 0.321696517421001 
1414	 0.238729047299557 
1415	 0.210431070375552 
1416	 0.2377471988464 
1417	 0.183702677732589 
1418	 6.92962062528103E-02 
1419	 5.67365050204913E-02 
1420	 6.39226882474756E-02 
1421	 4.47181209604951E-02 
1422	 0.045983091820855 
1423	 5.84251421558902E-02 
1424	 6.91810762382779E-02 
1425	 5.55349018636769E-02 
1426	 3.97361997504584E-02 
1427	 0.038975809108923 
1428	 3.42786158356351E-02 
1429	 2.30990546182837E-02 
1430	 1.54455220831513E-02 
1431	 1.81856746900803E-02 
1432	 9.07375295827432E-03 
1433	 6.4431473515828E-03 
1434	 3.19753566631877E-02 
1435	 3.92943443078997E-02 
1436	 2.74873017124742E-02 
1437	 2.67593849858878E-02 
1438	 3.12440937643268E-02 
1439	 2.33962204078294E-02 
1440	 1.92588485301792E-02 
1441	 2.02919162075514E-02 
1442	 2.10669627273637E-02 
1443	 2.17593081509283E-02 
1444	 2.26593712675468E-02 
1445	 2.60726201392388E-02 
1446	 2.47143966986211E-02 
1447	 2.26707064896038E-02 
1448	 2.10714649306422E-02 
1449	 1.81338492727566E-02 
1450	 1.81342150374226E-02 
1451	 1.75413448483045E-02 
1452	 1.53778972855102E-02 
1453	 1.44950958453327E-02 
1454	 1.47695247280065E-02 
1455	 1.62096922854428E-02 
1456	 1.45668884283967E-02 
1457	 1.22493814470391E-02 
1458	 1.14244719602283E-02 
1459	 9.02620868094231E-03 
1460	 8.68771914334095E-03 
1461	 1.13045515193153E-02 
1462	 1.10021063524039E-02 
1463	 8.00205378638439E-03 
1464	 8.44031902424643E-03 
1465	 1.11158747866166E-02 
1466	 1.09515631393182E-02 
1467	 1.04025459507898E-02 
1468	 1.18893688649658E-02 
1469	 1.27946396236402E-02 
1470	 1.26511650539006E-02 
1471	 1.47079462144752E-02 
1472	 1.54249151708137E-02 
1473	 1.25587328531984E-02 
1474	 1.18874848246653E-02 
1475	 1.38967763220307E-02 
1476	 1.38293567347811E-02 
1477	 1.22009894993859E-02 
1478	 0.01172182814224 
1479	 1.17542213229998E-02 
1480	 1.13420452775726E-02 
1481	 1.00897822122694E-02 
1482	 1.02620088859763E-02 
1483	 1.21612731467189E-02 
1484	 1.16201937812005E-02 
1485	 1.00657387668773E-02 
1486	 9.94400183685616E-03 
1487	 9.24107512451211E-03 
1488	 8.99484184375717E-03 
1489	 9.79985874650415E-03 
1490	 1.02079514126226E-02 
1491	 1.06772188507486E-02 
1492	 1.02918503394216E-02 
1493	 9.21611921977924E-03 
1494	 9.19998819833192E-03 
1495	 9.50714282047856E-03 
1496	 9.13577476096504E-03 
1497	 8.70439453116977E-03 
1498	 8.82742891540873E-03 
1499	 8.82783889169362E-03 
1500	 8.63246536004719E-03 
1501	 8.85106304063018E-03 
1502	 9.07954283135304E-03 
1503	 8.98876786645996E-03 
1504	 8.80945708107302E-03 
1505	 8.70066910573755E-03 
1506	 8.90213226394367E-03 
1507	 8.70451990076146E-03 
1508	 8.34516085374119E-03 
1509	 8.45143862440916E-03 
1510	 8.59383021145077E-03 
1511	 8.60695414515518E-03 
1512	 8.58575938898142E-03 
1513	 8.49479660676473E-03 
1514	 8.53288249587409E-03 
1515	 8.62998037169304E-03 
1516	 8.65786884854222E-03 
1517	 8.72642521765776E-03 
1518	 8.71566135759956E-03 
1519	 8.46567743108402E-03 
1520	 8.48819669469434E-03 
1521	 8.7725722581245E-03 
1522	 8.77172539550493E-03 
1523	 8.65576848290437E-03 
1524	 8.50726233214595E-03 
1525	 8.19718858463503E-03 
1526	 7.92565221930145E-03 
1527	 7.87021265993737E-03 
1528	 7.90338864615893E-03 
1529	 7.86616974985826E-03 
1530	 7.83943312398122E-03 
1531	 7.8889874177871E-03 
1532	 7.91443695032551E-03 
1533	 7.94430630755607E-03 
1534	 8.03034152957173E-03 
1535	 8.08849824180272E-03 
1536	 8.12396736195313E-03 
1537	 8.15574923962343E-03 
1538	 8.12253798289435E-03 
1539	 8.19795168191754E-03 
1540	 8.30380748860269E-03 
1541	 8.1772057330935E-03 
1542	 8.16597088468025E-03 
1543	 8.28095128369175E-03 
1544	 8.32293411926518E-03 
1545	 8.41598928475063E-03 
1546	 8.45419932791391E-03 
1547	 8.54283080477681E-03 
1548	 8.65850941234519E-03 
1549	 8.57595706977845E-03 
1550	 8.48557986189041E-03 
1551	 8.46863270283462E-03 
1552	 8.35736835895716E-03 
1553	 8.23624491905649E-03 
1554	 8.3440350775975E-03 
1555	 8.39306831706999E-03 
1556	 8.24649215320832E-03 
1557	 8.32799586841828E-03 
1558	 8.4407141135095E-03 
1559	 8.28563454599205E-03 
1560	 8.17432705951565E-03 
1561	 8.23180360773655E-03 
1562	 8.27191920155322E-03 
1563	 8.13730282080275E-03 
1564	 8.05517424420047E-03 
1565	 8.07035511160998E-03 
1566	 7.90287280357063E-03 
1567	 7.96045768669418E-03 
1568	 8.20577501387616E-03 
1569	 8.18300069499116E-03 
1570	 8.1718007258332E-03 
1571	 8.30362165553532E-03 
1572	 8.53220032669434E-03 
1573	 8.55226751652645E-03 
1574	 8.36029217787934E-03 
1575	 8.34320852892286E-03 
1576	 8.04076499092057E-03 
1577	 7.94721304078649E-03 
1578	 8.4198778421101E-03 
1579	 8.81109081318092E-03 
1580	 8.86215108999077E-03 
1581	 8.7784780578776E-03 
1582	 9.11463034319156E-03 
1583	 9.31066683464079E-03 
1584	 9.3494582047614E-03 
1585	 9.42456352801506E-03 
1586	 9.10273349615233E-03 
1587	 8.87275479132617E-03 
1588	 9.0231502257171E-03 
1589	 9.2418238624465E-03 
1590	 9.31375590290636E-03 
1591	 9.27597733392772E-03 
1592	 9.21017183568195E-03 
1593	 9.24569862246079E-03 
1594	 9.35915461857491E-03 
1595	 9.24267955112831E-03 
1596	 9.28353510963471E-03 
1597	 9.33791854337521E-03 
1598	 9.00328567962751E-03 
1599	 8.81733594197369E-03 
1600	 8.72964665609574E-03 
1601	 8.65968452264686E-03 
1602	 8.49934639531758E-03 
1603	 8.52010788626242E-03 
1604	 8.79935865387158E-03 
1605	 8.67620016357741E-03 
1606	 8.56679570415073E-03 
1607	 8.70545541535128E-03 
1608	 8.69154621790221E-03 
1609	 8.53154096403242E-03 
1610	 8.46384973812922E-03 
1611	 8.74565379054492E-03 
1612	 9.02665222856608E-03 
1613	 9.02289047739106E-03 
1614	 9.10988534371643E-03 
1615	 9.07527064994919E-03 
1616	 8.7538219716915E-03 
1617	 8.61999221082767E-03 
1618	 0.008791341771485 
1619	 8.97837891053578E-03 
1620	 8.93504600980748E-03 
1621	 8.7664605305572E-03 
1622	 8.84767862514579E-03 
1623	 8.87586609937041E-03 
1624	 8.62772402422489E-03 
1625	 8.68059358751728E-03 
1626	 8.78567212048569E-03 
1627	 8.72638883496876E-03 
1628	 8.73045938466592E-03 
1629	 8.72154901626455E-03 
1630	 8.77238416454878E-03 
1631	 8.90924100472213E-03 
1632	 9.11919745206796E-03 
1633	 9.18152219738697E-03 
1634	 9.19066186334529E-03 
1635	 9.28774267581916E-03 
1636	 9.2553386108737E-03 
1637	 9.20017940179276E-03 
1638	 9.25701592739407E-03 
1639	 9.27513175496869E-03 
1640	 9.20707635185489E-03 
1641	 9.02161960590432E-03 
1642	 8.83840658938325E-03 
1643	 8.88039391185312E-03 
1644	 8.82515559469237E-03 
1645	 8.7352704064903E-03 
1646	 8.88523520902413E-03 
1647	 8.91470763836463E-03 
1648	 8.64132164730312E-03 
1649	 8.51755521329806E-03 
1650	 8.78389291855852E-03 
1651	 9.04806412555686E-03 
1652	 9.14359325987703E-03 
1653	 9.33434984588929E-03 
1654	 9.39327008273648E-03 
1655	 9.18302203661882E-03 
1656	 9.2686333497713E-03 
1657	 9.63707294774971E-03 
1658	 9.61323343425573E-03 
1659	 9.30278437906045E-03 
1660	 9.20401796826799E-03 
1661	 9.08144581184226E-03 
1662	 8.9673806996632E-03 
1663	 9.0406615750704E-03 
1664	 8.95477595870434E-03 
1665	 8.5170018560305E-03 
1666	 8.45799010040555E-03 
1667	 8.76801864186462E-03 
1668	 8.72400003603334E-03 
1669	 8.89205926343694E-03 
1670	 9.39619347833859E-03 
1671	 9.30933803748817E-03 
1672	 9.13493944386254E-03 
1673	 9.17598971091219E-03 
1674	 8.84768922016405E-03 
1675	 8.7304668550104E-03 
1676	 8.9257662334826E-03 
1677	 9.02956574902515E-03 
1678	 9.1539996878544E-03 
1679	 9.37651215243144E-03 
1680	 9.50120755366718E-03 
1681	 9.28979787551408E-03 
1682	 9.08197034226584E-03 
1683	 9.21732136955483E-03 
1684	 9.36533283040165E-03 
1685	 9.14287977922796E-03 
1686	 9.11407495984371E-03 
1687	 9.19522046353452E-03 
1688	 8.82060706270417E-03 
1689	 8.80880978918264E-03 
1690	 9.21700868516303E-03 
1691	 9.13979279387341E-03 
1692	 9.03650672620821E-03 
1693	 9.57663961847161E-03 
1694	 9.77427668495624E-03 
1695	 9.43799766386109E-03 
1696	 9.39287384056752E-03 
1697	 9.34636700155246E-03 
1698	 9.05359332653584E-03 
1699	 9.04622863225281E-03 
1700	 9.20483417254174E-03 
1701	 8.99733353192718E-03 
1702	 9.13216343606972E-03 
1703	 9.57138837263348E-03 
1704	 9.58523123087279E-03 
1705	 9.64473904196345E-03 
1706	 9.65157348203084E-03 
1707	 9.28258459734403E-03 
1708	 9.28281583019927E-03 
1709	 9.55259120839997E-03 
1710	 9.26981071039547E-03 
1711	 8.82706045465065E-03 
1712	 8.54741370993619E-03 
1713	 8.2147540749791E-03 
1714	 8.27260424097857E-03 
1715	 9.06668542974251E-03 
1716	 8.84385176260654E-03 
1717	 8.52133144408899E-03 
1718	 8.41295834565506E-03 
1719	 8.64716847533697E-03 
1720	 8.84228119229979E-03 
1721	 9.06482458392139E-03 
1722	 9.22300678747026E-03 
1723	 8.94666830255296E-03 
1724	 8.63996419766549E-03 
1725	 8.59920839662262E-03 
1726	 8.64715260960004E-03 
1727	 8.56939540356477E-03 
1728	 8.37643361770624E-03 
1729	 8.30946475902588E-03 
1730	 8.59049510712014E-03 
1731	 8.89348273494087E-03 
1732	 9.38224983254172E-03 
1733	 9.9450370690458E-03 
1734	 9.40286102680641E-03 
1735	 8.72918271634752E-03 
1736	 8.94754870215669E-03 
1737	 8.84512708207386E-03 
1738	 8.87352922383853E-03 
1739	 9.34599034564461E-03 
1740	 9.17354350969074E-03 
1741	 8.95173165503398E-03 
1742	 8.84844361058887E-03 
1743	 8.72579633422376E-03 
1744	 8.77477986528983E-03 
1745	 9.04508364531989E-03 
1746	 9.97871415461133E-03 
1747	 1.03570444748264E-02 
1748	 1.03989658378857E-02 
1749	 1.05508275462489E-02 
1750	 1.06295120659875E-02 
1751	 1.06229250491677E-02 
1752	 1.06378265465039E-02 
1753	 1.05718439133925E-02 
1754	 1.03178865534882E-02 
1755	 1.01548861991243E-02 
1756	 9.97203552395684E-03 
1757	 0.010179555007129 
1758	 1.02279993553223E-02 
1759	 1.03660044696336E-02 
1760	 1.05072495473818E-02 
1761	 1.03421320568891E-02 
1762	 1.01953737454193E-02 
1763	 1.00047096222182E-02 
1764	 0.010230513522032 
1765	 1.10395230126496E-02 
1766	 1.12239562267871E-02 
1767	 1.06438679302721E-02 
1768	 1.02567493356936E-02 
1769	 9.99553467473093E-03 
1770	 9.6996845645294E-03 
1771	 1.02018420705113E-02 
1772	 1.07108806190178E-02 
1773	 1.13054185798457E-02 
1774	 1.22645303743858E-02 
1775	 1.21181038349823E-02 
1776	 1.22343412445303E-02 
1777	 1.10239871146532E-02 
1778	 1.03704560894229E-02 
1779	 1.08552323257578E-02 
1780	 1.10887045179779E-02 
1781	 1.13129232205259E-02 
1782	 1.14568621538537E-02 
1783	 1.21978706035637E-02 
1784	 1.14959819722493E-02 
1785	 8.61805384090943E-03 
1786	 8.05311627310572E-03 
1787	 7.68131989588136E-03 
1788	 8.43559729401931E-03 
1789	 1.30468959552853E-02 
1790	 1.28776400704789E-02 
1791	 0.010392345835359 
1792	 6.28826358781603E-03 
1793	 3.78623757566067E-03 
1794	 7.86084757844327E-03 
1795	 1.21158164395297E-02 
1796	 1.79092710845807E-02 
1797	 2.05641005324683E-02 
1798	 1.06367237003556E-02 
1799	 1.07454175900641E-02 
1800	 1.51175101872245E-02 
1801	 1.58727185667409E-02 
1802	 2.55661236917327E-02 
1803	 2.58732234129605E-02 
1804	-6.48738621451319E-04 
1805	-9.17216892386226E-03 
1806	-6.42250866724728E-03 
1807	-7.11383276416855E-04 
1808	 5.57998014749869E-02 
1809	 9.05173340490506E-02 
1810	 8.88844584959902E-02 
1811	 0.120768028146024 
1812	 0.121815190290931 
1813	 0.136358091214813 
1814	 0.173391878062907 
1815	 0.191646534822096 
1816	 0.190378530139544 
1817	 0.183972930473033 
1818	 0.183767348764292 
1819	 0.411476509413898 
1820	 0.875439490110296 
1821	-4.92747633075324 
1822	-1.7968224909562 
1823	 56.3573306530711 
1824	 2.26440462537145 
1825	 0.358154852592611 
1826	 2.83731933648774E-02 
1827	-0.220476343687613 
1828	-0.263805688098973 
1829	-0.168740313111076 
1830	 0.122093372374907 
1831	-0.794790757904844 
1832	-1.60602923448242 
1833	-1.23640280582721 
1834	 29.1828624038711 
1835	 8.39187305372053E-03 
1836	 0.155349635318263 
1837	-7.78633654038969 
1838	 0.534985729680083 
1839	-1.39570150191077 
1840	-1.29867848709895 
1841	-2.3283087392176 
1842	-3.05048508604099 
1843	-1.5887415851265 
1844	-0.55508247775134 
1845	-0.330803575150359 
1846	 0.149051701161023 
1847	 0.117443949640181 
1848	 3.69746402824526 
1849	 0.381057822624786 
1850	 0.438426102352581 
1851	 1.99608384694041 
1852	-1.22440575200323 
1853	-0.363428672013121 
1854	-0.358275670804616 
1855	-0.565105810160461 
1856	-0.692308335955688 
1857	-1.65343789574021 
1858	-3.1491002297374 
1859	 4.02699688592497 
1860	 0.737936076097221 
1861	 0.61214670267373 
1862	 0.211338679520776 
1863	-1.92953186810601 
1864	 0.17171237156363 
1865	 0.14928312882387 
1866	-1.62808452375339 
1867	-1.95633684719443 
1868	-1.9242815451247 
1869	 0.176618276914881 
1870	 11.0651747448017 
1871	 1.00952405000829 
1872	-0.246760995005495 
1873	-1.02439823953378 
1874	 0.762104028634962 
1875	-3.76478936543703 
1876	-4.80380595906848 
1877	 4.79021497277154 
1878	 2.82361673464132 
1879	 1.23285884555937 
1880	 0.992059692331112 
1881	 4.8972205182464 
1882	-0.12892941208968 
1883	 5.32860203489889E-03 
1884	 1.86507471236292 
1885	 1.07158887426513 
1886	 8.28253187134194E-02 
1887	-16.9947306601284 
1888	 17.1156866649503 
1889	 11.2675013772551 
1890	 1.10012496347082 
1891	 0.695833496397327 
1892	 0.324507263272584 
1893	-0.239905119833989 
1894	-0.153692691471188 
1895	-0.455407241000869 
1896	-0.440408252890791 
1897	 0.296461946386654 
1898	-4.25240205635996 
1899	-0.106897506760755 
1900	-9.22166336414831E-02 
1901	-1.49392253974815E-02 
1902	-3.91846361327356E-02 
1903	-0.920519112760995 
1904	 2.86262196334835 
1905	 1.24305563111868 
1906	-0.198247277242819 
1907	 4.43035018796015E-02 
1908	 0.454119647293869 
1909	 0.333520815124376 
1910	-0.22616617687894 
1911	-1.1390600769598 
1912	-0.870318768552349 
1913	-0.712855277135781 
1914	 0.587390332205593 
1915	 0.835615597200332 
1916	 0.992990055719623 
1917	 0.722927496251782 
1918	 0.672369606771671 
1919	 0.404772722543602 
1920	 0.131536036400876 
1921	 9.72048282229279E-02 
1922	-0.387229183002451 
1923	-1.34899402508209 
1924	 0.120526711536737 
1925	 8.92646538249985E-02 
1926	 0.236320798365257 
1927	 0.531125034431424 
1928	 0.944870764173285 
1929	-26.579812863861 
1930	-1.16916526060708 
1931	 0.926917264964616 
1932	 1.03009044001002 
1933	 0.461227935392059 
1934	 0.406822717841427 
1935	 0.459057133680854 
1936	 0.239957015677756 
1937	 0.194413906979214 
1938	 0.215216964508634 
1939	 0.173608707493397 
1940	 6.51700450867876E-02 
1941	 0.09447438197683 
1942	 0.107150689054124 
1943	 5.42051189579583E-02 
1944	 4.01808192815352E-03 
1945	-6.92163842362291E-03 
1946	 1.77846816448565E-02 
1947	-9.44211338586611E-03 
1948	-4.28142266689479E-02 
1949	-2.99300600255328E-02 
1950	-2.25866265981658E-02 
1951	-3.24896905719736E-03 
1952	 1.23129451961698E-02 
1953	 5.07293715244472E-02 
1954	 3.99549779736922E-02 
1955	 1.25870845178072E-02 
1956	 9.6140067287379E-03 
1957	 9.49687710428747E-03 
1958	-7.55131376002958E-03 
1959	-1.11005842199392E-02 
1960	 9.2447403597121E-04 
1961	 2.43628970991909E-03 
1962	-1.75679874296583E-03 
1963	-1.99678617267485E-03 
1964	-2.16192623930926E-04 
1965	 2.17697021607754E-04 
1966	 1.54022295569787E-03 
1967	 6.0794270936547E-03 
1968	 1.13218326790837E-02 
1969	 8.64240461861471E-03 
1970	 6.84430536081555E-03 
1971	 7.71523439970382E-03 
1972	 6.0364976000232E-03 
1973	 7.89089341148278E-03 
1974	 8.51932836476261E-03 
1975	 6.97283650329259E-03 
1976	 8.02820774352391E-03 
1977	 7.26419164445861E-03 
1978	 5.53161836066191E-03 
1979	 5.69217659031536E-03 
1980	 7.48762419580892E-03 
1981	 7.42622358282647E-03 
1982	 6.42108602122928E-03 
1983	 7.69302631685663E-03 
1984	 7.6279524462807E-03 
1985	 6.24223159218896E-03 
1986	 5.86281306849783E-03 
1987	 4.85275562717136E-03 
1988	 3.53656115678844E-03 
1989	 3.63388933137371E-03 
1990	 5.01623730767293E-03 
1991	 6.98146327788888E-03 
1992	 8.08402904228593E-03 
1993	 8.40793511970558E-03 
1994	 8.62887366635202E-03 
1995	 8.17515060080194E-03 
1996	 6.24751313344255E-03 
1997	 5.33464632176472E-03 
1998	 5.89132885396577E-03 
1999	 5.4034168378885E-03 
2000	 6.8597949661674E-03 
2001	 9.28775712835159E-03 
2002	 1.00332298939591E-02 
2003	 9.12567742469641E-03 
2004	 2.76835561706092E-03 
2005	-1.64988364085656E-03 
2006	-1.55661039518917E-03 
2007	-1.68458327381535E-03 
2008	 0.002893785991859 
2009	 6.06499325729527E-03 
2010	 7.90903919833199E-03 
2011	 1.00093441162115E-02 
2012	 1.33680134143343E-02 
2013	 1.51037953360341E-02 
2014	 1.36829605633027E-02 
2015	 1.19493504387623E-02 
2016	 9.52886292126839E-03 
2017	 7.42754941003171E-03 
2018	 6.76312733339973E-03 
2019	 5.25248672331324E-03 
2020	 4.1928760622391E-03 
2021	 4.55462217146488E-03 
2022	 5.23942536560849E-03 
2023	 6.19487605365999E-03 
2024	 6.34721833629889E-03 
2025	 5.4868498915362E-03 
2026	 5.5272166681344E-03 
2027	 5.49223793258353E-03 
2028	 6.02839952859493E-03 
2029	 7.01640391061236E-03 
2030	 7.98195533230444E-03 
2031	 8.42132785848181E-03 
2032	 8.33477255411673E-03 
2033	 8.54172749698609E-03 
2034	 8.00134290406248E-03 
2035	 7.29111283938558E-03 
2036	 7.62642942371482E-03 
2037	 6.94855239821404E-03 
2038	 5.88768502029178E-03 
2039	 5.67732868662352E-03 
2040	 5.7542278968708E-03 
2041	 5.8651659171611E-03 
2042	 6.83352290129416E-03 
2043	 7.29839955718085E-03 
2044	 7.90209722429972E-03 
2045	 7.56545214526795E-03 
2046	 6.67742754260639E-03 
2047	 6.70547393587895E-03 
2048	 6.78457384180461E-03 
2049	 6.5767122995945E-03 
2050	 7.4350449643406E-03 
2051	 8.34414602004203E-03 
2052	 7.93815730119217E-03 
2053	 7.48241213406359E-03 
2054	 7.76732799775765E-03 
2055	 7.23861301774481E-03 
2056	 6.86166715732267E-03 
2057	 7.03248663823737E-03 
2058	 7.45518820149445E-03 
2059	 7.36496016183083E-03 
2060	 7.49237428688614E-03 
2061	 8.56392813979955E-03 
2062	 8.77950006808545E-03 
2063	 7.66461900690395E-03 
2064	 8.17405224973106E-03 
2065	 7.86504874838897E-03 
2066	 6.54864916962408E-03 
2067	 6.18501859431697E-03 
2068	 5.77381032571524E-03 
2069	 6.11794039762785E-03 
2070	 7.17465413562007E-03 
2071	 7.61397143159105E-03 
2072	 7.69986152403312E-03 
2073	 7.47604831869897E-03 
2074	 6.33963470347133E-03 
2075	 5.99116155737972E-03 
2076	 5.59787818460127E-03 
2077	 5.75041072793691E-03 
2078	 6.84343640034773E-03 
2079	 7.17804414709825E-03 
2080	 7.54221888099768E-03 
2081	 7.46115520391022E-03 
2082	 7.45965320196246E-03 
2083	 6.91871468405079E-03 
2084	 6.42766984741305E-03 
2085	 6.6258694707498E-03 
2086	 6.51629895736053E-03 
2087	 5.97379982533538E-03 
2088	 6.5009688821238E-03 
2089	 6.6961812864273E-03 
2090	 6.35129000622529E-03 
2091	 7.02757120991199E-03 
2092	 7.18342056875526E-03 
2093	 6.75364786473185E-03 
2094	 6.95601837606226E-03 
2095	 7.65614567965067E-03 
2096	 7.62791213173689E-03 
2097	 7.2537282026746E-03 
2098	 7.53599335071448E-03 
2099	 7.89806937969312E-03 
2100	 8.17868898043868E-03 
2101	 8.26570674441121E-03 
2102	 8.52219687507614E-03 
2103	 8.6537772066243E-03 
2104	 7.89109431905271E-03 
2105	 7.82540892289788E-03 
2106	 8.26046619517219E-03 
2107	 7.95716696263001E-03 
2108	 7.92602612518492E-03 
2109	 7.88903504866023E-03 
2110	 7.60096818009819E-03 
2111	 7.9821364669071E-03 
2112	 8.70309028815121E-03 
2113	 8.78727852650252E-03 
2114	 9.12605098411922E-03 
2115	 8.91791824953558E-03 
2116	 7.14588319202971E-03 
2117	 6.80711613059857E-03 
2118	 7.51471698903149E-03 
2119	 7.75796480454401E-03 
2120	 8.1770019733961E-03 
2121	 8.87101376847112E-03 
2122	 0.009047607999946 
2123	 8.75445910907989E-03 
2124	 9.33025837083096E-03 
2125	 9.91820035124072E-03 
2126	 9.61125664528319E-03 
2127	 9.21486484377255E-03 
2128	 8.77009460283189E-03 
2129	 8.4652265502388E-03 
2130	 8.77542957640712E-03 
2131	 9.17751804745687E-03 
2132	 9.55089056594845E-03 
2133	 9.56308552949385E-03 
2134	 9.68987178255721E-03 
2135	 1.02183500911754E-02 
2136	 1.01870321832829E-02 
2137	 9.49460604102737E-03 
2138	 9.42111291260693E-03 
2139	 9.60144899850897E-03 
2140	 9.29955067279506E-03 
2141	 8.89203946625427E-03 
2142	 8.71003161402125E-03 
2143	 8.2583572997987E-03 
2144	 7.94046359896208E-03 
2145	 7.88532102060583E-03 
2146	 8.0048349176805E-03 
2147	 7.98143161347173E-03 
2148	 0.007399630075436 
2149	 7.29215602550327E-03 
2150	 7.97467942147147E-03 
2151	 8.20973722380085E-03 
2152	 8.66374072871172E-03 
2153	 9.76793098781687E-03 
2154	 1.03363225221485E-02 
2155	 9.94237382373304E-03 
2156	 9.03017392496474E-03 
2157	 8.8659541647837E-03 
2158	 8.11102125424682E-03 
2159	 8.32452014579225E-03 
2160	 1.00261055454738E-02 
2161	 1.07135032224119E-02 
2162	 1.12176573329535E-02 
2163	 1.09405236800095E-02 
2164	 1.00304573928364E-02 
2165	 9.48207646190287E-03 
2166	 8.04057531344484E-03 
2167	 7.73179619369614E-03 
2168	 8.54077602589215E-03 
2169	 8.73483786510304E-03 
2170	 9.04779183751344E-03 
2171	 9.28577199039837E-03 
2172	 9.75927332906156E-03 
2173	 9.72379237584216E-03 
2174	 9.47640146193661E-03 
2175	 9.00140843776042E-03 
2176	 8.66822023528802E-03 
2177	 9.11271585316301E-03 
2178	 9.56947523693414E-03 
2179	 9.76280224171319E-03 
2180	 9.42284308111811E-03 
2181	 9.01672880641325E-03 
2182	 8.97972156453204E-03 
2183	 9.58770502380924E-03 
2184	 1.00413466957016E-02 
2185	 9.50323084982719E-03 
2186	 9.10961909351667E-03 
2187	 8.36742784291321E-03 
2188	 7.72641072245961E-03 
2189	 6.9425436204569E-03 
2190	 6.51856474319377E-03 
2191	 5.89706297216557E-03 
2192	 6.23912265277815E-03 
2193	 7.33965799498154E-03 
2194	 8.22269191958222E-03 
2195	 1.02869110873064E-02 
2196	 0.010855580630023 
2197	 1.05708121842787E-02 
2198	 1.03487996126687E-02 
2199	 9.20636380727738E-03 
2200	 8.23309728754489E-03 
2201	 7.97612086184659E-03 
2202	 8.67198275081753E-03 
2203	 9.36041387350415E-03 
2204	 9.26658450719866E-03 
2205	 9.29939312436863E-03 
2206	 8.73632450301733E-03 
2207	 7.46035648470789E-03 
2208	 6.83966224326317E-03 
2209	 6.88286039329454E-03 
2210	 7.07111196592437E-03 
2211	 7.78832593193794E-03 
2212	 7.83667121363933E-03 
2213	 7.07416341061997E-03 
2214	 6.80153464728427E-03 
2215	 5.30097730027347E-03 
2216	 4.30046707733183E-03 
2217	 3.92603328110357E-03 
2218	 3.58617435335664E-03 
2219	 3.38185268953394E-03 
2220	 3.67145457606566E-03 
2221	 4.58553558186114E-03 
2222	 6.39779394285666E-03 
2223	 7.28257190575577E-03 
2224	 8.61818140360605E-03 
2225	 9.46812822062871E-03 
2226	 9.22288308831076E-03 
2227	 9.07328328181137E-03 
2228	 9.48699861650563E-03 
2229	 8.83405642920068E-03 
2230	 6.45566418610619E-03 
2231	 5.92848490613774E-03 
2232	 5.94765553636104E-03 
2233	 6.04939487015536E-03 
2234	 7.81289460988757E-03 
2235	 7.71100588811939E-03 
2236	 6.5259056199062E-03 
2237	 6.26307066842447E-03 
2238	 5.3682761619834E-03 
2239	 5.39366612927163E-03 
2240	 7.03270555042686E-03 
2241	 6.73813248835026E-03 
2242	 4.67786297082807E-03 
2243	 3.81741042196239E-03 
2244	 3.77093447739213E-03 
2245	 3.61045637812411E-03 
2246	 4.71232636244941E-03 
2247	 6.83066607608109E-03 
2248	 7.02668869672929E-03 
2249	 5.4894863677158E-03 
2250	 5.44597828779107E-03 
2251	 6.10008505381648E-03 
2252	 7.68374404839218E-03 
2253	 1.05514354948856E-02 
2254	 1.10777110992478E-02 
2255	 1.05679156451715E-02 
2256	 9.2938056626819E-03 
2257	 6.74458693588156E-03 
2258	 6.46122944726037E-03 
2259	 7.08257252114396E-03 
2260	 6.57557680903903E-03 
2261	 5.60420849403985E-03 
2262	 5.90065090770927E-03 
2263	 6.64882797724413E-03 
2264	 5.50492441805873E-03 
2265	 4.45299435963649E-03 
2266	 4.60990993554518E-03 
2267	 3.4606238144372E-03 
2268	 2.70432638055844E-03 
2269	 3.43545242251661E-03 
2270	 3.64966527362173E-03 
2271	 2.30755820107956E-03 
2272	 2.31576530013906E-03 
2273	 5.12326670924045E-03 
2274	 5.7219524300593E-03 
2275	 4.91835683588409E-03 
2276	 0.004701476539824 
2277	 3.02179689327023E-03 
2278	 2.74676933006119E-03 
2279	 3.94765367579355E-03 
2280	 4.22860446935228E-03 
2281	 4.56058771582855E-03 
2282	 5.92989267403743E-03 
2283	 5.51598438807403E-03 
2284	 3.60204796292466E-03 
2285	 4.4888800027381E-03 
2286	 5.78387871915779E-03 
2287	 3.64836805641414E-03 
2288	 3.54048522813937E-03 
2289	 4.49842438995975E-03 
2290	 1.4768188125313E-03 
2291	 1.16781329918997E-03 
2292	 3.1496996950083E-03 
2293	 7.37171159437423E-04 
2294	 1.9001387039282E-04 
2295	 1.64851461278404E-03 
2296	 1.4062368127514E-03 
2297	 4.26202302998645E-03 
2298	 6.55539097957494E-03 
2299	 7.48381869889032E-03 
2300	 1.10188741387597E-02 
2301	 1.22968565730479E-02 
2302	 9.93259824697784E-03 
2303	 8.09039065639318E-03 
2304	 8.26838048671373E-03 
2305	 9.88959802218283E-03 
2306	 1.14977638639076E-02 
2307	 0.010100843471339 
2308	 6.3815075587642E-03 
2309	 4.16050846377098E-03 
2310	 1.86717561175845E-03 
2311	 3.32001364060398E-03 
2312	 0.007754388074206 
2313	 5.60068722183609E-03 
2314	 5.68526868994081E-03 
2315	 8.05366470396425E-03 
2316	 5.95284646606355E-03 
2317	 8.12067614701045E-03 
2318	 8.84941238497197E-03 
2319	 4.76924661987898E-03 
2320	 0.003154577679824 
2321	 2.00989984679605E-03 
2322	 9.81521519488465E-04 
2323	 1.2377830908005E-03 
2324	 1.42199904624111E-03 
2325	 1.07545842638794E-03 
2326	-2.70530770590974E-03 
2327	-5.66820804921232E-03 
2328	-2.50040430143942E-03 
2329	-1.73005981300272E-03 
2330	-1.41716099393747E-03 
2331	 3.69049183694347E-03 
2332	 3.6481768364866E-03 
2333	 1.09003168090207E-03 
2334	 3.33026109838515E-03 
2335	 3.81677154123392E-03 
2336	 6.20066062938185E-03 
2337	 1.09048512225617E-02 
2338	 8.14181201495437E-03 
2339	 4.85143773723489E-03 
2340	 2.82020629753046E-03 
2341	 5.22915542747052E-03 
2342	 1.71494511553114E-02 
2343	 2.38090838162471E-02 
2344	 0.023544811866477 
2345	 1.56896537325608E-02 
2346	 5.28642628082945E-03 
2347	 4.23754632295562E-03 
2348	 1.52790220541411E-03 
2349	 3.94274404537377E-03 
2350	 7.9576878067922E-03 
2351	 4.70247762754356E-03 
2352	 8.25479940944815E-03 
2353	 0.010876817518961 
2354	 1.20491524531262E-02 
2355	 1.35333321224759E-02 
2356	 1.40283647916254E-02 
2357	 1.77850730650135E-02 
2358	 1.77377806394997E-02 
2359	 2.06173307137158E-02 
2360	 0.023301558139734 
2361	 1.21105132843796E-02 
2362	 4.69229650929693E-03 
2363	-1.51504528654455E-03 
2364	-7.19000113352539E-03 
2365	 3.80940590909816E-03 
2366	 0.012009304781882 
2367	 1.21783224088877E-02 
2368	 8.56249465074606E-03 
2369	-2.13118204819885E-03 
2370	-3.15941836588596E-03 
2371	 9.26763200981041E-03 
2372	 2.30568811753576E-02 
2373	 2.80506408097572E-02 
2374	 3.01376485656134E-02 
2375	 0.02642115665763 
2376	 0.010317304915418 
2377	 1.84315833752898E-02 
2378	 0.028702167803612 
2379	 4.5463643825755E-03 
2380	-3.1306864474252E-03 
2381	 3.99495202476779E-03 
2382	-1.81732713807513E-02 
2383	-0.025928583418603 
2384	-1.40517385395319E-02 
2385	-2.67672929298345E-02 
2386	-2.93652325660617E-02 
2387	-8.04491334105717E-03 
2388	 2.02768489177555E-02 
2389	 0.044760525926375 
2390	 4.15616477410991E-02 
2391	 2.11123638136108E-02 
2392	 1.11438117354811E-02 
2393	-5.8043837228005E-03 
2394	-2.02611198889446E-02 
2395	-2.36656623843577E-02 
2396	-2.43913936175537E-02 
2397	-0.01386746431011 
2398	-5.70758170233526E-03 
2399	 1.54717705650736E-02 
2400	 3.23010267632843E-02 
2401	 0.027320269632185 
2402	 4.30090680779007E-02 
2403	 7.45310367094588E-02 
2404	 7.56116533485774E-02 
2405	 5.47688126278464E-02 
2406	 4.43944597707267E-02 
2407	 3.13361713937928E-02 
2408	 1.69773355078996E-02 
2409	-1.23469744142228E-02 
2410	-0.019751041681594 
2411	 7.73570495316851E-03 
2412	-1.81513666301369E-02 
2413	-3.55018298063732E-02 
2414	-1.60525262846554E-02 
2415	-7.75966606782353E-02 
2416	-0.114841985102853 
2417	-7.65720161896806E-02 
2418	-0.107814677548238 
2419	-0.144310398634854 
2420	-9.60248011079115E-02 
2421	-2.45143381693596E-02 
2422	 5.04912426481815E-02 
2423	 9.03493084528086E-02 
2424	 1.91616210277422E-02 
2425	-2.69403019055129E-02 
2426	-0.035365377203504 
2427	-4.94576865659435E-02 
2428	 1.56677613849811E-02 
2429	 5.50243434261051E-02 
2430	-6.90633610452004E-03 
2431	-5.74562306094359E-02 
2432	-0.131592444632061 
2433	-0.167909347373404 
2434	-0.14112602347139 
2435	-0.102095399652124 
2436	-4.05730876161705E-02 
2437	-5.04035369741121E-02 
2438	-8.63761679078082E-02 
2439	-8.34224059238945E-02 
2440	-0.148519547885655 
2441	-0.147591404966027 
2442	-7.21427315771843E-02 
2443	-0.130091502262063 
2444	-0.101939595092796 
2445	-4.57238342191797E-02 
2446	-8.01598211861492E-02 
2447	 0.162614360312697 
2448	 0.250922806214337 
2449	 0.442862870189841 
2450	 0.534216194315089 
2451	-0.219191222934774 
2452	-4.91925633716965E-02 
2453	-8.35094811377075E-02 
2454	-0.222937295752715 
2455	-9.00370646297928E-02 
2456	-0.155203350095063 
2457	-0.215891595973604 
2458	-0.232905466176666 
2459	-0.130193631175045 
2460	-3.52925321371136E-02 
2461	-2.18851676675567E-02 
2462	 4.63067732727392E-02 
2463	 5.89723735616163E-02 
2464	 0.124426485727416 
2465	 0.236335430021061 
2466	 0.426503203668267 
2467	 0.828298861700435 
2468	 1.04021980926806 
2469	 0.302941009596405 
2470	 6.76069847918293 
2471	 2.51983579968287 
2472	 37.6604180180022 
2473	-0.307166790582675 
2474	 0.432385778193621 
2475	-0.875505959566441 
2476	-1.88393353293496 
2477	-1.24532127630242 
2478	-0.863909564358934 
2479	 2.11005556452164E-02 
2480	 1.86046823512972 
2481	-1.72766388230083 
2482	-1.6039224153331 
2483	 16.2264102697695 
2484	-14.9371340847711 
2485	-0.200476126605501 
2486	-1.50894901729445 
2487	-3.51721245934127 
2488	 2.43831828011643 
2489	 0.52541609786109 
2490	 0.316619171961218 
2491	-9.34260520564828E-02 
2492	 5.07594094711908E-02 
2493	-0.224834807690039 
2494	-0.519277311375216 
2495	 2.05536266864282 
2496	 0.636171232116688 
2497	 0.276405644782514 
2498	 0.176684170784654 
2499	-2.47129098883705 
2500	 0.998897165394567 
