Wavelength	rt0629clean00003.asd
350	 0.044815859700933 
351	 4.48620884569972E-02 
352	 4.55977585288087E-02 
353	 4.59396568605902E-02 
354	 4.52581924981165E-02 
355	 4.39946825371073E-02 
356	 4.45719310462056E-02 
357	 4.53255605758357E-02 
358	 4.43580022581818E-02 
359	 4.45996981043839E-02 
360	 4.50563023900584E-02 
361	 4.53163691283069E-02 
362	 0.045426042272184 
363	 4.48530367216281E-02 
364	 4.46764179675154E-02 
365	 4.51355278163884E-02 
366	 4.49638890511791E-02 
367	 4.47309536173136E-02 
368	 0.044771754630881 
369	 4.51473258541149E-02 
370	 4.52035834990193E-02 
371	 4.50809734783074E-02 
372	 4.49434882666965E-02 
373	 4.49143899063318E-02 
374	 4.45857034492039E-02 
375	 4.45865169158755E-02 
376	 4.48813668898672E-02 
377	 4.44418773561341E-02 
378	 4.48936057681936E-02 
379	 4.53077446473095E-02 
380	 4.48674544304386E-02 
381	 4.49792929030427E-02 
382	 4.52253882710287E-02 
383	 4.52635788063869E-02 
384	 4.49894242583321E-02 
385	 4.57355984157328E-02 
386	 4.58827729079315E-02 
387	 4.53124056541453E-02 
388	 4.57275064955847E-02 
389	 4.57842603026822E-02 
390	 0.045830534563561 
391	 4.61482611171414E-02 
392	 4.60705966582742E-02 
393	 4.60707421994157E-02 
394	 4.61361044248387E-02 
395	 4.61341296857592E-02 
396	 4.63375445182006E-02 
397	 4.64057101257673E-02 
398	 4.62835399429305E-02 
399	 4.61872611480255E-02 
400	 4.63261049298012E-02 
401	 4.64920600585105E-02 
402	 4.65419194961674E-02 
403	 4.66201555839446E-02 
404	 4.66571991020993E-02 
405	 4.66416289311988E-02 
406	 4.66182290520709E-02 
407	 4.68089491809207E-02 
408	 4.70630824479345E-02 
409	 4.71629289030145E-02 
410	 4.68969532827109E-02 
411	 4.70832823502972E-02 
412	 4.73574045161091E-02 
413	 4.73996342137872E-02 
414	 4.75306387173193E-02 
415	 4.76283779325791E-02 
416	 4.76439764407684E-02 
417	 4.76032102486435E-02 
418	 4.78076998130323E-02 
419	 0.047915778835243 
420	 0.047926389248342 
421	 4.82303673754309E-02 
422	 4.84583514919544E-02 
423	 4.86370017333824E-02 
424	 4.88066041819024E-02 
425	 4.87895111630203E-02 
426	 4.88741317766826E-02 
427	 4.91226969667973E-02 
428	 4.94468293365978E-02 
429	 4.96293966448091E-02 
430	 0.049694382825237 
431	 4.98092842931347E-02 
432	 5.02626529059154E-02 
433	 5.05018189371926E-02 
434	 5.06444229481491E-02 
435	 5.08727362988911E-02 
436	 5.10834485749661E-02 
437	 5.13295910884905E-02 
438	 0.05156007197752 
439	 5.16978101487976E-02 
440	 5.19723017950322E-02 
441	 5.22087172412211E-02 
442	 5.23383281017191E-02 
443	 5.25085045090345E-02 
444	 5.26961103141224E-02 
445	 5.28410596515361E-02 
446	 5.29312180979755E-02 
447	 0.053207145030744 
448	 5.33101797023792E-02 
449	 5.33359780454386E-02 
450	 5.36615129359879E-02 
451	 0.053639850440343 
452	 5.36502890207754E-02 
453	 5.39239595597774E-02 
454	 5.41080193480369E-02 
455	 5.41301247466233E-02 
456	 5.41127376402526E-02 
457	 5.42132420559419E-02 
458	 5.42791230611533E-02 
459	 5.43619287602776E-02 
460	 0.054449533377792 
461	 5.44620328974502E-02 
462	 5.44782126037815E-02 
463	 5.44945018917144E-02 
464	 5.45198130638457E-02 
465	 5.46599011828156E-02 
466	 5.46695846126487E-02 
467	 5.47160308882817E-02 
468	 5.50533686396453E-02 
469	 5.49476102934275E-02 
470	 0.054935034839823 
471	 5.51557689411215E-02 
472	 5.50736805565172E-02 
473	 5.51407516074704E-02 
474	 5.52764349866674E-02 
475	 5.53432535362003E-02 
476	 5.55194922403611E-02 
477	 5.56074476980705E-02 
478	 5.56496115702701E-02 
479	 5.58294885799087E-02 
480	 5.59065625696513E-02 
481	 0.056048915564832 
482	 5.63017795873679E-02 
483	 5.63449767201711E-02 
484	 5.64903966640796E-02 
485	 5.66377323315444E-02 
486	 5.66361697398663E-02 
487	 5.69009551332546E-02 
488	 5.71662432348539E-02 
489	 5.73455745418576E-02 
490	 5.75608131763864E-02 
491	 0.05779035434201 
492	 5.80233917315486E-02 
493	 5.82511586007724E-02 
494	 5.84587095313868E-02 
495	 5.87949784067952E-02 
496	 5.91637387474808E-02 
497	 5.93748159679135E-02 
498	 5.96095650868746E-02 
499	 5.98264441903668E-02 
500	 6.00558035724907E-02 
501	 0.060476233610676 
502	 6.07229368811038E-02 
503	 6.08969434526311E-02 
504	 6.12000627040093E-02 
505	 6.16676520397822E-02 
506	 6.19395209522954E-02 
507	 6.21051265642804E-02 
508	 6.25781659447443E-02 
509	 6.29263889845844E-02 
510	 0.063176311948724 
511	 6.34303831366374E-02 
512	 6.37940408223154E-02 
513	 6.41576456421545E-02 
514	 6.44986066647198E-02 
515	 6.48389549755001E-02 
516	 6.52434308589238E-02 
517	 6.57135338854759E-02 
518	 6.61885062964306E-02 
519	 6.65479553875651E-02 
520	 6.69710208084766E-02 
521	 6.73843338522191E-02 
522	 6.77234078932379E-02 
523	 6.81581468882758E-02 
524	 6.85526460181683E-02 
525	 6.89176777274152E-02 
526	 6.93656270917073E-02 
527	 6.98643116556874E-02 
528	 7.03624771255713E-02 
529	 7.08379090697546E-02 
530	 7.13343396743041E-02 
531	 7.18184509107479E-02 
532	 7.22960131269301E-02 
533	 7.27841447071922E-02 
534	 7.32861614103897E-02 
535	 7.37779050554033E-02 
536	 7.42789592233419E-02 
537	 7.48551408668978E-02 
538	 7.53758840679488E-02 
539	 7.59429769057655E-02 
540	 7.66093978043984E-02 
541	 7.70745452821426E-02 
542	 7.76183180365658E-02 
543	 7.82258604568816E-02 
544	 7.87185011030504E-02 
545	 7.92595625782231E-02 
546	 0.079838778625422 
547	 8.04280648952988E-02 
548	 8.10151577129481E-02 
549	 0.081573434753186 
550	 8.21236408706599E-02 
551	 8.26914134100277E-02 
552	 8.32026082105268E-02 
553	 0.083766966509479 
554	 8.43788137852822E-02 
555	 8.48932254684759E-02 
556	 8.54847956553108E-02 
557	 8.60746906196439E-02 
558	 8.65797866489413E-02 
559	 8.71275116095873E-02 
560	 8.76678354989808E-02 
561	 8.81756676384832E-02 
562	 8.86532127375285E-02 
563	 8.91859469416682E-02 
564	 8.96867204365374E-02 
565	 9.01127314094495E-02 
566	 0.090549454500095 
567	 9.10133277911447E-02 
568	 9.14796032486464E-02 
569	 9.19151603428202E-02 
570	 0.092374151021604 
571	 9.27434769473468E-02 
572	 9.30700235462251E-02 
573	 9.35693436119778E-02 
574	 9.38919138910176E-02 
575	 9.42517402028725E-02 
576	 9.47977764521514E-02 
577	 9.50418826261138E-02 
578	 9.53690023187744E-02 
579	 9.58153752954039E-02 
580	 9.61968327697465E-02 
581	 9.64638750555112E-02 
582	 0.09670647004246 
583	 9.69716191639777E-02 
584	 9.71833609065137E-02 
585	 9.75037977252857E-02 
586	 9.78168664861429E-02 
587	 9.79758533370171E-02 
588	 9.82988113876576E-02 
589	 9.86395828437907E-02 
590	 9.89002647122504E-02 
591	 9.91014995059489E-02 
592	 9.91645099203873E-02 
593	 9.92096994653434E-02 
594	 9.93350908451255E-02 
595	 9.94625524811955E-02 
596	 9.95501194893648E-02 
597	 9.96069481514694E-02 
598	 9.96720549478366E-02 
599	 0.099743575249826 
600	 9.98417938551874E-02 
601	 9.99537494940271E-02 
602	 0.100005856422343 
603	 0.100065040960748 
604	 0.100167073086585 
605	 0.100316318230387 
606	 0.100417255482423 
607	 0.100522927448489 
608	 0.100643455767192 
609	 0.100738266992497 
610	 0.100822604632219 
611	 0.100943414819164 
612	 0.101095708132992 
613	 0.101095961844515 
614	 0.101130954330243 
615	 0.101226194674841 
616	 0.101311366177212 
617	 0.101343513375392 
618	 0.101502855890793 
619	 0.101754161057774 
620	 0.101668881982358 
621	 0.101698287987833 
622	 0.101828711142436 
623	 0.10191598572149 
624	 0.101947777979146 
625	 0.102136816269702 
626	 0.102359204937913 
627	 0.102197896437702 
628	 0.10218155152897 
629	 0.102290327666812 
630	 0.102419086410024 
631	 0.102555776581629 
632	 0.102597360558338 
633	 0.102627220800137 
634	 0.102779261063496 
635	 0.102799040437938 
636	 0.102824499555993 
637	 0.102922595961936 
638	 0.103007806487713 
639	 0.103105839456943 
640	 0.103198825605399 
641	 0.103262788749084 
642	 0.103289219988105 
643	 0.103372255471561 
644	 0.103484739810482 
645	 0.1035164949122 
646	 0.103777785618899 
647	 0.10395449053123 
648	 0.103858857204477 
649	 0.103865132899434 
650	 0.103924803776184 
651	 0.103989773198641 
652	 0.104010133987323 
653	 0.104021132414097 
654	 0.104080641464535 
655	 0.104146566317798 
656	 0.104040412614323 
657	 0.104083171630309 
658	 0.104121280262743 
659	 0.104015311593221 
660	 0.10394080324384 
661	 0.104001649089521 
662	 0.104145313050846 
663	 0.104220872169124 
664	 0.10422175669707 
665	 0.104264646659464 
666	 0.1043669886042 
667	 0.104331599655498 
668	 0.104396893715031 
669	 0.104556488429416 
670	 0.104701091908184 
671	 0.104641017684232 
672	 0.104726217749978 
673	 0.104974196608678 
674	 0.105078643099405 
675	 0.105091823796251 
676	 0.105155699238879 
677	 0.105341355426586 
678	 0.105499923830395 
679	 0.105628762338767 
680	 0.105714790378745 
681	 0.105769860653444 
682	 0.105954582117652 
683	 0.106159230498173 
684	 0.106314366069993 
685	 0.106448049421356 
686	 0.106675213588757 
687	 0.106876533721092 
688	 0.106933221711075 
689	 0.107028519107695 
690	 0.107200758049766 
691	 0.107398206250333 
692	 0.107519665792375 
693	 0.107622174569774 
694	 0.107672969716429 
695	 0.10767144493779 
696	 0.107671022098843 
697	 0.107784239475843 
698	 0.107924287698453 
699	 0.107967697659426 
700	 0.108042759733854 
701	 0.108022276063559 
702	 0.107956357174627 
703	 0.108017971989091 
704	 0.108023910264681 
705	 0.107946547949803 
706	 0.107825787358008 
707	 0.107801927244098 
708	 0.107625164943786 
709	 0.107432997921858 
710	 0.107430199883173 
711	 0.107343808518729 
712	 0.107154119567555 
713	 0.106942394162554 
714	 0.106874848637182 
715	 0.106934553094359 
716	 0.106906340950543 
717	 0.106583538678339 
718	 0.10632022468129 
719	 0.105826991724425 
720	 0.105329432011613 
721	 0.105006549311385 
722	 0.104616865038328 
723	 0.104290136750708 
724	 0.104033900161539 
725	 0.103502513451402 
726	 0.1028756431931 
727	 0.102213363593574 
728	 0.101537109311815 
729	 0.100839569829001 
730	 9.99371787360712E-02 
731	 9.89182726615256E-02 
732	 9.79689137775431E-02 
733	 9.74308412975038E-02 
734	 9.69829355419453E-02 
735	 9.64790123728562E-02 
736	 9.60311337748583E-02 
737	 9.56232024741404E-02 
738	 9.53271352628171E-02 
739	 9.51808052074638E-02 
740	 9.50605936415349E-02 
741	 9.49504553801899E-02 
742	 9.48666702443065E-02 
743	 9.48432327188793E-02 
744	 9.49087385612271E-02 
745	 9.49470063662796E-02 
746	 9.49114193423265E-02 
747	 9.48664879975063E-02 
748	 0.094937936125941 
749	 9.50581709154749E-02 
750	 0.095133569363002 
751	 9.51778584353014E-02 
752	 9.52100885823153E-02 
753	 9.52224091537164E-02 
754	 9.52121645691544E-02 
755	 0.095343477803979 
756	 9.54686474908629E-02 
757	 9.55270865416707E-02 
758	 9.56390766885674E-02 
759	 0.095774341229449 
760	 9.59240768282518E-02 
761	 9.60173588756736E-02 
762	 9.61051827436015E-02 
763	 9.62537663900219E-02 
764	 9.62688714841472E-02 
765	 9.60621144041589E-02 
766	 9.61613276738701E-02 
767	 9.62344120596926E-02 
768	 9.62391244909911E-02 
769	 9.63991585973527E-02 
770	 0.096530429396892 
771	 9.65700165811025E-02 
772	 9.65586265283778E-02 
773	 9.67423516982275E-02 
774	 9.69527311499262E-02 
775	 9.71210777878416E-02 
776	 9.72497538635178E-02 
777	 9.74860289593405E-02 
778	 0.097625208073451 
779	 9.77144030284198E-02 
780	 9.80487489532398E-02 
781	 9.82103121122299E-02 
782	 9.83416652061079E-02 
783	 9.85635258092414E-02 
784	 9.87081408486049E-02 
785	 9.88691047884183E-02 
786	 9.91045795797681E-02 
787	 0.099428600587676 
788	 9.97022569657325E-02 
789	 9.99889036473763E-02 
790	 0.100190267063945 
791	 0.10013699175149 
792	 0.100307754341801 
793	 0.100634856084833 
794	 0.100955292695688 
795	 0.101069853481799 
796	 0.101343691410575 
797	 0.101563964499735 
798	 0.101558317004899 
799	 0.101817469349825 
800	 0.102157197632288 
801	 0.102351702746901 
802	 0.102247405165565 
803	 0.102296737863887 
804	 0.102354474359661 
805	 0.102389726173376 
806	 0.102538025397756 
807	 0.102359545714412 
808	 0.102278370818994 
809	 0.102558984613078 
810	 0.102591490703317 
811	 0.102553890207861 
812	 0.102583999089643 
813	 0.102732154765806 
814	 0.102471680215209 
815	 0.102247459720868 
816	 0.102097682289691 
817	 0.101702584021552 
818	 0.101286908655753 
819	 0.101048627033643 
820	 0.100832068234638 
821	 0.100082974050877 
822	 9.94029855185153E-02 
823	 9.88639477086027E-02 
824	 9.83303694250868E-02 
825	 9.75371068165883E-02 
826	 9.66855136499023E-02 
827	 9.57278999905915E-02 
828	 9.46212885827352E-02 
829	 9.34513537327208E-02 
830	 9.24969663650044E-02 
831	 9.17135987411254E-02 
832	 9.08761963617497E-02 
833	 9.02406731026217E-02 
834	 8.95932045055875E-02 
835	 8.89942726299845E-02 
836	 8.89056547806856E-02 
837	 8.83896433410039E-02 
838	 8.78887350501496E-02 
839	 0.08777825034713 
840	 8.74834093413504E-02 
841	 8.72046929230471E-02 
842	 8.69197562369128E-02 
843	 8.65677426986581E-02 
844	 8.62308663851876E-02 
845	 8.60173836445052E-02 
846	 8.57966599705614E-02 
847	 0.085340540436494 
848	 0.085113834439961 
849	 8.48795496975393E-02 
850	 8.45527588615456E-02 
851	 8.43345262650327E-02 
852	 8.41676651803314E-02 
853	 8.39296849623939E-02 
854	 8.35455254673899E-02 
855	 8.30439769112005E-02 
856	 8.28699429543217E-02 
857	 8.28478401400137E-02 
858	 8.26895099479245E-02 
859	 8.23804238123536E-02 
860	 8.22058340923376E-02 
861	 0.082115938257258 
862	 8.18838354930051E-02 
863	 8.13791754479605E-02 
864	 8.11576462300251E-02 
865	 8.11547566215984E-02 
866	 8.07778712901729E-02 
867	 8.06816790166918E-02 
868	 0.08034670324265 
869	 7.97912339852692E-02 
870	 7.98721600018267E-02 
871	 7.95291233649389E-02 
872	 7.91461653615088E-02 
873	 7.90626478104726E-02 
874	 7.88138865262434E-02 
875	 7.84728569415316E-02 
876	 7.81686362541242E-02 
877	 7.79528197165607E-02 
878	 7.74901499309094E-02 
879	 7.72151702294848E-02 
880	 7.70092209194031E-02 
881	 7.65483489821778E-02 
882	 7.60109503497531E-02 
883	 7.55335178607302E-02 
884	 7.51908959501069E-02 
885	 7.49914248411605E-02 
886	 7.48909917971827E-02 
887	 7.45855909158269E-02 
888	 7.41257938815235E-02 
889	 7.39568452545789E-02 
890	 7.38728202783125E-02 
891	 7.35329606920081E-02 
892	 7.29353513915941E-02 
893	 7.27780743190085E-02 
894	 7.24408985226272E-02 
895	 7.21997557240641E-02 
896	 7.22818048585484E-02 
897	 7.18590037804144E-02 
898	 7.18459681564061E-02 
899	 7.17914529927982E-02 
900	 7.12031035729919E-02 
901	 7.12078321650249E-02 
902	 7.07345439920273E-02 
903	 6.98708286530875E-02 
904	 6.91559653379241E-02 
905	 6.89692864065224E-02 
906	 6.90037192409909E-02 
907	 6.90024913614187E-02 
908	 6.87188831349266E-02 
909	 6.76941363067194E-02 
910	 6.69232101150635E-02 
911	 6.66695126212785E-02 
912	 6.63423605410774E-02 
913	 6.54311748707817E-02 
914	 6.48631324712518E-02 
915	 6.45995955333832E-02 
916	 6.34667959580287E-02 
917	 0.062624011050118 
918	 6.19758924226809E-02 
919	 0.061343252623416 
920	 6.07000054601393E-02 
921	 6.02007270033452E-02 
922	 5.90858380525525E-02 
923	 5.72658480602226E-02 
924	 5.64291922010022E-02 
925	 5.68110271053062E-02 
926	 5.67162886282904E-02 
927	 5.45376492572508E-02 
928	 5.19482994055722E-02 
929	 5.14173543633396E-02 
930	 5.36037486250969E-02 
931	 5.61937146700282E-02 
932	 5.01166366666648E-02 
933	 4.54562644435158E-02 
934	 0.046184949406968 
935	 4.74641928265678E-02 
936	 4.03815660467544E-02 
937	 3.93355734999061E-02 
938	 4.01676463956082E-02 
939	 0.036819464889189 
940	 0.038635771110295 
941	 3.77586343794453E-02 
942	 0.036276446641525 
943	 0.039143823391654 
944	 3.54485630987198E-02 
945	 3.17211462269131E-02 
946	 2.98401520110603E-02 
947	 2.81140050496209E-02 
948	 2.84871960715855E-02 
949	 2.70398654910701E-02 
950	 2.45471585592854E-02 
951	 2.42745122349319E-02 
952	 2.49672312022369E-02 
953	 2.59072457406713E-02 
954	 2.48964165687071E-02 
955	 0.020381805682934 
956	 1.94461319681195E-02 
957	 2.08504902103757E-02 
958	 0.021896368247613 
959	 2.02601412193454E-02 
960	 1.80030343556757E-02 
961	 1.80751289333834E-02 
962	 1.96474501460801E-02 
963	 1.96989650838396E-02 
964	 1.85874215661212E-02 
965	 1.83347660862491E-02 
966	 0.018093561966369 
967	 1.57523275654428E-02 
968	 1.55321382755414E-02 
969	 1.67021488796029E-02 
970	 1.78865292108698E-02 
971	 1.78734129871469E-02 
972	 1.78749900824961E-02 
973	 1.72212355001461E-02 
974	 1.63753886170629E-02 
975	 1.68500305351689E-02 
976	 1.81969902199973E-02 
977	 1.67742833281221E-02 
978	 0.014624601559715 
979	 1.73402302689492E-02 
980	 1.84135228628494E-02 
981	 1.84059248383621E-02 
982	 1.87974515549998E-02 
983	 2.04201441090149E-02 
984	 1.85507247104912E-02 
985	 1.67995215257777E-02 
986	 0.016902988896037 
987	 1.81075684954422E-02 
988	 0.018676643987147 
989	 1.80240583174759E-02 
990	 1.71313729476675E-02 
991	 1.77305956180211E-02 
992	 0.019292859033611 
993	 1.91757993606072E-02 
994	 1.77465535765806E-02 
995	 0.017373897376615 
996	 1.78271602579609E-02 
997	 1.79523834071241E-02 
998	 1.82544741586857E-02 
999	 1.98234057469716E-02 
1000	 2.08069444880663E-02 
1001	 0.019094808813079 
1002	 1.89973412165884E-02 
1003	 1.90284994119552E-02 
1004	 1.89418472234576E-02 
1005	 1.90701983785008E-02 
1006	 1.94073895706594E-02 
1007	 1.96537596677853E-02 
1008	 1.99548101108535E-02 
1009	 2.04073077320834E-02 
1010	 2.07596341049175E-02 
1011	 2.11518248989694E-02 
1012	 0.021646078687964 
1013	 2.20983883271463E-02 
1014	 2.25028616233772E-02 
1015	 2.30061114488387E-02 
1016	 2.32977587969261E-02 
1017	 2.32487962273321E-02 
1018	 2.35620525071899E-02 
1019	 2.39940995075582E-02 
1020	 2.43704110641698E-02 
1021	 2.49348098158358E-02 
1022	 2.54279372454836E-02 
1023	 2.57302585515191E-02 
1024	 0.025977122951681 
1025	 2.63468941127287E-02 
1026	 2.70592474028185E-02 
1027	 2.76157035222381E-02 
1028	 2.82351666970035E-02 
1029	 2.88930933882159E-02 
1030	 2.96239006515618E-02 
1031	 3.01475861241659E-02 
1032	 3.06299748048483E-02 
1033	 3.11301979753372E-02 
1034	 3.14133287411687E-02 
1035	 3.18578417305516E-02 
1036	 3.24680521560102E-02 
1037	 3.30524904094338E-02 
1038	 3.36013233568488E-02 
1039	 3.42075663372153E-02 
1040	 3.50654941100447E-02 
1041	 0.03566137111598 
1042	 3.61476954561502E-02 
1043	 3.65660095062384E-02 
1044	 3.69746101970658E-02 
1045	 0.037044301232187 
1046	 3.75648917668227E-02 
1047	 0.038436094520761 
1048	 0.039009047208259 
1049	 3.96502825008291E-02 
1050	 4.02044714901212E-02 
1051	 0.040435421161378 
1052	 4.09388119824479E-02 
1053	 4.17951658887359E-02 
1054	 4.23332123461798E-02 
1055	 0.042803140066787 
1056	 4.32357604554733E-02 
1057	 4.35643490536358E-02 
1058	 4.35982522141373E-02 
1059	 4.38980299893678E-02 
1060	 4.43328936951522E-02 
1061	 4.46320277973166E-02 
1062	 4.49094690086041E-02 
1063	 4.52013082148188E-02 
1064	 4.54329977099368E-02 
1065	 0.045702616885585 
1066	 0.046196329239021 
1067	 4.63291110488069E-02 
1068	 4.62092969587273E-02 
1069	 4.61855991773544E-02 
1070	 4.58585590294277E-02 
1071	 4.57665630523064E-02 
1072	 4.59764047384014E-02 
1073	 0.046024750049192 
1074	 4.60465634914967E-02 
1075	 4.61045049575475E-02 
1076	 4.60791102036407E-02 
1077	 4.60510705513515E-02 
1078	 4.57605498214582E-02 
1079	 4.52425753521986E-02 
1080	 0.044897105884537 
1081	 4.42548510036406E-02 
1082	 4.40140015924124E-02 
1083	 4.42494724569082E-02 
1084	 4.41626480307447E-02 
1085	 0.044187920619256 
1086	 4.39478092162833E-02 
1087	 4.33912352874442E-02 
1088	 4.28866887740983E-02 
1089	 0.042151554284914 
1090	 4.16146651722165E-02 
1091	 4.10827491565613E-02 
1092	 4.05179555346028E-02 
1093	 4.02058470710479E-02 
1094	 4.01356313635174E-02 
1095	 3.97765944684147E-02 
1096	 3.94903910829767E-02 
1097	 3.90477859069019E-02 
1098	 3.83125638141287E-02 
1099	 3.76994919232607E-02 
1100	 3.70108060969974E-02 
1101	 3.65055745785586E-02 
1102	 3.60600270441467E-02 
1103	 3.56866702181859E-02 
1104	 3.58185769135456E-02 
1105	 0.035393224984127 
1106	 3.46325121164094E-02 
1107	 3.37694694532079E-02 
1108	 0.032698254391459 
1109	 3.24840483845765E-02 
1110	 3.24641563479934E-02 
1111	 3.35421097198532E-02 
1112	 3.36071269250196E-02 
1113	 3.34211029589091E-02 
1114	 3.31676977270492E-02 
1115	 3.20570326038581E-02 
1116	 3.14649289991121E-02 
1117	 3.18632787654765E-02 
1118	 3.16019961070033E-02 
1119	 2.88444035741441E-02 
1120	 2.87050742504405E-02 
1121	 3.25284551809959E-02 
1122	 0.03492007783274 
1123	 3.19195514097658E-02 
1124	 3.25471034694376E-02 
1125	 2.86894305033848E-02 
1126	 2.21715327461312E-02 
1127	 2.30974877985116E-02 
1128	 2.63636548292335E-02 
1129	 2.57249839795413E-02 
1130	 2.27228523873646E-02 
1131	 2.06349968057269E-02 
1132	 1.71950361644479E-02 
1133	 1.60166432120122E-02 
1134	 1.65360783080803E-02 
1135	 1.61573066895852E-02 
1136	 1.58844850508703E-02 
1137	 0.016001144759303 
1138	 0.016875687916894 
1139	 1.47054460485901E-02 
1140	 1.34569969527267E-02 
1141	 1.59073141304568E-02 
1142	 0.01671919137311 
1143	 1.47590908379231E-02 
1144	 1.38719758804448E-02 
1145	 1.38027860598115E-02 
1146	 1.30075136501678E-02 
1147	 1.33135045796273E-02 
1148	 1.50283385277952E-02 
1149	 1.46993048658031E-02 
1150	 1.42297718531584E-02 
1151	 1.37858505490909E-02 
1152	 1.34510192727452E-02 
1153	 1.24657290914883E-02 
1154	 1.22167296138702E-02 
1155	 1.23821917220954E-02 
1156	 1.22681359106083E-02 
1157	 1.20760444725295E-02 
1158	 1.20879005260837E-02 
1159	 1.20806211941985E-02 
1160	 1.23440281879144E-02 
1161	 1.22323844744595E-02 
1162	 1.17578008094212E-02 
1163	 1.18537999848005E-02 
1164	 1.19526965586596E-02 
1165	 1.19162192050366E-02 
1166	 1.19418901286961E-02 
1167	 1.18791106169668E-02 
1168	 1.17972970485235E-02 
1169	 1.19865934128332E-02 
1170	 1.23549855856289E-02 
1171	 1.23701290863031E-02 
1172	 1.19411681223734E-02 
1173	 1.19744751995603E-02 
1174	 1.21017160245718E-02 
1175	 1.20798917754562E-02 
1176	 1.23516214019849E-02 
1177	 1.23789623861269E-02 
1178	 1.20114203977611E-02 
1179	 1.18086849318818E-02 
1180	 1.16362301659989E-02 
1181	 1.14804164747108E-02 
1182	 1.14070286817143E-02 
1183	 1.15030190886324E-02 
1184	 1.15450744379213E-02 
1185	 1.15124096794067E-02 
1186	 1.16883169284073E-02 
1187	 1.17135157773444E-02 
1188	 1.16136270086655E-02 
1189	 1.16992768507631E-02 
1190	 1.16703987892181E-02 
1191	 1.16562938725611E-02 
1192	 1.16503338959058E-02 
1193	 1.17572201823528E-02 
1194	 1.16301188817996E-02 
1195	 1.15254054900326E-02 
1196	 1.14952878098607E-02 
1197	 1.13729016979177E-02 
1198	 1.14885610075645E-02 
1199	 1.15796092894953E-02 
1200	 1.11607364605181E-02 
1201	 1.08630145899878E-02 
1202	 1.09127966994392E-02 
1203	 1.09201687226596E-02 
1204	 1.11512837241458E-02 
1205	 1.13439343231419E-02 
1206	 1.12920479380358E-02 
1207	 1.12227428639801E-02 
1208	 1.11100585672393E-02 
1209	 1.11121606677986E-02 
1210	 1.11486474323095E-02 
1211	 1.12048345009463E-02 
1212	 1.12422299989109E-02 
1213	 0.011110597907503 
1214	 1.10921368949172E-02 
1215	 1.10622613819797E-02 
1216	 1.10238540712318E-02 
1217	 1.09931064088808E-02 
1218	 1.10840971629613E-02 
1219	 1.10444650878359E-02 
1220	 1.09681699359374E-02 
1221	 0.011076871815013 
1222	 1.12047473512148E-02 
1223	 0.011180576256884 
1224	 1.11328547643758E-02 
1225	 1.10948363019402E-02 
1226	 1.08721702675093E-02 
1227	 1.07045364560958E-02 
1228	 1.06938464335761E-02 
1229	 1.05711064130447E-02 
1230	 1.05804724733292E-02 
1231	 1.07648748202745E-02 
1232	 1.07980300097036E-02 
1233	 1.07962321539816E-02 
1234	 1.08174924085231E-02 
1235	 1.07624300160616E-02 
1236	 1.05679663407026E-02 
1237	 1.05359327073241E-02 
1238	 0.010546697560548 
1239	 1.05278179096721E-02 
1240	 1.06309123940334E-02 
1241	 1.07944501791851E-02 
1242	 0.010740509526234 
1243	 1.07231794007154E-02 
1244	 1.07234291545032E-02 
1245	 1.05745691106199E-02 
1246	 1.05554067289627E-02 
1247	 1.06434516945675E-02 
1248	 1.06266559785049E-02 
1249	 0.010641149522919 
1250	 1.07115373578422E-02 
1251	 1.06975792688925E-02 
1252	 1.06218357638704E-02 
1253	 1.05599913608516E-02 
1254	 1.05538006312767E-02 
1255	 1.05268555717893E-02 
1256	 1.05512535071261E-02 
1257	 1.07435991203569E-02 
1258	 1.07790257305055E-02 
1259	 1.06553120675789E-02 
1260	 1.07318378453385E-02 
1261	 1.09253459789351E-02 
1262	 1.09032373832205E-02 
1263	 1.08512458367413E-02 
1264	 1.09226790941644E-02 
1265	 1.08126031893475E-02 
1266	 1.05882990494429E-02 
1267	 1.06895861103973E-02 
1268	 1.09380313916308E-02 
1269	 1.09345273300951E-02 
1270	 1.08166939171906E-02 
1271	 0.010841959934179 
1272	 1.08593803493455E-02 
1273	 0.010826657863174 
1274	 1.09061980278252E-02 
1275	 1.09865231792742E-02 
1276	 1.09203934085616E-02 
1277	 0.010722802532967 
1278	 1.06896125282939E-02 
1279	 1.09708502494796E-02 
1280	 1.09617129781833E-02 
1281	 1.09129234329185E-02 
1282	 1.10036159924662E-02 
1283	 1.09720052172702E-02 
1284	 1.05020911512281E-02 
1285	 0.010463980498158 
1286	 1.07407559540715E-02 
1287	 1.07760816828483E-02 
1288	 1.09388036262957E-02 
1289	 1.10192538176882E-02 
1290	 1.10502592881807E-02 
1291	 1.07606912541948E-02 
1292	 1.05904100182498E-02 
1293	 1.05013820288991E-02 
1294	 1.05219125707779E-02 
1295	 1.07066949212157E-02 
1296	 0.010935776086079 
1297	 1.10121984273641E-02 
1298	 0.010742017965578 
1299	 1.04022135196228E-02 
1300	 1.03580386217228E-02 
1301	 1.04593759788755E-02 
1302	 1.05309585623149E-02 
1303	 1.05264510655564E-02 
1304	 1.04283351742915E-02 
1305	 1.02536024418931E-02 
1306	 1.00791949246853E-02 
1307	 9.90765920499228E-03 
1308	 9.99596703736505E-03 
1309	 1.02359481733119E-02 
1310	 0.010182645972382 
1311	 1.01026470261702E-02 
1312	 1.03100767234497E-02 
1313	 1.05296874856302E-02 
1314	 1.05000385440325E-02 
1315	 1.07533565859774E-02 
1316	 0.010908698213659 
1317	 0.010430969771168 
1318	 1.02295420266398E-02 
1319	 1.04695058460602E-02 
1320	 1.06039962169927E-02 
1321	 1.05174246936227E-02 
1322	 0.010767667272515 
1323	 1.10552844473051E-02 
1324	 0.010538090453231 
1325	 9.95281944915026E-03 
1326	 9.73616023888075E-03 
1327	 9.33587497102619E-03 
1328	 9.25744054934805E-03 
1329	 9.4690712277256E-03 
1330	 9.39561583816182E-03 
1331	 9.8456809690989E-03 
1332	 9.9595416119635E-03 
1333	 9.69236571126847E-03 
1334	 1.04831879880697E-02 
1335	 1.06211117893374E-02 
1336	 1.04543660586497E-02 
1337	 1.05081064383888E-02 
1338	 1.04002221708675E-02 
1339	 1.02353815056313E-02 
1340	 1.04513947432624E-02 
1341	 1.05655738702706E-02 
1342	 1.03859348246608E-02 
1343	 0.010155773564296 
1344	 9.64141268870116E-03 
1345	 9.36961906866892E-03 
1346	 9.00484703356513E-03 
1347	 9.29155432686071E-03 
1348	 1.10971932661916E-02 
1349	 1.19949347591683E-02 
1350	 1.32972374007465E-02 
1351	 1.53451876547897E-02 
1352	 1.68601160591018E-02 
1353	 1.75809297144968E-02 
1354	 1.85049443787492E-02 
1355	 1.12725059204527E-02 
1356	-3.71833248057508E-03 
1357	 4.44705938910361E-03 
1358	 6.28731633696574E-02 
1359	 0.096972990354539 
1360	 0.106404275855474 
1361	 9.98919604128595E-02 
1362	 7.24452045828526E-03 
1363	-7.79882375176647E-02 
1364	-1.03079720749916E-02 
1365	 8.14109283352914E-02 
1366	 5.30379404841903E-02 
1367	 3.51645440758477E-02 
1368	 0.133181739517531 
1369	 0.109733041872911 
1370	 0.100625459072428 
1371	 0.302381835066133 
1372	 0.295089790746348 
1373	-0.045637892204684 
1374	-0.254408777424618 
1375	-0.299282401712362 
1376	-0.187331548960607 
1377	 6.31966050389269E-03 
1378	 9.60056877344244E-02 
1379	 0.301478362177631 
1380	 0.304158850015329 
1381	 3.13934909889589E-02 
1382	 6.88075200603532E-02 
1383	 0.410061031226349 
1384	 0.406557569959588 
1385	 0.313247599345362 
1386	 0.356179980407983 
1387	 0.287662874008243 
1388	 0.202214531421802 
1389	 0.227230844274303 
1390	 0.214635998554487 
1391	 2.53385707782416E-02 
1392	-0.148681619596893 
1393	-9.53582950884697E-02 
1394	 0.252888166956136 
1395	 0.676399804266455 
1396	 0.479964169311449 
1397	 0.27781288026191 
1398	 5.30005003029043E-02 
1399	-0.303253427717555 
1400	-0.306923234866266 
1401	-0.122247623800814 
1402	-0.118700782991585 
1403	 4.82169062496272E-02 
1404	 0.268174151075593 
1405	 0.261445919834206 
1406	 1.81988032802318E-02 
1407	 1.34328099226499E-02 
1408	 6.24220966134934E-02 
1409	 4.21967285443418E-02 
1410	-6.87627576824753E-03 
1411	 0.099247054145309 
1412	 0.272040999530034 
1413	 0.222338765673117 
1414	 0.180700482502113 
1415	 0.129736490674981 
1416	-4.81384976119263E-02 
1417	-6.60511363756266E-02 
1418	 1.47389002266544E-02 
1419	 2.50771876922375E-02 
1420	 3.62343912175668E-02 
1421	 3.07436474383011E-02 
1422	 1.40148972135538E-02 
1423	 2.50401519394662E-03 
1424	-1.60166613856139E-02 
1425	-1.62307088957583E-02 
1426	-8.09989417224462E-03 
1427	-7.73328035801654E-03 
1428	-6.29370482502107E-03 
1429	-3.2588746482606E-03 
1430	-4.10067953104101E-03 
1431	-3.23286810020883E-03 
1432	 5.91596229342334E-03 
1433	 9.26862649419527E-03 
1434	 2.98275561819321E-03 
1435	 4.94471426098594E-03 
1436	 1.40282561344788E-02 
1437	 1.72684654911057E-02 
1438	 1.39572417357553E-02 
1439	 0.016366785914636 
1440	 2.43376226326755E-02 
1441	 2.24379091828257E-02 
1442	 1.31259563294898E-02 
1443	 1.40946411522315E-02 
1444	 0.015029061259915 
1445	 1.07709095805529E-02 
1446	 1.32004132208566E-02 
1447	 1.56914947669902E-02 
1448	 1.38816734497458E-02 
1449	 1.14586477615112E-02 
1450	 1.01489762646875E-02 
1451	 1.04803335004751E-02 
1452	 9.16097404228729E-03 
1453	 8.1206742195326E-03 
1454	 8.83086591661298E-03 
1455	 1.08354193776198E-02 
1456	 1.10511994438496E-02 
1457	 1.13242709601454E-02 
1458	 1.18413130280338E-02 
1459	 0.011789834134768 
1460	 1.17740026018242E-02 
1461	 1.25497538612563E-02 
1462	 1.23820409800687E-02 
1463	 1.07622552401293E-02 
1464	 1.04210070495591E-02 
1465	 1.11464804468107E-02 
1466	 1.08610431066241E-02 
1467	 1.00090197116173E-02 
1468	 0.010134602856489 
1469	 9.76836073563182E-03 
1470	 1.02961162812224E-02 
1471	 1.32577294841493E-02 
1472	 1.29211382735995E-02 
1473	 1.09183484272336E-02 
1474	 1.04924480031162E-02 
1475	 9.08074020716681E-03 
1476	 8.66652356207993E-03 
1477	 9.57063681633173E-03 
1478	 9.54955240117168E-03 
1479	 8.96535932216006E-03 
1480	 8.98436521266066E-03 
1481	 0.010046166611044 
1482	 9.58354810679209E-03 
1483	 7.61900367628697E-03 
1484	 7.62479193161471E-03 
1485	 8.23077453344946E-03 
1486	 8.21604268129243E-03 
1487	 8.89043327194968E-03 
1488	 9.11800983203368E-03 
1489	 8.5566086073086E-03 
1490	 8.32740877693528E-03 
1491	 8.42703470243973E-03 
1492	 8.4779437929018E-03 
1493	 8.37005464747227E-03 
1494	 8.35733572133431E-03 
1495	 8.59340403873743E-03 
1496	 8.5288500065052E-03 
1497	 8.21007785553586E-03 
1498	 8.19195785038735E-03 
1499	 8.1727848181459E-03 
1500	 8.22590585460448E-03 
1501	 8.58026182723458E-03 
1502	 8.59254427761809E-03 
1503	 8.32293452136037E-03 
1504	 8.30341163793152E-03 
1505	 8.19386250963089E-03 
1506	 8.3239053694984E-03 
1507	 8.47984866593886E-03 
1508	 8.51853692779256E-03 
1509	 8.53521024133746E-03 
1510	 8.34934199512203E-03 
1511	 8.22583779474575E-03 
1512	 8.36481570945097E-03 
1513	 8.53710471026667E-03 
1514	 8.67266423556461E-03 
1515	 8.8667679495644E-03 
1516	 8.75386292879609E-03 
1517	 8.40440931620123E-03 
1518	 8.37259858965863E-03 
1519	 8.37223121092967E-03 
1520	 8.36505290799225E-03 
1521	 8.57909282141542E-03 
1522	 8.66964788891349E-03 
1523	 8.69478351569616E-03 
1524	 8.75995397432456E-03 
1525	 8.70914694925638E-03 
1526	 8.70435723214275E-03 
1527	 8.73275439986571E-03 
1528	 8.58472221499526E-03 
1529	 8.42283272414775E-03 
1530	 8.44282488356061E-03 
1531	 8.33105922288126E-03 
1532	 8.18385719006572E-03 
1533	 8.3089947837632E-03 
1534	 8.35118582671064E-03 
1535	 8.16709839486228E-03 
1536	 8.12731403416385E-03 
1537	 8.34795005400843E-03 
1538	 8.42049487883021E-03 
1539	 8.31918079001838E-03 
1540	 8.46337105474973E-03 
1541	 8.64063676134919E-03 
1542	 8.45265129959882E-03 
1543	 8.29232503731514E-03 
1544	 8.42370120900693E-03 
1545	 8.46529525228149E-03 
1546	 8.35805670327678E-03 
1547	 8.28026013517138E-03 
1548	 8.33594643278663E-03 
1549	 8.43471918112169E-03 
1550	 8.42805137660016E-03 
1551	 8.43861792722534E-03 
1552	 8.44232011420057E-03 
1553	 8.46102452397033E-03 
1554	 8.49979649540492E-03 
1555	 8.58937448167603E-03 
1556	 8.69540747898184E-03 
1557	 8.54405518554081E-03 
1558	 8.38038167904809E-03 
1559	 8.42728830981651E-03 
1560	 8.55644305421503E-03 
1561	 8.64703118661596E-03 
1562	 8.63313581756789E-03 
1563	 8.59613637406755E-03 
1564	 8.51963621542884E-03 
1565	 8.40136429652463E-03 
1566	 8.42596520100987E-03 
1567	 8.40688646693528E-03 
1568	 8.23029696180618E-03 
1569	 8.30357508327084E-03 
1570	 8.52695607404336E-03 
1571	 8.62696923566221E-03 
1572	 8.5744544365908E-03 
1573	 8.46206063172475E-03 
1574	 8.40422214667407E-03 
1575	 8.3961099106311E-03 
1576	 8.58105131155149E-03 
1577	 8.74987134049104E-03 
1578	 8.61198866649085E-03 
1579	 8.50049134954832E-03 
1580	 8.62624966087443E-03 
1581	 8.56756167310047E-03 
1582	 8.47859871208156E-03 
1583	 8.59103590093777E-03 
1584	 8.47947765017116E-03 
1585	 8.42820578611213E-03 
1586	 8.59159852724473E-03 
1587	 8.45714256370702E-03 
1588	 8.28553442271133E-03 
1589	 8.34822324760103E-03 
1590	 8.36273020323639E-03 
1591	 8.29218811098515E-03 
1592	 8.24088403658118E-03 
1593	 8.22835806241229E-03 
1594	 8.18966745090687E-03 
1595	 8.21234965096659E-03 
1596	 8.26453408519368E-03 
1597	 8.37402562121797E-03 
1598	 8.54354019733197E-03 
1599	 8.47382759468868E-03 
1600	 8.37175944460474E-03 
1601	 8.36163412742271E-03 
1602	 8.38428977752096E-03 
1603	 8.42160290632499E-03 
1604	 8.41130080590896E-03 
1605	 8.61403989665421E-03 
1606	 8.69994086766331E-03 
1607	 8.5875206986576E-03 
1608	 8.72564145132127E-03 
1609	 8.69549555338843E-03 
1610	 8.53235947523013E-03 
1611	 8.59060705529503E-03 
1612	 8.65399416947784E-03 
1613	 8.74331204209493E-03 
1614	 8.65079088555004E-03 
1615	 8.40345229888983E-03 
1616	 8.40387803988213E-03 
1617	 8.46715526770284E-03 
1618	 8.58492879757054E-03 
1619	 8.83878430791563E-03 
1620	 8.74614693459322E-03 
1621	 8.48513337137223E-03 
1622	 8.58050156280586E-03 
1623	 8.73395500774258E-03 
1624	 8.89111525150476E-03 
1625	 9.09829997467876E-03 
1626	 8.99814822131713E-03 
1627	 8.58648469685411E-03 
1628	 8.47581465834527E-03 
1629	 8.78622125232101E-03 
1630	 8.76856779877302E-03 
1631	 8.55196483198776E-03 
1632	 8.69134812724573E-03 
1633	 8.69879001196239E-03 
1634	 8.40963222890711E-03 
1635	 8.46592477345927E-03 
1636	 8.62644964560368E-03 
1637	 8.48863778462414E-03 
1638	 8.37687412412451E-03 
1639	 8.48403856845809E-03 
1640	 8.42897378030412E-03 
1641	 8.12417010492449E-03 
1642	 8.20012179440563E-03 
1643	 8.50221393275616E-03 
1644	 8.51801384203122E-03 
1645	 8.57616825452551E-03 
1646	 8.87876178659573E-03 
1647	 8.90926002364861E-03 
1648	 8.79316647380453E-03 
1649	 8.92523561924706E-03 
1650	 8.72239977247351E-03 
1651	 8.28055902054445E-03 
1652	 8.30942819398921E-03 
1653	 8.53589663869447E-03 
1654	 8.59515799128733E-03 
1655	 8.75933205959927E-03 
1656	 8.77557349692678E-03 
1657	 8.48545262963206E-03 
1658	 8.48564196578366E-03 
1659	 8.74508473725582E-03 
1660	 8.73549146432424E-03 
1661	 8.7054990123737E-03 
1662	 8.80175712612335E-03 
1663	 8.87414569414143E-03 
1664	 8.71587932515841E-03 
1665	 8.32489401424267E-03 
1666	 8.31872520248843E-03 
1667	 8.48307024095875E-03 
1668	 0.008499971918566 
1669	 8.52602952345363E-03 
1670	 8.40561084333127E-03 
1671	 8.08581881747443E-03 
1672	 8.1543203775844E-03 
1673	 8.32790503246804E-03 
1674	 8.26623740754802E-03 
1675	 8.18811903073883E-03 
1676	 8.0556001947728E-03 
1677	 8.04070538257357E-03 
1678	 8.18514368004307E-03 
1679	 8.29091778914779E-03 
1680	 8.3633114801247E-03 
1681	 8.30867347444635E-03 
1682	 8.36908905435462E-03 
1683	 8.52439576423327E-03 
1684	 8.35747154517807E-03 
1685	 8.43158356613775E-03 
1686	 8.50924930531769E-03 
1687	 8.11737621867007E-03 
1688	 8.0929005705877E-03 
1689	 8.18330305573828E-03 
1690	 8.09709728948585E-03 
1691	 8.29869129455211E-03 
1692	 8.27437665925666E-03 
1693	 7.99185272867416E-03 
1694	 8.29355907915438E-03 
1695	 8.61573313740709E-03 
1696	 8.52106339369494E-03 
1697	 8.55050779061505E-03 
1698	 8.46751190052778E-03 
1699	 8.36433056743241E-03 
1700	 8.59863208165286E-03 
1701	 8.6676664997764E-03 
1702	 8.38769708984275E-03 
1703	 8.31621291331969E-03 
1704	 8.38550218937697E-03 
1705	 8.60611335375126E-03 
1706	 9.13174397132351E-03 
1707	 8.92864775469584E-03 
1708	 8.16838468263883E-03 
1709	 7.98808730866652E-03 
1710	 8.06417951031317E-03 
1711	 8.21228868856006E-03 
1712	 8.47823123032732E-03 
1713	 8.35689177370035E-03 
1714	 8.32304097031242E-03 
1715	 8.17378763949597E-03 
1716	 8.65935181926932E-03 
1717	 9.01476548885474E-03 
1718	 8.79185226812573E-03 
1719	 8.24971759827401E-03 
1720	 7.84055078323965E-03 
1721	 7.47420665882037E-03 
1722	 7.81346868922453E-03 
1723	 8.53627686428352E-03 
1724	 8.14618382740728E-03 
1725	 7.79735832801473E-03 
1726	 7.98540763662755E-03 
1727	 7.73023562187664E-03 
1728	 7.90336675092887E-03 
1729	 8.24946252628865E-03 
1730	 8.02911816682502E-03 
1731	 7.90432740753494E-03 
1732	 8.18595092439561E-03 
1733	 8.47448751945596E-03 
1734	 8.36241062661474E-03 
1735	 8.27229810879795E-03 
1736	 8.33259487244891E-03 
1737	 8.21345318917855E-03 
1738	 8.29581756390425E-03 
1739	 8.45613148223539E-03 
1740	 8.57049301285551E-03 
1741	 8.94777203365678E-03 
1742	 9.11286200934109E-03 
1743	 9.00707020402084E-03 
1744	 8.65293445798374E-03 
1745	 8.27738851394974E-03 
1746	 8.06389775651916E-03 
1747	 7.95316749575611E-03 
1748	 8.25038582743202E-03 
1749	 8.26467390636537E-03 
1750	 7.96753878493103E-03 
1751	 8.04364916531474E-03 
1752	 8.35337982232708E-03 
1753	 8.29175468585015E-03 
1754	 8.39316084130158E-03 
1755	 8.4651117185867E-03 
1756	 7.92618934363888E-03 
1757	 7.86935762688787E-03 
1758	 7.99576526039116E-03 
1759	 7.79779728565221E-03 
1760	 8.37726468518846E-03 
1761	 8.45600102263624E-03 
1762	 7.69898813208902E-03 
1763	 7.78886605979551E-03 
1764	 7.95632466741508E-03 
1765	 8.01557669956881E-03 
1766	 9.00486868003013E-03 
1767	 9.26235848461294E-03 
1768	 8.99521524118066E-03 
1769	 9.06609626895502E-03 
1770	 8.42625321788357E-03 
1771	 8.31217725961551E-03 
1772	 8.54442618912848E-03 
1773	 8.72146906782684E-03 
1774	 9.48320770127602E-03 
1775	 9.49578987739647E-03 
1776	 9.4082990699125E-03 
1777	 8.86316473671871E-03 
1778	 8.52809123234591E-03 
1779	 8.23788926840861E-03 
1780	 8.10165136037104E-03 
1781	 8.56876739012721E-03 
1782	 8.37346472465704E-03 
1783	 7.32849329797797E-03 
1784	 7.56463018079134E-03 
1785	 7.79653008167491E-03 
1786	 8.7134243789315E-03 
1787	 1.26836463136365E-02 
1788	 1.21826968815415E-02 
1789	 8.03397866834282E-03 
1790	 6.18063759160916E-03 
1791	 4.91472536846853E-03 
1792	 8.75699946607745E-03 
1793	 1.37554863733136E-02 
1794	 1.47540870317833E-02 
1795	 1.35175032878592E-02 
1796	 8.80171065191013E-03 
1797	 5.50961150880075E-03 
1798	 4.73107985046003E-03 
1799	 4.27087166928073E-03 
1800	 1.10151988656189E-02 
1801	 1.04593692406558E-02 
1802	-5.04500240496392E-03 
1803	-4.48599853898666E-03 
1804	 8.19180693326394E-03 
1805	 1.29934572954916E-02 
1806	 5.24460183362189E-02 
1807	 7.54950450286896E-02 
1808	 2.66245493943903E-02 
1809	 2.60445120275816E-02 
1810	 0.077325077149672 
1811	 0.128467146604761 
1812	 0.260607567556085 
1813	 0.252968584394371 
1814	 7.64157603047924E-02 
1815	-9.69101806810515E-04 
1816	-0.29305500817641 
1817	-0.187018253214711 
1818	 6.54726285483463E-02 
1819	 6.33027419670653E-02 
1820	 0.841932118296755 
1821	-2.45763743387919 
1822	-0.448655769815759 
1823	-1.35298261926198 
1824	-0.627029017816576 
1825	-0.73545581966862 
1826	-0.655748510755845 
1827	-0.443499452465222 
1828	-0.364734543384164 
1829	-0.18203636543933 
1830	 1.14094288450491E-02 
1831	 1.04235578209256 
1832	 0.68151588615904 
1833	-4.20506710806985 
1834	 430.352547359138 
1835	-1.13202943171563E-02 
1836	-0.372952003875367 
1837	-60.9515211773343 
1838	 11.1704520435418 
1839	 1.96361536719976 
1840	-6.96971848744017E-02 
1841	 1.06428555228925 
1842	 4.11197454627503 
1843	 2.86060628637923 
1844	 1.37396488147819 
1845	 1.40738105133268 
1846	 0.83302900078282 
1847	 0.685660280908446 
1848	-1.79614618280332 
1849	 0.319639141399373 
1850	 0.445321315915178 
1851	 4.40708872498678E-02 
1852	 1.26597503585349 
1853	 0.653652940392054 
1854	 0.554822644304167 
1855	 0.391140359718069 
1856	 0.215243164973761 
1857	-0.424256178581095 
1858	-1.49608315958674 
1859	 4.62092396626873 
1860	 1.98713302852499 
1861	 1.3974413363104 
1862	 0.375660618234833 
1863	-0.824921132492363 
1864	 0.10116885583914 
1865	 0.109184960524344 
1866	 1.41995726354185 
1867	 1.10849142151368 
1868	 2.60703459928982 
1869	-3.20458779316581 
1870	 9.87781528176591 
1871	 1.02863944283122 
1872	 1.38512180388645 
1873	-2.22883599837877 
1874	-1.58453539277333 
1875	-1.94736651505368 
1876	-1.59581156817701 
1877	-2.36854448475189 
1878	-1.72445896186774 
1879	-2.87541955284908 
1880	-3.81901655524667 
1881	-22.3586251545431 
1882	-1.09348665434925 
1883	-0.73769937733251 
1884	-0.922667396516408 
1885	-0.195159907144584 
1886	 0.250584532439235 
1887	 16.4898393953657 
1888	-0.790656237507001 
1889	 2.22721716846315 
1890	 0.427674486918163 
1891	 0.274854594565758 
1892	-0.347296092224389 
1893	-0.876355580993488 
1894	 2.10407953645703 
1895	 0.951638118055991 
1896	 1.36130328180326 
1897	 0.6757200417491 
1898	 4.60676885826907 
1899	 0.314450662458208 
1900	 0.277605584127801 
1901	 0.143275427160715 
1902	 5.95800319898241E-02 
1903	-0.918839162808273 
1904	 0.713327612520522 
1905	 0.133343880405781 
1906	 0.24079917803912 
1907	 0.508497576986623 
1908	 0.575976400367177 
1909	 0.20453907912844 
1910	 0.458269227014996 
1911	 0.292264070947196 
1912	-0.208190135940602 
1913	-0.274145562215625 
1914	 1.41869741990083E-02 
1915	-9.11599836084229E-03 
1916	 5.27260200136977E-02 
1917	-6.73254381852866E-02 
1918	-0.71875028328845 
1919	-0.593845469598206 
1920	-0.727045880838525 
1921	-0.553714959659902 
1922	-0.477160819986296 
1923	-1.41810792726791 
1924	 1.02331011906648 
1925	 0.98939055235906 
1926	 0.802066480035021 
1927	 0.19527509950314 
1928	 3.13652164864384E-02 
1929	-4.50942335696947 
1930	-0.347189729891638 
1931	-2.03630806208763 
1932	-0.950302599688597 
1933	-0.105624540225523 
1934	-7.15543559168781E-02 
1935	-0.137979665965237 
1936	-0.016186445086562 
1937	-9.78573999482612E-03 
1938	-5.44771157857484E-02 
1939	-6.04817716071288E-02 
1940	-3.57418737974597E-02 
1941	-2.24324114597778E-02 
1942	-1.30159747146448E-02 
1943	 2.17978680318812E-02 
1944	 2.81380885254418E-02 
1945	 0.042343630096958 
1946	 7.41449933494792E-02 
1947	 5.70500453158885E-02 
1948	 4.57873766825884E-02 
1949	 2.54921000621706E-02 
1950	 2.24937259464601E-03 
1951	 1.51960705803096E-02 
1952	 1.78476728120227E-02 
1953	 3.86551749305025E-02 
1954	 4.29131840063253E-02 
1955	 9.57109058444843E-03 
1956	-9.00232391131162E-03 
1957	-4.6805565733585E-03 
1958	-3.41401333318897E-04 
1959	 6.27150873679038E-03 
1960	 5.97843015469705E-03 
1961	 4.03291332313667E-03 
1962	 1.51929789973518E-03 
1963	 4.13418409907596E-03 
1964	 9.37262264920231E-03 
1965	 9.98336938873657E-03 
1966	 1.02466832280069E-02 
1967	 1.09160689537278E-02 
1968	 1.11176728285155E-02 
1969	 8.49310261375506E-03 
1970	 6.15118532806958E-03 
1971	 5.8548616120979E-03 
1972	 7.15443100800969E-03 
1973	 8.44633970695095E-03 
1974	 9.71292088196625E-03 
1975	 1.03687026832007E-02 
1976	 8.79482862796835E-03 
1977	 7.60268377198368E-03 
1978	 8.01292600726816E-03 
1979	 7.66048450583228E-03 
1980	 6.89291577083282E-03 
1981	 6.61571135909044E-03 
1982	 7.11508632916852E-03 
1983	 6.72471666372793E-03 
1984	 7.11968277047248E-03 
1985	 7.97635578569443E-03 
1986	 8.13696716613763E-03 
1987	 7.56019563818801E-03 
1988	 5.82660619179816E-03 
1989	 5.53258070051358E-03 
1990	 5.96697414570848E-03 
1991	 6.09035252770788E-03 
1992	 7.08093754561044E-03 
1993	 7.05634478219148E-03 
1994	 7.12252115340266E-03 
1995	 6.29828975320399E-03 
1996	 6.33442941622961E-03 
1997	 6.32418422551669E-03 
1998	 5.93163370023825E-03 
1999	 5.14166131678634E-03 
2000	 5.38455320967422E-03 
2001	 7.23284871211879E-03 
2002	 1.03373328243569E-02 
2003	 1.25240332033816E-02 
2004	 1.28905429318572E-02 
2005	 1.38675010078827E-02 
2006	 1.29653525903393E-02 
2007	 0.010384555867004 
2008	 9.55690315620881E-03 
2009	 8.73466294122666E-03 
2010	 6.8164836862758E-03 
2011	 5.29076270090478E-03 
2012	 4.62461908253863E-03 
2013	 0.004364031478522 
2014	 5.08351825322431E-03 
2015	 5.19116124173841E-03 
2016	 5.68939066232155E-03 
2017	 7.95675379005979E-03 
2018	 8.24586463333454E-03 
2019	 7.5633844359324E-03 
2020	 8.25217480435088E-03 
2021	 8.77663770784832E-03 
2022	 8.6188866801317E-03 
2023	 8.27838182520717E-03 
2024	 8.30539544220823E-03 
2025	 8.39795414469208E-03 
2026	 8.52741052565766E-03 
2027	 8.59940317449704E-03 
2028	 9.16426987677151E-03 
2029	 9.37405380228378E-03 
2030	 9.73217474934755E-03 
2031	 9.77522972820551E-03 
2032	 9.32564100244796E-03 
2033	 9.21479735236813E-03 
2034	 8.84532597516039E-03 
2035	 8.23438611244266E-03 
2036	 8.11495334368805E-03 
2037	 7.97363327114382E-03 
2038	 8.0274132826124E-03 
2039	 8.20422003480299E-03 
2040	 8.74144920518624E-03 
2041	 8.90067067029755E-03 
2042	 8.93365056611757E-03 
2043	 8.90594467089999E-03 
2044	 8.72263403653919E-03 
2045	 8.60484928882991E-03 
2046	 8.12549731563414E-03 
2047	 7.86584520570886E-03 
2048	 7.2085909491081E-03 
2049	 6.65495127290583E-03 
2050	 6.9624626446756E-03 
2051	 8.42998670685719E-03 
2052	 9.06678199722176E-03 
2053	 8.44207461833175E-03 
2054	 8.42879280414436E-03 
2055	 7.27644955832231E-03 
2056	 6.78834394669863E-03 
2057	 7.42074003536058E-03 
2058	 7.3167882474689E-03 
2059	 6.47219952923164E-03 
2060	 6.28410168981089E-03 
2061	 5.86489194938994E-03 
2062	 6.49219537157265E-03 
2063	 7.29751445756552E-03 
2064	 8.13181456127179E-03 
2065	 8.97859977377717E-03 
2066	 9.03603974119351E-03 
2067	 8.84729039807961E-03 
2068	 8.43475009693387E-03 
2069	 8.69094769020183E-03 
2070	 9.30102461670585E-03 
2071	 9.15416252622413E-03 
2072	 8.8425294309806E-03 
2073	 8.66702620707756E-03 
2074	 7.80255262850011E-03 
2075	 7.51763518455432E-03 
2076	 8.29629328239282E-03 
2077	 8.06424801584652E-03 
2078	 6.80031582577037E-03 
2079	 6.51229517747832E-03 
2080	 6.37853552695461E-03 
2081	 5.96113118751648E-03 
2082	 6.86734868014155E-03 
2083	 8.07141237811439E-03 
2084	 8.05132532645156E-03 
2085	 8.6690296908537E-03 
2086	 8.53896704223879E-03 
2087	 8.11998408008473E-03 
2088	 8.53948564866069E-03 
2089	 8.8551939221009E-03 
2090	 9.48789116127243E-03 
2091	 9.61059750384655E-03 
2092	 9.49183321055503E-03 
2093	 8.9774430735011E-03 
2094	 8.69911282709273E-03 
2095	 8.05518055874444E-03 
2096	 7.97383037860708E-03 
2097	 8.29180163916514E-03 
2098	 8.38758281513576E-03 
2099	 8.62996602684404E-03 
2100	 8.66842900619396E-03 
2101	 8.74257130418026E-03 
2102	 8.9981453393852E-03 
2103	 8.79560469808324E-03 
2104	 8.84937930959513E-03 
2105	 9.01950066230034E-03 
2106	 8.38546726750495E-03 
2107	 8.13800681480359E-03 
2108	 8.37611756066755E-03 
2109	 8.11851075709147E-03 
2110	 8.67521368508342E-03 
2111	 9.28168204459865E-03 
2112	 9.05534391140999E-03 
2113	 8.91294214966285E-03 
2114	 8.61995987395858E-03 
2115	 8.28991859138348E-03 
2116	 7.63168714506052E-03 
2117	 7.34535604660875E-03 
2118	 7.22104970793918E-03 
2119	 7.08690267371841E-03 
2120	 6.89987055821948E-03 
2121	 7.10185280394431E-03 
2122	 7.57773374388556E-03 
2123	 8.11933073201425E-03 
2124	 8.33764548178872E-03 
2125	 8.30847171709664E-03 
2126	 8.24018052190051E-03 
2127	 7.96818651755248E-03 
2128	 7.42976616308962E-03 
2129	 7.35937708126503E-03 
2130	 7.2119921368138E-03 
2131	 6.88882290909732E-03 
2132	 7.18461738833576E-03 
2133	 7.20257779324507E-03 
2134	 7.07852447953504E-03 
2135	 6.94254480015443E-03 
2136	 6.49887088196849E-03 
2137	 4.97192917220612E-03 
2138	 5.24454622965916E-03 
2139	 6.58070982852774E-03 
2140	 7.04162352666409E-03 
2141	 8.54400509554834E-03 
2142	 9.16858289904814E-03 
2143	 8.8150811440701E-03 
2144	 8.20927816426368E-03 
2145	 8.2186486474062E-03 
2146	 8.37523452144114E-03 
2147	 7.49979236862831E-03 
2148	 6.65641695812405E-03 
2149	 6.55800254777912E-03 
2150	 6.5895218328115E-03 
2151	 7.12264027612349E-03 
2152	 8.19678574547577E-03 
2153	 8.94981530046297E-03 
2154	 8.43735521529414E-03 
2155	 8.70743815507936E-03 
2156	 9.29771233451122E-03 
2157	 9.29154679187588E-03 
2158	 9.25638711275492E-03 
2159	 9.13455477348198E-03 
2160	 8.27761309242772E-03 
2161	 7.84983131644816E-03 
2162	 7.47772227501752E-03 
2163	 7.00710018157044E-03 
2164	 6.83791720597442E-03 
2165	 6.56528743296617E-03 
2166	 5.82089601561473E-03 
2167	 5.80478225272663E-03 
2168	 6.29684847632665E-03 
2169	 6.4199217317441E-03 
2170	 6.67598014218255E-03 
2171	 7.2427457778134E-03 
2172	 7.10939379020949E-03 
2173	 7.1659351955709E-03 
2174	 7.3181841641515E-03 
2175	 6.99809782286344E-03 
2176	 6.57779571275381E-03 
2177	 6.25017895333655E-03 
2178	 6.46949011113299E-03 
2179	 7.68819299687154E-03 
2180	 9.5267926545626E-03 
2181	 1.05152486208678E-02 
2182	 1.05975013991086E-02 
2183	 1.09437540419508E-02 
2184	 1.04839234505985E-02 
2185	 9.9897576002682E-03 
2186	 9.82303513844437E-03 
2187	 9.99907933471165E-03 
2188	 9.46581791441526E-03 
2189	 8.44774708454235E-03 
2190	 8.23521354349199E-03 
2191	 7.97421513735724E-03 
2192	 7.56986754367146E-03 
2193	 8.20833085571908E-03 
2194	 8.30720224191067E-03 
2195	 7.55221471104348E-03 
2196	 0.007322760357035 
2197	 7.75533999200205E-03 
2198	 6.90418593598266E-03 
2199	 4.23303492295781E-03 
2200	 4.09489602061603E-03 
2201	 5.4132127523394E-03 
2202	 5.41122993690827E-03 
2203	 7.74554752675883E-03 
2204	 9.60931754538761E-03 
2205	 9.14316021269536E-03 
2206	 8.3604514487599E-03 
2207	 7.22573056471198E-03 
2208	 6.93089569293115E-03 
2209	 6.99472106466715E-03 
2210	 7.29943653940872E-03 
2211	 7.96204584963009E-03 
2212	 8.47690232227266E-03 
2213	 8.30530080510587E-03 
2214	 7.73945646094086E-03 
2215	 7.33765940466741E-03 
2216	 5.85955652440838E-03 
2217	 5.02249127721339E-03 
2218	 3.85656923918729E-03 
2219	 3.8400150212551E-03 
2220	 4.73152408569174E-03 
2221	 5.31271069173891E-03 
2222	 6.57223262006548E-03 
2223	 7.11905107701459E-03 
2224	 7.41805639779509E-03 
2225	 7.48582819345559E-03 
2226	 7.11371330220585E-03 
2227	 6.66805922515676E-03 
2228	 5.25400290455702E-03 
2229	 5.00911214777705E-03 
2230	 5.63046676368143E-03 
2231	 6.00149490030584E-03 
2232	 7.00574212497365E-03 
2233	 7.97461344882094E-03 
2234	 9.06748679495665E-03 
2235	 9.63220971284103E-03 
2236	 9.0303155332712E-03 
2237	 8.29795308734681E-03 
2238	 6.52179616321901E-03 
2239	 4.64444496281367E-03 
2240	 4.66530701818666E-03 
2241	 3.96717927954686E-03 
2242	 5.1720026323735E-03 
2243	 6.69940628226574E-03 
2244	 5.98319491221098E-03 
2245	 6.50000448227449E-03 
2246	 7.44584240648753E-03 
2247	 7.70607374210966E-03 
2248	 7.90548103632063E-03 
2249	 8.33265461383476E-03 
2250	 7.76378250389395E-03 
2251	 5.87940054423209E-03 
2252	 4.41329376603244E-03 
2253	 4.05234278463596E-03 
2254	 4.39576342274363E-03 
2255	 3.85337439361129E-03 
2256	 3.65533332145096E-03 
2257	 5.14968588503155E-03 
2258	 5.97306474166102E-03 
2259	 6.26753171584136E-03 
2260	 6.34095952994779E-03 
2261	 6.17625071833023E-03 
2262	 5.90558379730803E-03 
2263	 4.43029488043655E-03 
2264	 4.94700979219573E-03 
2265	 7.43191779991799E-03 
2266	 7.88858606499233E-03 
2267	 8.00479621020013E-03 
2268	 8.6075160253447E-03 
2269	 7.99396028946221E-03 
2270	 8.24091569919449E-03 
2271	 1.10716380586129E-02 
2272	 1.11117216682809E-02 
2273	 8.63981463705843E-03 
2274	 7.91994985715087E-03 
2275	 6.19483288491109E-03 
2276	 5.45298153364233E-03 
2277	 6.88648039645838E-03 
2278	 6.61297311845136E-03 
2279	 5.81504095429362E-03 
2280	 5.0062867903114E-03 
2281	 2.89865477362045E-03 
2282	 2.59954942113864E-03 
2283	 2.63710026689689E-03 
2284	 2.9268899249925E-03 
2285	 4.79097120402329E-03 
2286	 5.06300617151727E-03 
2287	 4.28193969631668E-03 
2288	 5.6009905031255E-03 
2289	 7.47570082939492E-03 
2290	 8.56752527480372E-03 
2291	 1.11201063279146E-02 
2292	 1.18906989736492E-02 
2293	 8.13869440530389E-03 
2294	 5.91642003065509E-03 
2295	 5.25740610504948E-03 
2296	 2.61696865705991E-03 
2297	 2.1598229316155E-03 
2298	 2.8528054684168E-03 
2299	 1.63159515353947E-03 
2300	 1.58972914196562E-03 
2301	 4.0136056484859E-03 
2302	 6.01074364845601E-03 
2303	 6.45157808393931E-03 
2304	 5.55934580245165E-03 
2305	 3.67372277109431E-03 
2306	 3.05782787665442E-03 
2307	 2.65452582881145E-03 
2308	 3.57033767398056E-03 
2309	 5.66998861639182E-03 
2310	 6.12475961811943E-03 
2311	 8.13490234793064E-03 
2312	 0.010210607506388 
2313	 8.68175441704252E-03 
2314	 6.23009050007748E-03 
2315	 2.35665775867428E-03 
2316	 4.94264312210506E-04 
2317	 3.83907965321109E-03 
2318	 4.4165919158158E-03 
2319	 4.03537207116225E-03 
2320	 6.66372307558008E-03 
2321	 6.97886183891052E-03 
2322	 5.26519456022541E-03 
2323	 5.10490136700952E-03 
2324	 4.4064209299356E-03 
2325	 1.05149844107058E-03 
2326	 1.96745132213324E-03 
2327	 6.40467094557514E-03 
2328	 7.4894309724342E-03 
2329	 1.06849092999532E-02 
2330	 1.22642465713581E-02 
2331	 6.96811879778315E-03 
2332	 6.90999925176105E-03 
2333	 9.50873349048898E-03 
2334	 6.79347577935041E-03 
2335	 8.74572415281502E-03 
2336	 8.08377861788579E-03 
2337	-2.63752515460262E-04 
2338	 1.25014745754865E-03 
2339	 3.45685285111351E-03 
2340	 3.32464562868888E-03 
2341	 6.90450182483608E-03 
2342	 1.57992736656916E-03 
2343	-1.05887792258763E-04 
2344	 3.46517156176531E-03 
2345	 2.41161084018786E-03 
2346	 4.38519545646025E-03 
2347	 5.51232113901457E-03 
2348	 6.40099043425113E-03 
2349	 9.54778427554129E-03 
2350	 1.22167873272317E-02 
2351	 6.82308001261849E-03 
2352	-7.83536630793456E-04 
2353	 3.21064717045579E-03 
2354	 3.74421487682505E-03 
2355	 3.50859560331824E-03 
2356	 9.29091578437641E-03 
2357	 1.37463796311417E-02 
2358	 1.35832687412732E-02 
2359	 0.01275955616838 
2360	 2.03120886496898E-02 
2361	 1.96710975737825E-02 
2362	 1.07298678773686E-02 
2363	 6.48442247051963E-03 
2364	 3.73898867141301E-03 
2365	 2.95159632907267E-03 
2366	 2.11493669425861E-03 
2367	-3.69280897596637E-03 
2368	-2.47371337371949E-02 
2369	-4.47023420259055E-02 
2370	-4.13942392722824E-02 
2371	-3.17999891634773E-02 
2372	-1.69796706921769E-02 
2373	 4.12789867797877E-03 
2374	 6.5274533690404E-03 
2375	 7.01193399468523E-03 
2376	 1.80183625392721E-02 
2377	 4.35934966369676E-03 
2378	-1.98709759578645E-02 
2379	-3.45292668909982E-02 
2380	-3.58604820443228E-02 
2381	-1.75257523366787E-02 
2382	 2.77897160333138E-04 
2383	 4.22681270507269E-03 
2384	-6.86066082514202E-03 
2385	-0.02762431555109 
2386	-3.19419036747727E-02 
2387	-1.17537850650736E-02 
2388	-1.62126661891092E-03 
2389	-1.77676417544289E-02 
2390	-2.58157702212201E-02 
2391	-0.014400680853806 
2392	-7.00758839173597E-03 
2393	 1.77540077443038E-02 
2394	 5.00140618918791E-02 
2395	 4.82468370707477E-02 
2396	 5.15908632942015E-02 
2397	 4.32390074517367E-02 
2398	 1.42747416910938E-02 
2399	 5.79562753537225E-03 
2400	-0.017842615243752 
2401	-5.24358397304641E-02 
2402	-5.58547908872321E-02 
2403	-0.052041691114812 
2404	-8.04261178352902E-02 
2405	-7.85920914638033E-02 
2406	-1.65862374260284E-02 
2407	-2.42847329370376E-02 
2408	-2.63881673474793E-02 
2409	 1.82260826395268E-02 
2410	-8.20134243245287E-03 
2411	-9.46330149588803E-03 
2412	 1.65446309975456E-02 
2413	 2.95575878607906E-02 
2414	 4.41238263078006E-02 
2415	-2.66608632032099E-02 
2416	-7.85442682989857E-02 
2417	-7.16521588120016E-02 
2418	-9.58745419725533E-02 
2419	-0.121086546704592 
2420	-9.63604981107419E-02 
2421	-8.86810408850277E-02 
2422	-0.125984763394693 
2423	-0.150752190594161 
2424	-0.125477140686376 
2425	-0.107974512170859 
2426	-9.03850049497205E-02 
2427	-2.29615148636819E-02 
2428	-5.18731204798798E-03 
2429	-6.87424533321642E-03 
2430	-3.46510526033858E-02 
2431	-5.43589709254851E-02 
2432	 2.3113540899642E-03 
2433	-1.91616894709608E-02 
2434	-4.85090286305525E-02 
2435	-3.96991851806029E-02 
2436	-0.125768885592414 
2437	-0.145969730353992 
2438	-0.069928797383143 
2439	-2.96992549364923E-02 
2440	-4.42430051188395E-02 
2441	-1.26990096296553E-02 
2442	 2.12748316962304E-02 
2443	-6.57661089863611E-02 
2444	 2.60412274724947E-02 
2445	 3.92035599131069E-02 
2446	-4.45407107048514E-02 
2447	 4.28667120698338E-03 
2448	-2.35758460738166E-02 
2449	 0.100292553136085 
2450	 0.17619931348544 
2451	 8.25776191239395E-02 
2452	 0.24397773338338 
2453	-0.086784081363087 
2454	-0.372648586303577 
2455	-0.173017009856805 
2456	-6.02136446813275E-02 
2457	-5.62036356266318E-02 
2458	 7.14149097409715E-02 
2459	-0.120388426850086 
2460	-0.343001374001698 
2461	-0.436926473477548 
2462	-0.401032660780248 
2463	-0.152943852831834 
2464	-1.33612767298103E-02 
2465	 0.191607216152716 
2466	 0.508955222314946 
2467	 0.25588554864822 
2468	 0.155895774953082 
2469	 0.203495852036959 
2470	 2.95340035033386 
2471	 2.77600259658949 
2472	 60.3770394468546 
2473	-2.10830725495535 
2474	-0.800087618764855 
2475	-0.298137661536574 
2476	 0.422642325149737 
2477	 0.597813404486972 
2478	 0.124084379120882 
2479	 0.135887507087801 
2480	 1.98378931521536 
2481	-0.540762351069906 
2482	 0.155892769050525 
2483	-13.8440246540128 
2484	 21.837555913549 
2485	 3.71547143489378 
2486	-27.3576547946443 
2487	 11.5388011033985 
2488	-5.13423357452138 
2489	-1.25290249513053 
2490	-1.25237921892112 
2491	 2.5218039108593 
2492	 1.14469915648469 
2493	 0.567783872443928 
2494	 0.298293532690236 
2495	-1.39053510303711 
2496	-0.341884106951194 
2497	-0.230375158453199 
2498	-0.444768218712992 
2499	-7.82787899112226 
2500	 1.72455275821713 
