Wavelength	rt0629algeare00008.asd
350	 4.02254166600618E-02 
351	 3.96525461461677E-02 
352	 4.05244342556242E-02 
353	 4.07598153766643E-02 
354	 3.96275074121147E-02 
355	 0.039633999871809 
356	 3.98922892179955E-02 
357	 3.97500967001633E-02 
358	 0.039104644029898 
359	 3.99960260356202E-02 
360	 3.99260173233713E-02 
361	 3.89945779785594E-02 
362	 3.89632258723962E-02 
363	 3.84713795900966E-02 
364	 0.038727677580234 
365	 0.039705820535033 
366	 3.91477323682266E-02 
367	 3.88866208952554E-02 
368	 3.86930517394025E-02 
369	 3.81488776546749E-02 
370	 3.80210845730155E-02 
371	 3.84330658135029E-02 
372	 3.88869141444575E-02 
373	 3.86819584228882E-02 
374	 3.87409988796663E-02 
375	 3.86633921084753E-02 
376	 3.83502064059176E-02 
377	 3.82780852709574E-02 
378	 0.038749774817509 
379	 3.89593728902687E-02 
380	 3.84694797045403E-02 
381	 3.87481528267229E-02 
382	 3.92069753927387E-02 
383	 0.039477198279191 
384	 3.93428976380869E-02 
385	 3.88918332145883E-02 
386	 3.83625880120734E-02 
387	 3.81609662625599E-02 
388	 3.87826871729815E-02 
389	 3.90532634307676E-02 
390	 3.92565487222848E-02 
391	 3.96768835984511E-02 
392	 3.98966511055419E-02 
393	 3.97997816953876E-02 
394	 3.95711804360909E-02 
395	 3.94897192132329E-02 
396	 3.95847096241381E-02 
397	 4.00795719906326E-02 
398	 4.05568492340037E-02 
399	 4.01619832571651E-02 
400	 4.00336189938297E-02 
401	 3.99771646002498E-02 
402	 3.98392620118303E-02 
403	 4.00599580187016E-02 
404	 4.03769329150935E-02 
405	 4.04841470882039E-02 
406	 0.040225714993693 
407	 4.03536127074053E-02 
408	 4.04294455270557E-02 
409	 4.04049856392453E-02 
410	 0.040654464718048 
411	 4.07615418407625E-02 
412	 4.07190458638031E-02 
413	 4.06740639158935E-02 
414	 4.09710263660086E-02 
415	 4.11705298066211E-02 
416	 4.12066153887622E-02 
417	 4.12048253869398E-02 
418	 4.14198288879952E-02 
419	 4.15229385838923E-02 
420	 4.15484316000971E-02 
421	 4.19369143757442E-02 
422	 4.22180669398269E-02 
423	 4.23701245734519E-02 
424	 4.24894456944769E-02 
425	 4.27319034597654E-02 
426	 4.28884212579311E-02 
427	 4.30139590174238E-02 
428	 0.043274530048561 
429	 4.36485716438174E-02 
430	 4.39483914454678E-02 
431	 0.044150764869848 
432	 4.44387081766307E-02 
433	 4.45963806615603E-02 
434	 4.48240861970448E-02 
435	 4.52493297134916E-02 
436	 0.045526469021281 
437	 0.045860954263906 
438	 4.61698997757452E-02 
439	 0.04627180202952 
440	 4.65659137263718E-02 
441	 0.046906231796589 
442	 4.71725702696002E-02 
443	 4.73706656385069E-02 
444	 4.75839691560494E-02 
445	 4.78443564391394E-02 
446	 4.81393092174125E-02 
447	 4.83672040772023E-02 
448	 0.048569141388027 
449	 4.87448887555292E-02 
450	 4.88713676283474E-02 
451	 4.90504406272041E-02 
452	 4.92288126831649E-02 
453	 0.049365286938379 
454	 4.94906006675505E-02 
455	 4.95753069576771E-02 
456	 4.96837407342175E-02 
457	 4.98695451190938E-02 
458	 0.049939874068744 
459	 5.01096636577457E-02 
460	 5.03215394170378E-02 
461	 5.02535157187415E-02 
462	 5.03881499888672E-02 
463	 5.05504097406908E-02 
464	 5.05716178304368E-02 
465	 5.06737564103223E-02 
466	 5.07042494951642E-02 
467	 5.07762284370316E-02 
468	 5.10514743661782E-02 
469	 5.10362693998977E-02 
470	 5.11681276310671E-02 
471	 5.14873134233256E-02 
472	 5.14033267505798E-02 
473	 5.14792586885994E-02 
474	 5.16958255902656E-02 
475	 5.18887539833894E-02 
476	 5.19336553340395E-02 
477	 0.052116257453601 
478	 5.23645523726183E-02 
479	 5.24009714418977E-02 
480	 5.25998681642244E-02 
481	 5.28158821622268E-02 
482	 5.29583873571538E-02 
483	 5.31902711563294E-02 
484	 5.33770402678622E-02 
485	 0.053554939888605 
486	 5.37859688194552E-02 
487	 5.39085317796622E-02 
488	 0.054119063298757 
489	 5.44303830028523E-02 
490	 5.46700656511351E-02 
491	 5.48967920045146E-02 
492	 5.51118367046953E-02 
493	 5.53416693444166E-02 
494	 5.57327394301445E-02 
495	 5.59668098820087E-02 
496	 5.61191708546534E-02 
497	 5.64346104390262E-02 
498	 0.056731686048455 
499	 0.056928482053244 
500	 5.70966719208492E-02 
501	 0.057526413440174 
502	 5.78351546131684E-02 
503	 5.80692908906699E-02 
504	 5.83617858513618E-02 
505	 0.058643572185521 
506	 5.89786117349142E-02 
507	 5.93191736093967E-02 
508	 5.95444892739103E-02 
509	 5.98504414503382E-02 
510	 6.01725205309882E-02 
511	 6.04579339862812E-02 
512	 6.07900394876485E-02 
513	 6.10621647243532E-02 
514	 6.13773685381655E-02 
515	 6.18729927813756E-02 
516	 6.22647761917853E-02 
517	 6.25546854361735E-02 
518	 6.28244221443823E-02 
519	 6.32131560566959E-02 
520	 6.36037746276693E-02 
521	 0.06393280937875 
522	 6.41917661107799E-02 
523	 6.44916107135842E-02 
524	 0.064813595219785 
525	 6.51714856603362E-02 
526	 6.55927835567446E-02 
527	 6.59806405866529E-02 
528	 6.63817509613749E-02 
529	 6.67947793473404E-02 
530	 6.70823317459259E-02 
531	 6.73076680185267E-02 
532	 6.75847579245659E-02 
533	 6.79976492358071E-02 
534	 6.83186128291069E-02 
535	 6.86943314542991E-02 
536	 0.069118130655257 
537	 6.93870121926627E-02 
538	 6.97463376182904E-02 
539	 7.01328373317235E-02 
540	 7.04578601760869E-02 
541	 7.08031609401074E-02 
542	 0.07115770114838 
543	 7.14783956941786E-02 
544	 7.17243995353541E-02 
545	 7.20833577365259E-02 
546	 7.24483859304253E-02 
547	 0.072758343017603 
548	 7.31186067607646E-02 
549	 7.34411425572126E-02 
550	 7.37280585560608E-02 
551	 7.40177049055225E-02 
552	 7.43551226084439E-02 
553	 7.46668220673779E-02 
554	 7.49555321237902E-02 
555	 7.53122720343784E-02 
556	 7.56012231600059E-02 
557	 7.58749657866061E-02 
558	 7.61943074741566E-02 
559	 7.65175828549021E-02 
560	 0.076714080692239 
561	 7.68662922208386E-02 
562	 7.71673161355282E-02 
563	 7.74358506613504E-02 
564	 7.76589767019918E-02 
565	 7.78469554901115E-02 
566	 7.80104633882894E-02 
567	 7.81548973829414E-02 
568	 7.82957286388371E-02 
569	 7.84424361081974E-02 
570	 7.85415129130421E-02 
571	 7.87476716599725E-02 
572	 7.90073697382969E-02 
573	 7.90436037746543E-02 
574	 7.91378286553914E-02 
575	 7.91949771327444E-02 
576	 7.91333618196303E-02 
577	 7.91857598573941E-02 
578	 7.92920384888867E-02 
579	 7.93478580036899E-02 
580	 7.92508882001691E-02 
581	 7.92082513650804E-02 
582	 7.91909687758714E-02 
583	 0.079137805647937 
584	 7.89824706483984E-02 
585	 7.87983635618824E-02 
586	 7.85818871571723E-02 
587	 7.83220785174538E-02 
588	 7.81480954647625E-02 
589	 7.79492492641307E-02 
590	 7.77397708969696E-02 
591	 7.76534224465601E-02 
592	 7.73913713611465E-02 
593	 0.077073808645097 
594	 7.68225586946971E-02 
595	 7.64717542454597E-02 
596	 7.60830977927739E-02 
597	 7.56827567096089E-02 
598	 7.52777590701687E-02 
599	 7.48531421102848E-02 
600	 7.44511822982645E-02 
601	 7.40790673241314E-02 
602	 0.073655208056712 
603	 7.35218707538071E-02 
604	 7.34851892998817E-02 
605	 7.32696147109058E-02 
606	 7.31632913849344E-02 
607	 7.30270862206706E-02 
608	 7.28670016186833E-02 
609	 7.28489268758576E-02 
610	 7.28263414772397E-02 
611	 7.27422837527552E-02 
612	 7.26177458202616E-02 
613	 7.26565558674336E-02 
614	 7.25763192229917E-02 
615	 7.23914972071859E-02 
616	 7.22860494067481E-02 
617	 7.22904999104401E-02 
618	 7.21992598664779E-02 
619	 7.20233748828259E-02 
620	 7.21799491898868E-02 
621	 7.20260670864674E-02 
622	 0.071781773329707 
623	 7.18132749535899E-02 
624	 7.17222275411753E-02 
625	 0.071652190726407 
626	 7.16118663228088E-02 
627	 7.14768007673389E-02 
628	 7.14575314809995E-02 
629	 7.14209244706779E-02 
630	 7.12723236988628E-02 
631	 7.11777942344238E-02 
632	 7.12148776124064E-02 
633	 7.12783926625124E-02 
634	 7.11925588292652E-02 
635	 7.10336741295946E-02 
636	 7.08736153830215E-02 
637	 7.07725963736329E-02 
638	 7.07752927238002E-02 
639	 7.07730594267282E-02 
640	 7.06719681915707E-02 
641	 7.04445703792507E-02 
642	 0.070264001342597 
643	 7.01921806719847E-02 
644	 7.01438491009309E-02 
645	 6.99251631799694E-02 
646	 6.96298114292795E-02 
647	 6.94603765829374E-02 
648	 6.94491676290517E-02 
649	 6.91786066874138E-02 
650	 6.89380938782015E-02 
651	 6.87480212055652E-02 
652	 6.85357232198777E-02 
653	 6.82559497414001E-02 
654	 6.79473068197519E-02 
655	 6.75777759757879E-02 
656	 6.70697821432188E-02 
657	 6.66588070297176E-02 
658	 6.63318466119766E-02 
659	 6.60213016890348E-02 
660	 6.57100594849578E-02 
661	 0.065397561971825 
662	 6.51231277206104E-02 
663	 6.49378998766093E-02 
664	 6.46801052206766E-02 
665	 6.44462701700201E-02 
666	 0.064313415753784 
667	 6.42813357936451E-02 
668	 6.41493579497206E-02 
669	 6.39994432183393E-02 
670	 6.39541679561733E-02 
671	 6.38067745071154E-02 
672	 6.36916586104397E-02 
673	 6.36334520015059E-02 
674	 6.35457817766793E-02 
675	 6.34875471205346E-02 
676	 6.35433007396048E-02 
677	 6.36975798225157E-02 
678	 6.36774855072602E-02 
679	 6.36494443733415E-02 
680	 6.36331155156157E-02 
681	 6.36015218873795E-02 
682	 6.36665503852535E-02 
683	 0.063755853378707 
684	 6.37815687157507E-02 
685	 6.36482063343742E-02 
686	 6.36460011589944E-02 
687	 6.36629378179014E-02 
688	 6.35621106955456E-02 
689	 6.36361012108971E-02 
690	 6.36343020146027E-02 
691	 6.34749059418614E-02 
692	 6.31952417758182E-02 
693	 6.30588951403283E-02 
694	 6.29407873983497E-02 
695	 6.27667521247883E-02 
696	 6.26389574466931E-02 
697	 0.062292703967454 
698	 6.18697353844662E-02 
699	 6.15907774882105E-02 
700	 6.12142104421586E-02 
701	 6.07449039916427E-02 
702	 0.060261564889171 
703	 5.98584071018534E-02 
704	 5.94445491194121E-02 
705	 5.89039799250093E-02 
706	 5.82644892436704E-02 
707	 5.78456036936472E-02 
708	 5.72132123259989E-02 
709	 5.64497665322643E-02 
710	 5.57627022946283E-02 
711	 5.48845002406703E-02 
712	 5.40335661224547E-02 
713	 5.31983391421343E-02 
714	 0.052084365213461 
715	 5.11758394037281E-02 
716	 5.01928639549487E-02 
717	 4.88812417292796E-02 
718	 4.76570376687866E-02 
719	 4.67081516183439E-02 
720	 4.59514909553077E-02 
721	 4.50654124136757E-02 
722	 4.41745773293918E-02 
723	 4.30313529825304E-02 
724	 4.17682250638083E-02 
725	 4.07189793630197E-02 
726	 3.96951188854086E-02 
727	 3.85895879398792E-02 
728	 3.73477170778103E-02 
729	 3.59418990882091E-02 
730	 3.45759763993643E-02 
731	 3.34370581754646E-02 
732	 0.032532033704101 
733	 3.16215500955481E-02 
734	 3.08569889426945E-02 
735	 3.02764588271559E-02 
736	 0.029719238141128 
737	 0.029349747602363 
738	 2.90597762065964E-02 
739	 2.87538379629956E-02 
740	 0.028540558195522 
741	 2.84225638662054E-02 
742	 2.83259016279056E-02 
743	 2.81577399279209E-02 
744	 0.028021496223043 
745	 2.80355640076419E-02 
746	 2.81147388934234E-02 
747	 2.79086671206502E-02 
748	 2.78817489341994E-02 
749	 2.78926631146488E-02 
750	 2.77733047640045E-02 
751	 2.78108391406864E-02 
752	 2.77228667593958E-02 
753	 2.75500320964256E-02 
754	 0.0274986720169 
755	 2.75319884659842E-02 
756	 2.75293005500929E-02 
757	 2.74341955689893E-02 
758	 2.72491841056421E-02 
759	 2.72073447383521E-02 
760	 2.73563383625114E-02 
761	 2.73712997567688E-02 
762	 2.70626173361105E-02 
763	 2.71203165625323E-02 
764	 2.73154329529063E-02 
765	 0.02727454678362 
766	 2.73337799458478E-02 
767	 2.73838049320113E-02 
768	 2.74151916144775E-02 
769	 0.027514263659337 
770	 0.027518439362993 
771	 0.027552718429266 
772	 0.027685294311294 
773	 2.76598015743755E-02 
774	 2.77442701195013E-02 
775	 2.79054080865355E-02 
776	 2.79870023628722E-02 
777	 2.79431456188924E-02 
778	 2.80514699072532E-02 
779	 2.83233726862128E-02 
780	 2.84813801821967E-02 
781	 2.84460536334753E-02 
782	 2.84851560009459E-02 
783	 2.87349493884417E-02 
784	 2.88912475164381E-02 
785	 2.90352525031465E-02 
786	 2.91709979631636E-02 
787	 2.92942420813301E-02 
788	 2.94606199570462E-02 
789	 2.96491575019777E-02 
790	 2.98594038667774E-02 
791	 0.030101702245081 
792	 3.02621170818313E-02 
793	 3.03444046313405E-02 
794	 3.04639272433468E-02 
795	 3.08883381721828E-02 
796	 3.10739967518408E-02 
797	 3.11134203313557E-02 
798	 3.12317687764202E-02 
799	 3.13990145834159E-02 
800	 3.16206738950577E-02 
801	 3.17969423903565E-02 
802	 3.18289953283754E-02 
803	 3.20477646591981E-02 
804	 3.21687033763672E-02 
805	 3.21007241526924E-02 
806	 3.20207397256189E-02 
807	 3.20981518856294E-02 
808	 3.21557411867097E-02 
809	 3.20438251911689E-02 
810	 3.18813976664944E-02 
811	 3.16642110565468E-02 
812	 3.15002102625563E-02 
813	 3.14836895657063E-02 
814	 3.12981445554466E-02 
815	 3.09928333707282E-02 
816	 3.07128532837362E-02 
817	 0.030587676011641 
818	 3.02615906455699E-02 
819	 2.99777951759961E-02 
820	 2.97576132281042E-02 
821	 2.93077211933888E-02 
822	 2.89110036316883E-02 
823	 2.81698659181307E-02 
824	 2.70898442392034E-02 
825	 2.68073577258031E-02 
826	 2.61985206313333E-02 
827	 2.52586902901433E-02 
828	 2.44457614836474E-02 
829	 2.37594821440347E-02 
830	 0.023196693802198 
831	 2.26485857022875E-02 
832	 2.20067602444782E-02 
833	 2.16753634835825E-02 
834	 2.13858708090648E-02 
835	 2.10566316502905E-02 
836	 2.09463321443472E-02 
837	 2.07896210362238E-02 
838	 2.05455191190885E-02 
839	 2.03068878345489E-02 
840	 2.04056116596811E-02 
841	 2.02339420330491E-02 
842	 0.01996119214233 
843	 1.99340542672759E-02 
844	 1.98536975396549E-02 
845	 1.97117951926618E-02 
846	 1.95198764174712E-02 
847	 1.93006120514739E-02 
848	 1.90766860340118E-02 
849	 1.88395537825133E-02 
850	 1.86692161738401E-02 
851	 1.87368425419201E-02 
852	 1.87377170467541E-02 
853	 1.86543963943541E-02 
854	 0.018531981655161 
855	 1.84059395779045E-02 
856	 1.81413465098197E-02 
857	 1.79771020103411E-02 
858	 1.80826488852588E-02 
859	 1.80344506819003E-02 
860	 1.79849878913682E-02 
861	 1.78102674536564E-02 
862	 1.74084620864781E-02 
863	 1.76771696401904E-02 
864	 1.77557521385946E-02 
865	 0.017436839436864 
866	 1.72208162409615E-02 
867	 1.70840223689691E-02 
868	 1.70741678404328E-02 
869	 1.70830602851933E-02 
870	 0.016829019539703 
871	 1.67392774392172E-02 
872	 0.016560768945115 
873	 1.62220396172114E-02 
874	 1.63901922570132E-02 
875	 1.63675809039325E-02 
876	 1.62202540567206E-02 
877	 1.61410235725142E-02 
878	 1.58418888259321E-02 
879	 1.56468526668365E-02 
880	 1.55437834824956E-02 
881	 1.53779406699952E-02 
882	 1.51991272783213E-02 
883	 0.015305952206167 
884	 1.53605028282446E-02 
885	 1.47484036854125E-02 
886	 0.014762042700927 
887	 1.49802302679378E-02 
888	 1.50042192718134E-02 
889	 1.47417047462108E-02 
890	 1.48305010651346E-02 
891	 1.49402528223037E-02 
892	 1.48246693998703E-02 
893	 1.47473683095287E-02 
894	 1.46437390205635E-02 
895	 0.01452524029893 
896	 1.43695001762179E-02 
897	 1.40065384522789E-02 
898	 1.36030102481209E-02 
899	 1.33588375170653E-02 
900	 1.33743166076466E-02 
901	 1.34736800850036E-02 
902	 1.36748912690586E-02 
903	 1.37266430336211E-02 
904	 1.33919673017015E-02 
905	 1.29110170794002E-02 
906	 1.28035487756858E-02 
907	 1.30558354250787E-02 
908	 1.31644194531926E-02 
909	 1.25403528806908E-02 
910	 1.23886626399618E-02 
911	 1.26720581984316E-02 
912	 1.22194940627167E-02 
913	 1.18859795534985E-02 
914	 1.18840217691171E-02 
915	 1.21519504415386E-02 
916	 1.23698829360889E-02 
917	 1.18307760596207E-02 
918	 0.011128286805061 
919	 1.09108670136953E-02 
920	 1.15632558799413E-02 
921	 1.14564297255866E-02 
922	 1.08358453198272E-02 
923	 1.03681185756604E-02 
924	 1.08026441917251E-02 
925	 1.06153789769676E-02 
926	 1.04315034705185E-02 
927	 0.01089173110505 
928	 9.70510566843263E-03 
929	 9.91205613316672E-03 
930	 1.18229439568593E-02 
931	 1.31632564641218E-02 
932	 8.99645153882868E-03 
933	 8.38327085339801E-03 
934	 9.72047836875495E-03 
935	 6.67216657290757E-03 
936	 7.12302871480736E-03 
937	 6.73697967515487E-03 
938	 7.6651490850253E-03 
939	 1.18107953764989E-02 
940	 1.33888626969158E-02 
941	 1.00622559685044E-02 
942	 4.47891531702452E-03 
943	 2.12620513366693E-03 
944	 6.69389489554987E-03 
945	 9.72403876788639E-03 
946	 8.9045618826583E-03 
947	 7.01561951722985E-03 
948	 6.01921766545102E-03 
949	 4.01398160187704E-03 
950	 4.81773334347594E-03 
951	 1.24074430467426E-02 
952	 1.11792480590998E-02 
953	 7.89757953609017E-03 
954	 5.48986593016142E-03 
955	 3.84324664195768E-03 
956	 9.92202423171578E-03 
957	 9.42894297654401E-03 
958	 3.81576631800968E-03 
959	 4.4654571111716E-03 
960	 6.50301404339557E-03 
961	 6.4274492364756E-03 
962	 5.65043409325275E-03 
963	 7.68320001367579E-03 
964	 8.02397286997022E-03 
965	 8.09178934733274E-03 
966	 7.9129965463983E-03 
967	 6.63630066236249E-03 
968	 7.13939000512111E-03 
969	 6.81895600260765E-03 
970	 5.73181505856873E-03 
971	 6.20381613703407E-03 
972	 6.12308653296144E-03 
973	 7.18207560172128E-03 
974	 7.97120015492911E-03 
975	 5.07365617283767E-03 
976	 7.13985023693273E-03 
977	 7.42556903652083E-03 
978	 5.10498233382954E-03 
979	 5.43078096841244E-03 
980	 6.89463039059275E-03 
981	 8.06780931806937E-03 
982	 8.29150481990035E-03 
983	 7.77100530350801E-03 
984	 7.56442326693972E-03 
985	 7.01226936480773E-03 
986	 6.73640125003749E-03 
987	 7.88322143354552E-03 
988	 7.20559043546484E-03 
989	 7.28788446545234E-03 
990	 8.10486357510499E-03 
991	 7.58654121218975E-03 
992	 6.64001045584808E-03 
993	 6.32409517134146E-03 
994	 6.42932791967195E-03 
995	 6.12171153784778E-03 
996	 6.65022620082535E-03 
997	 7.83778508838489E-03 
998	 8.00360798428932E-03 
999	 5.87529315250467E-03 
1000	 6.71985252592693E-03 
1001	 6.86174975093373E-03 
1002	 6.92104501594457E-03 
1003	 6.9549346320529E-03 
1004	 6.96753112011369E-03 
1005	 6.95984392141408E-03 
1006	 6.89896599835682E-03 
1007	 7.02633288237625E-03 
1008	 6.95235396937899E-03 
1009	 6.95555841701707E-03 
1010	 6.87387441825138E-03 
1011	 6.93693359614014E-03 
1012	 7.16958352977256E-03 
1013	 7.16897851459617E-03 
1014	 7.21561299818446E-03 
1015	 7.29658321463647E-03 
1016	 7.23738672175872E-03 
1017	 6.93722610926753E-03 
1018	 6.98550160678017E-03 
1019	 7.20430821682125E-03 
1020	 7.29574929879092E-03 
1021	 7.5285383559578E-03 
1022	 7.72429328203663E-03 
1023	 7.62131653215194E-03 
1024	 7.42768274139518E-03 
1025	 7.24958198806301E-03 
1026	 7.34531480379378E-03 
1027	 7.48098209351468E-03 
1028	 7.77321173228655E-03 
1029	 7.90308300020519E-03 
1030	 8.16738613230638E-03 
1031	 8.15988138443142E-03 
1032	 7.84360743763492E-03 
1033	 7.8485933349602E-03 
1034	 7.88648005634278E-03 
1035	 7.91438338097581E-03 
1036	 8.14757545839162E-03 
1037	 8.23373132143033E-03 
1038	 8.17136058568412E-03 
1039	 8.19001204615281E-03 
1040	 8.15694036407253E-03 
1041	 8.11100309382711E-03 
1042	 8.04874557075413E-03 
1043	 7.92218772320999E-03 
1044	 7.84629563507562E-03 
1045	 7.75214682758246E-03 
1046	 7.75119412628238E-03 
1047	 7.80467371947403E-03 
1048	 7.88668269792333E-03 
1049	 8.13454826979785E-03 
1050	 8.17094005517755E-03 
1051	 8.02230046974325E-03 
1052	 8.04707143652379E-03 
1053	 8.05541430752828E-03 
1054	 8.09367107717346E-03 
1055	 8.37940220915581E-03 
1056	 8.47476104447302E-03 
1057	 8.48168150524438E-03 
1058	 8.3121836708653E-03 
1059	 8.31964404663756E-03 
1060	 8.27841294265677E-03 
1061	 8.35666485169737E-03 
1062	 8.67449987102277E-03 
1063	 8.70361192667054E-03 
1064	 8.61702845035586E-03 
1065	 8.57154727808636E-03 
1066	 8.38478948924349E-03 
1067	 8.26784962519251E-03 
1068	 8.10213820152302E-03 
1069	 8.11825074190882E-03 
1070	 8.33886496958082E-03 
1071	 8.40430029820174E-03 
1072	 8.51820956467811E-03 
1073	 8.66348217960022E-03 
1074	 8.66449201083223E-03 
1075	 8.41246665045578E-03 
1076	 8.30349999225736E-03 
1077	 8.25615036111069E-03 
1078	 8.20386354693319E-03 
1079	 8.1779672607477E-03 
1080	 8.11445282011096E-03 
1081	 7.88647113199178E-03 
1082	 7.91725028957505E-03 
1083	 8.15402825167065E-03 
1084	 8.20439931510802E-03 
1085	 8.4925659517129E-03 
1086	 8.53609166014029E-03 
1087	 8.11640797921787E-03 
1088	 7.96699357851222E-03 
1089	 7.92186236284926E-03 
1090	 7.79896268380864E-03 
1091	 0.007781179745714 
1092	 7.95276536581248E-03 
1093	 7.89566545033047E-03 
1094	 7.71711635355572E-03 
1095	 7.64252384878299E-03 
1096	 7.45417971647426E-03 
1097	 7.60914606190951E-03 
1098	 0.00815321655829 
1099	 8.27663538525325E-03 
1100	 8.38842938837351E-03 
1101	 8.33934409690891E-03 
1102	 7.97598134685161E-03 
1103	 7.73426038299182E-03 
1104	 7.47646185855983E-03 
1105	 7.12634936022078E-03 
1106	 7.31594575654605E-03 
1107	 7.21635575836416E-03 
1108	 7.67850266241779E-03 
1109	 8.80604166108689E-03 
1110	 8.67107505701678E-03 
1111	 7.24092777075172E-03 
1112	 7.03873363213029E-03 
1113	 6.54564279692721E-03 
1114	 6.14261016920594E-03 
1115	 7.90773305061284E-03 
1116	 7.72577594587068E-03 
1117	 3.40989551081682E-03 
1118	 2.19220591945683E-03 
1119	 3.19968596645166E-03 
1120	 3.06500639326595E-03 
1121	 5.88948195333278E-03 
1122	 9.97311661385109E-03 
1123	 6.68099861664357E-03 
1124	 2.20154119512387E-03 
1125	 3.56085630481441E-03 
1126	 6.22456756713542E-03 
1127	 8.81922839036701E-03 
1128	 1.09139191313892E-02 
1129	 9.00649023877747E-03 
1130	 2.94922117230356E-04 
1131	 1.41112739279192E-04 
1132	 2.47843792467061E-03 
1133	 3.72875155560515E-03 
1134	 8.54586332967361E-03 
1135	 8.45434398096829E-03 
1136	 4.36705173447372E-03 
1137	 3.93449280059444E-03 
1138	 3.90867519607989E-03 
1139	 3.60673747310397E-03 
1140	 4.94138379776547E-03 
1141	 5.79172265835662E-03 
1142	 4.78078528856758E-03 
1143	 5.31643601287236E-03 
1144	 5.18433998309848E-03 
1145	 4.67370691876835E-03 
1146	 6.94444388005378E-03 
1147	 6.86358915680893E-03 
1148	 5.7108420916229E-03 
1149	 6.52499365104961E-03 
1150	 6.04842143730428E-03 
1151	 2.98448967316206E-03 
1152	 3.47955928266399E-03 
1153	 6.2117023748763E-03 
1154	 6.12828211503386E-03 
1155	 5.6468520963783E-03 
1156	 5.73443242030384E-03 
1157	 5.11573552078769E-03 
1158	 4.88110246454434E-03 
1159	 5.22029779882298E-03 
1160	 5.40962672533661E-03 
1161	 5.58189899781034E-03 
1162	 5.55703244661131E-03 
1163	 5.66003738228176E-03 
1164	 5.57127858937403E-03 
1165	 5.16121193681082E-03 
1166	 5.10659921919587E-03 
1167	 0.005119552301194 
1168	 5.18170871560242E-03 
1169	 5.51245249188097E-03 
1170	 5.66298359270596E-03 
1171	 5.66093297782187E-03 
1172	 5.53420196858882E-03 
1173	 5.55435850224525E-03 
1174	 5.53785236997764E-03 
1175	 5.38691081365061E-03 
1176	 5.53174724877269E-03 
1177	 5.76824571924198E-03 
1178	 5.55072946702113E-03 
1179	 5.41106432190225E-03 
1180	 5.34440480825185E-03 
1181	 5.01406389995499E-03 
1182	 5.17908071829319E-03 
1183	 5.37368920826463E-03 
1184	 5.06061317351315E-03 
1185	 5.22802129262441E-03 
1186	 5.51122856141196E-03 
1187	 5.40316760870315E-03 
1188	 5.66880123926112E-03 
1189	 5.72561108843233E-03 
1190	 5.23636202667623E-03 
1191	 5.15955268676778E-03 
1192	 5.16870362589044E-03 
1193	 5.28256364294925E-03 
1194	 5.28612466607448E-03 
1195	 5.48777604170546E-03 
1196	 5.46115627316701E-03 
1197	 5.33417827717831E-03 
1198	 5.3089858655719E-03 
1199	 5.12134205580592E-03 
1200	 5.22587255843467E-03 
1201	 5.45129245802993E-03 
1202	 5.32515359411569E-03 
1203	 5.41775337451154E-03 
1204	 5.55429558149109E-03 
1205	 5.29528425927684E-03 
1206	 5.18936619254593E-03 
1207	 5.23255518542472E-03 
1208	 5.09672942705424E-03 
1209	 5.20072761060972E-03 
1210	 5.3494729757924E-03 
1211	 5.19359382879308E-03 
1212	 5.22945515904411E-03 
1213	 5.31869253020752E-03 
1214	 5.25291896756233E-03 
1215	 5.04396700898338E-03 
1216	 5.2355363860651E-03 
1217	 5.51624710393158E-03 
1218	 5.27982440132392E-03 
1219	 5.20797812421483E-03 
1220	 5.40411049699789E-03 
1221	 5.20654189279801E-03 
1222	 5.16116504216381E-03 
1223	 5.47114412763735E-03 
1224	 5.54203495325539E-03 
1225	 5.46451953777454E-03 
1226	 5.33249422307047E-03 
1227	 5.15630167791375E-03 
1228	 5.10698910470643E-03 
1229	 5.16034529589373E-03 
1230	 5.45003681914567E-03 
1231	 5.66446761782191E-03 
1232	 5.51219767118313E-03 
1233	 5.40423286148765E-03 
1234	 5.3100713777894E-03 
1235	 5.25665183701932E-03 
1236	 5.31669936073947E-03 
1237	 5.38198101339998E-03 
1238	 5.46994854544297E-03 
1239	 5.52178708632536E-03 
1240	 5.56713393962029E-03 
1241	 5.5532272651321E-03 
1242	 5.53088901869374E-03 
1243	 5.46276254045154E-03 
1244	 5.4659409117874E-03 
1245	 5.55517646208745E-03 
1246	 5.55653158241491E-03 
1247	 5.51824440156806E-03 
1248	 5.49514321121003E-03 
1249	 5.47404967804717E-03 
1250	 5.43237217054542E-03 
1251	 5.35331928344059E-03 
1252	 5.27504665914592E-03 
1253	 5.17883744276717E-03 
1254	 5.27839945931732E-03 
1255	 5.56688666793339E-03 
1256	 5.59339019624896E-03 
1257	 5.44139990317262E-03 
1258	 5.47649760282582E-03 
1259	 5.49690747247739E-03 
1260	 5.34928116636599E-03 
1261	 5.18470905537908E-03 
1262	 5.20957133443459E-03 
1263	 5.17429132555516E-03 
1264	 5.12943678587549E-03 
1265	 5.19713228673019E-03 
1266	 5.33089015398497E-03 
1267	 5.33432836019563E-03 
1268	 5.17736719769951E-03 
1269	 5.25461120908619E-03 
1270	 5.51200987277701E-03 
1271	 5.43752070331054E-03 
1272	 5.24681835462865E-03 
1273	 5.25558605979708E-03 
1274	 5.33254445998285E-03 
1275	 0.005371311901139 
1276	 5.33608416759603E-03 
1277	 5.35653762194392E-03 
1278	 5.41472784299581E-03 
1279	 5.33115457013093E-03 
1280	 5.27661377446045E-03 
1281	 5.31063515664958E-03 
1282	 5.38955277043756E-03 
1283	 5.3274999745216E-03 
1284	 5.23945092038141E-03 
1285	 5.26963742271495E-03 
1286	 0.005309135573172 
1287	 5.29743109471007E-03 
1288	 5.3535352027904E-03 
1289	 5.37797854707791E-03 
1290	 5.36663518817011E-03 
1291	 5.19328283047067E-03 
1292	 5.11497087183248E-03 
1293	 5.27497028690918E-03 
1294	 5.37994814165547E-03 
1295	 5.14693579860839E-03 
1296	 4.96920592126548E-03 
1297	 5.15025739023275E-03 
1298	 5.46253121389074E-03 
1299	 5.64084592110643E-03 
1300	 5.40166968013968E-03 
1301	 5.09730608213021E-03 
1302	 4.95968363840026E-03 
1303	 4.92474180240762E-03 
1304	 5.11284769760559E-03 
1305	 5.27005814533004E-03 
1306	 5.39795737177309E-03 
1307	 5.32639480704331E-03 
1308	 5.18923781829107E-03 
1309	 4.94160449825503E-03 
1310	 5.01277851452091E-03 
1311	 5.15142564647904E-03 
1312	 5.04453611917918E-03 
1313	 5.06878711267765E-03 
1314	 5.23995421818059E-03 
1315	 5.26327340155512E-03 
1316	 5.14493697701936E-03 
1317	 5.18573839694262E-03 
1318	 5.41097326721056E-03 
1319	 5.39992949455347E-03 
1320	 5.25408474542205E-03 
1321	 5.16749797456128E-03 
1322	 5.8112866392886E-03 
1323	 5.29288525398764E-03 
1324	 4.38333069551262E-03 
1325	 4.86138081601998E-03 
1326	 4.9013241777638E-03 
1327	 4.35933803945643E-03 
1328	 4.93215696162735E-03 
1329	 4.97808049262082E-03 
1330	 3.90028197757403E-03 
1331	 4.20292957191535E-03 
1332	 5.26963842469602E-03 
1333	 4.9185435173776E-03 
1334	 4.59220256757894E-03 
1335	 4.41356979302327E-03 
1336	 3.41383381648019E-03 
1337	 3.33788359366681E-03 
1338	 4.60312787505329E-03 
1339	 4.89517996062987E-03 
1340	 4.82656185126333E-03 
1341	 5.08833783192789E-03 
1342	 4.99958464153536E-03 
1343	 4.78608467820471E-03 
1344	 5.14292198657398E-03 
1345	 5.48678660257642E-03 
1346	 5.94839922597609E-03 
1347	 5.48641881037638E-03 
1348	 2.06975172943348E-03 
1349	 3.94305272185642E-04 
1350	 3.67627565049228E-04 
1351	-2.52060487371809E-03 
1352	-4.50134346425746E-03 
1353	-7.90493327878076E-05 
1354	 2.05529100540046E-02 
1355	 1.31423236500258E-02 
1356	-8.21603321537356E-03 
1357	-5.93161985506878E-03 
1358	-2.09592998216167E-02 
1359	-3.84330382908395E-02 
1360	-3.81908882407815E-02 
1361	-4.62525308352439E-02 
1362	 3.87473853252773E-03 
1363	 3.43983118500351E-02 
1364	-7.14417084308491E-03 
1365	 4.14377355478564E-02 
1366	 8.14053877093048E-02 
1367	-9.41186876818021E-02 
1368	-0.276986105655541 
1369	-0.307395995827028 
1370	-0.24350739746066 
1371	-5.38256613083843E-02 
1372	-0.12946110417667 
1373	-0.268188808680412 
1374	-8.36393034577507E-02 
1375	 0.121646095481237 
1376	 1.58464294911422E-02 
1377	 0.142578505238941 
1378	 0.305632487221164 
1379	-0.138876005517353 
1380	-0.34052894823011 
1381	-9.63557574099554E-02 
1382	 8.43257574987997E-02 
1383	 0.061154236881029 
1384	 3.21250526808006E-02 
1385	 0.31014691914631 
1386	 0.334361679589474 
1387	-0.117282551503716 
1388	-0.20000499290835 
1389	 0.691311197543342 
1390	 0.569023236554582 
1391	-1.03354761242536 
1392	-1.809552759296 
1393	-0.297958295205802 
1394	-0.308008506681143 
1395	-0.200117311679388 
1396	 0.176378776738139 
1397	-5.29163333751554E-03 
1398	-0.260763994283053 
1399	-8.88860355744935E-02 
1400	 0.063201657664461 
1401	 0.186254416729871 
1402	 0.283346836634427 
1403	 0.283380775822374 
1404	 0.347849309594942 
1405	 0.265574962169861 
1406	 0.124629232246507 
1407	 0.155893411440278 
1408	 0.261040571469493 
1409	 0.182839728435164 
1410	 0.103188097617501 
1411	 8.79128264537826E-02 
1412	-8.04421369797638E-03 
1413	-1.95420712051745E-02 
1414	 0.111997889249428 
1415	 9.39474383800697E-02 
1416	-1.00022437860942E-02 
1417	-4.01663790341305E-02 
1418	-0.105900216980035 
1419	-6.25469695003672E-02 
1420	 6.88437164382365E-02 
1421	 7.17868487198437E-02 
1422	 5.32259922319764E-02 
1423	 4.88845385537408E-02 
1424	 6.26970446102424E-03 
1425	-1.60723603012066E-03 
1426	 2.95203530152453E-02 
1427	 2.69045333302142E-02 
1428	-2.51022008079907E-03 
1429	-2.15716931715672E-03 
1430	 8.97897189104459E-03 
1431	 5.40106175277183E-03 
1432	 5.46286746867471E-03 
1433	 0.011172624868267 
1434	 1.33932679659329E-02 
1435	 1.01081437873445E-02 
1436	 1.20008962015706E-02 
1437	 1.18649995848257E-02 
1438	 8.73631353561135E-03 
1439	 6.77900166564708E-03 
1440	 4.46189768704463E-03 
1441	 1.01640828979615E-03 
1442	 1.93528283082981E-03 
1443	 3.02708555943156E-03 
1444	 1.35752177249593E-02 
1445	 1.95473227189929E-02 
1446	 8.58356536668527E-03 
1447	 6.63165939602985E-03 
1448	 1.05167413258797E-02 
1449	 6.12248262376775E-03 
1450	 3.46720102787176E-03 
1451	 4.18500228201179E-03 
1452	 3.37844011046834E-03 
1453	 2.77423256203888E-03 
1454	 2.34851707556296E-03 
1455	 3.3227837887286E-03 
1456	 3.79947053497815E-03 
1457	 4.25935066911299E-03 
1458	 2.58431347877316E-03 
1459	-1.13459606972279E-03 
1460	 2.74552925940155E-04 
1461	 4.08027119320649E-03 
1462	 2.91424919171561E-03 
1463	 2.22883027859667E-03 
1464	 3.31828093319604E-03 
1465	-1.65339678219982E-04 
1466	-1.37530067603059E-03 
1467	 3.8347931008595E-03 
1468	 5.72428759214412E-03 
1469	 3.32415151496458E-03 
1470	 2.62259872632243E-03 
1471	 5.02009224840282E-03 
1472	 4.58933373849936E-03 
1473	 3.59207299954814E-05 
1474	-5.81610456571564E-04 
1475	 1.33064640064778E-03 
1476	 1.44611620130517E-03 
1477	 1.20966071194379E-03 
1478	 1.7092637018657E-03 
1479	 2.13818360877278E-03 
1480	 2.34282393093495E-03 
1481	 3.20546449644364E-03 
1482	 3.48187809234595E-03 
1483	 3.20008513369003E-03 
1484	 0.002866618322609 
1485	 2.17362767192485E-03 
1486	 2.44165247743121E-03 
1487	 3.45731350516018E-03 
1488	 3.04710540190301E-03 
1489	 1.99777791258429E-03 
1490	 2.11132290432294E-03 
1491	 2.24223556503808E-03 
1492	 2.0854365569226E-03 
1493	 2.40569557529944E-03 
1494	 2.66990032055056E-03 
1495	 2.66265383265082E-03 
1496	 0.00248940706521 
1497	 2.41642998124668E-03 
1498	 2.44905090608504E-03 
1499	 2.2390312303509E-03 
1500	 2.0328069642535E-03 
1501	 2.00368578222328E-03 
1502	 2.05081061045826E-03 
1503	 1.93039140849617E-03 
1504	 1.93791857799219E-03 
1505	 0.002233957411872 
1506	 2.36685911873207E-03 
1507	 2.30611621872206E-03 
1508	 2.35545643060562E-03 
1509	 2.40625801188713E-03 
1510	 2.48561183180466E-03 
1511	 2.65348702726322E-03 
1512	 2.52862983742993E-03 
1513	 2.18571375088368E-03 
1514	 2.21910184949556E-03 
1515	 2.20399243455463E-03 
1516	 2.17750670555163E-03 
1517	 2.67376559991591E-03 
1518	 2.90577658227534E-03 
1519	 2.8417610224612E-03 
1520	 2.85176306044584E-03 
1521	 2.5558089307158E-03 
1522	 2.35218386689145E-03 
1523	 2.51916969102517E-03 
1524	 2.63515254779439E-03 
1525	 2.71792683050597E-03 
1526	 2.74258873740967E-03 
1527	 2.63560805448244E-03 
1528	 2.62231339830439E-03 
1529	 2.50237894523922E-03 
1530	 2.3842648018006E-03 
1531	 2.60346274933589E-03 
1532	 2.7989609588461E-03 
1533	 2.83672430669808E-03 
1534	 2.77432664322293E-03 
1535	 2.6006870217901E-03 
1536	 2.57392744046888E-03 
1537	 2.69621664967896E-03 
1538	 2.86884956491806E-03 
1539	 2.93453542527927E-03 
1540	 2.89208113454388E-03 
1541	 2.85543273435777E-03 
1542	 2.70650381014912E-03 
1543	 0.002681962435905 
1544	 2.75398271640996E-03 
1545	 2.80315333668402E-03 
1546	 3.0140286463306E-03 
1547	 3.15913162031775E-03 
1548	 3.09124518464038E-03 
1549	 2.98162725725324E-03 
1550	 3.00754945192978E-03 
1551	 3.07880568278075E-03 
1552	 3.04720696679625E-03 
1553	 3.13250050499056E-03 
1554	 3.21030934805551E-03 
1555	 3.11049307709098E-03 
1556	 3.11640205642842E-03 
1557	 3.25574986732361E-03 
1558	 3.26001799053685E-03 
1559	 3.15045329172569E-03 
1560	 3.06457077937458E-03 
1561	 2.91681083202823E-03 
1562	 3.06009420047214E-03 
1563	 3.34786426445815E-03 
1564	 3.22574037774808E-03 
1565	 3.19691100211025E-03 
1566	 3.24752573825852E-03 
1567	 3.10103246350805E-03 
1568	 3.16712969219488E-03 
1569	 3.09173655539879E-03 
1570	 2.83080870334477E-03 
1571	 2.97937832008475E-03 
1572	 3.1877792983142E-03 
1573	 3.10876922534785E-03 
1574	 3.06559415201948E-03 
1575	 3.08060978986158E-03 
1576	 3.11771382430744E-03 
1577	 3.34583376096585E-03 
1578	 3.31550772660902E-03 
1579	 3.01162209405874E-03 
1580	 3.0738485205894E-03 
1581	 3.25049283419133E-03 
1582	 3.26269977723648E-03 
1583	 3.13242323579952E-03 
1584	 2.94216230396544E-03 
1585	 2.97530692106765E-03 
1586	 3.06161597074635E-03 
1587	 3.29144409477574E-03 
1588	 3.53589902044234E-03 
1589	 3.36590649206457E-03 
1590	 3.28065629851117E-03 
1591	 3.32260885162936E-03 
1592	 3.13356817889966E-03 
1593	 3.02268536354883E-03 
1594	 3.08822785143876E-03 
1595	 3.24168586590079E-03 
1596	 3.3111405490349E-03 
1597	 3.26360527452556E-03 
1598	 3.28287477466881E-03 
1599	 3.13256565425205E-03 
1600	 3.05906888803491E-03 
1601	 3.24361718886142E-03 
1602	 3.17398669540264E-03 
1603	 3.05921710805611E-03 
1604	 3.1547004931291E-03 
1605	 3.16791262792306E-03 
1606	 3.18079924796019E-03 
1607	 3.2930122310537E-03 
1608	 3.23131679258718E-03 
1609	 3.13938934405547E-03 
1610	 3.31941252047471E-03 
1611	 3.44335958922608E-03 
1612	 3.31121702033522E-03 
1613	 3.28157267721215E-03 
1614	 3.41282847780991E-03 
1615	 3.45259286680018E-03 
1616	 3.43231152462776E-03 
1617	 3.37806697385768E-03 
1618	 3.23470742483115E-03 
1619	 3.11402215175146E-03 
1620	 3.18797543002366E-03 
1621	 3.38092859355237E-03 
1622	 3.41960655813338E-03 
1623	 3.34499746584711E-03 
1624	 3.38712115799627E-03 
1625	 3.47963160180514E-03 
1626	 3.51484785483479E-03 
1627	 3.46178629162585E-03 
1628	 3.30777691512573E-03 
1629	 3.34941641566272E-03 
1630	 3.38304445665187E-03 
1631	 3.24070414814864E-03 
1632	 3.25648683097152E-03 
1633	 3.11747047013096E-03 
1634	 2.99396600088765E-03 
1635	 3.17940304951083E-03 
1636	 3.39909039151581E-03 
1637	 3.65901333575692E-03 
1638	 3.70373723293957E-03 
1639	 3.51021951082398E-03 
1640	 3.37933446928633E-03 
1641	 3.2800967682856E-03 
1642	 3.39387484268435E-03 
1643	 3.60582669685643E-03 
1644	 3.66189844194539E-03 
1645	 3.72490954460351E-03 
1646	 3.53842781890008E-03 
1647	 3.39809135867074E-03 
1648	 3.61676907937356E-03 
1649	 0.003598565973579 
1650	 3.36538303333591E-03 
1651	 3.11150568788746E-03 
1652	 2.92680138527963E-03 
1653	 3.26499030390848E-03 
1654	 3.25688719156933E-03 
1655	 3.03004934225501E-03 
1656	 3.05030587059797E-03 
1657	 2.97815393984239E-03 
1658	 3.03884795658675E-03 
1659	 3.45698699022671E-03 
1660	 3.56444732733155E-03 
1661	 3.40729584741408E-03 
1662	 3.6251637962513E-03 
1663	 4.22463016114008E-03 
1664	 4.07743065528883E-03 
1665	 3.51327415588128E-03 
1666	 3.48976006262329E-03 
1667	 3.22553240782991E-03 
1668	 3.46995178470515E-03 
1669	 3.67218165649125E-03 
1670	 3.37900510076532E-03 
1671	 3.1947053078581E-03 
1672	 3.30960719462861E-03 
1673	 3.45745118867899E-03 
1674	 3.53444979342476E-03 
1675	 3.58998341665272E-03 
1676	 3.54491505474975E-03 
1677	 3.5326223424718E-03 
1678	 3.79199786536892E-03 
1679	 3.60535230539586E-03 
1680	 3.21638785958284E-03 
1681	 3.44945088337296E-03 
1682	 3.64048465066746E-03 
1683	 3.48729430343379E-03 
1684	 3.5453163171467E-03 
1685	 3.59967918449621E-03 
1686	 3.37609611575726E-03 
1687	 3.23017431522146E-03 
1688	 3.18345254709143E-03 
1689	 3.14506459247746E-03 
1690	 2.99746853968104E-03 
1691	 2.92907830815972E-03 
1692	 3.19692353854774E-03 
1693	 3.25716738740918E-03 
1694	 3.16979996648313E-03 
1695	 3.58618337436951E-03 
1696	 3.96815499966926E-03 
1697	 3.56340798293402E-03 
1698	 3.27605716327807E-03 
1699	 3.66420940442836E-03 
1700	 3.80177660322307E-03 
1701	 3.73840912021917E-03 
1702	 3.77877474352398E-03 
1703	 3.2114804160237E-03 
1704	 2.5445713589165E-03 
1705	 3.17651669148262E-03 
1706	 4.20739896099914E-03 
1707	 4.19205548886493E-03 
1708	 3.84895632491098E-03 
1709	 3.47252118241339E-03 
1710	 3.09372742330674E-03 
1711	 3.37038877974139E-03 
1712	 3.57490510072617E-03 
1713	 2.92057464746097E-03 
1714	 2.78521140788493E-03 
1715	 2.79830024754371E-03 
1716	 3.19347418014492E-03 
1717	 3.45437695086367E-03 
1718	 3.42713137995132E-03 
1719	 3.56158866934811E-03 
1720	 3.54506599607787E-03 
1721	 3.3355904855835E-03 
1722	 3.36501088480009E-03 
1723	 3.18681315469844E-03 
1724	 3.10654845732422E-03 
1725	 3.24200552034417E-03 
1726	 3.10217398939976E-03 
1727	 3.04810952372024E-03 
1728	 3.27951989744631E-03 
1729	 3.43726027378979E-03 
1730	 3.38088355022148E-03 
1731	 3.32859627929868E-03 
1732	 3.50622003517028E-03 
1733	 3.23980551850387E-03 
1734	 2.55441229829094E-03 
1735	 2.91525099948461E-03 
1736	 3.28768381448844E-03 
1737	 3.26121513037529E-03 
1738	 4.06640307414772E-03 
1739	 4.10360865370991E-03 
1740	 3.07439761379342E-03 
1741	 2.77570703423813E-03 
1742	 3.15486712763477E-03 
1743	 3.16745499490991E-03 
1744	 3.14222342321665E-03 
1745	 3.39314619449461E-03 
1746	 2.61378223632623E-03 
1747	 2.44738019764871E-03 
1748	 2.90845595340392E-03 
1749	 2.98586131008135E-03 
1750	 3.08875706982307E-03 
1751	 3.02485995957843E-03 
1752	 2.49138018502841E-03 
1753	 2.48187973187607E-03 
1754	 2.92296711910981E-03 
1755	 3.19480383258224E-03 
1756	 3.67572593797064E-03 
1757	 3.50515025830158E-03 
1758	 2.75445517701179E-03 
1759	 2.07398608987449E-03 
1760	 2.52494878262657E-03 
1761	 3.02559033676856E-03 
1762	 3.36159694462261E-03 
1763	 3.43069033008476E-03 
1764	 2.80537841237745E-03 
1765	 2.76148900634511E-03 
1766	 3.39648452739998E-03 
1767	 3.69612331813307E-03 
1768	 3.87873954118214E-03 
1769	 3.72555899034565E-03 
1770	 3.44827269709115E-03 
1771	 3.69861502811423E-03 
1772	 4.05003436348967E-03 
1773	 4.0935041963635E-03 
1774	 3.5858671335778E-03 
1775	 3.04869086573524E-03 
1776	 3.0541634741317E-03 
1777	 4.12988983620549E-03 
1778	 4.15512649388578E-03 
1779	 3.58106891227228E-03 
1780	 3.59087873039892E-03 
1781	 2.84473696480182E-03 
1782	 2.04550771105435E-03 
1783	 1.73234284333051E-03 
1784	 1.85462007705283E-03 
1785	 2.28315346039052E-03 
1786	 2.40077732937058E-03 
1787	 3.21374995686973E-03 
1788	 3.01949480459365E-03 
1789	 1.05901617652314E-03 
1790	 2.52557104950124E-03 
1791	 2.83389478284136E-03 
1792	 3.00047120011948E-03 
1793	 2.14929236225554E-03 
1794	 1.87811802882259E-03 
1795	 4.41517169582047E-03 
1796	 6.08217304037801E-03 
1797	 6.7458776622432E-03 
1798	 5.41243196284644E-03 
1799	 2.32728399648448E-03 
1800	 2.73495571446095E-03 
1801	 1.93231116115999E-03 
1802	-0.008368202947797 
1803	-1.04851696772458E-02 
1804	 8.20665594134919E-03 
1805	 1.20664966162594E-02 
1806	 1.39306366541906E-02 
1807	 1.92541539576447E-02 
1808	-1.72076752571312E-02 
1809	-3.41122152029769E-02 
1810	-9.90031790255462E-03 
1811	 2.77696863933753E-02 
1812	 0.111352921253753 
1813	 0.17252279692869 
1814	 0.247036251593354 
1815	 0.202214185522797 
1816	-8.69779286457227E-02 
1817	-0.518330183378248 
1818	-0.999467339259551 
1819	-0.407168110005199 
1820	-0.50243601758727 
1821	-0.131532509092754 
1822	 3.61807568417159E-02 
1823	 0.883944748701973 
1824	 1.69886451345362 
1825	 1.14243197038604 
1826	 1.7154552358131 
1827	 1.24843770235252 
1828	 0.906163397546332 
1829	 0.821399437204702 
1830	 0.605592893705885 
1831	 0.82277204446152 
1832	 0.773216362062745 
1833	 0.988505178454874 
1834	 1.75316304337849 
1835	 5.10829555221915 
1836	 3.43330885229044 
1837	 0.134196053205584 
1838	-0.368205207124965 
1839	-1.48256873870839 
1840	-1.51913109532566 
1841	-0.501254073980703 
1842	 1.07932607795319 
1843	 1.41104962259873 
1844	-9.24876848234092E-02 
1845	 7.34125112656228E-02 
1846	 0.282495638805146 
1847	 0.314880607282354 
1848	 0.508186685758498 
1849	 1.52193970676907 
1850	 6.78020697195985 
1851	-1.13821495251646 
1852	-0.911530075411328 
1853	-1.03594634362099 
1854	-0.899276819752354 
1855	-0.936170958281149 
1856	-2.08548928469495 
1857	 1.51562382068771 
1858	 1.60264097356219 
1859	 4.94426930169726 
1860	 0.26731120058232 
1861	 0.764701219431153 
1862	 8.65765274973073 
1863	 0.729668125065636 
1864	 2.24658380412562 
1865	 3.06532737473142 
1866	-2.00567149534255 
1867	-1.66887743606346 
1868	-2.42586749528903 
1869	-1.15093579615809 
1870	-0.479131130150989 
1871	 0.779123060175435 
1872	 0.988786799251861 
1873	 4.29206566904311 
1874	 1.72363704950654 
1875	 0.531549434708131 
1876	-0.154897476790702 
1877	 0.288107278778844 
1878	-0.912164853832624 
1879	-0.341390860459927 
1880	-0.547012495334148 
1881	-1.16034834925617 
1882	-2.65402018676251 
1883	 0.838239196925534 
1884	 0.799673700848188 
1885	 0.907747495948335 
1886	-0.742463826620133 
1887	 0.133507191446419 
1888	 0.114410756773753 
1889	 6.24394968773377E-02 
1890	 0.852652890464249 
1891	 1.22845718910505 
1892	 1.32888868598558 
1893	 1.37291496540533 
1894	 2.47973074565517 
1895	-4.95717733005852 
1896	-1.22032300107185 
1897	-0.752941939864865 
1898	-0.6619755099271 
1899	 0.351317961647262 
1900	 0.314487760570173 
1901	 0.208304372943468 
1902	 0.295565719192341 
1903	 0.624696808935055 
1904	 4.72171934246887 
1905	-1.89952275886561 
1906	-0.295566084135866 
1907	 0.441042128802161 
1908	 0.437300559682398 
1909	-0.3812213054511 
1910	 3.97237134938094 
1911	 2.33330535747837 
1912	 2.09885570975982 
1913	 1.92385421452734 
1914	 19.03841871136 
1915	-3.53756286594967 
1916	-6.61583548442281 
1917	 12.3456534750171 
1918	 1.09770929002606 
1919	-0.398066607618224 
1920	-19.7242795130166 
1921	 0.172002486810632 
1922	 0.674080969965397 
1923	 0.583653515871508 
1924	 0.608981881484065 
1925	 0.937790989424009 
1926	 0.841388575338625 
1927	 0.701569123784305 
1928	 0.716294193472166 
1929	 0.494652797704341 
1930	-0.390690564411361 
1931	-0.787116208397743 
1932	-0.640600432934481 
1933	-0.34555703705029 
1934	-0.310443273802336 
1935	-8.08918955103949E-02 
1936	-0.156980303268776 
1937	-0.10609748582466 
1938	 7.13750392583327E-03 
1939	-2.49828334923221E-02 
1940	-0.136608020557982 
1941	-0.112573398189169 
1942	-8.66901300205866E-02 
1943	-0.115397566502495 
1944	-4.66133126532246E-02 
1945	 2.04144337847651E-02 
1946	 4.45999846012133E-02 
1947	 9.27994556272092E-02 
1948	 0.101717528826787 
1949	 9.81937498708422E-02 
1950	 0.106854862802358 
1951	 8.52260044353487E-02 
1952	 6.22101392785857E-02 
1953	 3.99116934234677E-02 
1954	 2.67118373216986E-02 
1955	 6.78573494872836E-03 
1956	-6.11008213757007E-03 
1957	-9.91635297460789E-03 
1958	 2.71056534626151E-03 
1959	 1.22569106018454E-02 
1960	 2.83697372405618E-03 
1961	-3.58468461101108E-03 
1962	-7.62236292682705E-03 
1963	-1.00032189022483E-02 
1964	-4.82326242738235E-03 
1965	 1.52564080531809E-04 
1966	 1.31801400001952E-03 
1967	 1.08426619134581E-03 
1968	 6.77277747785484E-04 
1969	 1.23120807521155E-03 
1970	-1.34040806318233E-04 
1971	-7.86027689801911E-04 
1972	-7.78465401513011E-04 
1973	-2.20834889269704E-03 
1974	-1.84753522056631E-03 
1975	-9.36594233352119E-04 
1976	-3.9319560601328E-04 
1977	-2.57262686965252E-04 
1978	-4.1953156525229E-04 
1979	 1.36526058606168E-04 
1980	 1.38611366986102E-03 
1981	 1.9053035946585E-03 
1982	 1.82315848113175E-03 
1983	 1.40585225361323E-03 
1984	 4.675899485591E-04 
1985	 6.15511723391685E-04 
1986	 6.90710152985669E-04 
1987	 6.24605988884095E-04 
1988	 1.92750265666877E-03 
1989	 2.02297457107794E-03 
1990	 1.76751964180708E-03 
1991	 3.07063298470245E-03 
1992	 2.9768048517904E-03 
1993	 2.91395494708019E-03 
1994	 3.03561311729323E-03 
1995	 3.86714857044202E-03 
1996	 3.08697575512856E-03 
1997	 2.36824885425145E-03 
1998	 2.46681650142608E-03 
1999	 2.74027109671232E-03 
2000	 1.69061942290602E-03 
2001	 6.07252981421798E-04 
2002	 7.67060348430349E-04 
2003	-3.84963668077734E-04 
2004	-6.52147113506122E-04 
2005	 2.48279918893527E-03 
2006	 4.0069088236473E-03 
2007	 1.88187239545487E-03 
2008	 2.22791734294168E-03 
2009	 2.60797027886405E-03 
2010	 1.9307582320717E-03 
2011	 2.32256399700783E-03 
2012	 4.58298541181748E-03 
2013	 5.22070670304175E-03 
2014	 4.24582326381757E-03 
2015	 1.74454724377652E-03 
2016	-1.47615132083338E-03 
2017	-1.57597770995374E-03 
2018	 4.75710330204944E-04 
2019	 2.57633595500986E-03 
2020	 4.23517834378827E-03 
2021	 3.66499927726719E-03 
2022	 2.28767335173659E-03 
2023	 1.52098535045181E-03 
2024	 1.34222368139772E-03 
2025	 1.95889151034042E-03 
2026	 1.88324378661764E-03 
2027	 2.00952061834803E-03 
2028	 1.57010330983091E-03 
2029	 2.98032488972871E-04 
2030	 1.02870831581231E-04 
2031	 1.08157843942218E-03 
2032	 1.65354918591746E-03 
2033	 2.0127418739802E-03 
2034	 2.06702073778572E-03 
2035	 1.67087122834374E-03 
2036	 1.59618046979997E-03 
2037	 1.53898963144773E-03 
2038	 5.76260244810782E-04 
2039	 3.17171721730529E-04 
2040	-1.7621504607169E-04 
2041	-4.9863456202058E-04 
2042	-1.30186096993556E-04 
2043	 4.51105436275604E-04 
2044	 1.05567636711227E-03 
2045	 1.52826957482672E-03 
2046	 2.21991233947497E-03 
2047	 2.09329966250687E-03 
2048	 1.80214519357954E-03 
2049	 1.10331494112101E-03 
2050	 8.95478427731991E-04 
2051	 1.32434344270639E-03 
2052	 2.1280628761405E-03 
2053	 2.69952870485596E-03 
2054	 1.62790631658403E-03 
2055	 1.51733364332283E-03 
2056	 1.44043768373312E-03 
2057	 5.23380294680997E-04 
2058	-1.63629351395111E-04 
2059	 1.39671151375737E-04 
2060	-3.23994583192408E-05 
2061	-1.0208083845507E-03 
2062	-1.18531674360951E-03 
2063	-6.95504613183025E-04 
2064	 3.66159992514629E-05 
2065	 6.50309369491841E-04 
2066	 1.10916380811025E-03 
2067	 1.77548044249259E-03 
2068	 1.68513473539622E-03 
2069	 1.55942158788398E-03 
2070	 2.78859149032933E-03 
2071	 2.72404019580047E-03 
2072	 1.30561685350787E-03 
2073	 8.61080028922866E-04 
2074	-2.89508810263331E-04 
2075	-4.07194438817684E-04 
2076	 1.15083875816837E-03 
2077	 1.20460160209583E-03 
2078	 1.66010906915957E-05 
2079	 1.68963323450042E-04 
2080	 2.09923757766211E-04 
2081	 9.16348307979251E-04 
2082	 2.97600785755779E-03 
2083	 4.10617860581565E-03 
2084	 3.96908574572054E-03 
2085	 3.24173473365534E-03 
2086	 1.47159369649598E-03 
2087	 3.76813671978304E-04 
2088	 4.46296214009856E-04 
2089	 1.14660465625428E-03 
2090	 2.0000558261311E-03 
2091	 2.39931862500879E-03 
2092	 2.63864773619941E-03 
2093	 2.17732609265874E-03 
2094	 1.90792712835186E-03 
2095	 1.75644362176842E-03 
2096	 1.79601383296277E-03 
2097	 1.79071358472487E-03 
2098	 1.60928885622121E-03 
2099	 1.44771023822178E-03 
2100	 1.37531958289897E-03 
2101	 1.21918421863559E-03 
2102	 1.07990839985702E-03 
2103	 1.55773577676455E-03 
2104	 1.25236320023814E-03 
2105	 8.36923499968141E-04 
2106	 1.1866027374173E-03 
2107	 7.27000605802228E-04 
2108	 9.5194732542449E-04 
2109	 1.67424482195681E-03 
2110	 1.10983806384371E-03 
2111	 1.02201064113059E-03 
2112	 1.52569774115351E-03 
2113	 1.7025609037859E-03 
2114	 1.76909090656954E-03 
2115	 1.75650324172338E-03 
2116	 1.84408362543841E-03 
2117	 1.55093685067276E-03 
2118	 7.4155734168265E-04 
2119	 2.83815673151339E-04 
2120	-4.21231598522114E-04 
2121	-4.39621969221206E-04 
2122	-1.4509068860911E-04 
2123	-3.41891299734588E-04 
2124	 3.15145441332503E-04 
2125	 6.61326638685444E-04 
2126	 7.08832532640314E-04 
2127	 1.5416087207317E-03 
2128	 2.05330178857982E-03 
2129	 2.02926944847156E-03 
2130	 1.86163946983526E-03 
2131	 1.28186240626353E-03 
2132	 8.32392372891167E-04 
2133	 9.80284613571604E-04 
2134	 7.71038110640408E-04 
2135	 3.80878945882673E-04 
2136	 3.42522066895837E-04 
2137	 5.35130245260025E-04 
2138	 4.81840038415806E-04 
2139	 4.73117742142079E-04 
2140	 5.41483340649027E-04 
2141	 4.41715495937694E-04 
2142	 1.10059225126176E-04 
2143	-7.90211344584852E-04 
2144	-8.53908383131871E-05 
2145	 3.10084648751783E-04 
2146	 8.3517478375835E-04 
2147	 1.95529495190048E-03 
2148	 2.09353914432644E-03 
2149	 1.77125853375653E-03 
2150	 1.07378382262399E-03 
2151	 3.17421604283603E-04 
2152	 1.44566328664341E-04 
2153	 3.22574065673485E-04 
2154	 1.15624693266687E-03 
2155	 1.97159501386276E-03 
2156	 2.16074017700032E-03 
2157	 2.24471635856735E-03 
2158	 1.85996762675088E-03 
2159	 1.68548131049258E-03 
2160	 1.44529283702461E-03 
2161	 1.3570999406421E-03 
2162	 1.2666219200297E-03 
2163	 1.1287260261033E-03 
2164	 9.68026139937404E-04 
2165	 1.00089569851309E-03 
2166	 1.1317788212988E-03 
2167	 1.03097613990862E-03 
2168	 1.0945656865574E-03 
2169	 1.16958711976337E-03 
2170	 7.40909419561866E-04 
2171	 1.23522328104686E-03 
2172	 1.89004103153194E-03 
2173	 1.2792430545123E-03 
2174	 1.11254572143005E-03 
2175	 0.001077404263765 
2176	 1.12452237787845E-03 
2177	 1.59213087405246E-03 
2178	 1.46895287441497E-03 
2179	 1.02334855165449E-03 
2180	 1.09248258779917E-03 
2181	 4.54735115873909E-04 
2182	-2.83165987722497E-04 
2183	 2.50697916073859E-04 
2184	 6.28282933077229E-04 
2185	 5.87782366838452E-04 
2186	 7.13809085889692E-04 
2187	 1.16816965534672E-03 
2188	 1.21883847721141E-03 
2189	 1.13754800897592E-03 
2190	 1.23697050076823E-03 
2191	 1.25968657180406E-03 
2192	 1.0608602234146E-03 
2193	 2.9874849208889E-04 
2194	 2.10838355554414E-04 
2195	 7.34181920651171E-04 
2196	 8.31029731727994E-04 
2197	 1.30355257538066E-03 
2198	 1.22036070592665E-03 
2199	-3.44427294120033E-05 
2200	-1.42407758580299E-04 
2201	 4.57465162207763E-04 
2202	 1.38436551686311E-03 
2203	 2.93346976425417E-03 
2204	 3.49072624892318E-03 
2205	 3.66902820674461E-03 
2206	 3.56879599156716E-03 
2207	 3.41313517971927E-03 
2208	 3.0453136401187E-03 
2209	 2.09841177593255E-04 
2210	-1.00588953262078E-03 
2211	-1.21302471004785E-03 
2212	-1.19822917260325E-03 
2213	 1.98579633693293E-03 
2214	 3.34442731680949E-03 
2215	 2.68220530971832E-03 
2216	 2.42057395614403E-03 
2217	 2.27467032398794E-03 
2218	 1.48246672756272E-03 
2219	 1.61334202238929E-03 
2220	 2.84365322516463E-03 
2221	 2.74337542822164E-03 
2222	 1.28153605992577E-03 
2223	 1.29903829760667E-03 
2224	 2.01834108542635E-03 
2225	 2.58914052261951E-03 
2226	 4.61172005028283E-03 
2227	 4.9574754577369E-03 
2228	 4.04794492436041E-03 
2229	 3.07784651380245E-03 
2230	 6.01854070112529E-04 
2231	 3.16545609928177E-05 
2232	 4.11692865087673E-04 
2233	 2.74918368098741E-04 
2234	 6.60306802588869E-04 
2235	 1.63990436118169E-03 
2236	 1.64979542647244E-03 
2237	 1.71443862413652E-03 
2238	 2.00761062049245E-03 
2239	 2.51124119750634E-03 
2240	 3.55276317524996E-03 
2241	 3.0910006358946E-03 
2242	 2.32612487246256E-03 
2243	 1.78488646672895E-03 
2244	 6.29670121654557E-04 
2245	 1.04889112069841E-03 
2246	 2.44200288696004E-03 
2247	 3.64244997103839E-03 
2248	 5.08002194131249E-03 
2249	 5.08058696980714E-03 
2250	 4.36846718052574E-03 
2251	 3.78472249832566E-03 
2252	 1.27868302311875E-03 
2253	-1.91777094465051E-04 
2254	 1.43862212701744E-03 
2255	 1.94376993372869E-03 
2256	 2.10980200611865E-03 
2257	 4.48043302051192E-03 
2258	 5.24716886286456E-03 
2259	 3.89128652791356E-03 
2260	 2.8028242738967E-03 
2261	 1.31674940621802E-03 
2262	 3.58147992615397E-04 
2263	-1.77688613923594E-03 
2264	-1.88601960824397E-03 
2265	 3.52583095099745E-05 
2266	 7.07177018845262E-04 
2267	 1.27176181608397E-03 
2268	 1.76441848623288E-03 
2269	 2.48415286704208E-03 
2270	 2.91256939827768E-03 
2271	 3.6488496934896E-03 
2272	 4.02756072526449E-03 
2273	 3.37751502287206E-03 
2274	 2.76620465384302E-03 
2275	 2.14619648085232E-03 
2276	 1.69210094419014E-03 
2277	 1.86316385086284E-03 
2278	 1.05497814084528E-03 
2279	-1.80720520450071E-03 
2280	-3.25452026687838E-03 
2281	-4.70923705897916E-03 
2282	-4.63081591859377E-03 
2283	-3.61776722022963E-03 
2284	-1.22747494969476E-03 
2285	-9.59475535708461E-04 
2286	-2.87438378535553E-04 
2287	 1.42698833239932E-03 
2288	 1.28188637657641E-03 
2289	 4.57264765554391E-04 
2290	-1.22811066147312E-04 
2291	-8.83777440312247E-04 
2292	-5.3515134556443E-04 
2293	 1.6731357240911E-03 
2294	 4.68315662980877E-03 
2295	 3.71877747773328E-03 
2296	 4.91519048767898E-04 
2297	 2.18483620977878E-03 
2298	 2.73462139815115E-03 
2299	 1.75635898184592E-03 
2300	 3.73558663926294E-03 
2301	 1.12268841917721E-03 
2302	-8.78589967606413E-04 
2303	-6.84390511061756E-04 
2304	-2.59084825522219E-03 
2305	-1.56618238079116E-03 
2306	-3.91213455377919E-03 
2307	-3.82866816297048E-03 
2308	 4.18263371991795E-04 
2309	-2.64388483742626E-04 
2310	-1.1788319964767E-05 
2311	-1.20434375837647E-03 
2312	-3.79626453472839E-03 
2313	-4.13176979836098E-03 
2314	-4.85562967200102E-03 
2315	-1.65915712841704E-03 
2316	 1.7682573933029E-03 
2317	-5.44943248043553E-04 
2318	-9.3936657142807E-04 
2319	-1.95551509017134E-03 
2320	-3.98902530083361E-03 
2321	 9.20301427402795E-04 
2322	 5.38962953220852E-03 
2323	 5.31033844615567E-03 
2324	 1.7109716005324E-03 
2325	-1.28701226694428E-03 
2326	 2.62398172253097E-03 
2327	 6.42958852758064E-03 
2328	 6.62954525823289E-03 
2329	 5.61292767689918E-03 
2330	 2.70681451088993E-03 
2331	 1.66376724259539E-03 
2332	 1.99525763193266E-03 
2333	 2.02657700881572E-03 
2334	 1.14735836337643E-03 
2335	-1.67074890797466E-03 
2336	-1.71733406140001E-03 
2337	 4.30331118880836E-03 
2338	 9.63555760517903E-03 
2339	 4.02844047181643E-03 
2340	 2.4571814348912E-04 
2341	 1.05268866069713E-03 
2342	-9.31737690568608E-03 
2343	-1.30652206109458E-02 
2344	-1.02438480975989E-02 
2345	-1.13623760905352E-02 
2346	-1.65986616982572E-03 
2347	 8.21222065907355E-03 
2348	 1.33357627759504E-02 
2349	 2.03256897206989E-02 
2350	 2.01656040554701E-02 
2351	 1.29393202970756E-02 
2352	 6.78030289208022E-03 
2353	-2.29774298175545E-03 
2354	-9.16376058396829E-03 
2355	 1.03346819715426E-04 
2356	 1.37589189178053E-02 
2357	 1.92701405776107E-02 
2358	 1.36869462392832E-02 
2359	-2.26642517755091E-04 
2360	-1.12110829568833E-02 
2361	-9.28241740065294E-03 
2362	-2.5438851054773E-03 
2363	 2.99483431596417E-03 
2364	 8.1635415340515E-03 
2365	-2.56934836870003E-04 
2366	-1.66923163672325E-02 
2367	-0.025601860845253 
2368	-2.45275888973164E-02 
2369	-1.66560344350112E-02 
2370	-3.48948315491065E-03 
2371	 7.56631410725375E-03 
2372	 7.71338446395219E-03 
2373	-7.28527149203767E-03 
2374	-2.23255640108882E-02 
2375	-2.93750123985248E-02 
2376	-0.040271462474689 
2377	-3.02617084745051E-02 
2378	-1.70195994320006E-02 
2379	-2.43070844289474E-02 
2380	-2.16008144419618E-02 
2381	-1.25940129904539E-02 
2382	 2.75641665300618E-03 
2383	 2.91619308463353E-02 
2384	 3.80268958474267E-02 
2385	 2.89340013665846E-02 
2386	 2.34208635916993E-02 
2387	-4.89262464349463E-03 
2388	-3.36365312622856E-02 
2389	-3.96647959709156E-02 
2390	-5.14841486383998E-02 
2391	-5.23753115363511E-02 
2392	-0.033053009246031 
2393	 4.82453853209954E-03 
2394	 2.59891042799188E-02 
2395	 3.04911802652386E-02 
2396	 2.76009209625221E-02 
2397	-8.8484221954804E-03 
2398	-3.64804085359512E-02 
2399	-5.21344806414118E-02 
2400	-6.85213572886315E-02 
2401	-6.30579066175787E-02 
2402	-0.055510117040325 
2403	-4.91295726683672E-02 
2404	-1.57897227979047E-02 
2405	 1.32781793455658E-02 
2406	-8.45761768874483E-03 
2407	-3.77965797037529E-02 
2408	-7.85108536180029E-02 
2409	-0.131018935612172 
2410	-0.142654858230145 
2411	-0.136481197503223 
2412	-0.150938599346415 
2413	-0.117394925955228 
2414	-5.85194759012524E-02 
2415	-8.52350223850528E-03 
2416	 4.40706983024822E-02 
2417	 3.53891978669718E-02 
2418	-3.33064730641309E-02 
2419	-0.12534465190914 
2420	-0.110727140753291 
2421	-0.110516508467541 
2422	-0.115202468776305 
2423	-9.53166529203652E-02 
2424	-0.164667068184368 
2425	-0.132907804327857 
2426	-6.67248438689805E-02 
2427	-6.36924467491396E-02 
2428	-6.60363993593544E-02 
2429	-7.04722854890276E-02 
2430	-0.106716973241888 
2431	-0.114447083153782 
2432	-3.02451196189241E-02 
2433	 8.3978248617607E-03 
2434	 1.88816924971226E-03 
2435	 1.79357536379626E-02 
2436	-3.68299261410611E-02 
2437	-9.99877584834068E-02 
2438	-0.147099863138857 
2439	-0.18884740108424 
2440	-0.166977768765088 
2441	-0.108079192155839 
2442	-8.54547939383778E-02 
2443	-8.37880004797959E-02 
2444	-5.68228860221035E-02 
2445	-0.087183757430099 
2446	-0.15281073766907 
2447	-0.238412787749331 
2448	-0.246110350485939 
2449	-0.282297021654647 
2450	-0.233630152776628 
2451	 0.170917604045871 
2452	 0.385298737101079 
2453	 0.215055980270357 
2454	 4.76239989631521E-02 
2455	 1.74195444128597E-02 
2456	-0.180788902722132 
2457	-0.142269928150828 
2458	-0.035054889288507 
2459	-0.232964869268597 
2460	-1.26713392685889 
2461	-1.59189114178088 
2462	-0.91024511495473 
2463	-0.518624627233317 
2464	 6.24699747631186E-03 
2465	 0.159322945760303 
2466	-0.105914150326364 
2467	-0.101103583589829 
2468	 0.361208441160062 
2469	 0.863977085203527 
2470	 5.10546320734828 
2471	 4.43635370316881 
2472	-4.55487336786349 
2473	-5.67533146497949 
2474	-2.47354273981567 
2475	-1.70961761555684 
2476	-2.61708445554953 
2477	-1.6720517411063 
2478	-1.95614750311797 
2479	-1.79365220931277 
2480	-2.63890807088135 
2481	-34.1946212473663 
2482	 5.93339361133291 
2483	 10.9201976492244 
2484	-3.48247265556762 
2485	-0.336199266673708 
2486	-0.876868334152808 
2487	-4.58594666037714 
2488	 1.07179780876572 
2489	 0.9203588092723 
2490	 2.09212492323817 
2491	 1.68313553766328 
2492	 0.741757621875979 
2493	 2.01153332859157 
2494	 1.54861283572127 
2495	-2.77654263263334E-02 
2496	 0.881011177016624 
2497	-2.44057962061278 
2498	 0.599701344140032 
2499	 1.6556880985061 
2500	 3.72188613455108 
