Wavelength	rt0629algeare00007.asd
350	 3.97473103818777E-02 
351	 3.83906380916935E-02 
352	 3.90108700167122E-02 
353	 0.039764193052291 
354	 3.92503000736449E-02 
355	 3.81148447926212E-02 
356	 3.88300697328201E-02 
357	 3.96882502796292E-02 
358	 3.87667919016466E-02 
359	 3.92517847102894E-02 
360	 3.89469216975163E-02 
361	 3.79275216539222E-02 
362	 3.77731186158209E-02 
363	 3.77751727784022E-02 
364	 3.78360115627516E-02 
365	 3.79774573171452E-02 
366	 3.83240592370501E-02 
367	 3.79351799775623E-02 
368	 0.037521160768516 
369	 3.76750381541781E-02 
370	 3.68779340230248E-02 
371	 3.68371584913195E-02 
372	 3.76034741020712E-02 
373	 3.81797655435628E-02 
374	 3.79839391528278E-02 
375	 3.74401707756289E-02 
376	 3.68285001609187E-02 
377	 3.60610213625306E-02 
378	 3.65855997462882E-02 
379	 3.71742122877021E-02 
380	 3.67546165870795E-02 
381	 3.66707944734912E-02 
382	 3.75054699803852E-02 
383	 3.83303010876662E-02 
384	 0.037836406372678 
385	 3.76036681597579E-02 
386	 3.76735283773545E-02 
387	 3.77786606130558E-02 
388	 3.74935943174244E-02 
389	 0.037260704034815 
390	 3.73294881911416E-02 
391	 3.77236141464947E-02 
392	 3.81528202644971E-02 
393	 3.80308510434536E-02 
394	 3.77053143151199E-02 
395	 3.77699845339237E-02 
396	 3.80832635167032E-02 
397	 3.82421662257876E-02 
398	 3.80883545139911E-02 
399	 3.77169218813766E-02 
400	 3.79415384974199E-02 
401	 3.82199704672187E-02 
402	 3.81706009431402E-02 
403	 3.82051718537399E-02 
404	 3.84436447347466E-02 
405	 3.85839370146717E-02 
406	 3.83367464912678E-02 
407	 3.84671055124989E-02 
408	 3.85917393120626E-02 
409	 3.85984909274631E-02 
410	 3.86957856773342E-02 
411	 3.86188885370186E-02 
412	 0.038573541557695 
413	 3.87379194526328E-02 
414	 3.90603638992008E-02 
415	 0.039324730166105 
416	 0.039314262240407 
417	 3.89969977113529E-02 
418	 3.93212273073097E-02 
419	 3.96143271123302E-02 
420	 3.96245854813985E-02 
421	 0.039672686325229 
422	 3.98655926302896E-02 
423	 4.01035092284619E-02 
424	 4.03057496128253E-02 
425	 4.06200598630222E-02 
426	 4.07014770154959E-02 
427	 0.04070690963773 
428	 4.09805553855701E-02 
429	 4.12943480408661E-02 
430	 4.15685803802831E-02 
431	 4.17874195787095E-02 
432	 4.19955604259033E-02 
433	 4.22226955712458E-02 
434	 4.25392949309378E-02 
435	 4.29409375482151E-02 
436	 4.31955563346028E-02 
437	 4.34738944206526E-02 
438	 4.37075137516827E-02 
439	 4.37578704100783E-02 
440	 4.40641384456302E-02 
441	 4.44388059900184E-02 
442	 4.47235626595183E-02 
443	 4.49052742132823E-02 
444	 4.51063325257798E-02 
445	 4.52833366984877E-02 
446	 4.54192036669986E-02 
447	 4.58140146115093E-02 
448	 4.60177775797627E-02 
449	 4.60586211662122E-02 
450	 4.62975215412879E-02 
451	 4.64466539719786E-02 
452	 4.66088569040279E-02 
453	 4.68126656307024E-02 
454	 4.68118214182316E-02 
455	 4.69117811082958E-02 
456	 4.70869687268656E-02 
457	 4.72128170020441E-02 
458	 4.73326466429727E-02 
459	 4.74902588137767E-02 
460	 4.76265216582163E-02 
461	 0.0475976209467 
462	 4.77828268396643E-02 
463	 4.79296034357142E-02 
464	 4.78612642353802E-02 
465	 4.79506200808369E-02 
466	 0.048093698705696 
467	 4.82424046026183E-02 
468	 4.83673563673521E-02 
469	 4.84219024721527E-02 
470	 0.048596172529178 
471	 4.88406397568513E-02 
472	 4.87674408293413E-02 
473	 4.88010597230381E-02 
474	 4.89478000117344E-02 
475	 4.91196601160423E-02 
476	 4.93251733534854E-02 
477	 0.049454954955045 
478	 4.95433236465187E-02 
479	 4.97155954755586E-02 
480	 4.99265925683482E-02 
481	 5.00641497053654E-02 
482	 5.01323544455304E-02 
483	 5.03851636267607E-02 
484	 5.06695580812999E-02 
485	 0.050935965949058 
486	 5.11530623908969E-02 
487	 5.11843624588131E-02 
488	 5.13348611598833E-02 
489	 5.16453137372658E-02 
490	 5.18883134731446E-02 
491	 5.21051634120394E-02 
492	 5.22882618957365E-02 
493	 5.24707862199963E-02 
494	 5.28282024802793E-02 
495	 5.31059325179376E-02 
496	 5.32975415740788E-02 
497	 5.35334307777376E-02 
498	 5.39370021407129E-02 
499	 5.41739069104881E-02 
500	 5.42202695963359E-02 
501	 5.45914787169489E-02 
502	 5.49458740616351E-02 
503	 0.055258865587823 
504	 5.55650766829736E-02 
505	 5.57543592625156E-02 
506	 5.60153175773991E-02 
507	 5.63209114409525E-02 
508	 5.64915063289543E-02 
509	 5.68282631324771E-02 
510	 5.72117495856478E-02 
511	 5.75204830083806E-02 
512	 5.77880868329724E-02 
513	 0.05804225591313 
514	 5.83155852868048E-02 
515	 5.86373751512471E-02 
516	 5.90032335179281E-02 
517	 5.94691694722829E-02 
518	 0.059941983142646 
519	 6.01547698464073E-02 
520	 6.04779686944725E-02 
521	 6.08309841791211E-02 
522	 6.11043801212503E-02 
523	 6.14755649807609E-02 
524	 6.17400775093223E-02 
525	 6.19986623257604E-02 
526	 6.25213393070231E-02 
527	 6.28354285677641E-02 
528	 6.31467206156122E-02 
529	 6.35811361533052E-02 
530	 6.39188322219384E-02 
531	 6.42410664930498E-02 
532	 6.45824692984477E-02 
533	 0.064940216529599 
534	 6.51647064712261E-02 
535	 6.54708823124269E-02 
536	 6.58695751808521E-02 
537	 6.61204542579352E-02 
538	 6.64161591621721E-02 
539	 6.67709525007263E-02 
540	 0.067158500970734 
541	 6.75756573875662E-02 
542	 6.79605020355587E-02 
543	 0.068247649385019 
544	 6.84086314857726E-02 
545	 6.87784092248565E-02 
546	 6.91550004090357E-02 
547	 6.94251199238314E-02 
548	 6.97856790955877E-02 
549	 7.01200745415359E-02 
550	 7.04250010500381E-02 
551	 7.07355294527468E-02 
552	 7.10801571607431E-02 
553	 7.13402256132976E-02 
554	 7.15482141952437E-02 
555	 7.19077434232385E-02 
556	 7.22609311226197E-02 
557	 7.25704094617605E-02 
558	 7.28347088431284E-02 
559	 7.30855241346156E-02 
560	 7.33067519093022E-02 
561	 7.35221160067019E-02 
562	 7.37716032337759E-02 
563	 7.39779230783091E-02 
564	 7.41875901086327E-02 
565	 7.44048930505875E-02 
566	 7.45176126214759E-02 
567	 7.46302119670653E-02 
568	 7.48060569629825E-02 
569	 7.50517486408348E-02 
570	 7.51611023980146E-02 
571	 7.52538972077924E-02 
572	 7.53860136572305E-02 
573	 7.55205105480629E-02 
574	 7.55883692963064E-02 
575	 7.56080636795649E-02 
576	 0.075638308969806 
577	 7.58047467729759E-02 
578	 7.58731988813533E-02 
579	 7.57850221061142E-02 
580	 7.56203937642965E-02 
581	 7.55847639768073E-02 
582	 7.56321142166504E-02 
583	 0.075664780874676 
584	 7.55578566817132E-02 
585	 7.53456879326071E-02 
586	 7.50781247234754E-02 
587	 7.48186540267476E-02 
588	 7.46568064982231E-02 
589	 7.44061047674762E-02 
590	 0.074086148523642 
591	 7.39207503233602E-02 
592	 0.073750638075613 
593	 7.35174461359309E-02 
594	 7.32093461039061E-02 
595	 0.072871335778271 
596	 7.25104788798798E-02 
597	 7.21137350390791E-02 
598	 7.16705103925646E-02 
599	 7.13029559854798E-02 
600	 7.08703921575606E-02 
601	 7.03605098288478E-02 
602	 0.070020796449334 
603	 6.99053690899407E-02 
604	 6.98576695081594E-02 
605	 6.97009941152871E-02 
606	 0.069575578962076 
607	 0.069468737785769 
608	 6.93734167505515E-02 
609	 6.92952582175874E-02 
610	 6.92602122659425E-02 
611	 6.91906497437587E-02 
612	 6.90610780849479E-02 
613	 6.90672226015692E-02 
614	 6.90383333326073E-02 
615	 6.89409260682376E-02 
616	 6.88319343785609E-02 
617	 6.88113117571228E-02 
618	 6.87680733470548E-02 
619	 6.86553390874672E-02 
620	 6.85652723407798E-02 
621	 6.84791978495704E-02 
622	 6.84159422909475E-02 
623	 6.83772881812171E-02 
624	 6.82253720598716E-02 
625	 6.82060009267991E-02 
626	 6.82558730572029E-02 
627	 6.80307165309295E-02 
628	 6.78954027795371E-02 
629	 6.78713336334903E-02 
630	 6.78777912306626E-02 
631	 6.77489291648299E-02 
632	 6.77231639029166E-02 
633	 6.77648885635336E-02 
634	 6.77164970025905E-02 
635	 6.75976416476314E-02 
636	 6.74666674758461E-02 
637	 6.73711848894256E-02 
638	 6.73369083326166E-02 
639	 6.72761640436355E-02 
640	 6.71967562860673E-02 
641	 6.71109244887296E-02 
642	 6.69072603724803E-02 
643	 6.67853023547633E-02 
644	 6.67168990134377E-02 
645	 6.64904169161269E-02 
646	 6.61612815881963E-02 
647	 6.59403417571302E-02 
648	 0.065908619827977 
649	 6.57818377368099E-02 
650	 6.55680021756874E-02 
651	 0.065339232413106 
652	 6.51696683001616E-02 
653	 6.48482174081266E-02 
654	 0.064491523992793 
655	 6.41326258166209E-02 
656	 6.37105872042707E-02 
657	 6.34080267501012E-02 
658	 0.063114550103976 
659	 6.27353913810966E-02 
660	 6.24331128362247E-02 
661	 6.21407395611477E-02 
662	 6.18689680220693E-02 
663	 6.16746800374063E-02 
664	 0.061526199577239 
665	 6.13304126113889E-02 
666	 6.10942153125455E-02 
667	 6.10223221114751E-02 
668	 6.09029576123113E-02 
669	 6.07850635531166E-02 
670	 6.07586079299544E-02 
671	 0.06066836725446 
672	 6.05824322473002E-02 
673	 6.04952567015393E-02 
674	 6.03364556621854E-02 
675	 6.03241935929966E-02 
676	 6.04101590052987E-02 
677	 6.04834584464444E-02 
678	 6.04007639266414E-02 
679	 6.04047330322508E-02 
680	 6.04623387475136E-02 
681	 0.060441737898008 
682	 6.04976350011816E-02 
683	 6.05280183401119E-02 
684	 6.04942293718726E-02 
685	 6.04657162981947E-02 
686	 6.04243800332652E-02 
687	 6.03646340195736E-02 
688	 6.03000397745243E-02 
689	 6.02831879175817E-02 
690	 6.01846365576855E-02 
691	 6.00250339600819E-02 
692	 0.059899612296954 
693	 5.96818535559919E-02 
694	 5.93909422326123E-02 
695	 0.059123977838359 
696	 5.90293861138985E-02 
697	 5.87685960795679E-02 
698	 5.83296183339914E-02 
699	 5.78341261719447E-02 
700	 5.73575806893275E-02 
701	 5.69826670808031E-02 
702	 5.66403003958694E-02 
703	 5.61510291955089E-02 
704	 5.56733333548178E-02 
705	 5.51407912225011E-02 
706	 5.45235195247075E-02 
707	 0.053887433282617 
708	 5.33097183325663E-02 
709	 5.26774168409389E-02 
710	 5.18618871394365E-02 
711	 0.051089858190206 
712	 5.02446468025827E-02 
713	 4.92893172031833E-02 
714	 4.82633132560667E-02 
715	 4.72243165762247E-02 
716	 4.61694948395134E-02 
717	 4.51417398005234E-02 
718	 4.38762389952893E-02 
719	 4.28182582205176E-02 
720	 4.19735312478803E-02 
721	 4.10113146093816E-02 
722	 4.02292559775196E-02 
723	 0.039168553257997 
724	 3.78860461382929E-02 
725	 3.69140062890646E-02 
726	 3.59105800428236E-02 
727	 0.034734074628291 
728	 3.33955995807065E-02 
729	 3.21550894921189E-02 
730	 3.08800248284838E-02 
731	 2.97458904153151E-02 
732	 2.88816915409188E-02 
733	 2.79195128330062E-02 
734	 2.71224967228602E-02 
735	 0.0265552071634 
736	 2.59576017125618E-02 
737	 2.55886699110279E-02 
738	 2.53228200294444E-02 
739	 2.50327395666725E-02 
740	 0.024839798722317 
741	 2.47016917938059E-02 
742	 2.45666515327747E-02 
743	 2.43982370333804E-02 
744	 2.43365000030281E-02 
745	 0.024304382781557 
746	 2.42425942798516E-02 
747	 2.41455217691419E-02 
748	 0.024148697072603 
749	 2.41648522018639E-02 
750	 2.41112041668972E-02 
751	 0.024136467485119 
752	 2.40258130581714E-02 
753	 2.38556065876014E-02 
754	 2.38334556211391E-02 
755	 2.38021270242532E-02 
756	 2.37705161443154E-02 
757	 2.37381084140834E-02 
758	 2.36515004441636E-02 
759	 2.36043499719653E-02 
760	 2.37518506065501E-02 
761	 2.39441587888945E-02 
762	 2.36458596504583E-02 
763	 2.34308808655862E-02 
764	 2.34445991896861E-02 
765	 2.35793840541232E-02 
766	 0.02360397790154 
767	 2.36695105459953E-02 
768	 2.37834190262532E-02 
769	 2.38133828268384E-02 
770	 2.38129882243018E-02 
771	 2.38807923263999E-02 
772	 2.40220352540196E-02 
773	 2.39472981054842E-02 
774	 2.40489291973396E-02 
775	 2.42307758672501E-02 
776	 2.42419097791847E-02 
777	 0.024294437442901 
778	 2.44664925605982E-02 
779	 2.47038053141957E-02 
780	 2.48314711670428E-02 
781	 2.47739219740057E-02 
782	 2.48167068858877E-02 
783	 2.50855433789794E-02 
784	 2.51958283204159E-02 
785	 2.53739448645826E-02 
786	 2.55635291903326E-02 
787	 2.56583581927229E-02 
788	 2.58233999026134E-02 
789	 2.60455267443336E-02 
790	 2.62802845550434E-02 
791	 2.64686971012387E-02 
792	 2.65649493956747E-02 
793	 2.66882088490586E-02 
794	 2.69040274170273E-02 
795	 2.71524772959124E-02 
796	 2.72938098309351E-02 
797	 2.74004636861354E-02 
798	 2.75765955393739E-02 
799	 2.77912600078924E-02 
800	 2.79283978197524E-02 
801	 2.79813448672293E-02 
802	 2.80374981614913E-02 
803	 2.82933872140191E-02 
804	 2.84661992721411E-02 
805	 2.84550930386255E-02 
806	 0.028405496188777 
807	 2.84728883921644E-02 
808	 2.85158265225244E-02 
809	 2.84188957130433E-02 
810	 2.83188234176305E-02 
811	 2.79712615273151E-02 
812	 0.027698953826567 
813	 2.79181645160764E-02 
814	 2.78257209501977E-02 
815	 2.75222314004528E-02 
816	 2.71531815456725E-02 
817	 2.68487061007893E-02 
818	 2.67118628203943E-02 
819	 2.64180859531483E-02 
820	 2.59480056769795E-02 
821	 2.57047955101204E-02 
822	 2.51300293652789E-02 
823	 0.024410878419256 
824	 2.37915002506367E-02 
825	 2.30501153955658E-02 
826	 2.23855070108922E-02 
827	 2.17909324378227E-02 
828	 2.11758553335788E-02 
829	 2.02094285384186E-02 
830	 1.95765415863576E-02 
831	 1.91806522128814E-02 
832	 1.84367629124402E-02 
833	 1.80390495262287E-02 
834	 1.77604916531654E-02 
835	 0.01751446386105 
836	 1.75347131606706E-02 
837	 0.017411873260498 
838	 1.71418126607363E-02 
839	 1.68759927084142E-02 
840	 1.69399526641036E-02 
841	 1.67699744473054E-02 
842	 1.64817175535839E-02 
843	 1.63797847819303E-02 
844	 1.63556685246917E-02 
845	 1.62312571775026E-02 
846	 1.59857018563258E-02 
847	 1.57271419875385E-02 
848	 0.015625117208019 
849	 1.54575647280825E-02 
850	 1.51822308137528E-02 
851	 1.50375534696825E-02 
852	 1.50679415023023E-02 
853	 1.51333341022683E-02 
854	 1.50870761131397E-02 
855	 1.48763529146743E-02 
856	 1.46706027500817E-02 
857	 1.45920227866454E-02 
858	 1.46635318575669E-02 
859	 1.46762634642335E-02 
860	 1.44685726010076E-02 
861	 1.42704128000759E-02 
862	 1.43881093295281E-02 
863	 1.42891007169273E-02 
864	 1.41418708124329E-02 
865	 1.39675934384901E-02 
866	 0.013655131089184 
867	 1.35364278042185E-02 
868	 1.34896328611474E-02 
869	 1.34489863158781E-02 
870	 1.35022053183376E-02 
871	 1.32882001633781E-02 
872	 1.30489683086259E-02 
873	 1.29734203627499E-02 
874	 1.28212180480966E-02 
875	 1.27507028343487E-02 
876	 1.26615721922861E-02 
877	 1.24913807514505E-02 
878	 1.26174501239982E-02 
879	 1.25653856127603E-02 
880	 1.22823595343889E-02 
881	 1.19600292827386E-02 
882	 0.011769192701653 
883	 1.17836515594615E-02 
884	 1.18212207379481E-02 
885	 1.15906183141979E-02 
886	 1.14886071638402E-02 
887	 1.16196515482454E-02 
888	 1.17408770622221E-02 
889	 1.13409212366687E-02 
890	 1.13169286385776E-02 
891	 0.01132545653089 
892	 1.11180976027243E-02 
893	 1.10611305045413E-02 
894	 1.12363091157588E-02 
895	 1.12672855917111E-02 
896	 1.08822892973818E-02 
897	 0.010678767284116 
898	 1.03738954862368E-02 
899	 1.01877299715251E-02 
900	 0.010311289874576 
901	 1.03114788963382E-02 
902	 1.03892674641334E-02 
903	 1.02980444032172E-02 
904	 9.83445415990118E-03 
905	 9.84052771953987E-03 
906	 9.7110875708038E-03 
907	 9.47927924775919E-03 
908	 9.60802857254259E-03 
909	 9.68900326875449E-03 
910	 9.72145545826633E-03 
911	 9.54490282735837E-03 
912	 8.93749819552493E-03 
913	 8.62576758185813E-03 
914	 8.60807731598058E-03 
915	 8.80076324912251E-03 
916	 9.06480606075365E-03 
917	 8.21040771445835E-03 
918	 7.37578649092519E-03 
919	 7.38203821683186E-03 
920	 8.15075752813062E-03 
921	 8.01371547448429E-03 
922	 7.71069266605641E-03 
923	 8.03099877793941E-03 
924	 8.84934999035773E-03 
925	 8.10074328828751E-03 
926	 6.90282057274781E-03 
927	 6.95924522676798E-03 
928	 7.70606635586784E-03 
929	 7.16323512966137E-03 
930	 6.97696462158299E-03 
931	 9.8844137920453E-03 
932	 6.01203914068719E-03 
933	 5.34891881193583E-03 
934	 7.65471937839087E-03 
935	 6.40856359796281E-03 
936	 3.95727172005403E-03 
937	 4.51011280831083E-03 
938	 6.36116862888381E-03 
939	 6.92467554561288E-03 
940	 7.20362256178426E-03 
941	 7.89929778636456E-03 
942	 6.87261990740646E-03 
943	 2.09004152096618E-03 
944	 1.01320871547108E-03 
945	 5.46576739023952E-03 
946	 9.25883242251626E-03 
947	 4.79792860569653E-03 
948	 2.48713601139697E-04 
949	 5.19421560231939E-04 
950	 3.78796796968823E-03 
951	 5.18652890716581E-03 
952	 7.77408506102622E-03 
953	 6.86878201013853E-03 
954	 3.80591340271043E-03 
955	 3.55997907456234E-03 
956	 5.15964324155024E-03 
957	 4.65372948714991E-03 
958	 2.52590705677603E-03 
959	 2.08466467943199E-03 
960	 2.9069747764695E-03 
961	 4.94005600217462E-03 
962	 5.57997946074123E-03 
963	 2.39580540393123E-03 
964	 3.9132998485187E-03 
965	 5.63674797519555E-03 
966	 5.15004342321171E-03 
967	 2.98380093158528E-03 
968	 3.69004413338409E-03 
969	 3.09218019698877E-03 
970	 1.50275784446757E-03 
971	 2.92130557921033E-03 
972	 3.09749493281757E-03 
973	 3.88849172370059E-03 
974	 4.65668052285783E-03 
975	 2.72968160348239E-03 
976	 4.64590179456531E-03 
977	 4.16195689746691E-03 
978	 1.18519149022845E-03 
979	 1.51221972025398E-03 
980	 4.12049417116827E-03 
981	 4.64973099852648E-03 
982	 3.61897446095115E-03 
983	 4.8168488771411E-03 
984	 3.83796173452232E-03 
985	 4.37733506584654E-03 
986	 6.0751199912871E-03 
987	 5.36342994653754E-03 
988	 3.4634549487779E-03 
989	 3.81668240349878E-03 
990	 5.05055262767055E-03 
991	 3.15305391945451E-03 
992	 2.75546632765798E-03 
993	 3.86715129551709E-03 
994	 4.60068924266668E-03 
995	 3.08376632757067E-03 
996	 3.91931545437715E-03 
997	 3.60305813069793E-03 
998	 2.38489351375939E-03 
999	 2.75169192562706E-03 
1000	 3.61508872941751E-03 
1001	 3.9676511952055E-03 
1002	 3.92538305292069E-03 
1003	 3.9544785994096E-03 
1004	 4.13541226235974E-03 
1005	 4.34569975008357E-03 
1006	 4.7074782998275E-03 
1007	 4.8329497942643E-03 
1008	 4.94268533356891E-03 
1009	 5.0588286779157E-03 
1010	 5.00102200772681E-03 
1011	 5.03190176182802E-03 
1012	 5.06857873586599E-03 
1013	 4.81617008734742E-03 
1014	 4.90717829352725E-03 
1015	 5.1977095180775E-03 
1016	 5.3168465826466E-03 
1017	 5.73504011892246E-03 
1018	 5.72465012449824E-03 
1019	 0.005195498480598 
1020	 5.01699475368727E-03 
1021	 4.76434949708822E-03 
1022	 4.68609854933126E-03 
1023	 4.79534044651387E-03 
1024	 4.66356771708046E-03 
1025	 4.6086571044589E-03 
1026	 4.65934342458442E-03 
1027	 4.61358774946562E-03 
1028	 4.62727405683232E-03 
1029	 4.60133617891795E-03 
1030	 4.37441901693762E-03 
1031	 4.39245326323173E-03 
1032	 4.51953155194642E-03 
1033	 4.76203454230332E-03 
1034	 5.41449157913296E-03 
1035	 5.57499184451928E-03 
1036	 5.44580729981586E-03 
1037	 5.52335924007495E-03 
1038	 5.42974917757707E-03 
1039	 0.005323694110762 
1040	 5.69126361381827E-03 
1041	 5.9703491441896E-03 
1042	 5.90280348144986E-03 
1043	 5.54334637538946E-03 
1044	 5.37548805569826E-03 
1045	 4.95708013254189E-03 
1046	 4.90975628872134E-03 
1047	 5.11723508362151E-03 
1048	 5.30443539480445E-03 
1049	 5.70036678115837E-03 
1050	 5.86989798346627E-03 
1051	 6.0619028184822E-03 
1052	 6.12541311710444E-03 
1053	 6.00298135938642E-03 
1054	 5.90715278867263E-03 
1055	 5.58971203179597E-03 
1056	 5.51496446408721E-03 
1057	 5.53840922849549E-03 
1058	 5.61732944821264E-03 
1059	 5.76296219959082E-03 
1060	 6.29794112114441E-03 
1061	 6.25424285080014E-03 
1062	 5.93511734515621E-03 
1063	 5.71541649360781E-03 
1064	 4.97405044140348E-03 
1065	 4.9028366892625E-03 
1066	 5.32424630404238E-03 
1067	 5.51996412421053E-03 
1068	 6.11569508628088E-03 
1069	 6.3087290116027E-03 
1070	 6.01349393583773E-03 
1071	 6.00398859286158E-03 
1072	 6.03382198296978E-03 
1073	 6.01350868555195E-03 
1074	 6.0682152626979E-03 
1075	 6.40270754890483E-03 
1076	 6.32255282022943E-03 
1077	 5.94591257230619E-03 
1078	 5.86781173557273E-03 
1079	 5.73467548231195E-03 
1080	 5.65863083938962E-03 
1081	 5.81234192363313E-03 
1082	 5.79406271499392E-03 
1083	 5.61233211488008E-03 
1084	 5.55450928651704E-03 
1085	 5.54892815354832E-03 
1086	 5.54378920674424E-03 
1087	 5.63153511857444E-03 
1088	 5.59598869554421E-03 
1089	 5.45718190229377E-03 
1090	 5.33634459673338E-03 
1091	 5.34264862641157E-03 
1092	 5.40847465802861E-03 
1093	 5.42723035311455E-03 
1094	 5.50087537207527E-03 
1095	 5.59887397898642E-03 
1096	 5.66462947773138E-03 
1097	 0.005662205022984 
1098	 5.85530778459991E-03 
1099	 5.82521942690694E-03 
1100	 5.31146933715572E-03 
1101	 5.23797023269374E-03 
1102	 5.55878631647112E-03 
1103	 5.45697849819419E-03 
1104	 5.26974935765516E-03 
1105	 5.09575364783649E-03 
1106	 4.91835666925087E-03 
1107	 4.92262972170263E-03 
1108	 5.00463821015206E-03 
1109	 5.37399949133831E-03 
1110	 5.55754733399856E-03 
1111	 5.23771856139239E-03 
1112	 5.38741729323048E-03 
1113	 6.2874935155144E-03 
1114	 6.42181015490912E-03 
1115	 6.26809010117785E-03 
1116	 5.83739115784611E-03 
1117	 3.54693079069574E-03 
1118	 2.70730547823402E-03 
1119	 2.54513948817142E-03 
1120	 3.02531248060255E-03 
1121	 7.15051973888651E-03 
1122	 0.011140036757661 
1123	 9.81492134293018E-03 
1124	 4.93280666733866E-03 
1125	-1.26306479308925E-03 
1126	-2.68620165597781E-03 
1127	 3.97076361210328E-03 
1128	 1.17510928238295E-02 
1129	 1.16842521872995E-02 
1130	 6.39998019778053E-03 
1131	 5.46031433411218E-03 
1132	 2.8532977298709E-03 
1133	 2.94279617449089E-03 
1134	 6.85643896231904E-03 
1135	 7.74270689089748E-03 
1136	 6.61791505887026E-03 
1137	 5.66722694711245E-03 
1138	 3.6542692419754E-03 
1139	 4.49372283194127E-03 
1140	 4.29437768162404E-03 
1141	 3.72217289958829E-03 
1142	 3.16340720227062E-03 
1143	 2.40570064659851E-03 
1144	 3.62572692147142E-03 
1145	 6.5966791586673E-03 
1146	 8.0433323909943E-03 
1147	 7.98641129104715E-03 
1148	 8.45895660405903E-03 
1149	 6.48963110485475E-03 
1150	 5.16863043168496E-03 
1151	 4.98748478982613E-03 
1152	 4.43122914913512E-03 
1153	 2.63142147636321E-03 
1154	 2.6013383549638E-03 
1155	 3.64369299039062E-03 
1156	 3.44916121969452E-03 
1157	 3.4596596257552E-03 
1158	 4.15501086569336E-03 
1159	 4.13911922132127E-03 
1160	 3.99185735788384E-03 
1161	 4.10043724198675E-03 
1162	 3.57184553001462E-03 
1163	 0.003142767298121 
1164	 3.1848729086854E-03 
1165	 3.01172903962911E-03 
1166	 2.73831946875051E-03 
1167	 2.70524688463409E-03 
1168	 2.92316904262356E-03 
1169	 3.01778780276499E-03 
1170	 3.13621056864725E-03 
1171	 3.2875671593172E-03 
1172	 3.34301466464287E-03 
1173	 3.31510217731838E-03 
1174	 3.3287216162342E-03 
1175	 3.39272616698681E-03 
1176	 3.11645682354556E-03 
1177	 2.85166183578726E-03 
1178	 2.70612752050605E-03 
1179	 2.87365804806743E-03 
1180	 3.17543795484181E-03 
1181	 3.09988098398397E-03 
1182	 3.14322698299011E-03 
1183	 3.26769569073326E-03 
1184	 2.98499692464666E-03 
1185	 2.97267838133434E-03 
1186	 3.24037319248059E-03 
1187	 3.19326669600509E-03 
1188	 3.01120659084289E-03 
1189	 3.12793630785886E-03 
1190	 3.36656237745829E-03 
1191	 3.10516350383427E-03 
1192	 2.98095886800895E-03 
1193	 2.94597178491937E-03 
1194	 3.2086270935316E-03 
1195	 3.05628216827916E-03 
1196	 3.00260042399965E-03 
1197	 3.34445416802245E-03 
1198	 3.48811598905522E-03 
1199	 3.39667801464418E-03 
1200	 3.32066212633986E-03 
1201	 3.33151974829314E-03 
1202	 0.003168752070166 
1203	 2.90846738258943E-03 
1204	 3.00933843984038E-03 
1205	 3.11783486818277E-03 
1206	 3.09517491210872E-03 
1207	 3.08433358732351E-03 
1208	 2.86692133720674E-03 
1209	 2.73244102957907E-03 
1210	 2.96253240570483E-03 
1211	 3.12038450023854E-03 
1212	 2.9805379662325E-03 
1213	 3.01312267362048E-03 
1214	 3.0963992990657E-03 
1215	 3.01503388200931E-03 
1216	 2.74688854620806E-03 
1217	 2.86584153818302E-03 
1218	 3.16001857516249E-03 
1219	 3.04737298403535E-03 
1220	 2.91123937673535E-03 
1221	 3.04164178105282E-03 
1222	 3.02382469379438E-03 
1223	 2.82431095876787E-03 
1224	 2.80065205991521E-03 
1225	 2.98702887518368E-03 
1226	 3.02247462048293E-03 
1227	 3.03629954687717E-03 
1228	 3.11365868596303E-03 
1229	 3.02398368427345E-03 
1230	 2.95771671691063E-03 
1231	 2.89747831161542E-03 
1232	 2.94045885677893E-03 
1233	 3.03139808892829E-03 
1234	 2.87061216339368E-03 
1235	 2.9006247250843E-03 
1236	 3.09688366793406E-03 
1237	 3.14385263712334E-03 
1238	 3.16947368953765E-03 
1239	 3.25646938662845E-03 
1240	 3.19294926485159E-03 
1241	 2.92221777402087E-03 
1242	 2.89305607359391E-03 
1243	 3.0974726741895E-03 
1244	 3.16203800227682E-03 
1245	 3.06801987089658E-03 
1246	 0.002945011232573 
1247	 2.90264791494994E-03 
1248	 3.05222410309239E-03 
1249	 3.15579731588821E-03 
1250	 3.00730460128895E-03 
1251	 2.83306623074388E-03 
1252	 2.7865850291614E-03 
1253	 2.87283756509919E-03 
1254	 3.14599240545514E-03 
1255	 3.20048893422852E-03 
1256	 3.22812630772641E-03 
1257	 3.10258514041463E-03 
1258	 3.10317865991028E-03 
1259	 3.10711354978364E-03 
1260	 3.08426985478095E-03 
1261	 2.98677772425155E-03 
1262	 2.98675282608511E-03 
1263	 3.00290821561395E-03 
1264	 3.15276900460905E-03 
1265	 3.18436921241033E-03 
1266	 3.09761990807647E-03 
1267	 3.01987279420493E-03 
1268	 3.05416498069761E-03 
1269	 3.14141562285678E-03 
1270	 3.07772513590447E-03 
1271	 2.93816606191902E-03 
1272	 2.82940255829583E-03 
1273	 2.92376558251616E-03 
1274	 3.23685664479745E-03 
1275	 3.31137158584408E-03 
1276	 3.19686658950394E-03 
1277	 3.06892411886035E-03 
1278	 2.93037055197914E-03 
1279	 2.94942175291372E-03 
1280	 3.0541154206041E-03 
1281	 3.02958903730099E-03 
1282	 2.9455551531846E-03 
1283	 2.91234467237611E-03 
1284	 2.83924064754102E-03 
1285	 2.77163686669567E-03 
1286	 2.74902700668745E-03 
1287	 2.76005130434831E-03 
1288	 2.74893457511589E-03 
1289	 2.71920350024583E-03 
1290	 2.73595553307389E-03 
1291	 2.75340767583225E-03 
1292	 2.79201646820689E-03 
1293	 2.9085198194501E-03 
1294	 2.95511071203551E-03 
1295	 3.01337807251718E-03 
1296	 3.16688379441559E-03 
1297	 3.05332029049202E-03 
1298	 2.82463355662337E-03 
1299	 2.94581244907268E-03 
1300	 3.02269481370578E-03 
1301	 2.77778411101843E-03 
1302	 2.73191358055968E-03 
1303	 2.89756261135141E-03 
1304	 2.93741345621087E-03 
1305	 2.90683918793522E-03 
1306	 2.95253003988087E-03 
1307	 3.22533972029646E-03 
1308	 3.17300662250766E-03 
1309	 2.73741122902716E-03 
1310	 2.8164054855129E-03 
1311	 3.19952728192441E-03 
1312	 3.07494322632525E-03 
1313	 2.86506958341703E-03 
1314	 2.98174150504616E-03 
1315	 2.93062377038476E-03 
1316	 2.79542150631225E-03 
1317	 2.89149798796803E-03 
1318	 3.15953570040281E-03 
1319	 3.44602468146615E-03 
1320	 3.34459784143027E-03 
1321	 3.30167781106061E-03 
1322	 3.41531537483215E-03 
1323	 3.09944042145552E-03 
1324	 2.49861055745061E-03 
1325	 2.43469823017586E-03 
1326	 2.96561630015772E-03 
1327	 3.18087157859654E-03 
1328	 3.01256500460401E-03 
1329	 3.12065169579241E-03 
1330	 3.37689181198494E-03 
1331	 3.53730336045324E-03 
1332	 3.58098480284351E-03 
1333	 3.36340581964997E-03 
1334	 3.23850304567295E-03 
1335	 3.25523943588053E-03 
1336	 2.95776994984129E-03 
1337	 2.87164674504421E-03 
1338	 3.43421343406898E-03 
1339	 3.37221610461954E-03 
1340	 2.35309704764607E-03 
1341	 2.44301460339432E-03 
1342	 3.34082992958065E-03 
1343	 3.49214208569634E-03 
1344	 4.40344913357908E-03 
1345	 5.06845755179278E-03 
1346	 3.65302915435506E-03 
1347	 3.84571274459685E-03 
1348	 6.95454827232865E-03 
1349	 8.90847445540231E-03 
1350	 9.80560264376354E-03 
1351	 1.51830492050069E-02 
1352	 3.03685755073859E-02 
1353	 0.041103357226923 
1354	 3.42923994076479E-02 
1355	 5.81746912739474E-02 
1356	 0.102604463593022 
1357	 5.29772203053546E-02 
1358	 1.11402740756988E-02 
1359	 5.41579570351513E-02 
1360	 8.64640584636066E-02 
1361	 0.127558955072821 
1362	 0.156777042566735 
1363	 0.170914549998401 
1364	 0.12222911769174 
1365	-3.62501609369542E-02 
1366	-1.80196293293321E-03 
1367	 0.130241565492773 
1368	 0.193970440780991 
1369	 0.244096067624664 
1370	 0.268554973141092 
1371	 0.253191339453106 
1372	 0.238995110371967 
1373	 0.212751934543247 
1374	 0.193882918665925 
1375	 0.157135083156688 
1376	 0.189024447928498 
1377	 0.239839026144147 
1378	 0.298769782991026 
1379	 0.571054434692284 
1380	 0.550676990883305 
1381	 0.143267158614627 
1382	 0.13596852289061 
1383	 0.201723974950363 
1384	 0.189945530974434 
1385	 0.688764984044783 
1386	 0.814486140993042 
1387	 0.444325031038187 
1388	 0.349154433058039 
1389	-0.278151513255197 
1390	-0.486157530916047 
1391	 0.402905971664091 
1392	 0.678107193823584 
1393	 0.213448009750306 
1394	 0.36476137445155 
1395	 0.379773809737159 
1396	 0.0809930420693 
1397	 5.98641922011563E-02 
1398	 0.284502815100128 
1399	 0.163061942821691 
1400	-0.122934746406045 
1401	 3.71950319410191E-02 
1402	 0.444448657477078 
1403	 0.453389270022944 
1404	 0.437730805555926 
1405	 0.400087874049936 
1406	 0.104744066168184 
1407	-1.90059233225385E-02 
1408	-2.46602452992314E-02 
1409	 9.35092864308325E-02 
1410	 0.181519043108635 
1411	 0.182175244491766 
1412	 0.295027268385832 
1413	 0.294017229505516 
1414	 0.204598814180103 
1415	 0.103760302892828 
1416	-2.15995866062814E-02 
1417	-3.00750859005092E-02 
1418	-2.1144264689845E-03 
1419	 2.9517892077631E-03 
1420	 5.85726993261067E-02 
1421	 5.90975689368035E-02 
1422	 7.8355371438667E-03 
1423	 5.26769724061631E-03 
1424	 2.62375590147754E-02 
1425	 2.80818600800038E-02 
1426	 2.25653641209291E-02 
1427	 2.47001411133946E-02 
1428	 3.77951468209735E-02 
1429	 0.029272776698651 
1430	 3.80442913646126E-03 
1431	-7.00512985455473E-06 
1432	-1.43610749406585E-02 
1433	-0.015626030108156 
1434	 1.87052066720189E-02 
1435	 3.27139468833519E-02 
1436	 4.56622687708788E-02 
1437	 3.95063735573874E-02 
1438	 0.028164228481629 
1439	 1.47788563150664E-02 
1440	 5.4405657840833E-03 
1441	 9.6265129613273E-03 
1442	 1.69330385959254E-02 
1443	 1.83173306880772E-02 
1444	 1.30933955995232E-02 
1445	 6.99427203118016E-03 
1446	 6.68413326376795E-03 
1447	 4.91529573759486E-03 
1448	 3.59993046251905E-03 
1449	 4.75395502708964E-03 
1450	 6.24140211985112E-03 
1451	 6.11940480559907E-03 
1452	 3.68867071765956E-03 
1453	 4.00252529011123E-03 
1454	 3.93865984428127E-03 
1455	 2.5658005296548E-03 
1456	 2.46795625845978E-03 
1457	 4.20546309910848E-03 
1458	 4.20344136841215E-03 
1459	 2.87671934215022E-03 
1460	 2.97605825794036E-03 
1461	 4.31676873215902E-03 
1462	 3.26132864979371E-03 
1463	 3.60399799967445E-04 
1464	 3.38204939347275E-04 
1465	 8.08395042304626E-04 
1466	 1.78979786311761E-04 
1467	 1.12453607743138E-03 
1468	 1.83636184455994E-03 
1469	 7.82434036945648E-04 
1470	 2.98586029328205E-05 
1471	 1.73923820887617E-04 
1472	 1.33234147477781E-03 
1473	 2.78275715616482E-03 
1474	 2.26361199434504E-03 
1475	 1.79769567496733E-03 
1476	 2.35261747797632E-03 
1477	 1.94587731040406E-03 
1478	 1.20728387223756E-03 
1479	 9.09150366414207E-04 
1480	 1.8781646758255E-03 
1481	 2.70193531351724E-03 
1482	 2.95127985346925E-03 
1483	 4.85208933236276E-03 
1484	 5.00849187120395E-03 
1485	 3.23968974991082E-03 
1486	 2.54848149756951E-03 
1487	 2.05118085641361E-03 
1488	 2.01468951700736E-03 
1489	 2.54167179637112E-03 
1490	 2.31324738614764E-03 
1491	 1.73591856886783E-03 
1492	 1.78866519151028E-03 
1493	 1.90130998571584E-03 
1494	 0.001772055971933 
1495	 1.84898806363331E-03 
1496	 1.94698904532795E-03 
1497	 1.73751981700308E-03 
1498	 1.70136007154327E-03 
1499	 2.15355900804349E-03 
1500	 2.14681011537786E-03 
1501	 1.51183115639542E-03 
1502	 1.52127417081792E-03 
1503	 2.12077798843752E-03 
1504	 2.06521307840918E-03 
1505	 1.8564204891749E-03 
1506	 1.70136280920931E-03 
1507	 1.58058370287002E-03 
1508	 1.37141540481741E-03 
1509	 1.49748567293734E-03 
1510	 1.68687523182401E-03 
1511	 1.52592116928443E-03 
1512	 1.4250031195209E-03 
1513	 1.63668151061259E-03 
1514	 1.8790988643319E-03 
1515	 1.75159356629308E-03 
1516	 1.56557505211948E-03 
1517	 1.63404762351416E-03 
1518	 1.66970713573356E-03 
1519	 1.64310508256899E-03 
1520	 1.69531284353788E-03 
1521	 1.65587017876489E-03 
1522	 1.58723222577006E-03 
1523	 1.74895091742573E-03 
1524	 1.82573053972876E-03 
1525	 1.76559081344329E-03 
1526	 1.73436455431097E-03 
1527	 1.75277369691327E-03 
1528	 1.87720876321795E-03 
1529	 1.84260441695575E-03 
1530	 1.80025013643774E-03 
1531	 1.85670140109519E-03 
1532	 1.67843782978798E-03 
1533	 1.62165402042876E-03 
1534	 1.79376927673289E-03 
1535	 1.81179627906329E-03 
1536	 1.74378998302695E-03 
1537	 1.62054370846824E-03 
1538	 1.63146467332318E-03 
1539	 1.80748606368696E-03 
1540	 1.7686840967779E-03 
1541	 1.61164925113334E-03 
1542	 1.60870043900763E-03 
1543	 1.64041353602642E-03 
1544	 1.65416626200812E-03 
1545	 1.79359606503962E-03 
1546	 1.86327474422741E-03 
1547	 1.73834688090697E-03 
1548	 1.71982139382383E-03 
1549	 1.81064704217847E-03 
1550	 1.69825113925078E-03 
1551	 1.59146758548469E-03 
1552	 1.72999823787745E-03 
1553	 1.87828908969909E-03 
1554	 1.92856795103168E-03 
1555	 1.85282923681075E-03 
1556	 1.80189000308163E-03 
1557	 1.75822867583338E-03 
1558	 1.67493220698754E-03 
1559	 0.001853932813738 
1560	 1.96123244543598E-03 
1561	 1.86299155249617E-03 
1562	 1.8347770986984E-03 
1563	 1.78016416519738E-03 
1564	 1.80736656428745E-03 
1565	 1.73717344813198E-03 
1566	 1.57570415616594E-03 
1567	 1.70045188412968E-03 
1568	 1.7094138423657E-03 
1569	 1.67366952307761E-03 
1570	 1.93870236897102E-03 
1571	 1.84828892983968E-03 
1572	 1.45774941405091E-03 
1573	 1.42570680083439E-03 
1574	 1.52970281603097E-03 
1575	 1.59288849383709E-03 
1576	 1.73144731695355E-03 
1577	 1.73400844174994E-03 
1578	 1.80210260141951E-03 
1579	 2.17105672093257E-03 
1580	 2.12248842481198E-03 
1581	 1.77952891689985E-03 
1582	 1.89628218114725E-03 
1583	 1.87178944397504E-03 
1584	 1.58868906317319E-03 
1585	 1.68308543168844E-03 
1586	 1.80564767302779E-03 
1587	 1.57992296446248E-03 
1588	 1.42374173379706E-03 
1589	 1.62293664552553E-03 
1590	 1.71059547487498E-03 
1591	 1.46740107935996E-03 
1592	 0.001424997691137 
1593	 1.67597573363415E-03 
1594	 1.79215555087639E-03 
1595	 1.76098456551776E-03 
1596	 1.95663025953354E-03 
1597	 2.15891452416832E-03 
1598	 1.99832210816697E-03 
1599	 1.92767906201576E-03 
1600	 2.00476981151548E-03 
1601	 1.99378700931286E-03 
1602	 1.96706714044087E-03 
1603	 2.0205089606399E-03 
1604	 2.21101703194744E-03 
1605	 2.18938441458855E-03 
1606	 1.92642752702874E-03 
1607	 1.70006102689371E-03 
1608	 1.63668908820584E-03 
1609	 1.68152592800288E-03 
1610	 1.64951327524223E-03 
1611	 1.66542882718839E-03 
1612	 1.70656534131004E-03 
1613	 1.56757769077783E-03 
1614	 1.44290527077307E-03 
1615	 1.70961425647927E-03 
1616	 1.9963883464605E-03 
1617	 1.97259822724669E-03 
1618	 2.03184907280758E-03 
1619	 1.88651610179392E-03 
1620	 1.62049376653329E-03 
1621	 1.85687056833404E-03 
1622	 2.08999126313649E-03 
1623	 2.09134729545579E-03 
1624	 2.05781381160839E-03 
1625	 1.93821322519184E-03 
1626	 1.94341911825221E-03 
1627	 1.97021713787383E-03 
1628	 1.88684455649938E-03 
1629	 1.85090002852507E-03 
1630	 1.85867663795581E-03 
1631	 1.87076617001917E-03 
1632	 1.98852565098323E-03 
1633	 2.03751225878557E-03 
1634	 1.84740372174058E-03 
1635	 1.71466839770293E-03 
1636	 1.81335076520629E-03 
1637	 1.99671790229722E-03 
1638	 1.89476563842957E-03 
1639	 1.62686361949587E-03 
1640	 1.81925628507791E-03 
1641	 1.98795832840394E-03 
1642	 1.77911039044694E-03 
1643	 0.002008864695855 
1644	 2.23963455870454E-03 
1645	 1.99265731372482E-03 
1646	 2.0850168641332E-03 
1647	 2.38596430120378E-03 
1648	 2.19756199866227E-03 
1649	 1.82126470232057E-03 
1650	 1.91757697188118E-03 
1651	 2.18034152940707E-03 
1652	 1.94102384995146E-03 
1653	 1.82459901117506E-03 
1654	 2.01493753361715E-03 
1655	 2.07294864647853E-03 
1656	 1.92272301368665E-03 
1657	 2.11372973059493E-03 
1658	 2.16254847308052E-03 
1659	 1.60894493145392E-03 
1660	 1.55326477010144E-03 
1661	 2.04006946696472E-03 
1662	 2.07114103561008E-03 
1663	 1.94243245784748E-03 
1664	 2.01306269049789E-03 
1665	 1.97695934289351E-03 
1666	 1.88096219496379E-03 
1667	 1.84884587761503E-03 
1668	 1.92915278251244E-03 
1669	 2.03342940697157E-03 
1670	 2.3127070044134E-03 
1671	 2.39646957945264E-03 
1672	 1.93336928886011E-03 
1673	 1.76453588077925E-03 
1674	 2.07322017344129E-03 
1675	 2.05206967202671E-03 
1676	 2.00146076899605E-03 
1677	 2.18297365278161E-03 
1678	 1.98509183156659E-03 
1679	 1.76521306700184E-03 
1680	 1.9929496010169E-03 
1681	 1.92560412905574E-03 
1682	 1.70527843195637E-03 
1683	 2.03781497710285E-03 
1684	 2.24603983561871E-03 
1685	 2.0248282695622E-03 
1686	 2.03051037043975E-03 
1687	 2.01692172679086E-03 
1688	 1.87693887897944E-03 
1689	 0.002123047431319 
1690	 2.47487308504393E-03 
1691	 2.28926392602676E-03 
1692	 1.75625383212957E-03 
1693	 1.72451455148382E-03 
1694	 1.97630340578674E-03 
1695	 2.04761164259488E-03 
1696	 2.03514107024063E-03 
1697	 1.97500113581293E-03 
1698	 1.87445671236435E-03 
1699	 1.77635980719287E-03 
1700	 2.07574245089182E-03 
1701	 2.07237726330808E-03 
1702	 1.61801366494328E-03 
1703	 1.61429239799105E-03 
1704	 1.55028820412544E-03 
1705	 1.65140684934103E-03 
1706	 2.00473717272197E-03 
1707	 1.66151685492697E-03 
1708	 1.33716783490557E-03 
1709	 1.5144956892469E-03 
1710	 1.50070496341341E-03 
1711	 1.62253871629236E-03 
1712	 2.12915376894702E-03 
1713	 2.02219107423216E-03 
1714	 1.98270055339583E-03 
1715	 1.78632061368547E-03 
1716	 1.67061589874381E-03 
1717	 1.67667821978052E-03 
1718	 1.62302023996538E-03 
1719	 1.75442899826615E-03 
1720	 1.6490431071684E-03 
1721	 1.61417070767634E-03 
1722	 1.97997583127156E-03 
1723	 1.80561918239418E-03 
1724	 1.51246792977049E-03 
1725	 1.82784713490423E-03 
1726	 1.83150787731932E-03 
1727	 1.56865949325933E-03 
1728	 2.09108645000929E-03 
1729	 2.37290645983492E-03 
1730	 1.60304121069581E-03 
1731	 1.73411540698682E-03 
1732	 2.26727683217198E-03 
1733	 1.68123549853233E-03 
1734	 1.70042814439596E-03 
1735	 1.95559334531361E-03 
1736	 1.61858327084307E-03 
1737	 1.74722429414284E-03 
1738	 1.80476616904463E-03 
1739	 1.59870844517533E-03 
1740	 1.31919809358656E-03 
1741	 1.21665715889266E-03 
1742	 1.7032609641402E-03 
1743	 2.04078577096803E-03 
1744	 1.92884983760376E-03 
1745	 1.93431004222291E-03 
1746	 1.8463126754757E-03 
1747	 1.84314440292908E-03 
1748	 2.2702387955962E-03 
1749	 2.32073944880008E-03 
1750	 2.16924907186092E-03 
1751	 2.17427793820546E-03 
1752	 1.70075700982774E-03 
1753	 1.50424304614694E-03 
1754	 1.75193066555618E-03 
1755	 1.98717740640454E-03 
1756	 2.62794625066792E-03 
1757	 2.68209034653447E-03 
1758	 1.82178664062824E-03 
1759	 8.40211662857229E-04 
1760	 9.94287460250969E-04 
1761	 2.33444650719735E-03 
1762	 2.9199836109902E-03 
1763	 2.28910120784873E-03 
1764	 1.7934258075213E-03 
1765	 1.18220654292023E-03 
1766	 7.56685266249438E-04 
1767	 2.2380565592266E-03 
1768	 3.46058146314199E-03 
1769	 2.67636306816838E-03 
1770	 2.81513370648235E-03 
1771	 2.87556183045012E-03 
1772	 1.7536459934313E-03 
1773	 2.62997052286108E-03 
1774	 3.50297612707564E-03 
1775	 2.86195837272081E-03 
1776	 3.10333347394333E-03 
1777	 3.21348259708118E-03 
1778	 2.74944091358585E-03 
1779	 2.68415258063047E-03 
1780	 2.6729142998721E-03 
1781	 1.51873054420218E-03 
1782	 1.31872587575935E-03 
1783	 2.84367996842661E-03 
1784	 2.69365961016526E-03 
1785	 1.32451817362374E-03 
1786	 1.3651979562784E-03 
1787	 1.08881594283016E-03 
1788	 1.00290618334803E-03 
1789	 2.5081791981748E-03 
1790	 2.38867888850999E-03 
1791	 2.51221624235782E-03 
1792	 4.05822570842486E-03 
1793	 4.3716003604406E-03 
1794	 2.97011144340522E-03 
1795	 2.51208290980147E-03 
1796	 1.99102648069995E-03 
1797	 1.82290774990202E-03 
1798	 5.61186938289986E-03 
1799	 8.91363097695329E-03 
1800	 8.06086294464815E-03 
1801	 1.14625767352759E-02 
1802	 2.04012705438327E-02 
1803	 2.69919065968937E-02 
1804	 4.24117606177712E-02 
1805	 3.89784355646138E-02 
1806	-1.46443191163181E-02 
1807	-3.22383660371489E-02 
1808	-4.06650296863666E-02 
1809	-3.39359523181571E-02 
1810	 9.91690444412505E-02 
1811	 0.150547146154183 
1812	 0.101719036680719 
1813	 8.44019478454723E-02 
1814	-4.70501826008341E-02 
1815	-2.65957042104397E-02 
1816	 0.133649362769772 
1817	 0.456372330720696 
1818	 1.28014932771607 
1819	 0.532852378992885 
1820	 0.329842291421594 
1821	 0.168104027622757 
1822	 2.07887809463036E-02 
1823	-4.53013530137479E-02 
1824	 5.17625902174542E-02 
1825	-0.423954321006564 
1826	-5.64255419226927E-02 
1827	 1.16117475541089 
1828	 0.997940816109159 
1829	 0.611678069167146 
1830	 0.546906733558838 
1831	 3.44750854284636 
1832	 2.31605526082699 
1833	 0.364517646099028 
1834	-0.243308260302021 
1835	-0.70440640941588 
1836	-0.446637223349313 
1837	 6.70007664122855E-02 
1838	 0.256786484250333 
1839	 1.12487959891606 
1840	 0.942045592195314 
1841	 0.436571602383841 
1842	 0.654886260207406 
1843	 0.880120996973342 
1844	 0.890367584460122 
1845	 1.08570865356381 
1846	 1.57630558658947 
1847	 1.64591164343415 
1848	 1.511911698629 
1849	 1.13602525180705 
1850	 1.01343480151834 
1851	 0.300121802591909 
1852	 8.05110826958705E-02 
1853	 6.80751549841461E-02 
1854	-9.99929349801284E-02 
1855	-0.995908097671358 
1856	-2.68501604343502 
1857	 0.865648526473522 
1858	 0.817323996107082 
1859	 4.02616190083313 
1860	-0.299782685205124 
1861	-1.46315488857368 
1862	-11.3875175375633 
1863	-3.17574154658046 
1864	-1.11622407209217 
1865	-1.35425637270139 
1866	 0.611142004829658 
1867	 0.589771709812749 
1868	-11.4806030306434 
1869	-3.63010572368104 
1870	-1.01477029684482 
1871	 0.635484312573024 
1872	 0.73064856017183 
1873	 1.53055852925731 
1874	 0.603175043602385 
1875	-0.206719016537304 
1876	-1.41049345420406 
1877	-1.81222441114475 
1878	 9.72610391406258 
1879	 0.641689657289996 
1880	 0.538100074434852 
1881	 0.232892879400102 
1882	 0.414552442060881 
1883	-0.107771235039302 
1884	-0.494801844574202 
1885	-1.24756415519787 
1886	-1.70241867386393 
1887	-1.16855811809545E-02 
1888	-0.219831201571972 
1889	-0.438491938440741 
1890	 2.69711052373491 
1891	 1.62690644562188 
1892	 0.616237976354341 
1893	-2.54211062852653E-02 
1894	-0.354713572460562 
1895	 2.45616551526578 
1896	 1.45244339533075 
1897	 2.04437447296211 
1898	 3.9668090517713 
1899	-1.59113810275127 
1900	-1.08660313474553 
1901	-0.743854888756625 
1902	-0.413022738176155 
1903	 0.411174157614164 
1904	 3.96589042584426 
1905	-1.24434791439824 
1906	-0.489103891138575 
1907	 0.271227088659869 
1908	 1.07265445239645 
1909	 1.14163974993256 
1910	 0.182381410774936 
1911	 0.924722290350543 
1912	 0.905566138712306 
1913	 1.07121638802338 
1914	 35.1488300038473 
1915	-0.372125608767454 
1916	 3.78904448833539 
1917	-8.74725204714259 
1918	-1.32654167311046 
1919	-0.469357708002262 
1920	 33.4971594701548 
1921	 3.51380248335045 
1922	 1.71698524941682 
1923	 0.257815915418906 
1924	-0.190400262157267 
1925	 1.51893837057774E-02 
1926	-1.70765005975493E-02 
1927	-0.180075841846885 
1928	 0.145716869268506 
1929	 0.521843100220959 
1930	-0.110456745708901 
1931	-7.28596187911634E-03 
1932	 6.60599262764106E-02 
1933	-0.189348623401879 
1934	 0.117938047930082 
1935	 0.113560201032536 
1936	 1.67759356322735E-02 
1937	 0.197060696394405 
1938	 0.143197939513815 
1939	 0.101150540630113 
1940	-1.67180931598976E-02 
1941	 3.32158322790074E-02 
1942	 7.06508856738239E-02 
1943	 0.110750958206637 
1944	 8.45843302103171E-02 
1945	 4.84289086456549E-02 
1946	 2.66140222656287E-02 
1947	 9.02804913141035E-03 
1948	 1.96510684722484E-02 
1949	 9.27749691784911E-03 
1950	-7.19464799249079E-03 
1951	 1.92275836717781E-02 
1952	 2.40973705103629E-02 
1953	 3.34323264645636E-02 
1954	 2.06879330300095E-02 
1955	 5.57588966895889E-03 
1956	-1.26669318427945E-02 
1957	-1.74840688744139E-02 
1958	-1.24134549173907E-03 
1959	 1.29679277730758E-02 
1960	 9.37402033862879E-03 
1961	-2.08215481489635E-03 
1962	-2.70665019609775E-03 
1963	-1.93632740325395E-03 
1964	-2.45347456754875E-03 
1965	 1.0635506264437E-03 
1966	 2.0862589903327E-03 
1967	 1.64776013753745E-03 
1968	 1.4249080339029E-03 
1969	 2.89961547205491E-03 
1970	 2.27968892939677E-03 
1971	 3.18450152452179E-03 
1972	 3.83655309980158E-03 
1973	 1.97456528258552E-03 
1974	 1.80898853823459E-03 
1975	 1.99901098383403E-03 
1976	 1.08492770546955E-03 
1977	 9.10215002284542E-04 
1978	 9.51194794345586E-04 
1979	 7.90363212185613E-04 
1980	 4.00653248735134E-05 
1981	-5.64120797465084E-04 
1982	-3.32977418736685E-04 
1983	 3.13079490539105E-04 
1984	 1.11911546959569E-04 
1985	 1.71923544680046E-04 
1986	 1.18068078234658E-03 
1987	 9.37094745574541E-04 
1988	 3.87034595204249E-04 
1989	 1.75081868840398E-03 
1990	 1.73831071713023E-03 
1991	 2.97103758646771E-04 
1992	 5.52066796333795E-04 
1993	 1.0678843535643E-03 
1994	 8.81506458965085E-04 
1995	 3.59828026302065E-04 
1996	 9.73662160477964E-04 
1997	 1.16258674424573E-03 
1998	-1.01020122766812E-03 
1999	-1.38198560616244E-03 
2000	 1.18179626780288E-03 
2001	 1.6433259745729E-03 
2002	 3.01574445828704E-03 
2003	 4.6655598629156E-03 
2004	 1.56430759391226E-03 
2005	-5.77649427625463E-04 
2006	-4.74323691476398E-04 
2007	-1.12673188682325E-03 
2008	 4.38870425417943E-04 
2009	 1.52005734579848E-03 
2010	 3.65808274215315E-03 
2011	 4.16113116970082E-03 
2012	 3.57730128691239E-03 
2013	 3.48001009289377E-03 
2014	 4.38811172235128E-03 
2015	 5.11494967287939E-03 
2016	 2.43237091350161E-03 
2017	-2.42233329038573E-04 
2018	 1.03675222475771E-04 
2019	-4.40814064806761E-04 
2020	 8.58673261204715E-04 
2021	 3.15410244677934E-03 
2022	 2.61523739462995E-03 
2023	 1.7890048457208E-03 
2024	 1.28486174131746E-03 
2025	 3.39774172675303E-04 
2026	-3.76921805764336E-05 
2027	-3.20926497065573E-04 
2028	 2.19784082843686E-04 
2029	 2.34707851626746E-04 
2030	 3.57731046042419E-04 
2031	 9.98387710280998E-04 
2032	 7.01557096769079E-04 
2033	 2.02340693659886E-04 
2034	 8.44393782853783E-04 
2035	 1.47088427870143E-03 
2036	 1.39012279048913E-03 
2037	 1.53754853117813E-03 
2038	 1.48401316350225E-03 
2039	 1.33178709860446E-03 
2040	 6.36695904491023E-04 
2041	 6.07031078927102E-04 
2042	 8.57650733620899E-04 
2043	 1.06085522203656E-03 
2044	 1.58811307245206E-03 
2045	 1.7150166798095E-03 
2046	 1.87204531720476E-03 
2047	 2.53404065195624E-03 
2048	 2.07290347663691E-03 
2049	 1.69188691438232E-03 
2050	 1.90564668821007E-03 
2051	 1.71250325151284E-03 
2052	 8.41646444994585E-04 
2053	 3.35111478030201E-04 
2054	 6.76522596340023E-04 
2055	 6.89645902724282E-05 
2056	-1.37756750569215E-04 
2057	 8.63285213556071E-04 
2058	 1.21545615731894E-03 
2059	 8.07696294905411E-04 
2060	 8.65908957003221E-04 
2061	 1.10471135701715E-03 
2062	 1.90568907246687E-03 
2063	 2.10225149990634E-03 
2064	 1.74133416141921E-03 
2065	 2.36941411401747E-03 
2066	 2.37155255989452E-03 
2067	 8.1748574070065E-04 
2068	-1.09100986307918E-04 
2069	 2.45569628962601E-04 
2070	 4.59350324913433E-04 
2071	 1.10468739593638E-03 
2072	 2.18385113041351E-03 
2073	 2.4408093811162E-03 
2074	 1.29671046197493E-03 
2075	 9.62690596320332E-04 
2076	 1.18372794540155E-03 
2077	 1.1531181182495E-03 
2078	 5.38565659549836E-04 
2079	 6.22629744789687E-04 
2080	 1.23021226190207E-03 
2081	 1.50935469778137E-03 
2082	 1.56376802266695E-03 
2083	 2.18134642729034E-03 
2084	 1.97033758954888E-03 
2085	 1.18649623920198E-03 
2086	 6.66111136197823E-04 
2087	 1.25881071201214E-04 
2088	 4.74058712262455E-04 
2089	 7.33643829459111E-04 
2090	 4.39596158652981E-04 
2091	 5.440597829843E-04 
2092	 8.26677334441231E-04 
2093	 1.00193939474618E-03 
2094	 1.39121978588447E-03 
2095	 2.49774672748824E-03 
2096	 2.57838067571913E-03 
2097	 1.84056607532365E-03 
2098	 1.67933966069401E-03 
2099	 1.00968855676568E-03 
2100	 1.7702462802284E-03 
2101	 2.24635110768783E-03 
2102	 1.60920689226432E-03 
2103	 2.15336453317239E-03 
2104	 1.86042453862639E-03 
2105	 9.70217653682413E-04 
2106	 1.34461162133812E-03 
2107	 1.31223283480463E-03 
2108	 6.41607738864629E-04 
2109	 8.7651882184685E-04 
2110	 1.95021951782778E-03 
2111	 2.42727129779428E-03 
2112	 2.34980228579781E-03 
2113	 2.11014284259772E-03 
2114	 1.41192831346619E-03 
2115	 1.04571018724613E-03 
2116	 3.90217506816333E-04 
2117	 2.0684049285893E-04 
2118	 4.76805096559983E-04 
2119	 5.76307287508676E-04 
2120	 5.55573527530595E-04 
2121	 1.13304810456424E-03 
2122	 1.22953470843516E-03 
2123	 4.4734803928232E-04 
2124	-2.59263590923034E-04 
2125	-5.99674941494102E-04 
2126	-4.1036088995534E-04 
2127	 5.67577043150747E-04 
2128	 1.34779623070425E-03 
2129	 1.80084395610273E-03 
2130	 2.10890738582332E-03 
2131	 1.90375489054839E-03 
2132	 1.57357852418395E-03 
2133	 1.30813826357343E-03 
2134	 1.13110073521199E-03 
2135	 8.32742563289099E-04 
2136	 6.95084371704182E-04 
2137	 6.97230176395833E-04 
2138	 7.40898116413437E-04 
2139	 7.80746416418982E-04 
2140	 6.53077823646661E-04 
2141	 4.59299489674055E-04 
2142	 7.60386549009008E-04 
2143	 1.14192664696728E-03 
2144	 1.51298220871214E-03 
2145	 2.24676181174918E-03 
2146	 2.76555359406972E-03 
2147	 2.66235935045099E-03 
2148	 2.84282927776401E-03 
2149	 2.32083981953412E-03 
2150	 1.17696033302955E-03 
2151	 8.03089959204472E-04 
2152	 6.63404920304193E-04 
2153	 1.03519834791829E-03 
2154	 1.90484556013785E-03 
2155	 0.002110379112334 
2156	 1.37187576614962E-03 
2157	 1.10474677252597E-03 
2158	 9.8209674620356E-04 
2159	 9.34641135114464E-04 
2160	 9.48868522382396E-04 
2161	 7.86396421678148E-04 
2162	 3.69481447515823E-04 
2163	 4.0205042496246E-04 
2164	 5.06406753443833E-04 
2165	 7.0204814192109E-04 
2166	 1.81669906570373E-03 
2167	 2.04954447174821E-03 
2168	 1.26654603958642E-03 
2169	 1.44133980980719E-03 
2170	 2.06709907925426E-03 
2171	 2.09399639509077E-03 
2172	 1.76596168042294E-03 
2173	 1.38027614785151E-03 
2174	 1.16219377625971E-03 
2175	 1.74784047605108E-04 
2176	 2.04974625425893E-05 
2177	 9.06448227549832E-04 
2178	 1.04913693030622E-03 
2179	 6.82235681872255E-04 
2180	 1.94805034224133E-04 
2181	 3.33676842761003E-04 
2182	 5.10954599514389E-04 
2183	 1.32988650527791E-03 
2184	 2.82736216660946E-03 
2185	 3.75150320464483E-03 
2186	 3.86692450602319E-03 
2187	 2.77333764359075E-03 
2188	 2.43605416351046E-03 
2189	 1.34401045942021E-03 
2190	 1.31187466880104E-03 
2191	 2.70413482015984E-03 
2192	 3.06955170180157E-03 
2193	 3.57116841621091E-03 
2194	 3.35942298796349E-03 
2195	 2.23620790438262E-03 
2196	 1.34519452603079E-03 
2197	-6.40001434330243E-04 
2198	-7.68670105935952E-04 
2199	 5.24880731217652E-05 
2200	 1.27059666536573E-03 
2201	 3.07682968791435E-03 
2202	 2.35799105613834E-03 
2203	 8.7974727529291E-04 
2204	 6.32584491384797E-04 
2205	 9.84959926657966E-04 
2206	 1.13634866696387E-03 
2207	 2.12462171127248E-03 
2208	 3.07618234920058E-03 
2209	 3.15233583003415E-03 
2210	 3.56998981285758E-03 
2211	 3.62574540421775E-03 
2212	 2.42191994837695E-03 
2213	 6.16786200492088E-04 
2214	 1.81126239598314E-04 
2215	-6.21598017256716E-05 
2216	-8.69210180563123E-04 
2217	-1.44787475371027E-03 
2218	-2.47327572579123E-03 
2219	-2.57637813009118E-03 
2220	-1.54126684213138E-03 
2221	-1.45588326869337E-03 
2222	-1.29539201755229E-03 
2223	-0.001300796313041 
2224	-2.47077207321319E-03 
2225	-2.47236232407251E-03 
2226	-1.40892587500155E-03 
2227	-9.05400782193878E-04 
2228	-2.02759533046575E-04 
2229	 1.68446902635132E-04 
2230	-6.62737906544345E-04 
2231	 1.94621764852767E-04 
2232	 3.56453129961775E-03 
2233	 3.45462119913299E-03 
2234	 1.76164785705245E-03 
2235	 1.23315257203689E-03 
2236	-1.24225500689454E-03 
2237	-1.76497870803549E-03 
2238	 1.68633407959709E-04 
2239	 1.50803426814777E-03 
2240	 2.05604706038309E-03 
2241	 1.75972537927225E-03 
2242	 1.59713513575993E-03 
2243	 2.20947730409315E-03 
2244	 3.4880554118498E-03 
2245	 3.67898583138055E-03 
2246	 3.19325081261972E-03 
2247	 2.55420669741184E-03 
2248	 8.3207430387106E-04 
2249	 4.61279192540097E-04 
2250	 8.80778150340681E-04 
2251	 5.42325140477938E-04 
2252	 1.47854822927023E-05 
2253	-1.55613634297729E-03 
2254	-2.25591583123484E-03 
2255	-2.24431207465213E-03 
2256	-3.5790590384843E-03 
2257	-4.12419565146074E-03 
2258	-4.81159280697592E-03 
2259	-5.86824193407671E-03 
2260	-4.94114439470689E-03 
2261	-1.26792715044291E-03 
2262	 1.78921962161524E-04 
2263	 2.4296615532813E-03 
2264	 2.98860768498368E-03 
2265	 6.98801004894845E-04 
2266	 6.80969415532067E-05 
2267	-4.8476701383292E-05 
2268	 1.34923557879053E-04 
2269	 7.31361044715514E-04 
2270	 1.52258213448994E-03 
2271	 2.53792694270378E-03 
2272	 2.0837735554685E-03 
2273	 2.38029114943444E-03 
2274	 1.44787319261166E-03 
2275	-1.95662700930925E-03 
2276	-3.13327080792304E-03 
2277	-5.14409572015279E-03 
2278	-5.23800341878863E-03 
2279	-1.58238479663461E-03 
2280	-6.81687547423486E-04 
2281	-5.50263827684312E-04 
2282	 3.75801206366346E-04 
2283	-1.38376340270564E-04 
2284	-2.69533995753118E-03 
2285	-1.70224106155749E-03 
2286	-5.19416769605367E-05 
2287	 2.24280000120801E-03 
2288	 0.0052796730014 
2289	 5.00000181528239E-03 
2290	 3.46180245716904E-03 
2291	 1.92457124204426E-03 
2292	 6.14617196130378E-04 
2293	 1.09048084777051E-03 
2294	 2.33242877671702E-03 
2295	 1.78744066155198E-03 
2296	 1.17377132920301E-04 
2297	 1.21742524221073E-03 
2298	 1.30117995575868E-03 
2299	-2.22192715136822E-03 
2300	-6.28871792183878E-04 
2301	 1.45766545119762E-03 
2302	-2.22535125784704E-03 
2303	-6.08148253535159E-04 
2304	 8.28374567124652E-04 
2305	-4.66938881332479E-03 
2306	-2.1329481959586E-03 
2307	 2.42019218970596E-03 
2308	-6.20999022323645E-04 
2309	-6.05392543758203E-04 
2310	-3.19235902500443E-04 
2311	-2.2935393078183E-03 
2312	-1.18534901872473E-03 
2313	 1.02517280091195E-03 
2314	 2.71042937305755E-03 
2315	 1.91648276616875E-03 
2316	 2.21154787078028E-04 
2317	 1.64946729107574E-03 
2318	 3.21045744773125E-03 
2319	 6.5525991055658E-03 
2320	 1.23146456849558E-02 
2321	 0.011728923738793 
2322	 7.41076901272209E-03 
2323	 3.31101409142066E-04 
2324	-8.25550986494224E-03 
2325	-9.52688992874222E-03 
2326	-4.94339423350745E-03 
2327	 1.15054624831796E-03 
2328	 5.08969022603498E-03 
2329	 8.84235298989291E-03 
2330	 8.59668821439207E-03 
2331	 1.47625204538357E-03 
2332	 2.29571557499472E-04 
2333	 1.53769380254516E-03 
2334	-1.68735290081583E-03 
2335	-2.13699219276788E-04 
2336	 1.13887965777681E-03 
2337	-6.37830529286831E-03 
2338	-1.14670053392935E-02 
2339	-1.13723796144645E-02 
2340	-1.09586267078694E-02 
2341	-6.07754336378181E-03 
2342	-1.09842118888572E-03 
2343	-3.2474877808127E-03 
2344	-9.4301656881847E-03 
2345	-7.73775828492561E-03 
2346	-8.22846373374127E-03 
2347	-1.25297435696991E-02 
2348	-6.46063908902994E-03 
2349	-2.60410881296883E-03 
2350	-9.42691683997342E-05 
2351	 9.38523826256607E-04 
2352	 3.60560075941988E-03 
2353	 9.73476078975807E-04 
2354	-1.03909952620012E-02 
2355	-2.61729647804892E-03 
2356	 3.0761889099195E-03 
2357	-4.22348955011169E-04 
2358	 2.00231506278809E-03 
2359	-2.55928795639271E-03 
2360	-2.52907105768419E-03 
2361	 5.64637842847879E-03 
2362	 9.24550282297035E-03 
2363	 1.03131705495266E-02 
2364	 8.78635636449234E-03 
2365	-4.75136517716967E-04 
2366	-5.0824962760742E-03 
2367	 7.80014322281869E-03 
2368	 7.71573789827714E-03 
2369	 8.33836793868019E-03 
2370	 2.56817358425925E-02 
2371	 1.87991429864883E-02 
2372	 1.51392895645649E-02 
2373	 1.66267532539974E-02 
2374	-6.97177091978217E-03 
2375	-1.39119314535119E-02 
2376	 3.98044860734632E-03 
2377	 5.5449315121453E-03 
2378	 8.25845671767042E-03 
2379	 1.67794124382101E-02 
2380	 6.54314887995814E-03 
2381	 1.79333070947403E-02 
2382	 0.032714091485667 
2383	 0.0334604257337 
2384	 3.10253130736893E-02 
2385	-1.37762719210814E-02 
2386	-3.42143331977041E-02 
2387	-1.24484784370005E-02 
2388	-3.32175344908407E-02 
2389	-4.34587249041871E-02 
2390	-3.54010975916101E-02 
2391	-5.75582126568427E-02 
2392	-7.84796120328711E-02 
2393	-0.066693630846902 
2394	-4.32531796532247E-02 
2395	-4.08743176113948E-02 
2396	-1.80284673480683E-02 
2397	-1.19820507691348E-02 
2398	-1.64397017694147E-02 
2399	 0.024281210232095 
2400	 2.77705105793235E-02 
2401	 4.10184892735977E-02 
2402	 6.58488467103461E-02 
2403	 0.044199013038416 
2404	 5.72709523194499E-02 
2405	 5.50903287054496E-02 
2406	 6.00674352178448E-02 
2407	 8.80117149719203E-02 
2408	 5.53829229118918E-02 
2409	 6.20015606212231E-02 
2410	 7.59340411210896E-02 
2411	-0.014528931271746 
2412	-5.48788362710833E-02 
2413	 4.44191686496655E-02 
2414	 2.06910644296572E-02 
2415	-9.71867448252619E-02 
2416	-0.153038328909138 
2417	-0.274110495284504 
2418	-0.303473221964714 
2419	-0.176725051646015 
2420	-9.66517987624868E-02 
2421	-0.115486032922318 
2422	-0.157791900315384 
2423	-0.156033297275335 
2424	-9.00455723165329E-02 
2425	 4.42066228407114E-03 
2426	 0.045459276339777 
2427	 5.18071267476498E-02 
2428	 5.16065520364424E-02 
2429	-1.52675112443814E-02 
2430	-1.41498864714756E-02 
2431	 1.04575232272094E-02 
2432	-4.9590450587931E-03 
2433	 4.26562455366149E-02 
2434	-8.18432638131832E-02 
2435	-0.236277711946092 
2436	-0.158778900287662 
2437	-0.156394106435858 
2438	-0.163958554765418 
2439	-0.14773775661262 
2440	-0.267086301471493 
2441	-0.25534188877752 
2442	-0.2428663416731 
2443	-0.28238636614253 
2444	-0.181763219346074 
2445	-0.168666992664723 
2446	-0.257395472961664 
2447	-7.29511487538348E-02 
2448	 1.07670083690898E-02 
2449	 0.256069859316625 
2450	 0.351328890948317 
2451	-7.94235701918067E-02 
2452	-0.300675913923357 
2453	-0.176970777793736 
2454	-0.314529929263833 
2455	-0.546939813841919 
2456	-0.494741839445086 
2457	-0.623984115664581 
2458	-0.521664255321572 
2459	-0.24412055508096 
2460	-0.365072127962174 
2461	-0.682818470254148 
2462	-0.52596084264911 
2463	-0.865495138727234 
2464	-0.762551761320975 
2465	-0.173416392306121 
2466	 4.31615687439752E-02 
2467	 0.391676815482634 
2468	 1.20015292321575 
2469	 1.09345025844089 
2470	-2.60676137613295 
2471	 5.52393425231549 
2472	-3.24297899670086 
2473	-4.49359784651833 
2474	-1.49780393281914 
2475	-1.82998671676268 
2476	-5.20763526253568 
2477	-2.78084045809011 
2478	-1.89495311450094 
2479	-0.869046277555472 
2480	-0.301212814776327 
2481	-0.313721328210243 
2482	 0.455333724191211 
2483	-1.45597415376562 
2484	 1.4773783471385 
2485	 0.169261252782165 
2486	-0.539220737497571 
2487	-7.98911449061414 
2488	 3.04300884073691 
2489	 1.0619777556982 
2490	 1.28116429361712 
2491	 0.842720616999665 
2492	 0.410580735494625 
2493	 1.26480637564503 
2494	 0.489161457241504 
2495	-1.53264142808238 
2496	 3.93660710124964 
2497	 4.79897565574856 
2498	-1.87339584007881E-02 
2499	 0.999049026130537 
2500	 3.74050481773241 
