Wavelength	rt0629dirtre00005.asd
350	 0.11022481198594 
351	 0.110374810988465 
352	 0.109145769243207 
353	 0.109534155397432 
354	 0.111896187287131 
355	 0.110059514562742 
356	 0.108771171093188 
357	 0.109583813735932 
358	 0.111942055050627 
359	 0.11132349583482 
360	 0.110717190083123 
361	 0.110724685554188 
362	 0.110319796773499 
363	 0.111642521504094 
364	 0.112208834069927 
365	 0.1111572551591 
366	 0.110833129604729 
367	 0.111641913775157 
368	 0.112258187846725 
369	 0.111762817889399 
370	 0.112619266573546 
371	 0.112706955658271 
372	 0.112400966611136 
373	 0.113259164298307 
374	 0.11298322811875 
375	 0.113548318911101 
376	 0.115075959080258 
377	 0.11466234960909 
378	 0.114000971399285 
379	 0.114134933269856 
380	 0.115333745189427 
381	 0.116091474771527 
382	 0.116556115624005 
383	 0.116674475515767 
384	 0.116516648927087 
385	 0.117248451903121 
386	 0.118582173157727 
387	 0.119537179314407 
388	 0.118715653088545 
389	 0.119594185411861 
390	 0.121146153727888 
391	 0.121859299649706 
392	 0.121256512585639 
393	 0.121023252891388 
394	 0.121685934257414 
395	 0.122951077201968 
396	 0.123317087304543 
397	 0.1236434385888 
398	 0.124060388291031 
399	 0.124004495795958 
400	 0.12452060327784 
401	 0.124961546430434 
402	 0.12494232404238 
403	 0.125199251417562 
404	 0.125752909863718 
405	 0.126314848610531 
406	 0.126574037785059 
407	 0.126884888113205 
408	 0.127459598782535 
409	 0.128107252309348 
410	 0.128312664442285 
411	 0.128942264032192 
412	 0.129416538927598 
413	 0.129487293280332 
414	 0.130371140874116 
415	 0.131011920355085 
416	 0.131313926661638 
417	 0.131639061331319 
418	 0.132545633640737 
419	 0.133225261170447 
420	 0.133484309662084 
421	 0.13389223942991 
422	 0.134694413612955 
423	 0.135528634554561 
424	 0.136181093421076 
425	 0.137293232989941 
426	 0.138109183008831 
427	 0.138726511607373 
428	 0.139612259665469 
429	 0.140586345994921 
430	 0.141495679651407 
431	 0.142378121607574 
432	 0.14348861631849 
433	 0.144517765961486 
434	 0.145367667181208 
435	 0.146108351937669 
436	 0.147139234754945 
437	 0.148150080591582 
438	 0.148977378651124 
439	 0.149619826737779 
440	 0.150707758702738 
441	 0.151654037524788 
442	 0.152321515869322 
443	 0.153440176959095 
444	 0.154087991010696 
445	 0.154706449157551 
446	 0.155756055470141 
447	 0.156218821690005 
448	 0.157012048948306 
449	 0.157993441596479 
450	 0.158312519477886 
451	 0.158874474570882 
452	 0.159542914724326 
453	 0.160114382756111 
454	 0.160546208079134 
455	 0.161118585592149 
456	 0.161693753009516 
457	 0.162068077507058 
458	 0.162596010962583 
459	 0.163047706536937 
460	 0.163360239736396 
461	 0.163669694891891 
462	 0.164151125116774 
463	 0.164641276973287 
464	 0.165032133559331 
465	 0.165593105720618 
466	 0.165962157409676 
467	 0.166241808847134 
468	 0.166733310752573 
469	 0.167346440990422 
470	 0.167689190318584 
471	 0.167846206273491 
472	 0.16855908586784 
473	 0.169140256249235 
474	 0.169509982485702 
475	 0.169821855313807 
476	 0.17043939325024 
477	 0.171083945023181 
478	 0.171643706968978 
479	 0.172149770515112 
480	 0.172746402102814 
481	 0.173466170502706 
482	 0.174210490405735 
483	 0.174619758508651 
484	 0.175335153752509 
485	 0.176244017264489 
486	 0.177006742043124 
487	 0.177746168441162 
488	 0.178598305141994 
489	 0.179532571736575 
490	 0.180364516728004 
491	 0.181039974231501 
492	 0.181646397438356 
493	 0.182342597859513 
494	 0.183431221764156 
495	 0.184456097223435 
496	 0.185288023442916 
497	 0.186031723872138 
498	 0.187186902710615 
499	 0.188339630626418 
500	 0.189229342396657 
501	 0.189966622689543 
502	 0.1910925793097 
503	 0.192332825380196 
504	 0.193267435417267 
505	 0.193902961789701 
506	 0.19496789121769 
507	 0.19639604296794 
508	 0.197502954882705 
509	 0.198484772055288 
510	 0.199661283019365 
511	 0.201066998958038 
512	 0.202003228610955 
513	 0.203177804085448 
514	 0.204555668075788 
515	 0.205799756410015 
516	 0.206979032643562 
517	 0.208224493334395 
518	 0.209593042730567 
519	 0.211041596923435 
520	 0.212635697297413 
521	 0.213959369729465 
522	 0.214841539494793 
523	 0.216228613977873 
524	 0.217789865305787 
525	 0.219240218538886 
526	 0.220402716621506 
527	 0.221769880833578 
528	 0.223394000525894 
529	 0.22506929584042 
530	 0.226194728544637 
531	 0.227551652736465 
532	 0.229105919847226 
533	 0.230549421291546 
534	 0.231958971903347 
535	 0.233447844960992 
536	 0.234975109744295 
537	 0.236318620091964 
538	 0.237629337553624 
539	 0.239169729105472 
540	 0.240974555828909 
541	 0.242271213803008 
542	 0.243637898726285 
543	 0.245184048735797 
544	 0.246724163007535 
545	 0.248275863323031 
546	 0.249769146132928 
547	 0.251188014512272 
548	 0.252633621987594 
549	 0.254100714607647 
550	 0.255647276542227 
551	 0.257280116609077 
552	 0.258600717589548 
553	 0.259914032696054 
554	 0.261327077734615 
555	 0.262668353488688 
556	 0.264008817970039 
557	 0.265465452246109 
558	 0.267012448302868 
559	 0.26819367367835 
560	 0.269254843889812 
561	 0.270372411004105 
562	 0.271661479653736 
563	 0.273029385015524 
564	 0.274226377038977 
565	 0.275145340662665 
566	 0.275958930545131 
567	 0.276984197582441 
568	 0.278052325656508 
569	 0.278888780030904 
570	 0.279876141577012 
571	 0.28075118924517 
572	 0.281464040226805 
573	 0.282228030729875 
574	 0.283008131415696 
575	 0.283802103355994 
576	 0.284550294920216 
577	 0.284995507443879 
578	 0.285604690193791 
579	 0.286365518735369 
580	 0.286949400751188 
581	 0.287147758376963 
582	 0.287278558250187 
583	 0.287559188450912 
584	 0.287923849042106 
585	 0.288066821863403 
586	 0.287872666747733 
587	 0.287392323444819 
588	 0.28713600603687 
589	 0.287049189219303 
590	 0.287031049144961 
591	 0.286982907829125 
592	 0.286944948889069 
593	 0.286879020005653 
594	 0.286751150839364 
595	 0.286602103286951 
596	 0.286210182235826 
597	 0.28565167759884 
598	 0.285176968028476 
599	 0.284869428752767 
600	 0.284642594168161 
601	 0.284388430374442 
602	 0.283986712907763 
603	 0.28381264884556 
604	 0.283905407430963 
605	 0.284107910534136 
606	 0.283912734727185 
607	 0.283832633306945 
608	 0.283983337185287 
609	 0.284026474244912 
610	 0.284144077266148 
611	 0.284365250145144 
612	 0.284599987446548 
613	 0.28447480437989 
614	 0.284458819140176 
615	 0.284581085239922 
616	 0.284625078377301 
617	 0.284634563728586 
618	 0.284694770915754 
619	 0.284829870534614 
620	 0.284961799203992 
621	 0.285063205068587 
622	 0.285073463187234 
623	 0.284970456492109 
624	 0.284928873128625 
625	 0.284934662498272 
626	 0.284885790592322 
627	 0.284643059213874 
628	 0.284975050596108 
629	 0.285344377989481 
630	 0.285309360590641 
631	 0.285363253077159 
632	 0.285260754508943 
633	 0.285162734133157 
634	 0.285342857870186 
635	 0.285426696838743 
636	 0.285320089363931 
637	 0.285130619832607 
638	 0.285198141511204 
639	 0.285557611404294 
640	 0.28571337732022 
641	 0.285311086758578 
642	 0.28522874659884 
643	 0.285176877281431 
644	 0.284864894723861 
645	 0.284062041167441 
646	 0.283370117654254 
647	 0.283269052917441 
648	 0.283696983748144 
649	 0.283488735976346 
650	 0.283104267149366 
651	 0.28268505470638 
652	 0.282281557771405 
653	 0.281899306544572 
654	 0.281226561290973 
655	 0.280228457332198 
656	 0.279421779981826 
657	 0.278870919987271 
658	 0.278420877627962 
659	 0.277929610925541 
660	 0.277464952838788 
661	 0.277104063038479 
662	 0.276768501985004 
663	 0.27630711473633 
664	 0.275816526854668 
665	 0.275526897430083 
666	 0.275426128881456 
667	 0.275065545424902 
668	 0.274582807467413 
669	 0.274149641394076 
670	 0.273902781006265 
671	 0.27367411275709 
672	 0.273565092000442 
673	 0.273482715501528 
674	 0.273170920879524 
675	 0.272974459217025 
676	 0.272857198146861 
677	 0.272742706467303 
678	 0.272655636014961 
679	 0.272526130987194 
680	 0.272408629146435 
681	 0.272369849186917 
682	 0.272128129217693 
683	 0.271951631900906 
684	 0.271763586755156 
685	 0.270908704610926 
686	 0.269962282604911 
687	 0.269435572479193 
688	 0.26943752187093 
689	 0.269004550501444 
690	 0.268467174941138 
691	 0.267824022390962 
692	 0.266899721468445 
693	 0.26599895740079 
694	 0.265297254603766 
695	 0.264775927581646 
696	 0.264145841807704 
697	 0.262988448546261 
698	 0.261544707837973 
699	 0.260300293489346 
700	 0.259051574433722 
701	 0.257945953049343 
702	 0.256880515718076 
703	 0.255549169100157 
704	 0.25430665907316 
705	 0.252890681365086 
706	 0.251182288047793 
707	 0.249421049626744 
708	 0.247676475927398 
709	 0.245699244890707 
710	 0.243293694932487 
711	 0.241227023021586 
712	 0.239145373448669 
713	 0.236695430407345 
714	 0.233543334091405 
715	 0.23063161511742 
716	 0.227320244432085 
717	 0.223230369124556 
718	 0.219649265819603 
719	 0.216812308668073 
720	 0.214693323605823 
721	 0.212493266204235 
722	 0.209347217701533 
723	 0.205710087384067 
724	 0.202306588713085 
725	 0.198713004636172 
726	 0.195219106818076 
727	 0.191738750170709 
728	 0.188071554154586 
729	 0.18378977003289 
730	 0.17911792439322 
731	 0.174858899122971 
732	 0.171420757514606 
733	 0.168176272298605 
734	 0.165288323971999 
735	 0.162830085009624 
736	 0.160650081500449 
737	 0.158788707127493 
738	 0.157296258413501 
739	 0.156271557728701 
740	 0.155942511673345 
741	 0.155251377046668 
742	 0.154403189003039 
743	 0.15413272766619 
744	 0.153712889159866 
745	 0.153282523608498 
746	 0.152909707667666 
747	 0.152453148747864 
748	 0.1521231021543 
749	 0.151920654129677 
750	 0.15177990216955 
751	 0.151626156179942 
752	 0.151371314812124 
753	 0.151076260869038 
754	 0.150852734958964 
755	 0.150466599641514 
756	 0.150209750379291 
757	 0.150142065429626 
758	 0.149889269040842 
759	 0.149112451090519 
760	 0.148425129009873 
761	 0.148911747267269 
762	 0.148559322777016 
763	 0.148303832744647 
764	 0.148386719934509 
765	 0.14873174018351 
766	 0.149452438229939 
767	 0.149957410773304 
768	 0.150103013764515 
769	 0.150089591793774 
770	 0.150051230335952 
771	 0.150056237573519 
772	 0.150201904614383 
773	 0.150758923679397 
774	 0.151226363159892 
775	 0.151450186820495 
776	 0.15154371417792 
777	 0.15207440524619 
778	 0.152693480433781 
779	 0.153250685595989 
780	 0.153852073562563 
781	 0.154085212514245 
782	 0.15442449197295 
783	 0.155106017130151 
784	 0.155444075324246 
785	 0.156032509511718 
786	 0.156678955883504 
787	 0.15704871700178 
788	 0.157667075835905 
789	 0.158353690360714 
790	 0.15897138652284 
791	 0.159505021182125 
792	 0.160357111065113 
793	 0.161223624590126 
794	 0.161905219573024 
795	 0.162484852679888 
796	 0.163015675369352 
797	 0.163534250814186 
798	 0.164088173082901 
799	 0.164696196157062 
800	 0.165392061698545 
801	 0.165973786988306 
802	 0.166211202828588 
803	 0.166574984793013 
804	 0.167002253592918 
805	 0.167325618214548 
806	 0.167344516241059 
807	 0.16736495254133 
808	 0.167463698697043 
809	 0.167489664809161 
810	 0.166769039005255 
811	 0.166412629034656 
812	 0.166141849185641 
813	 0.165169424888692 
814	 0.163963675207011 
815	 0.1630677148927 
816	 0.162478864427912 
817	 0.161707717900865 
818	 0.161063195403625 
819	 0.160197925413045 
820	 0.158859357857729 
821	 0.156971017252698 
822	 0.154865269839197 
823	 0.152543526391103 
824	 0.15016183370115 
825	 0.148222032609434 
826	 0.145480227650622 
827	 0.141872011729677 
828	 0.138250643038934 
829	 0.135754742808181 
830	 0.133139732663916 
831	 0.130515982810172 
832	 0.128961169686146 
833	 0.126890298254157 
834	 0.12526476177771 
835	 0.124256654454569 
836	 0.122724141643127 
837	 0.121980922119679 
838	 0.121505282244148 
839	 0.12067199179752 
840	 0.119563432480493 
841	 0.118701020726815 
842	 0.118149368058007 
843	 0.117737832198353 
844	 0.117248935388792 
845	 0.116378058698618 
846	 0.11540738392672 
847	 0.114935470457426 
848	 0.114517457796164 
849	 0.114103556977916 
850	 0.113562130221112 
851	 0.112652505653823 
852	 0.112296047443203 
853	 0.11229815050743 
854	 0.112028052860433 
855	 0.110501015004056 
856	 0.109970420468444 
857	 0.109932714493148 
858	 0.109434519555614 
859	 0.108919947782901 
860	 0.108467110507276 
861	 0.108082585974207 
862	 0.107692701271737 
863	 0.10708101517706 
864	 0.106610108264403 
865	 0.106173175623863 
866	 0.105315718457063 
867	 0.10502121835107 
868	 0.104473610695631 
869	 0.103611660630314 
870	 0.1036009271291 
871	 0.103014181293839 
872	 0.102013851976287 
873	 0.101098602649417 
874	 0.100676314838701 
875	 0.100487038389136 
876	 0.10006240377229 
877	 9.91611775236897E-02 
878	 9.85627371137824E-02 
879	 9.77884729613986E-02 
880	 9.67815338595006E-02 
881	 9.57980650395716E-02 
882	 9.54960033047777E-02 
883	 9.50787331370034E-02 
884	 9.43956947763366E-02 
885	 9.38296988169136E-02 
886	 9.33120301567111E-02 
887	 0.092377629709106 
888	 9.14529679231692E-02 
889	 0.091830689821947 
890	 9.14289406296338E-02 
891	 9.05837033828276E-02 
892	 8.99798152552476E-02 
893	 9.00891292055868E-02 
894	 0.089006680923081 
895	 8.78493255684441E-02 
896	 0.087842370479034 
897	 8.70327517509655E-02 
898	 8.61655769057244E-02 
899	 8.54641375487921E-02 
900	 8.49921131212443E-02 
901	 8.49252873876288E-02 
902	 8.50919204136915E-02 
903	 0.084586532890701 
904	 8.30650635075811E-02 
905	 8.42274615264651E-02 
906	 8.45272288932763E-02 
907	 8.30095210141318E-02 
908	 0.081121348589206 
909	 8.03279329188431E-02 
910	 8.01211936040476E-02 
911	 7.99125260058419E-02 
912	 7.93720468557561E-02 
913	 7.89414026080043E-02 
914	 7.70962982220086E-02 
915	 7.47137464251371E-02 
916	 0.075011919617953 
917	 7.49496479745712E-02 
918	 7.50109499453158E-02 
919	 7.47992504732713E-02 
920	 7.23145337893431E-02 
921	 7.00921113711398E-02 
922	 0.069350522680387 
923	 6.97256502785875E-02 
924	 6.81135333887379E-02 
925	 6.73470876546641E-02 
926	 6.75014590138063E-02 
927	 0.067518668289202 
928	 6.54651053175665E-02 
929	 0.065098909809694 
930	 6.54786451430315E-02 
931	 6.27079917040641E-02 
932	 5.89318741896446E-02 
933	 6.18039885586806E-02 
934	 7.04632687313094E-02 
935	 7.42902841907534E-02 
936	 0.060532001524523 
937	 5.91128187563081E-02 
938	 0.060655408284093 
939	 5.14000725439018E-02 
940	 5.15866101767888E-02 
941	 5.40117928546228E-02 
942	 0.056158390857299 
943	 5.84114441275863E-02 
944	 6.43131622559711E-02 
945	 5.86930802174945E-02 
946	 0.050025732975736 
947	 5.48228847190513E-02 
948	 4.70855249287112E-02 
949	 0.054112975055718 
950	 6.38849542677139E-02 
951	 4.94398960389766E-02 
952	 4.96860251652236E-02 
953	 5.14494641629748E-02 
954	 5.12774858618399E-02 
955	 5.38041927982119E-02 
956	 0.053210374202265 
957	 5.56726686149022E-02 
958	 5.79224818821515E-02 
959	 5.29020847012857E-02 
960	 0.054566203214363 
961	 5.62258486786534E-02 
962	 5.46295954437729E-02 
963	 5.10294377163609E-02 
964	 4.87480056587529E-02 
965	 4.73210206030114E-02 
966	 4.64979144820626E-02 
967	 4.65811420619389E-02 
968	 4.91014742598333E-02 
969	 4.83040391485011E-02 
970	 0.046288508516764 
971	 5.04383469806182E-02 
972	 0.051114967622657 
973	 5.12959280772224E-02 
974	 5.08606514002081E-02 
975	 4.67120089084937E-02 
976	 4.72944188711284E-02 
977	 0.050602352058121 
978	 5.17480694409894E-02 
979	 4.73771835627779E-02 
980	 5.21437405701735E-02 
981	 5.08992457696693E-02 
982	 4.40209227807031E-02 
983	 4.47947693882539E-02 
984	 5.03682583986992E-02 
985	 5.04603328925709E-02 
986	 4.63800565490404E-02 
987	 4.70889959850075E-02 
988	 4.31231484254979E-02 
989	 4.54102284676632E-02 
990	 5.00363472497754E-02 
991	 4.49466560851999E-02 
992	 4.88142650499817E-02 
993	 4.95390976460523E-02 
994	 4.70188735906227E-02 
995	 4.90879980405031E-02 
996	 4.71502907601717E-02 
997	 4.65792373570995E-02 
998	 4.67585302672967E-02 
999	 4.46041846737815E-02 
1000	 4.83670471999981E-02 
1001	 5.74648804353889E-02 
1002	 5.60534159885143E-02 
1003	 5.57162451039245E-02 
1004	 5.59441078834265E-02 
1005	 5.62227899220768E-02 
1006	 5.69728358740375E-02 
1007	 0.05792324625388 
1008	 5.72000806530447E-02 
1009	 5.74193047784561E-02 
1010	 5.64153400671984E-02 
1011	 5.44718474994843E-02 
1012	 5.47572579117731E-02 
1013	 0.053117958904107 
1014	 5.29891715794874E-02 
1015	 5.41379809658726E-02 
1016	 5.46838997116128E-02 
1017	 5.55993849066665E-02 
1018	 5.61675810515851E-02 
1019	 5.60098005401598E-02 
1020	 5.61292153941336E-02 
1021	 5.59926921276027E-02 
1022	 5.66464905794314E-02 
1023	 5.72798667203772E-02 
1024	 5.81285263358157E-02 
1025	 0.058993183038754 
1026	 5.93969658583594E-02 
1027	 5.95304095289961E-02 
1028	 5.93307830940327E-02 
1029	 5.91448322302446E-02 
1030	 5.87452242686897E-02 
1031	 5.81324088521198E-02 
1032	 5.66670202118907E-02 
1033	 5.65263421558635E-02 
1034	 5.73136296025173E-02 
1035	 5.73527262110348E-02 
1036	 5.79923074176137E-02 
1037	 5.82420864765918E-02 
1038	 5.72791663682647E-02 
1039	 5.65942306136224E-02 
1040	 5.93069636895807E-02 
1041	 0.06066729579716 
1042	 0.060932064813757 
1043	 0.061136066577077 
1044	 6.16766285709376E-02 
1045	 6.05381766347242E-02 
1046	 6.09039941415834E-02 
1047	 6.41364379162051E-02 
1048	 6.39326117949413E-02 
1049	 6.09032823703399E-02 
1050	 0.060053369354295 
1051	 0.058213056003994 
1052	 5.79284981485118E-02 
1053	 0.060311051649665 
1054	 6.14710458309229E-02 
1055	 6.28013657039722E-02 
1056	 6.35245117594456E-02 
1057	 6.38285965530998E-02 
1058	 6.35304848603918E-02 
1059	 6.33786172814057E-02 
1060	 6.28320189801234E-02 
1061	 6.24516219089295E-02 
1062	 6.17612317493645E-02 
1063	 6.17905441087868E-02 
1064	 6.25629232321624E-02 
1065	 0.062391692462471 
1066	 6.19155387660892E-02 
1067	 6.19444852161447E-02 
1068	 6.13244901328979E-02 
1069	 0.061274661435532 
1070	 6.26489810945755E-02 
1071	 6.31067063603933E-02 
1072	 6.30910465033382E-02 
1073	 6.29824726271042E-02 
1074	 6.27899036876263E-02 
1075	 6.21045072670395E-02 
1076	 6.18656381305184E-02 
1077	 6.18331688961158E-02 
1078	 6.17866142229828E-02 
1079	 6.18231449375911E-02 
1080	 6.19215265436445E-02 
1081	 6.19830915667854E-02 
1082	 6.20779121109949E-02 
1083	 6.29752612682124E-02 
1084	 6.26163150035298E-02 
1085	 6.08587249197421E-02 
1086	 6.04988763573627E-02 
1087	 0.059357401677011 
1088	 5.93922350624713E-02 
1089	 6.21955160670459E-02 
1090	 6.35009043246788E-02 
1091	 6.38912367702472E-02 
1092	 6.42712746165102E-02 
1093	 0.06347748035633 
1094	 5.96899123481438E-02 
1095	 5.93514475312064E-02 
1096	 6.09581040520317E-02 
1097	 6.05711280177208E-02 
1098	 6.10767321958035E-02 
1099	 0.060633442093117 
1100	 5.71633528558239E-02 
1101	 5.57865149886987E-02 
1102	 5.58027710201831E-02 
1103	 5.61785132429095E-02 
1104	 5.83250099223991E-02 
1105	 5.84117632094459E-02 
1106	 5.96738440033855E-02 
1107	 6.04760171335636E-02 
1108	 5.89031564516271E-02 
1109	 5.66828861274558E-02 
1110	 5.68249789671428E-02 
1111	 5.88842485505048E-02 
1112	 5.85671185009999E-02 
1113	 5.89244754986372E-02 
1114	 5.87648108777291E-02 
1115	 5.48426068321301E-02 
1116	 5.24618095726719E-02 
1117	 5.05079352501927E-02 
1118	 5.22871054405036E-02 
1119	 6.13170862442994E-02 
1120	 6.02647013451474E-02 
1121	 5.03863027602689E-02 
1122	 6.18287839742179E-02 
1123	 3.42869583982904E-02 
1124	 1.8869010110879E-03 
1125	 1.99185702859726E-02 
1126	 4.93182644519733E-02 
1127	 8.92751045076265E-02 
1128	 0.102627622151973 
1129	 9.86501461494196E-02 
1130	 6.06127887574853E-02 
1131	 5.08916080277811E-02 
1132	 4.25506884944047E-02 
1133	 4.99286011743844E-02 
1134	 0.073875199549057 
1135	 7.41328397529808E-02 
1136	 6.86223349617184E-02 
1137	 6.67211256267757E-02 
1138	 5.74889469553809E-02 
1139	 4.98880046086211E-02 
1140	 5.38784607821487E-02 
1141	 5.41059956494605E-02 
1142	 4.34074802141744E-02 
1143	 4.56472055228255E-02 
1144	 5.45309437728059E-02 
1145	 5.96144277597929E-02 
1146	 6.66133649041994E-02 
1147	 6.31248965921647E-02 
1148	 5.35784189326587E-02 
1149	 5.51324500052327E-02 
1150	 5.60681239088597E-02 
1151	 5.98034335851915E-02 
1152	 6.20475274566276E-02 
1153	 0.069569017104079 
1154	 6.43194402349304E-02 
1155	 5.28596352843991E-02 
1156	 5.01219313209341E-02 
1157	 4.72288520513721E-02 
1158	 4.49297291392704E-02 
1159	 0.050999882526558 
1160	 0.055214790744536 
1161	 5.33473130602423E-02 
1162	 5.30377188758324E-02 
1163	 5.39935349791724E-02 
1164	 0.052405931977678 
1165	 5.18425910240994E-02 
1166	 5.31870588857736E-02 
1167	 0.05280077068201 
1168	 5.07132190592097E-02 
1169	 5.05884488300467E-02 
1170	 5.16353414590538E-02 
1171	 5.13004400215675E-02 
1172	 4.99275829088587E-02 
1173	 4.99200291128822E-02 
1174	 5.07287360303646E-02 
1175	 4.94677266789651E-02 
1176	 0.048690385546043 
1177	 4.99106275753124E-02 
1178	 0.05073910687482 
1179	 5.07926868633802E-02 
1180	 5.20449232914172E-02 
1181	 5.16154545179383E-02 
1182	 4.97325934319051E-02 
1183	 5.00301331955381E-02 
1184	 5.07526807963089E-02 
1185	 5.10438991715028E-02 
1186	 5.16814779379893E-02 
1187	 5.07285157436559E-02 
1188	 0.049223219710161 
1189	 4.98377162467616E-02 
1190	 5.11167208024944E-02 
1191	 5.12948547226421E-02 
1192	 5.13444886055877E-02 
1193	 0.050823120789814 
1194	 0.050517705317575 
1195	 5.05288000206901E-02 
1196	 5.07192636647353E-02 
1197	 5.09017177898794E-02 
1198	 5.02583721629232E-02 
1199	 4.93224653751457E-02 
1200	 4.95587037299785E-02 
1201	 0.050419741890802 
1202	 5.03376785550841E-02 
1203	 5.03149554215031E-02 
1204	 5.04563452814684E-02 
1205	 5.09601754430738E-02 
1206	 5.13945024942695E-02 
1207	 0.050566520125018 
1208	 5.01065737820597E-02 
1209	 4.95052617370057E-02 
1210	 4.85000895837725E-02 
1211	 4.87618270365725E-02 
1212	 4.92127573179239E-02 
1213	 4.90261960753178E-02 
1214	 4.88564559597869E-02 
1215	 4.88396906160128E-02 
1216	 4.84783270350438E-02 
1217	 0.048972227650618 
1218	 4.98066719272965E-02 
1219	 4.96497771133318E-02 
1220	 5.07784607745713E-02 
1221	 5.18493133505633E-02 
1222	 5.08410758182093E-02 
1223	 5.00693523525571E-02 
1224	 4.96021379578884E-02 
1225	 4.87190853176356E-02 
1226	 4.87386364078283E-02 
1227	 4.90002934291309E-02 
1228	 4.93374421133298E-02 
1229	 4.94144362849851E-02 
1230	 4.79076073268924E-02 
1231	 4.72156169823515E-02 
1232	 4.82097822232467E-02 
1233	 4.86651206373016E-02 
1234	 4.87452398321651E-02 
1235	 4.88492665778735E-02 
1236	 4.91953814343455E-02 
1237	 0.049272447085371 
1238	 4.89062436342715E-02 
1239	 4.84804655291849E-02 
1240	 4.86988215854738E-02 
1241	 4.86029383439883E-02 
1242	 4.78807055770739E-02 
1243	 4.83063928962614E-02 
1244	 4.89163282172176E-02 
1245	 4.82761611918377E-02 
1246	 4.82194177489869E-02 
1247	 4.85276049690325E-02 
1248	 4.83752828601839E-02 
1249	 4.85004694268489E-02 
1250	 4.80020749741672E-02 
1251	 4.74724351957044E-02 
1252	 4.75741506856416E-02 
1253	 4.78885185344249E-02 
1254	 4.85676682992315E-02 
1255	 4.89678315211468E-02 
1256	 4.90869688352781E-02 
1257	 4.90660038071974E-02 
1258	 4.87231541946899E-02 
1259	 4.74787281813767E-02 
1260	 4.76096629138771E-02 
1261	 4.83776987306957E-02 
1262	 4.85232374385114E-02 
1263	 4.93708400661446E-02 
1264	 4.95001822670103E-02 
1265	 4.84223979005778E-02 
1266	 4.86516883353607E-02 
1267	 4.92050139656631E-02 
1268	 4.91147998958185E-02 
1269	 4.90769383730039E-02 
1270	 4.91580345403569E-02 
1271	 4.97746497873084E-02 
1272	 5.07345230753654E-02 
1273	 5.10057487575033E-02 
1274	 5.05313159097198E-02 
1275	 4.96342220705516E-02 
1276	 4.82969302809214E-02 
1277	 0.04760034408895 
1278	 4.81260066867759E-02 
1279	 4.84488077807499E-02 
1280	 4.78000098071188E-02 
1281	 4.76972227982878E-02 
1282	 4.80837322330119E-02 
1283	 4.81777633417092E-02 
1284	 4.77780707447525E-02 
1285	 4.79615440944364E-02 
1286	 4.86039895700461E-02 
1287	 4.84838411756641E-02 
1288	 4.84535924363437E-02 
1289	 4.86168364641236E-02 
1290	 4.88778190076361E-02 
1291	 4.78207618349307E-02 
1292	 4.75663709348293E-02 
1293	 4.75616550094616E-02 
1294	 4.82282818628699E-02 
1295	 4.91540073411099E-02 
1296	 4.87037307367793E-02 
1297	 4.83681743887879E-02 
1298	 0.048452385593421 
1299	 4.86714014087833E-02 
1300	 4.86857834130573E-02 
1301	 4.86294575792638E-02 
1302	 4.93684974078395E-02 
1303	 4.95224635760296E-02 
1304	 4.90217548573267E-02 
1305	 4.93356384756052E-02 
1306	 4.98886070897376E-02 
1307	 4.93659369492086E-02 
1308	 4.95959425022941E-02 
1309	 5.17289403466925E-02 
1310	 5.20668430194474E-02 
1311	 5.05002842421844E-02 
1312	 5.00326658867804E-02 
1313	 5.01016770521202E-02 
1314	 5.04107892531894E-02 
1315	 5.13291669150126E-02 
1316	 5.12576402780704E-02 
1317	 5.01585915525516E-02 
1318	 4.98340828990966E-02 
1319	 4.95218310880713E-02 
1320	 4.95708420469651E-02 
1321	 4.98776335617271E-02 
1322	 0.051661092992419 
1323	 0.051874996740009 
1324	 5.08981884392134E-02 
1325	 5.24867651251722E-02 
1326	 5.11467596617654E-02 
1327	 4.81784028720707E-02 
1328	 4.81406174905844E-02 
1329	 4.47848815977278E-02 
1330	 4.32553616383863E-02 
1331	 4.78687494400687E-02 
1332	 4.85017549409573E-02 
1333	 4.61814220300101E-02 
1334	 4.95835224389468E-02 
1335	 5.23047634689607E-02 
1336	 5.54434154347238E-02 
1337	 5.49429643452708E-02 
1338	 5.36384998297967E-02 
1339	 5.48632755753745E-02 
1340	 5.33093895451493E-02 
1341	 5.31044063139962E-02 
1342	 5.97021179092866E-02 
1343	 6.15225815613537E-02 
1344	 5.39972891453333E-02 
1345	 5.48670014738874E-02 
1346	 6.83223556460226E-02 
1347	 0.073055750580203 
1348	 0.069038726559495 
1349	 7.12299680637505E-02 
1350	 5.99316393201132E-02 
1351	 6.57756406122117E-02 
1352	 0.145400787464534 
1353	 0.227229735659249 
1354	 0.380723533503692 
1355	 0.393767734377698 
1356	 0.412762331444967 
1357	 0.439804641626315 
1358	 0.352665166153808 
1359	 0.327708494630058 
1360	 0.489862956163126 
1361	 0.492354739734722 
1362	 0.21335649402341 
1363	 0.162824897578588 
1364	 0.371003837007186 
1365	 0.622005717185167 
1366	 1.04834996608873 
1367	 0.979868838290754 
1368	 1.24598421836935 
1369	 1.37342195335342 
1370	 1.68452376960725 
1371	 3.97906411002573 
1372	 7.81964455107473 
1373	 9.18755699929799 
1374	 3.65591416833237 
1375	 0.969837657241841 
1376	 0.797833712162344 
1377	 0.543524286357707 
1378	 0.517485694275334 
1379	 0.916885952024988 
1380	 1.1222066893409 
1381	 1.57035854286352 
1382	 1.36603729185147 
1383	 1.04233039601332 
1384	 1.12872221175282 
1385	 0.683681623160474 
1386	 0.583964802299817 
1387	 1.61494609228848 
1388	 4.60888418964024 
1389	 5.0139958273161 
1390	 6.49098096642288 
1391	 4.95970843575298 
1392	-4.56216456611295 
1393	-2.47362652580938 
1394	 3.22182069576104 
1395	 0.996495107723077 
1396	 0.707938846090036 
1397	 0.688067808308916 
1398	 0.219924989419938 
1399	 2.74424655203353E-02 
1400	-0.082668996774711 
1401	-0.150267018988026 
1402	 4.84054091142066E-02 
1403	 0.144075289390907 
1404	 0.545672535151629 
1405	 0.569049902450391 
1406	-0.214633306995456 
1407	-0.299026087402269 
1408	 1.13893886025849 
1409	 0.754768662063606 
1410	-0.434607712455223 
1411	-2.98616660239764E-02 
1412	 0.396899642239096 
1413	 0.422802081948551 
1414	 1.18277719702784 
1415	 1.46617037505879 
1416	 0.972025468333932 
1417	 0.793606266484457 
1418	 0.773978733749665 
1419	 0.776441078025716 
1420	 0.778266318210365 
1421	 0.498080996977725 
1422	-4.79127399063794E-03 
1423	-1.24218213075506E-02 
1424	 0.196628956546451 
1425	 0.17697258121076 
1426	 0.35254476635413 
1427	 0.387621822831325 
1428	 6.57130403672897E-02 
1429	 5.37958599612824E-02 
1430	 0.28488923194229 
1431	 0.33926443897486 
1432	 0.40174771991581 
1433	 0.424453845839264 
1434	 0.340329315513324 
1435	 0.275063305695595 
1436	 0.172300488795769 
1437	 0.130498441711032 
1438	 0.079127372730004 
1439	-4.90458886509712E-03 
1440	 0.183993489424251 
1441	 0.278691300045559 
1442	 0.191517320239636 
1443	 0.179162714026319 
1444	 0.125655769126562 
1445	 5.45665739514229E-02 
1446	 8.79846020896599E-02 
1447	 0.166115412637919 
1448	 0.178541305474777 
1449	 0.136430366783961 
1450	 0.14670965700963 
1451	 0.12657812772222 
1452	 5.76684744118071E-02 
1453	 4.03200969427666E-02 
1454	 3.54366044977188E-02 
1455	 2.55143266397194E-02 
1456	 2.46238718981207E-02 
1457	 4.52223911989708E-02 
1458	 0.049823268129391 
1459	 4.11101637768779E-02 
1460	 4.61787380740925E-02 
1461	 6.84068391493784E-02 
1462	 6.99768188027873E-02 
1463	 6.07355368638968E-02 
1464	 5.80906482737793E-02 
1465	 4.32612422990739E-02 
1466	 4.31336665171436E-02 
1467	 6.49883303349047E-02 
1468	 6.87786006846846E-02 
1469	 6.19955513067844E-02 
1470	 6.22827368479806E-02 
1471	 6.06165209745413E-02 
1472	 5.78195045091345E-02 
1473	 5.01556172978411E-02 
1474	 6.07171018205275E-02 
1475	 9.45191542044689E-02 
1476	 8.61324612886593E-02 
1477	 6.15232041760414E-02 
1478	 0.053654231741869 
1479	 2.91116007941877E-02 
1480	 1.79734932608456E-02 
1481	 2.24470273839643E-02 
1482	 2.93647210577808E-02 
1483	 4.03411374737736E-02 
1484	 3.89386915098849E-02 
1485	 3.70593261789241E-02 
1486	 3.90585879966584E-02 
1487	 3.27594348921326E-02 
1488	 3.19041759722616E-02 
1489	 4.07596158032672E-02 
1490	 4.28297752780199E-02 
1491	 3.80158228388796E-02 
1492	 3.95940123511018E-02 
1493	 4.75761857305741E-02 
1494	 4.71393960605345E-02 
1495	 4.23731893085849E-02 
1496	 4.20616745422291E-02 
1497	 4.01545148611232E-02 
1498	 3.87045029700304E-02 
1499	 3.95765451849307E-02 
1500	 4.12442015398983E-02 
1501	 0.044310787052003 
1502	 4.40467239353158E-02 
1503	 0.042678733787915 
1504	 4.27862365314486E-02 
1505	 4.26146061254929E-02 
1506	 0.038929346267977 
1507	 3.82301453153022E-02 
1508	 4.13466165835268E-02 
1509	 4.12663589828196E-02 
1510	 3.94736979004838E-02 
1511	 3.95076634307867E-02 
1512	 3.85817638274299E-02 
1513	 0.036615507720241 
1514	 3.67670157899679E-02 
1515	 3.81214038236779E-02 
1516	 3.94304763823123E-02 
1517	 4.22178840925367E-02 
1518	 4.41920349093547E-02 
1519	 4.29015645319479E-02 
1520	 4.10634390746834E-02 
1521	 4.03596581281486E-02 
1522	 3.94781921793042E-02 
1523	 3.84355836723347E-02 
1524	 3.92915892607518E-02 
1525	 4.07143427042781E-02 
1526	 4.08647788917361E-02 
1527	 4.06035799573675E-02 
1528	 4.09868820359516E-02 
1529	 4.22683544829673E-02 
1530	 4.34017930082941E-02 
1531	 4.47258653014802E-02 
1532	 4.51160507337724E-02 
1533	 0.044821392955364 
1534	 4.42210089682505E-02 
1535	 4.18004073090171E-02 
1536	 0.040264093812349 
1537	 3.96754294072066E-02 
1538	 3.96396424151054E-02 
1539	 4.06332152948316E-02 
1540	 0.040879027290836 
1541	 0.040405812085915 
1542	 4.00363609416428E-02 
1543	 4.06247974219975E-02 
1544	 4.04550677009371E-02 
1545	 3.90749136302549E-02 
1546	 3.89820754610273E-02 
1547	 3.92692379217402E-02 
1548	 0.038485522254728 
1549	 0.038887007532754 
1550	 4.01155135618541E-02 
1551	 3.94252318528611E-02 
1552	 3.97948458889033E-02 
1553	 4.10655889979089E-02 
1554	 0.039989421457241 
1555	 0.039507721934428 
1556	 4.06124518353482E-02 
1557	 4.13490225963763E-02 
1558	 4.10127415660116E-02 
1559	 4.02406297218263E-02 
1560	 4.03205819428996E-02 
1561	 3.98136346781577E-02 
1562	 3.92904894006981E-02 
1563	 4.00828450691424E-02 
1564	 4.03564999232755E-02 
1565	 4.07840383723059E-02 
1566	 0.041623628987501 
1567	 4.11277669027396E-02 
1568	 4.11422905135443E-02 
1569	 0.043091994589921 
1570	 4.32290429797394E-02 
1571	 0.042054695081727 
1572	 4.16948165322319E-02 
1573	 4.01640321042789E-02 
1574	 4.00071088550599E-02 
1575	 4.21813519961698E-02 
1576	 4.29499298920552E-02 
1577	 4.21166684769107E-02 
1578	 4.27985625395462E-02 
1579	 4.36162885791018E-02 
1580	 4.22314543688292E-02 
1581	 4.19972672787824E-02 
1582	 4.31471979506928E-02 
1583	 4.27812713989408E-02 
1584	 4.19464214538007E-02 
1585	 4.21537970988178E-02 
1586	 4.10835049111774E-02 
1587	 3.98140691965183E-02 
1588	 4.04965270651254E-02 
1589	 4.03009383876569E-02 
1590	 0.040782926793434 
1591	 4.11648232825181E-02 
1592	 3.93680114054115E-02 
1593	 4.03542442570174E-02 
1594	 4.15482023505475E-02 
1595	 4.00112817742698E-02 
1596	 4.04566773432701E-02 
1597	 4.17405271405457E-02 
1598	 4.17310895449973E-02 
1599	 4.35612804662291E-02 
1600	 4.55828176221524E-02 
1601	 4.40257876013662E-02 
1602	 4.27978134128795E-02 
1603	 4.35113341198977E-02 
1604	 4.38112005813978E-02 
1605	 0.044112657752045 
1606	 4.40392381565369E-02 
1607	 4.29883569547292E-02 
1608	 4.18671275437356E-02 
1609	 4.11994605225902E-02 
1610	 4.06758849467984E-02 
1611	 4.07056260966382E-02 
1612	 4.16284068073403E-02 
1613	 4.28083953743945E-02 
1614	 4.25171882730555E-02 
1615	 4.10591083010793E-02 
1616	 0.040776103730633 
1617	 0.041650171934592 
1618	 0.043089950157154 
1619	 4.38210409089329E-02 
1620	 4.17686245617074E-02 
1621	 0.040650834319634 
1622	 0.039664324400595 
1623	 0.037404026677174 
1624	 3.91621579007515E-02 
1625	 4.01765758209763E-02 
1626	 0.040349630092755 
1627	 4.22022462439885E-02 
1628	 0.041103056742773 
1629	 3.99414794758614E-02 
1630	 4.08626836118128E-02 
1631	 4.17911306021487E-02 
1632	 0.042011961214883 
1633	 4.25779868974992E-02 
1634	 4.26826838635456E-02 
1635	 4.08003853559331E-02 
1636	 4.11906723774741E-02 
1637	 4.30899704678872E-02 
1638	 0.04187169486066 
1639	 4.13572714718485E-02 
1640	 4.24575572267735E-02 
1641	 4.18065422718552E-02 
1642	 0.040000448026921 
1643	 3.85176004168031E-02 
1644	 3.85929276514012E-02 
1645	 3.81190768497682E-02 
1646	 3.78978441922793E-02 
1647	 4.02787981038994E-02 
1648	 4.06283124109697E-02 
1649	 3.95831778500205E-02 
1650	 3.96961179548245E-02 
1651	 3.92603926191566E-02 
1652	 3.99669452087178E-02 
1653	 4.20255033971815E-02 
1654	 4.28369891905796E-02 
1655	 4.35869233624074E-02 
1656	 4.37597260292304E-02 
1657	 4.29809697038967E-02 
1658	 4.28222666454374E-02 
1659	 4.31883760394435E-02 
1660	 4.29681280983385E-02 
1661	 4.21318144383865E-02 
1662	 4.12716702847215E-02 
1663	 4.03979497131966E-02 
1664	 4.02837129629595E-02 
1665	 0.040053868711707 
1666	 4.00964136619379E-02 
1667	 4.12640304138425E-02 
1668	 4.08041315943622E-02 
1669	 3.97292060538534E-02 
1670	 4.01617920817278E-02 
1671	 4.06792062693138E-02 
1672	 4.04704088702144E-02 
1673	 3.91004887951217E-02 
1674	 3.77281726167534E-02 
1675	 3.78676082588856E-02 
1676	 3.80102393934289E-02 
1677	 3.94388543612451E-02 
1678	 4.16471265289432E-02 
1679	 4.08388960695526E-02 
1680	 3.89079131541949E-02 
1681	 0.039277222895348 
1682	 4.04766778609656E-02 
1683	 4.11384159820374E-02 
1684	 4.23556472198312E-02 
1685	 4.29022041014442E-02 
1686	 4.22572155169642E-02 
1687	 4.30582205996438E-02 
1688	 4.31624558036835E-02 
1689	 4.17370385517221E-02 
1690	 4.21932549228148E-02 
1691	 4.21349319908165E-02 
1692	 4.14754601166434E-02 
1693	 4.25667947606845E-02 
1694	 4.20542292461728E-02 
1695	 4.08964554867668E-02 
1696	 4.22370456539418E-02 
1697	 4.31167362056708E-02 
1698	 4.27891393862828E-02 
1699	 4.19947148779742E-02 
1700	 4.14014716519305E-02 
1701	 4.19328920832611E-02 
1702	 4.22804293649488E-02 
1703	 4.25051324691875E-02 
1704	 4.15210001243499E-02 
1705	 4.03498606450014E-02 
1706	 4.10419874761562E-02 
1707	 4.15364977320666E-02 
1708	 4.28177188434491E-02 
1709	 4.38997373466483E-02 
1710	 4.31084940175002E-02 
1711	 4.32089373402454E-02 
1712	 4.17604659216003E-02 
1713	 4.05704368291013E-02 
1714	 4.07008100267663E-02 
1715	 4.14001288452586E-02 
1716	 4.06316104279276E-02 
1717	 4.08143395013281E-02 
1718	 4.05794015980319E-02 
1719	 4.04250234489963E-02 
1720	 4.13323811075559E-02 
1721	 4.15971784981213E-02 
1722	 4.32267782143323E-02 
1723	 4.48368673683672E-02 
1724	 4.37480717714501E-02 
1725	 4.27007997347095E-02 
1726	 4.15195067911925E-02 
1727	 4.06676373537612E-02 
1728	 4.39214864481057E-02 
1729	 4.74212424036892E-02 
1730	 0.046291002964298 
1731	 4.44459364086177E-02 
1732	 4.31535829249151E-02 
1733	 4.15689809422141E-02 
1734	 4.30910560781654E-02 
1735	 0.043688416002383 
1736	 4.16130042197836E-02 
1737	 0.04152893959089 
1738	 4.03639451336531E-02 
1739	 3.75990514392337E-02 
1740	 3.76404834325847E-02 
1741	 3.91623427264615E-02 
1742	 3.97905522140664E-02 
1743	 4.32122541481473E-02 
1744	 0.043038022015379 
1745	 3.71617375187182E-02 
1746	 3.86302563238536E-02 
1747	 0.038463965820574 
1748	 4.12801440702717E-02 
1749	 4.30753420052853E-02 
1750	 4.09789351232389E-02 
1751	 4.05096845777662E-02 
1752	 4.26349786750071E-02 
1753	 4.20076095106217E-02 
1754	 3.83377909396067E-02 
1755	 3.87335514320828E-02 
1756	 4.14991464295749E-02 
1757	 4.16407019635613E-02 
1758	 4.39502041487268E-02 
1759	 4.41232664113261E-02 
1760	 3.89453179603437E-02 
1761	 3.74076359542878E-02 
1762	 3.74254470222261E-02 
1763	 0.038637054822948 
1764	 0.040612795022169 
1765	 4.08140778696759E-02 
1766	 4.10057087280261E-02 
1767	 3.82666051259535E-02 
1768	 4.41854446266825E-02 
1769	 4.94549499119963E-02 
1770	 4.17616048182489E-02 
1771	 0.038259634101147 
1772	 3.16689505179607E-02 
1773	 2.24159654703894E-02 
1774	 2.46789509855187E-02 
1775	 3.23121768349657E-02 
1776	 3.48663886434021E-02 
1777	 4.26193212237882E-02 
1778	 4.64263429615822E-02 
1779	 3.96843749924435E-02 
1780	 3.66337637401336E-02 
1781	 3.59755107419033E-02 
1782	 3.72303401832699E-02 
1783	 3.99126935561708E-02 
1784	 4.42147961718324E-02 
1785	 5.21257423439789E-02 
1786	 5.11091836103113E-02 
1787	 4.48416521214571E-02 
1788	 5.11351621800002E-02 
1789	 6.16072423097183E-02 
1790	 7.82768181597081E-02 
1791	 7.59226280361837E-02 
1792	 3.49371167240863E-02 
1793	 6.06365122173248E-03 
1794	 3.76532384111077E-02 
1795	 7.02013338692805E-02 
1796	 9.16821480530059E-02 
1797	 0.11955804005018 
1798	 6.18009143822995E-02 
1799	-1.63362934594624E-02 
1800	 1.68323034376707E-02 
1801	 3.56920237837395E-02 
1802	 0.102485086548949 
1803	 0.153764505543911 
1804	 0.197381493261925 
1805	 0.259391481575279 
1806	 0.298673747287 
1807	 0.367362389926609 
1808	 0.516986699505931 
1809	 0.559355783054206 
1810	 0.471601388632878 
1811	 0.356135000113678 
1812	-0.012286032272702 
1813	 4.72636013569514E-02 
1814	 0.518481607508845 
1815	 0.708829620746891 
1816	 0.91060873062438 
1817	 0.753732534447927 
1818	 0.731086208215145 
1819	 1.01502694098199 
1820	 2.81699645113723 
1821	-2.09807650548835 
1822	-1.48464494489397 
1823	 0.633124028362405 
1824	-0.190349043168445 
1825	-0.117764144373637 
1826	 9.32782458574332E-04 
1827	 1.95090941324787 
1828	 2.30321778829449 
1829	 0.22820698299212 
1830	-6.23749756368838E-02 
1831	 1.54975378706479 
1832	 1.16813438037031 
1833	 0.281304505026772 
1834	 0.172887426960375 
1835	-3.26352795323916 
1836	 2.94294581335121 
1837	-0.503140082638073 
1838	-0.702300895156166 
1839	-0.566195287540368 
1840	-0.604727918086225 
1841	-0.729702415739787 
1842	-0.683545055346464 
1843	-0.709478474083149 
1844	-1.03717080861016 
1845	-0.816945027452811 
1846	-6.02933378411827E-02 
1847	-2.70887555966897E-02 
1848	-0.311100894065147 
1849	-31.8163063717167 
1850	 0.770769890640629 
1851	 0.589314495830494 
1852	 0.361460106071485 
1853	 5.75316092858986E-03 
1854	-0.661473817451973 
1855	 3.63026272138394 
1856	 3.67181146333456 
1857	-0.15891442588631 
1858	 8.80687289485761E-02 
1859	 6.45657929119457E-02 
1860	 0.174983607819976 
1861	-0.13108072910258 
1862	-0.529315059979564 
1863	-0.595688878689748 
1864	-0.32578508185909 
1865	-3.83733311100184E-02 
1866	 0.901748941255147 
1867	 2.7871353090838 
1868	 1.63543164326794 
1869	 1.30627403664782 
1870	 2.42369938980581 
1871	 2.05284593913627 
1872	 6.71935579479328E-02 
1873	 0.163157395785807 
1874	 0.151051364359935 
1875	 0.340415198567529 
1876	 0.280303424826433 
1877	 0.227056424586875 
1878	 9.89534037243504E-02 
1879	-1.32703047729329 
1880	-1.46946504238795 
1881	-0.958766174233489 
1882	 1.82902146564142 
1883	 1.81938228611369 
1884	-3.50891168502457 
1885	 0.342148645679204 
1886	 1.55482249531644 
1887	 6.83063472674689 
1888	-1.68528894808762 
1889	-1.72087786321999 
1890	-3.23094882369677 
1891	-5.45601121786123 
1892	 1.85038827523119 
1893	 1.22193186703639 
1894	 1.06729612731308 
1895	 0.594776205214685 
1896	 38.7583574199793 
1897	-5.06256354170242 
1898	-1.4014120387181 
1899	-0.758208845113778 
1900	-0.7548860515794 
1901	-1.08266771620407 
1902	-1.02912196834421 
1903	-1.63504101118209 
1904	-1.63505414982358 
1905	-0.765448734970037 
1906	-2.87551842665368 
1907	-3.70925807607217 
1908	-1.29784066485879 
1909	-1.53632233435385 
1910	-1.7536988716411 
1911	-1.60836776663784 
1912	 5.64297888309774 
1913	 2.12916671128229 
1914	 18.5997537813543 
1915	-55.7903436482288 
1916	-69.9112757312447 
1917	 14.4441622288113 
1918	-11.5858965926975 
1919	 41.7712143697294 
1920	 9.47309770064091 
1921	-6.95551747723916 
1922	-9.35328815641486 
1923	 2.14035270951444 
1924	 0.170387252639984 
1925	 0.737368654233152 
1926	 2.23540619571953 
1927	-3.18168833312991 
1928	 7.39671000329189 
1929	-3.05049922729745 
1930	-0.65670384199454 
1931	-2.96052278398055 
1932	-0.401226019465787 
1933	-0.372766583814738 
1934	-0.277802562656834 
1935	-0.273443841026362 
1936	-0.147727810863553 
1937	 0.225555894984134 
1938	 0.406129232132816 
1939	 0.574321232314575 
1940	 0.708476676263383 
1941	 1.14878033636479 
1942	 1.69120629437188 
1943	 0.883136855925433 
1944	 1.08884632337649 
1945	 0.663444033864139 
1946	 0.391820198390157 
1947	 3.15797905632402E-02 
1948	-1.08621582443059 
1949	-2.78825700837344 
1950	 21.7228615043015 
1951	-13.0519189380274 
1952	-3.35245592901871 
1953	 3.01648589419695E-02 
1954	 0.557742392613946 
1955	 0.824244588158465 
1956	 1.13278097430232 
1957	 1.09223807711392 
1958	 0.750192058734951 
1959	 0.418396943540664 
1960	 0.260342170022547 
1961	 0.155195050168608 
1962	 6.20584292604209E-02 
1963	 7.35637012799065E-02 
1964	 0.048435839889991 
1965	 3.41485963310084E-02 
1966	 1.87450117128796E-02 
1967	 2.92880759079305E-03 
1968	-2.40426883681689E-02 
1969	-3.92008357394092E-02 
1970	-3.36610149815408E-02 
1971	-1.60822665876668E-02 
1972	-1.16610833886567E-02 
1973	 2.21994575824208E-02 
1974	 4.90705696451997E-02 
1975	 7.09942791367489E-02 
1976	 8.62295025576332E-02 
1977	 8.95825351962777E-02 
1978	 7.81994435303361E-02 
1979	 6.88671415639733E-02 
1980	 5.27144638352104E-02 
1981	 5.59143596961151E-02 
1982	 3.72296947217961E-02 
1983	 0.036142225124652 
1984	 4.22914760460657E-02 
1985	 1.84894457587084E-02 
1986	 1.88406393279449E-02 
1987	 1.33226173547421E-02 
1988	 6.63802649419868E-03 
1989	 3.74266472718786E-02 
1990	 5.99166326321911E-02 
1991	 6.94552019428362E-02 
1992	 7.75641396145505E-02 
1993	 5.67472357222958E-02 
1994	 4.47585305768381E-02 
1995	 2.13999859730139E-02 
1996	 1.96422787124483E-02 
1997	 2.03753301559061E-02 
1998	 2.31859594072603E-02 
1999	-9.08526552209091E-03 
2000	-5.51577897833318E-02 
2001	-8.70118039374192E-02 
2002	-9.57344672158307E-02 
2003	-6.69372911330657E-02 
2004	-5.26143473702498E-02 
2005	-5.98729538890369E-02 
2006	-5.00060067967325E-02 
2007	-5.49396960860087E-02 
2008	-6.68539159020176E-02 
2009	-6.98587422401775E-02 
2010	-9.56902886616623E-02 
2011	-8.82967049953474E-02 
2012	-5.75516287412032E-02 
2013	-0.030653301008125 
2014	-1.65090872262406E-02 
2015	-2.96584110988537E-03 
2016	-2.26788736602106E-02 
2017	-2.50712030351601E-02 
2018	 1.07061257148984E-02 
2019	 0.039701183618416 
2020	 4.17943398951389E-02 
2021	 4.67032860946525E-02 
2022	 4.15005814199602E-02 
2023	 0.033557713644645 
2024	 3.13059931850756E-02 
2025	 2.89461191385556E-02 
2026	 3.21919422720913E-02 
2027	 4.32316542288361E-02 
2028	 4.28322688151628E-02 
2029	 3.81128592699629E-02 
2030	 4.74765198870062E-02 
2031	 4.23008461767865E-02 
2032	 3.28290020749084E-02 
2033	 4.01637109294903E-02 
2034	 3.80665248654118E-02 
2035	 3.36372964539673E-02 
2036	 3.97780268977819E-02 
2037	 3.56134100990266E-02 
2038	 3.32485970867635E-02 
2039	 3.59919513343748E-02 
2040	 4.69772754497482E-02 
2041	 4.64289144060707E-02 
2042	 4.45900461670082E-02 
2043	 4.12845166040506E-02 
2044	 2.84443205929572E-02 
2045	 2.22625928376461E-02 
2046	 2.40342460906356E-02 
2047	 2.34141813965413E-02 
2048	 2.13826574330921E-02 
2049	 1.76215081115055E-02 
2050	 1.45402628071755E-02 
2051	 1.02274382631899E-02 
2052	 1.41139131792918E-02 
2053	 0.024822934919027 
2054	 3.45073090628032E-02 
2055	 4.99054625069664E-02 
2056	 5.25355096179113E-02 
2057	 3.96620529524174E-02 
2058	 3.72063963949232E-02 
2059	 3.01452906730036E-02 
2060	 0.028419591256689 
2061	 3.08807206768678E-02 
2062	 4.32561296794366E-02 
2063	 5.10571682790789E-02 
2064	 5.97664029747855E-02 
2065	 6.86950159275476E-02 
2066	 7.23566896392787E-02 
2067	 7.02522037391255E-02 
2068	 5.96136056158943E-02 
2069	 6.40434541445455E-02 
2070	 7.84124993937681E-02 
2071	 8.83108487017451E-02 
2072	 0.102604446920526 
2073	 0.104743623391904 
2074	 9.46185759612835E-02 
2075	 8.59789469418647E-02 
2076	 7.26074028051465E-02 
2077	 6.10700098568954E-02 
2078	 4.55616753759457E-02 
2079	 4.00907091484156E-02 
2080	 3.79817169022425E-02 
2081	 3.96036795189538E-02 
2082	 4.42576249997882E-02 
2083	 3.97779785084977E-02 
2084	 3.31002316267345E-02 
2085	 2.77194140823145E-02 
2086	 2.55873869617403E-02 
2087	 2.69003156382693E-02 
2088	 3.49637917333296E-02 
2089	 0.040182396029656 
2090	 4.03309307733003E-02 
2091	 4.50112959880624E-02 
2092	 4.69750318026781E-02 
2093	 4.55291429973362E-02 
2094	 4.53405365706783E-02 
2095	 4.45633762177528E-02 
2096	 4.55581071875075E-02 
2097	 4.43344969731385E-02 
2098	 4.70418910483002E-02 
2099	 5.44296369121551E-02 
2100	 6.14430859158785E-02 
2101	 6.66869472257039E-02 
2102	 0.070113982387728 
2103	 6.84764947121412E-02 
2104	 0.066984689214672 
2105	 6.48802700670252E-02 
2106	 6.20014287972417E-02 
2107	 6.08403792805975E-02 
2108	 5.96370201603123E-02 
2109	 5.62612770479634E-02 
2110	 4.73857811803796E-02 
2111	 4.35281719997357E-02 
2112	 0.042917795251106 
2113	 4.00600079554886E-02 
2114	 3.96670182542764E-02 
2115	 3.96806950437662E-02 
2116	 3.61417517489899E-02 
2117	 3.40135079153491E-02 
2118	 3.11500228213018E-02 
2119	 0.036782187029538 
2120	 4.83714809012461E-02 
2121	 5.74299576390684E-02 
2122	 6.50555962786967E-02 
2123	 6.61579855111276E-02 
2124	 5.90444887580969E-02 
2125	 4.82816516138325E-02 
2126	 4.95779898676879E-02 
2127	 4.41919116964612E-02 
2128	 3.09994094612392E-02 
2129	 3.53037118489598E-02 
2130	 3.48786441320325E-02 
2131	 3.86406113456208E-02 
2132	 5.01975481216934E-02 
2133	 5.85486458967825E-02 
2134	 6.14144336239779E-02 
2135	 5.94152822466202E-02 
2136	 5.69371574638642E-02 
2137	 4.78261011602737E-02 
2138	 4.53347577400437E-02 
2139	 4.73636056374435E-02 
2140	 4.67045076659241E-02 
2141	 5.03879399778629E-02 
2142	 4.79305692195653E-02 
2143	 0.039207460978817 
2144	 3.00302302483499E-02 
2145	 2.92874728908463E-02 
2146	 2.82433683673468E-02 
2147	 2.57395236331758E-02 
2148	 0.034460013988915 
2149	 3.92131599202341E-02 
2150	 3.08727072607698E-02 
2151	 3.12837354238839E-02 
2152	 3.49562483244176E-02 
2153	 3.51679017622392E-02 
2154	 3.15281562726601E-02 
2155	 2.58468127391606E-02 
2156	 2.02612372721153E-02 
2157	 0.01805530273652 
2158	 1.91519988062275E-02 
2159	 1.99151902227557E-02 
2160	 2.39859807182944E-02 
2161	 2.48335896674673E-02 
2162	 2.42243311667792E-02 
2163	 2.19621501035781E-02 
2164	 1.56963031869137E-02 
2165	 1.20275441760197E-02 
2166	 7.46282790064772E-03 
2167	 6.83590254206582E-03 
2168	 1.01141864941034E-02 
2169	 1.61233458775791E-02 
2170	 2.85789280615409E-02 
2171	 3.31818931753091E-02 
2172	 3.42939826165776E-02 
2173	 2.61588306656265E-02 
2174	 1.21500677486467E-02 
2175	 7.33559496241665E-03 
2176	 1.30776122028093E-02 
2177	 1.50358893733662E-02 
2178	 2.66551003521776E-02 
2179	 3.57764868361635E-02 
2180	 0.0275551326581 
2181	 2.39481902348972E-02 
2182	 1.47129838122394E-02 
2183	 1.32594194760551E-03 
2184	-1.23043361498868E-03 
2185	 4.88064662388204E-03 
2186	 8.8334230913172E-03 
2187	 0.013593548875909 
2188	 1.86103762841304E-02 
2189	 2.86859294691252E-02 
2190	 3.18140597844367E-02 
2191	 2.87517318606847E-02 
2192	 3.31959418078649E-02 
2193	 3.91284710370406E-02 
2194	 4.09599155002066E-02 
2195	 4.87163280419929E-02 
2196	 5.20367016753654E-02 
2197	 4.80814587504269E-02 
2198	 4.49551262042878E-02 
2199	 4.30447191559871E-02 
2200	 3.49070096354173E-02 
2201	 2.85877919321258E-02 
2202	 2.41575966477692E-02 
2203	 1.40281089163808E-02 
2204	 3.80972765589791E-03 
2205	-2.92894513306454E-03 
2206	-9.91451967736665E-03 
2207	-1.19403001149798E-02 
2208	 2.34586585677806E-03 
2209	 2.41670543784403E-02 
2210	 2.76558422171345E-02 
2211	 3.23670284835933E-02 
2212	 4.48039416528245E-02 
2213	 4.06657796668238E-02 
2214	 3.35465231027091E-02 
2215	 3.30328184226967E-02 
2216	 2.79742622973339E-02 
2217	 2.39620798343893E-02 
2218	 1.93301647145767E-02 
2219	 2.17924610303323E-02 
2220	 2.58227674170181E-02 
2221	 2.95498684036599E-02 
2222	 4.28220064009815E-02 
2223	 4.69965984578434E-02 
2224	 4.53923764785012E-02 
2225	 4.35474395547884E-02 
2226	 0.036073891350213 
2227	 3.60205579125254E-02 
2228	 3.69339416652463E-02 
2229	 4.03536384858631E-02 
2230	 4.95720701883772E-02 
2231	 5.54448676225087E-02 
2232	 6.85054334696019E-02 
2233	 6.91262316779372E-02 
2234	 6.46844021074104E-02 
2235	 5.07767904444107E-02 
2236	 3.77891106131279E-02 
2237	 0.02784770357179 
2238	 3.41156720176115E-02 
2239	 5.23159542270645E-02 
2240	 6.02195234436831E-02 
2241	 5.73041099827483E-02 
2242	 4.33729184650308E-02 
2243	 2.72146664511355E-02 
2244	 1.86451539647701E-02 
2245	 1.95261079578337E-02 
2246	 0.045772917382282 
2247	 5.63893257806832E-02 
2248	 5.37535860214177E-02 
2249	 6.53679961495701E-02 
2250	 5.25099495373654E-02 
2251	 3.62256684519445E-02 
2252	 0.027427938799816 
2253	 6.54492648040745E-03 
2254	-1.24294279334268E-03 
2255	 5.53455028038591E-03 
2256	 1.34228230433669E-02 
2257	 1.80698437049497E-02 
2258	 1.62738593005567E-02 
2259	 1.67652027551016E-02 
2260	 1.14808396665764E-02 
2261	-2.40369054261199E-03 
2262	-3.47830945596039E-04 
2263	 5.57387543777289E-04 
2264	 5.49962357813429E-03 
2265	 3.79459419357484E-02 
2266	 3.88399274775368E-02 
2267	 1.46132058834673E-02 
2268	 1.51857644732178E-02 
2269	 1.15465901719564E-02 
2270	 0.012734183878012 
2271	 0.039056036515614 
2272	 4.42171114019931E-02 
2273	 2.43908850185096E-02 
2274	 2.59733074628854E-02 
2275	 4.86682453664112E-02 
2276	 4.39211915039288E-02 
2277	 2.87808306799078E-02 
2278	 2.13741523332485E-02 
2279	-2.04077298768072E-02 
2280	-2.19177885091471E-02 
2281	 0.012322292179539 
2282	 4.43961666863017E-02 
2283	 6.49866953529414E-02 
2284	 8.23800270858269E-02 
2285	 6.92345874430669E-02 
2286	 4.54138103572247E-02 
2287	 3.45051205573753E-02 
2288	 2.94352811164878E-02 
2289	 0.022145806701353 
2290	 3.57561415369489E-02 
2291	 5.80684626759857E-02 
2292	 6.16202010946097E-02 
2293	 0.077692136743414 
2294	 8.12211480234702E-02 
2295	 5.71262098376803E-02 
2296	 5.13499709017411E-02 
2297	 5.77217088764797E-02 
2298	 6.41113803718755E-02 
2299	 7.11851194071028E-02 
2300	 8.61308830041549E-02 
2301	 9.48501784114592E-02 
2302	 7.53673750003372E-02 
2303	 5.49028810783854E-02 
2304	 5.11868101826816E-02 
2305	 4.72620970822667E-02 
2306	 5.22244667535686E-02 
2307	 6.98381615514351E-02 
2308	 7.36713390342921E-02 
2309	 7.01621924707857E-02 
2310	 5.06805197592248E-02 
2311	 3.77993856780857E-02 
2312	 4.51345333516912E-02 
2313	-1.05061801953015E-03 
2314	-6.33960454436886E-02 
2315	-5.05816905735772E-02 
2316	-2.23904264688862E-02 
2317	 3.15098223281166E-02 
2318	 0.111592469888467 
2319	 0.118845930847319 
2320	 8.58482910156194E-02 
2321	 8.12098779723503E-02 
2322	 0.103316662752251 
2323	 0.110228869049963 
2324	 0.104364165834585 
2325	 9.36101744678659E-02 
2326	 0.080414949303329 
2327	 5.91219630375759E-02 
2328	 4.13576154308452E-02 
2329	 0.026919421415431 
2330	-2.96174351898767E-02 
2331	-6.74825481585249E-02 
2332	-5.40776570264699E-02 
2333	-4.09855148187766E-02 
2334	 3.74550300174478E-03 
2335	 5.42803754886134E-02 
2336	 0.114500033152356 
2337	 0.18484933061768 
2338	 0.222297534745739 
2339	 0.193182412869512 
2340	 0.114270229173728 
2341	 7.28950810254725E-02 
2342	 3.35394548313702E-02 
2343	 1.93583822620101E-02 
2344	 5.44094080303687E-02 
2345	 2.61558748920741E-02 
2346	-0.022093199641809 
2347	-9.50654270162939E-02 
2348	-0.185645425583382 
2349	-0.176603674706063 
2350	-0.191931223353897 
2351	-0.190521850442367 
2352	-9.67269564229253E-02 
2353	-0.14834127859401 
2354	-0.207469707393484 
2355	-0.236130805117271 
2356	-0.192510676558624 
2357	-5.85185395449564E-02 
2358	 5.95977748882472E-02 
2359	 0.207658570514633 
2360	 0.198988122779053 
2361	 0.162514145447891 
2362	 0.102291190673716 
2363	-4.79578590705673E-02 
2364	-2.46553250566796E-02 
2365	-6.88378918724697E-02 
2366	-4.17474701455866E-02 
2367	 0.16688275133628 
2368	 6.39801655757869E-02 
2369	 4.60064963905806E-02 
2370	-0.027089898535431 
2371	-0.870720626722628 
2372	-1.20102235571898 
2373	-1.77240976248613 
2374	-1.390923134123 
2375	-1.7367889065716 
2376	-2.25762488000547 
2377	-1.40155122967144 
2378	-0.799320943164845 
2379	-0.471420067117263 
2380	 0.103714500009338 
2381	-8.71278945816443E-02 
2382	-4.62514811205726E-02 
2383	 8.63745822895444E-02 
2384	 6.17495540336478E-02 
2385	 0.306528797738773 
2386	 0.368948740730419 
2387	 0.287070006614352 
2388	 0.537963059597326 
2389	 0.165589377002154 
2390	-2.61184175631062E-02 
2391	-5.77040581394412E-03 
2392	-0.138246687670639 
2393	-0.201200132591853 
2394	-4.55663343510604E-02 
2395	-2.79853952605225E-03 
2396	-6.37894082140313E-02 
2397	-0.20653362045114 
2398	-0.422659098164531 
2399	-0.539717503075281 
2400	-0.315290263992453 
2401	-7.03373299644703E-02 
2402	 3.35226252157585E-03 
2403	-6.34663905543795E-02 
2404	-1.79218132896346E-02 
2405	 0.441656352474673 
2406	 0.811195545086205 
2407	 0.849663075412761 
2408	 0.401119080231728 
2409	-8.03765709255602E-02 
2410	-0.696134096806884 
2411	-0.386578091518404 
2412	-0.253430299294524 
2413	-0.409163612377767 
2414	-5.94470167961144E-02 
2415	-0.135511552889589 
2416	-0.402079588002537 
2417	-0.750350612309915 
2418	-3.54716246112917 
2419	-5.1111232278533 
2420	-8.94654222952266 
2421	-5.63075812854605 
2422	-1.57964336251823 
2423	-0.681112230206256 
2424	-0.431535700151388 
2425	 0.407189028158129 
2426	 1.55232793426114 
2427	-0.180188374468071 
2428	-8.87159736742216E-02 
2429	 0.170803221547187 
2430	 0.299335215735633 
2431	 0.232658902358545 
2432	 0.142324987671416 
2433	 0.156972119334685 
2434	 0.298946933468797 
2435	 0.466613499635007 
2436	 1.62526223472406 
2437	-2.80206734268998 
2438	 7.10806561701472 
2439	 2.00580514581679 
2440	 1.0830815019629 
2441	 1.94951355770067 
2442	 2.54433504371203 
2443	 5.22405058045482 
2444	-9.56262599847519 
2445	-5.09038097350982 
2446	-2.63089792001658 
2447	-1.44570753204764 
2448	-1.57907287579777 
2449	-5.97792532948793 
2450	 2.36411379279181 
2451	-0.29774613322346 
2452	 0.205794802823133 
2453	-0.636943348081661 
2454	-5.2397887654771 
2455	 45.8215388419058 
2456	 1.300089774427 
2457	 4.80986388106928 
2458	 1.84669820043636 
2459	-0.648337617577544 
2460	-3.02545415955094 
2461	 23.3697490142573 
2462	-2.13205227923344 
2463	-0.834544381976655 
2464	 0.587497810409223 
2465	 9.25571982686254E-02 
2466	-3.17037135453338 
2467	 0.883854814683778 
2468	 0.673081846182287 
2469	 0.997553434942986 
2470	 2.19309180060688 
2471	-2.04128317438662 
2472	-1.2495051451812 
2473	-9.95774361837642 
2474	-23.4276666367236 
2475	-4.67353342957171 
2476	-6.46821590525725 
2477	-2.19566898483369 
2478	-0.324409096229242 
2479	 0.353855003877212 
2480	 0.343805345858436 
2481	 0.290707099396443 
2482	-6.16822622572087 
2483	-8.13969339693265 
2484	 1.84093602195468 
2485	 0.199381586686647 
2486	 0.399990932198616 
2487	-2.10035398572192E-03 
2488	-0.105880154154493 
2489	 0.136775940536473 
2490	-0.251226800462331 
2491	-0.10379831190644 
2492	 0.157380852435352 
2493	 0.255078658040197 
2494	 0.369543900096082 
2495	 0.538535745157366 
2496	-0.213125903629531 
2497	-2.74191047402809 
2498	-0.416548433378163 
2499	 5.58767815115561 
2500	 6.66925881545679 
