Wavelength	rt0629clean00001.asd
350	 4.51314722151455E-02 
351	 4.57931507254796E-02 
352	 4.60298941857452E-02 
353	 4.60438327369066E-02 
354	 4.58916382421498E-02 
355	 4.46494556030581E-02 
356	 4.50787447903257E-02 
357	 4.57984182984634E-02 
358	 4.49903155405054E-02 
359	 4.47665659037684E-02 
360	 0.04510150012129 
361	 4.56511596701907E-02 
362	 4.58917782167399E-02 
363	 4.52492290758657E-02 
364	 0.045005049969868 
365	 0.045508375962221 
366	 4.54045010828712E-02 
367	 4.55352603770517E-02 
368	 4.57625418675595E-02 
369	 4.58110885967375E-02 
370	 0.045783193705548 
371	 4.60486816651395E-02 
372	 4.62000080465736E-02 
373	 4.55549493966748E-02 
374	 4.51493795249387E-02 
375	 4.54634712307955E-02 
376	 4.60951259699661E-02 
377	 4.56238808309936E-02 
378	 4.57710091583868E-02 
379	 4.62873302718201E-02 
380	 4.66180212543619E-02 
381	 4.68047954406611E-02 
382	 4.70396885784068E-02 
383	 4.71297225811351E-02 
384	 4.68576029995589E-02 
385	 4.71569155989905E-02 
386	 4.74456707798618E-02 
387	 4.73943138549835E-02 
388	 0.047123988483598 
389	 4.73771380887642E-02 
390	 4.76993340670532E-02 
391	 4.77088335750322E-02 
392	 4.77880526825653E-02 
393	 4.78946227235947E-02 
394	 4.80561440427583E-02 
395	 0.048265159411417 
396	 0.04825004024693 
397	 0.048271681676726 
398	 4.83099061262169E-02 
399	 4.81153190891904E-02 
400	 4.83350931749696E-02 
401	 4.84814209986254E-02 
402	 4.82997209168867E-02 
403	 4.84288939290806E-02 
404	 4.84965044439333E-02 
405	 4.84780263560805E-02 
406	 4.84948095293952E-02 
407	 4.87388423116605E-02 
408	 4.89751119171579E-02 
409	 4.90318601279079E-02 
410	 4.88583929335902E-02 
411	 4.91124453310045E-02 
412	 4.94364662714583E-02 
413	 4.95117073278867E-02 
414	 4.95547833343027E-02 
415	 4.96069985295467E-02 
416	 4.97054816841499E-02 
417	 4.98656924739322E-02 
418	 5.00493123453254E-02 
419	 5.01464889336928E-02 
420	 0.050231306176674 
421	 5.05609379088462E-02 
422	 5.07985807025265E-02 
423	 5.09777861958637E-02 
424	 5.11748640257678E-02 
425	 5.13583479469657E-02 
426	 5.15273230786166E-02 
427	 5.17655706005799E-02 
428	 5.21443345816204E-02 
429	 5.23628865609238E-02 
430	 5.25977971871606E-02 
431	 5.28940508264316E-02 
432	 5.30942708328361E-02 
433	 5.32943547352222E-02 
434	 5.35844933665089E-02 
435	 5.39678090926816E-02 
436	 5.42137132861139E-02 
437	 5.44130868491687E-02 
438	 5.46244334883637E-02 
439	 5.48918235121065E-02 
440	 5.53142740621979E-02 
441	 5.56222609695683E-02 
442	 5.57449712139734E-02 
443	 5.59513226083527E-02 
444	 5.61487550635788E-02 
445	 5.63980617690134E-02 
446	 5.67284356666045E-02 
447	 5.69224639861671E-02 
448	 0.057042265007879 
449	 5.72089424766272E-02 
450	 5.75440565925913E-02 
451	 5.76514430068351E-02 
452	 5.77645530215927E-02 
453	 5.80337687368686E-02 
454	 5.82603899721677E-02 
455	 5.84182042369665E-02 
456	 0.058539172381679 
457	 5.86823524148164E-02 
458	 5.88854045633727E-02 
459	 5.90108489874142E-02 
460	 5.90823725912154E-02 
461	 5.92793904312745E-02 
462	 5.93527440009976E-02 
463	 5.94775993827795E-02 
464	 5.97421959193775E-02 
465	 5.97587173405196E-02 
466	 5.98171699947873E-02 
467	 0.059973291613715 
468	 6.01535060589956E-02 
469	 6.02336681926633E-02 
470	 6.03870688322974E-02 
471	 6.06156598022131E-02 
472	 6.06597367545811E-02 
473	 6.08355417596231E-02 
474	 6.10386955011158E-02 
475	 6.11488773720699E-02 
476	 6.14011379308342E-02 
477	 6.16177105792012E-02 
478	 6.17266032107898E-02 
479	 6.17575501725595E-02 
480	 6.19380793463332E-02 
481	 6.22269952111111E-02 
482	 6.25089282466173E-02 
483	 6.25831369804145E-02 
484	 6.28214554103754E-02 
485	 6.31082443096886E-02 
486	 0.06321760038784 
487	 6.33689464802734E-02 
488	 6.36722852035743E-02 
489	 6.40337000677269E-02 
490	 6.41934837601477E-02 
491	 6.44324003018255E-02 
492	 6.47568436341796E-02 
493	 6.51002507778334E-02 
494	 6.53578753246925E-02 
495	 6.56005603998241E-02 
496	 6.58466741866851E-02 
497	 0.066103334956593 
498	 6.65028305363657E-02 
499	 6.68711891602743E-02 
500	 6.71444657598833E-02 
501	 6.74758436014788E-02 
502	 6.77199403159841E-02 
503	 6.79686467579716E-02 
504	 6.83252255040819E-02 
505	 6.86676856299585E-02 
506	 6.89417201724916E-02 
507	 6.92082405749279E-02 
508	 6.96041871867429E-02 
509	 7.00073548309178E-02 
510	 7.03241170123555E-02 
511	 7.05736521812318E-02 
512	 7.10365964736041E-02 
513	 7.14132287431182E-02 
514	 7.17459658336397E-02 
515	 7.21962179585282E-02 
516	 0.072660598779549 
517	 7.30540228188892E-02 
518	 7.34083983812245E-02 
519	 7.38931164282323E-02 
520	 7.43026578362253E-02 
521	 7.46658350157881E-02 
522	 7.50615079820964E-02 
523	 7.55351769453015E-02 
524	 7.60074131440295E-02 
525	 0.076446699780951 
526	 7.68635198970151E-02 
527	 7.72876816120085E-02 
528	 7.77103345822811E-02 
529	 7.81315654892838E-02 
530	 7.85812752109025E-02 
531	 0.079078509876047 
532	 7.95870966981904E-02 
533	 8.00497323309034E-02 
534	 8.04395732339356E-02 
535	 8.08563812828248E-02 
536	 8.13290543228071E-02 
537	 8.17963240541752E-02 
538	 8.22916888652496E-02 
539	 8.28440030279064E-02 
540	 8.34273388108028E-02 
541	 0.083837112450715 
542	 8.43076564818688E-02 
543	 0.084854388958832 
544	 8.53573108672504E-02 
545	 8.58186971567591E-02 
546	 8.62873143354692E-02 
547	 8.67936366920272E-02 
548	 8.73247757288981E-02 
549	 8.78626832192455E-02 
550	 8.83678176417394E-02 
551	 8.88131624421858E-02 
552	 0.089258516162862 
553	 8.97688023984232E-02 
554	 9.03098851819196E-02 
555	 9.07396082136735E-02 
556	 9.12478315770407E-02 
557	 9.17622026509464E-02 
558	 9.21960239726502E-02 
559	 0.092647064736639 
560	 9.30841889720267E-02 
561	 9.35179970402903E-02 
562	 0.093978442653334 
563	 9.43862691022947E-02 
564	 9.47986433564088E-02 
565	 9.52224146628002E-02 
566	 9.55278783420279E-02 
567	 9.58702382083511E-02 
568	 9.62459454892919E-02 
569	 9.65922351697826E-02 
570	 9.68826428945195E-02 
571	 9.71497224237938E-02 
572	 9.74396083991145E-02 
573	 9.78006845717169E-02 
574	 9.79792962319702E-02 
575	 0.098148813416947 
576	 9.84514717065706E-02 
577	 9.85959533583813E-02 
578	 9.87595242845018E-02 
579	 9.89674923510211E-02 
580	 9.91446423839414E-02 
581	 9.92201943681255E-02 
582	 9.92664930918414E-02 
583	 9.93145519555193E-02 
584	 9.92736150796783E-02 
585	 9.93635700910557E-02 
586	 9.94790829492687E-02 
587	 9.94536442654073E-02 
588	 9.95501158919111E-02 
589	 9.95939108200681E-02 
590	 9.95282766456413E-02 
591	 9.94552076502453E-02 
592	 9.93295522056357E-02 
593	 9.91470514173161E-02 
594	 9.89129105275101E-02 
595	 9.86282222348062E-02 
596	 9.83015827417455E-02 
597	 9.79660992175785E-02 
598	 9.76591864894288E-02 
599	 9.72994640082614E-02 
600	 9.69677847246425E-02 
601	 9.67270822165137E-02 
602	 9.65805794221686E-02 
603	 0.096433380526223 
604	 9.63016623364452E-02 
605	 9.62400426697287E-02 
606	 9.62853736067985E-02 
607	 9.63398468942622E-02 
608	 9.63330677873396E-02 
609	 9.62383744702354E-02 
610	 9.62017682238272E-02 
611	 9.62669424907905E-02 
612	 9.63878381336947E-02 
613	 9.63371769440102E-02 
614	 9.62830983086427E-02 
615	 9.62507528686186E-02 
616	 9.61969277793597E-02 
617	 9.62059950016494E-02 
618	 9.62867165776646E-02 
619	 9.63658335070368E-02 
620	 9.62456442926463E-02 
621	 9.61866966034624E-02 
622	 9.62272821245996E-02 
623	 9.63154048522875E-02 
624	 9.63572221010912E-02 
625	 9.63925640823576E-02 
626	 9.63802183133119E-02 
627	 9.62171555024887E-02 
628	 9.62816106304528E-02 
629	 9.63505861043506E-02 
630	 9.62515684622364E-02 
631	 0.096257385171363 
632	 0.096285296734651 
633	 9.63001669437983E-02 
634	 9.62834165855078E-02 
635	 9.61986555910083E-02 
636	 9.61576959010967E-02 
637	 9.61654031677235E-02 
638	 9.60554284754871E-02 
639	 9.59685448689161E-02 
640	 9.59507293337895E-02 
641	 9.59737403009249E-02 
642	 9.58237983010179E-02 
643	 0.095769953567899 
644	 9.57897489543054E-02 
645	 9.56363261450999E-02 
646	 9.56359266955196E-02 
647	 0.095626532378433 
648	 9.54709084493846E-02 
649	 9.52968869227119E-02 
650	 9.51084947509552E-02 
651	 9.49331804744594E-02 
652	 9.47873697051571E-02 
653	 9.45406292112355E-02 
654	 9.43200899026678E-02 
655	 9.40770441840462E-02 
656	 9.35483547559695E-02 
657	 9.31443197108098E-02 
658	 0.092891023257573 
659	 9.26847594769426E-02 
660	 9.23141672031754E-02 
661	 9.21181070985906E-02 
662	 9.20763874940737E-02 
663	 9.19556978347019E-02 
664	 9.18371734543757E-02 
665	 9.16516392861341E-02 
666	 9.14209767851094E-02 
667	 9.13656781990255E-02 
668	 9.12360892474974E-02 
669	 9.11512616316409E-02 
670	 9.12534179763497E-02 
671	 9.11635494284147E-02 
672	 0.091123189999979 
673	 9.12062037021984E-02 
674	 9.12989601873322E-02 
675	 9.12628443734624E-02 
676	 9.12954980134827E-02 
677	 9.14850988561184E-02 
678	 0.091468726485547 
679	 9.15125300861546E-02 
680	 9.16095097793139E-02 
681	 9.16585527809204E-02 
682	 9.18137855850684E-02 
683	 9.19870656420922E-02 
684	 9.21373275018042E-02 
685	 9.23290582101242E-02 
686	 9.25115137463535E-02 
687	 9.26373335565697E-02 
688	 9.26888119275736E-02 
689	 9.27102603370764E-02 
690	 9.28488948115171E-02 
691	 9.29842750902348E-02 
692	 9.28618467643418E-02 
693	 9.27961268488161E-02 
694	 9.27165658781616E-02 
695	 9.25381085787974E-02 
696	 9.22152747807589E-02 
697	 9.20011599949052E-02 
698	 9.18323350491197E-02 
699	 9.15828839220273E-02 
700	 0.0912952613151 
701	 9.08619352303889E-02 
702	 9.03980555902512E-02 
703	 9.01307225064907E-02 
704	 8.95860300532153E-02 
705	 8.89041902254457E-02 
706	 0.088265701246058 
707	 0.087693766890473 
708	 8.69354040368811E-02 
709	 0.086060838126455 
710	 8.52216554017769E-02 
711	 8.42525879569625E-02 
712	 8.32332070205546E-02 
713	 0.082189362949678 
714	 8.10556056174736E-02 
715	 8.01809046623664E-02 
716	 0.079206805711845 
717	 7.77952715312127E-02 
718	 7.64034507103588E-02 
719	 7.47531630682707E-02 
720	 7.32510428877789E-02 
721	 7.20176781589004E-02 
722	 7.09095526229681E-02 
723	 6.95852051478722E-02 
724	 6.80498542801362E-02 
725	 6.63962018830549E-02 
726	 6.47166905080156E-02 
727	 6.29720338747173E-02 
728	 6.11040513497409E-02 
729	 5.90394679290313E-02 
730	 5.68323137719671E-02 
731	 5.47104839836985E-02 
732	 5.28112293190112E-02 
733	 5.13174473246672E-02 
734	 5.00592583104498E-02 
735	 4.89723139452942E-02 
736	 4.81140468696455E-02 
737	 0.047380484730329 
738	 4.67640583821904E-02 
739	 4.62867589921805E-02 
740	 4.59421421304343E-02 
741	 4.57059055948902E-02 
742	 0.04553613506879 
743	 4.53857360156284E-02 
744	 4.52722878764269E-02 
745	 4.51639778156463E-02 
746	 4.50330780464324E-02 
747	 4.48610344420475E-02 
748	 4.48557230159979E-02 
749	 4.49135623245642E-02 
750	 4.48911972849068E-02 
751	 4.48014980995067E-02 
752	 4.47520180575748E-02 
753	 4.46816732042945E-02 
754	 4.44842800503308E-02 
755	 4.45061768716925E-02 
756	 4.45388833890678E-02 
757	 4.45161268363557E-02 
758	 4.46930515828869E-02 
759	 0.044808812395076 
760	 4.48075854781892E-02 
761	 4.48217554250417E-02 
762	 4.48685139895392E-02 
763	 4.48814142637729E-02 
764	 4.48687451021706E-02 
765	 4.48585214139631E-02 
766	 4.48317274115436E-02 
767	 4.47874040880138E-02 
768	 4.47996581938569E-02 
769	 4.50130146755948E-02 
770	 4.51617687394453E-02 
771	 4.52469494772852E-02 
772	 4.53290919944574E-02 
773	 4.54677084187107E-02 
774	 4.56102027898546E-02 
775	 4.57793790955146E-02 
776	 4.60232249491076E-02 
777	 4.63321332031323E-02 
778	 4.65847990069023E-02 
779	 4.68005766117007E-02 
780	 4.71345577977896E-02 
781	 4.73607138790271E-02 
782	 4.75942548646204E-02 
783	 4.79172650156035E-02 
784	 4.81943436782956E-02 
785	 4.85143590184124E-02 
786	 4.88207891226376E-02 
787	 4.90660318567505E-02 
788	 4.95300626721149E-02 
789	 4.99687594685224E-02 
790	 5.02913207961792E-02 
791	 5.05848117206937E-02 
792	 5.10679507904896E-02 
793	 5.15239865494306E-02 
794	 5.18360191197963E-02 
795	 5.21253613124829E-02 
796	 5.25664718351236E-02 
797	 5.29375907883885E-02 
798	 5.31030105786186E-02 
799	 5.35533673845116E-02 
800	 5.40743259968778E-02 
801	 5.44174414345063E-02 
802	 5.44210830405171E-02 
803	 5.45573109780811E-02 
804	 5.47273565150422E-02 
805	 5.48750845417886E-02 
806	 5.50433506707788E-02 
807	 5.50100969996245E-02 
808	 5.49948187380994E-02 
809	 5.51061671945564E-02 
810	 5.49075246704947E-02 
811	 5.48498447146065E-02 
812	 0.054814508085193 
813	 5.44908007621067E-02 
814	 5.40729514740173E-02 
815	 5.39150844765433E-02 
816	 5.37733045899702E-02 
817	 5.30371210494865E-02 
818	 5.23373203555184E-02 
819	 5.18775432346567E-02 
820	 5.14172287832198E-02 
821	 5.02820617348268E-02 
822	 4.93559960996286E-02 
823	 4.83258327844783E-02 
824	 4.69578160189116E-02 
825	 4.57856932784659E-02 
826	 4.44540975051172E-02 
827	 4.29161140153452E-02 
828	 4.13647379873546E-02 
829	 3.99499648393575E-02 
830	 3.86097820447004E-02 
831	 3.73048084318808E-02 
832	 3.61006064989434E-02 
833	 3.53952067226455E-02 
834	 3.47831988269466E-02 
835	 3.41451991602634E-02 
836	 3.38511877335556E-02 
837	 3.32988953552838E-02 
838	 3.28653359269578E-02 
839	 3.27699832127339E-02 
840	 3.22848534289206E-02 
841	 3.18544542245353E-02 
842	 3.15203563575162E-02 
843	 3.11996506340121E-02 
844	 0.030919011144687 
845	 3.07622063545076E-02 
846	 3.06016447112203E-02 
847	 3.02203861833409E-02 
848	 2.99864855923357E-02 
849	 2.97424931823756E-02 
850	 2.94341253793337E-02 
851	 2.92085836488561E-02 
852	 2.91188979357671E-02 
853	 2.89977406618178E-02 
854	 2.86544605083694E-02 
855	 2.79305288917227E-02 
856	 0.027767010569378 
857	 2.79061256701249E-02 
858	 2.78478245032807E-02 
859	 0.027545822997879 
860	 2.73756793540264E-02 
861	 2.72503848159598E-02 
862	 2.69136032003559E-02 
863	 2.67036970682338E-02 
864	 2.64298664462991E-02 
865	 2.61282858653995E-02 
866	 2.60480503579396E-02 
867	 2.61516870137049E-02 
868	 2.58973462855854E-02 
869	 2.53336980403629E-02 
870	 2.52976825249091E-02 
871	 2.48668204326871E-02 
872	 2.45604450152165E-02 
873	 2.46781845956744E-02 
874	 2.43456513488606E-02 
875	 2.40505411793807E-02 
876	 2.38139707304812E-02 
877	 2.35725987958412E-02 
878	 2.35204496590586E-02 
879	 2.30473763867748E-02 
880	 2.25461788233999E-02 
881	 2.26302969407591E-02 
882	 2.22417938308939E-02 
883	 2.18094820500862E-02 
884	 2.15841771347014E-02 
885	 0.02157224899489 
886	 2.15163054161764E-02 
887	 2.12102793079022E-02 
888	 2.07822799770206E-02 
889	 2.06877238303525E-02 
890	 2.07535522332185E-02 
891	 2.05917124281557E-02 
892	 2.00794952919782E-02 
893	 1.96890173228159E-02 
894	 1.97125831744769E-02 
895	 1.97644182902849E-02 
896	 1.94843724653595E-02 
897	 1.94386410220798E-02 
898	 1.91059207643421E-02 
899	 1.90215383793039E-02 
900	 0.019517310653961 
901	 0.019064915062105 
902	 1.90286123257149E-02 
903	 1.87913653082822E-02 
904	 1.75714376597152E-02 
905	 1.76706131611666E-02 
906	 1.78732873547864E-02 
907	 0.017496350056161 
908	 1.66024963870336E-02 
909	 1.69686120156494E-02 
910	 1.70184572309282E-02 
911	 1.64690091811723E-02 
912	 1.64055041466223E-02 
913	 1.60190057603079E-02 
914	 0.015773499776154 
915	 1.57544012176636E-02 
916	 1.55110096113279E-02 
917	 1.57294840018101E-02 
918	 1.54793665785651E-02 
919	 1.47273323761096E-02 
920	 1.47772378566868E-02 
921	 1.51741026199341E-02 
922	 1.44315497151075E-02 
923	 1.25500399864524E-02 
924	 1.30873608297343E-02 
925	 1.41481597780988E-02 
926	 1.44034114431761E-02 
927	 0.013290071391548 
928	 1.29069612283116E-02 
929	 1.36324669834843E-02 
930	 1.44921544849486E-02 
931	 1.38517202719633E-02 
932	 1.51336279872732E-02 
933	 1.43575398346348E-02 
934	 1.21863424864903E-02 
935	 1.23418919775779E-02 
936	 1.57971646351047E-02 
937	 1.61093867844123E-02 
938	 1.36013540117265E-02 
939	 1.12390632890221E-02 
940	 1.36746133457536E-02 
941	 1.20246275252698E-02 
942	 8.74065818446468E-03 
943	 0.010873774463651 
944	 1.40784972248808E-02 
945	 1.16298849577646E-02 
946	 8.30701982536287E-03 
947	 1.26246553793526E-02 
948	 1.23096882592146E-02 
949	 1.10539842179042E-02 
950	 1.11073892233406E-02 
951	 1.22771952229759E-02 
952	 9.57396591883391E-03 
953	 8.72789223402318E-03 
954	 1.03614375372708E-02 
955	 1.12001009063977E-02 
956	 1.03991851203041E-02 
957	 0.011478611305712 
958	 1.24560932973002E-02 
959	 9.20800883154314E-03 
960	 1.00859083741798E-02 
961	 1.18066809468701E-02 
962	 1.22379375042752E-02 
963	 1.11384824850191E-02 
964	 8.06435636912104E-03 
965	 8.73403419305077E-03 
966	 1.08994449103872E-02 
967	 8.1837292549039E-03 
968	 7.45145392147562E-03 
969	 9.2321806486974E-03 
970	 0.011256999360135 
971	 1.02765607723427E-02 
972	 1.07430257330743E-02 
973	 9.90186508718762E-03 
974	 8.55557421351686E-03 
975	 1.06878292882411E-02 
976	 1.06916221108488E-02 
977	 9.81420739555195E-03 
978	 9.09113788685707E-03 
979	 8.78284783958954E-03 
980	 0.011075889110558 
981	 1.18112715060016E-02 
982	 1.07151493031928E-02 
983	 1.06810033936774E-02 
984	 9.78976612326083E-03 
985	 1.01894842927706E-02 
986	 1.10929346337754E-02 
987	 9.88690151700015E-03 
988	 9.94690693276728E-03 
989	 1.01620978944732E-02 
990	 9.87909495562116E-03 
991	 9.42889666698976E-03 
992	 1.11305193443695E-02 
993	 1.06687049993435E-02 
994	 9.37102712822766E-03 
995	 1.12996555730087E-02 
996	 9.67940709353539E-03 
997	 8.7204083668052E-03 
998	 8.81161461433375E-03 
999	 8.31997283877643E-03 
1000	 1.17316679810589E-02 
1001	 7.64623109621462E-03 
1002	 7.44126521623905E-03 
1003	 7.50860960802383E-03 
1004	 8.11970420420139E-03 
1005	 8.23012625639521E-03 
1006	 8.08129369923474E-03 
1007	 8.11141572433755E-03 
1008	 8.11749697307449E-03 
1009	 8.07587363501392E-03 
1010	 8.16661652702988E-03 
1011	 8.34633263380629E-03 
1012	 8.44507447059723E-03 
1013	 8.5012190367507E-03 
1014	 8.52959250686437E-03 
1015	 8.67458905206558E-03 
1016	 8.59120696198412E-03 
1017	 8.24340191305585E-03 
1018	 8.13155032413204E-03 
1019	 7.92349511976193E-03 
1020	 7.9321266778628E-03 
1021	 8.30881482738592E-03 
1022	 8.36735339686914E-03 
1023	 8.30220285131018E-03 
1024	 8.33675166942869E-03 
1025	 8.23223849271646E-03 
1026	 8.33814644826641E-03 
1027	 8.41828421799331E-03 
1028	 8.68016364584299E-03 
1029	 8.81066079999228E-03 
1030	 8.89479591680677E-03 
1031	 8.89014177631854E-03 
1032	 8.88780943457441E-03 
1033	 8.80818868306622E-03 
1034	 8.54035353087919E-03 
1035	 8.41167259148854E-03 
1036	 8.2264581449119E-03 
1037	 8.20428786135974E-03 
1038	 8.36781907356055E-03 
1039	 8.44617459610234E-03 
1040	 8.60088412067727E-03 
1041	 8.67301004803682E-03 
1042	 8.73658755757984E-03 
1043	 8.71556752482486E-03 
1044	 8.76945592534796E-03 
1045	 8.91722010620524E-03 
1046	 8.90476134020472E-03 
1047	 8.78597655888825E-03 
1048	 8.72441316568988E-03 
1049	 8.52094507338657E-03 
1050	 8.50882235574944E-03 
1051	 8.65600015330956E-03 
1052	 8.74445776393499E-03 
1053	 8.97122629022298E-03 
1054	 9.05152431080911E-03 
1055	 9.0364388753442E-03 
1056	 9.01868458102328E-03 
1057	 8.96108665077044E-03 
1058	 8.73430269312292E-03 
1059	 8.81629058543905E-03 
1060	 9.09614084386438E-03 
1061	 9.14642411777158E-03 
1062	 9.32873698397337E-03 
1063	 9.29018341929546E-03 
1064	 8.93323552427466E-03 
1065	 8.76509731614491E-03 
1066	 8.41567971029488E-03 
1067	 8.46640156653292E-03 
1068	 8.99843702398082E-03 
1069	 9.1166025873863E-03 
1070	 9.35783989349033E-03 
1071	 9.43058096324066E-03 
1072	 9.24601005618328E-03 
1073	 8.76747305813957E-03 
1074	 8.55817992702428E-03 
1075	 8.32496354424884E-03 
1076	 8.43640230814217E-03 
1077	 8.85509198388949E-03 
1078	 8.91533233586469E-03 
1079	 9.07000201342656E-03 
1080	 9.13775442045641E-03 
1081	 8.83153999884072E-03 
1082	 8.79905494262465E-03 
1083	 9.23911046197285E-03 
1084	 9.21126401823236E-03 
1085	 8.7908840686451E-03 
1086	 8.5937909292246E-03 
1087	 8.08514601119927E-03 
1088	 7.89629512864844E-03 
1089	 7.7971269867693E-03 
1090	 8.40015323607361E-03 
1091	 8.52008663266437E-03 
1092	 8.71419915730295E-03 
1093	 8.66424318661669E-03 
1094	 8.27160085482936E-03 
1095	 8.14792317566291E-03 
1096	 8.17122730289302E-03 
1097	 8.0567429009745E-03 
1098	 7.7184102928422E-03 
1099	 7.77512009360889E-03 
1100	 8.19505991909335E-03 
1101	 8.13265310368588E-03 
1102	 8.1819491811346E-03 
1103	 8.18997825472747E-03 
1104	 7.72906686074018E-03 
1105	 7.01765720646555E-03 
1106	 7.43431748801405E-03 
1107	 7.98180286712083E-03 
1108	 8.2851615045686E-03 
1109	 8.94792968392125E-03 
1110	 8.87540161056528E-03 
1111	 7.64026616008289E-03 
1112	 7.59048535582017E-03 
1113	 8.05262206780865E-03 
1114	 7.81004087236722E-03 
1115	 7.89623272206949E-03 
1116	 7.81113014872369E-03 
1117	 5.80830450803968E-03 
1118	 5.52119821348067E-03 
1119	 8.82232315754637E-03 
1120	 9.82725900577483E-03 
1121	 1.01598051981606E-02 
1122	 1.00157246342136E-02 
1123	 7.15369300552373E-03 
1124	 5.59677132784332E-03 
1125	 8.3210104009889E-03 
1126	 1.14517047480755E-02 
1127	 1.15754092655926E-02 
1128	 8.72018539577976E-03 
1129	 8.06462302153623E-03 
1130	 7.09940687913783E-03 
1131	 7.00675414063935E-03 
1132	 8.10008482788579E-03 
1133	 7.98195804588326E-03 
1134	 7.16601142245056E-03 
1135	 6.56887243919219E-03 
1136	 5.80456901851044E-03 
1137	 6.33194659957245E-03 
1138	 8.37337358040792E-03 
1139	 7.79158751275616E-03 
1140	 8.37562975832164E-03 
1141	 7.45752300018388E-03 
1142	 0.004449212900339 
1143	 5.34904672963609E-03 
1144	 6.8444758907601E-03 
1145	 6.25225505304987E-03 
1146	 9.4271458045642E-03 
1147	 1.03933584014399E-02 
1148	 6.17911551019877E-03 
1149	 6.26659897844135E-03 
1150	 6.55231078399712E-03 
1151	 6.04594700139941E-03 
1152	 5.88840551660603E-03 
1153	 7.58542988708482E-03 
1154	 7.37809032254886E-03 
1155	 5.48768066160556E-03 
1156	 6.23226286318979E-03 
1157	 7.03850934816738E-03 
1158	 6.75283752700482E-03 
1159	 7.59929165284764E-03 
1160	 7.58258313715846E-03 
1161	 6.26950028672917E-03 
1162	 6.31864800249576E-03 
1163	 6.7543694355041E-03 
1164	 6.68764798744567E-03 
1165	 6.89161334560703E-03 
1166	 6.73497462665241E-03 
1167	 6.36915940605632E-03 
1168	 6.37261141930232E-03 
1169	 6.27349731318546E-03 
1170	 6.47019048895806E-03 
1171	 6.72212288951871E-03 
1172	 7.03594318666324E-03 
1173	 6.9580729608439E-03 
1174	 6.86909470052364E-03 
1175	 6.73596943803759E-03 
1176	 6.4486832100438E-03 
1177	 6.46259000533841E-03 
1178	 6.60054146298294E-03 
1179	 6.56155508844316E-03 
1180	 6.35333983560232E-03 
1181	 6.08518587598003E-03 
1182	 5.90107488292011E-03 
1183	 6.09569217733108E-03 
1184	 6.4894620218391E-03 
1185	 6.41211298171918E-03 
1186	 6.25791885812953E-03 
1187	 6.60706606943297E-03 
1188	 6.87063744866492E-03 
1189	 6.82680305683919E-03 
1190	 6.73215677181457E-03 
1191	 6.4863005988417E-03 
1192	 6.39018659252519E-03 
1193	 6.19584222561253E-03 
1194	 6.30984282928723E-03 
1195	 6.48350350843282E-03 
1196	 6.51920528956505E-03 
1197	 6.34724734305333E-03 
1198	 6.35700953365648E-03 
1199	 6.55235001690731E-03 
1200	 6.47666890283318E-03 
1201	 6.54651017822679E-03 
1202	 6.59893284542235E-03 
1203	 6.1228855688089E-03 
1204	 6.07771340856409E-03 
1205	 6.31133807246172E-03 
1206	 6.16710644990851E-03 
1207	 6.30603511392575E-03 
1208	 6.3943586562419E-03 
1209	 6.17155527335127E-03 
1210	 6.08708596114508E-03 
1211	 6.02909508186943E-03 
1212	 6.10396350825789E-03 
1213	 6.33139805530264E-03 
1214	 6.41862892917437E-03 
1215	 6.48503976403855E-03 
1216	 6.55889895879381E-03 
1217	 6.5681088266291E-03 
1218	 6.37085346421393E-03 
1219	 6.24447134800509E-03 
1220	 6.21941625500168E-03 
1221	 6.17217359422874E-03 
1222	 6.21027823586751E-03 
1223	 6.1732768131165E-03 
1224	 6.18897507854695E-03 
1225	 6.37825795868465E-03 
1226	 6.40037420986731E-03 
1227	 6.32754326239683E-03 
1228	 6.29565708165851E-03 
1229	 6.28798214306867E-03 
1230	 6.30105739797265E-03 
1231	 6.22235323419992E-03 
1232	 6.18711359138466E-03 
1233	 6.23288519114634E-03 
1234	 6.20644697010815E-03 
1235	 6.18856911158388E-03 
1236	 6.41310455023473E-03 
1237	 6.44228855167808E-03 
1238	 6.29383516910668E-03 
1239	 6.12403670496104E-03 
1240	 6.20262243268028E-03 
1241	 6.27781557462676E-03 
1242	 6.14299948123922E-03 
1243	 6.09451242254479E-03 
1244	 6.21740412754463E-03 
1245	 6.20626944981252E-03 
1246	 6.04147004889331E-03 
1247	 6.02280630114866E-03 
1248	 6.08765699557195E-03 
1249	 5.91470004053805E-03 
1250	 5.95633678706237E-03 
1251	 6.2267188260566E-03 
1252	 6.13962341455956E-03 
1253	 5.99207806482063E-03 
1254	 5.98800956710373E-03 
1255	 6.07672704706852E-03 
1256	 6.1164785875508E-03 
1257	 6.09992104180829E-03 
1258	 6.04026567617598E-03 
1259	 6.00234213088979E-03 
1260	 6.01468933442012E-03 
1261	 5.9891926447963E-03 
1262	 5.99364336636888E-03 
1263	 6.16629025961283E-03 
1264	 6.09620409856085E-03 
1265	 5.84484525068694E-03 
1266	 5.64447899421561E-03 
1267	 5.79709846046495E-03 
1268	 5.98447973699751E-03 
1269	 5.93681017925498E-03 
1270	 6.02678877899416E-03 
1271	 6.03672713721217E-03 
1272	 5.83503709975702E-03 
1273	 5.86317353951486E-03 
1274	 6.07437398799325E-03 
1275	 6.02895926351657E-03 
1276	 5.89185534268997E-03 
1277	 6.03803526407363E-03 
1278	 6.08926286420508E-03 
1279	 6.02385975680963E-03 
1280	 6.0807206382446E-03 
1281	 6.04394637689469E-03 
1282	 5.67950536647463E-03 
1283	 5.65602145782235E-03 
1284	 5.91683209240907E-03 
1285	 5.95422157711265E-03 
1286	 6.02394907847407E-03 
1287	 6.0642270716052E-03 
1288	 5.91560014930049E-03 
1289	 5.93736620070033E-03 
1290	 6.14019136197929E-03 
1291	 6.11544530271597E-03 
1292	 5.98194276362454E-03 
1293	 5.93612979420822E-03 
1294	 5.78276165948845E-03 
1295	 5.66091671041688E-03 
1296	 5.78450994356879E-03 
1297	 5.97270416644818E-03 
1298	 6.19500259628767E-03 
1299	 6.35387069498902E-03 
1300	 6.14357565244728E-03 
1301	 6.00449057479616E-03 
1302	 6.05538582820601E-03 
1303	 5.78791716343676E-03 
1304	 5.56751202646366E-03 
1305	 5.72613003937611E-03 
1306	 5.85224740298039E-03 
1307	 6.00973571636063E-03 
1308	 5.92768196030206E-03 
1309	 5.77001190543148E-03 
1310	 5.74518329486394E-03 
1311	 5.54633232801569E-03 
1312	 5.42491852346471E-03 
1313	 5.60747824644487E-03 
1314	 5.62509965713272E-03 
1315	 5.34468689729533E-03 
1316	 5.22242886443003E-03 
1317	 5.36243033716012E-03 
1318	 5.3863216060671E-03 
1319	 5.21198920895679E-03 
1320	 5.14767118705014E-03 
1321	 4.98583290225821E-03 
1322	 5.13818530363285E-03 
1323	 5.80882599013128E-03 
1324	 6.24324375177815E-03 
1325	 5.83215257043744E-03 
1326	 5.57495491651465E-03 
1327	 5.59104616123453E-03 
1328	 5.10155085161713E-03 
1329	 4.94566598423407E-03 
1330	 5.50079184321664E-03 
1331	 5.5911689904533E-03 
1332	 4.91591946195138E-03 
1333	 4.60864384205039E-03 
1334	 5.00744423184973E-03 
1335	 0.005201853523114 
1336	 5.44753098600886E-03 
1337	 5.46506543608996E-03 
1338	 5.20174409719658E-03 
1339	 5.3166930702969E-03 
1340	 5.79123389708752E-03 
1341	 5.78313607737715E-03 
1342	 5.78707309276223E-03 
1343	 5.91860834572241E-03 
1344	 5.04254920192449E-03 
1345	 4.86497361560378E-03 
1346	 6.74480801158486E-03 
1347	 7.04373080808771E-03 
1348	 4.43922420500858E-03 
1349	 4.62037003286773E-03 
1350	 8.12865011345883E-03 
1351	 0.008761515952889 
1352	 9.81766057525969E-03 
1353	 0.015845976099955 
1354	 1.55031084716636E-02 
1355	 2.16151561293336E-02 
1356	 4.41497230625027E-02 
1357	 6.19757251364601E-02 
1358	 6.26451954057497E-03 
1359	-2.97137582738221E-02 
1360	 0.063426982555582 
1361	 7.40698964476252E-02 
1362	 5.60863043609937E-02 
1363	 0.1916005120852 
1364	 0.267336132381005 
1365	 0.234215215361664 
1366	 0.290558359632276 
1367	 0.401551786008673 
1368	 0.299735842613585 
1369	-0.068043972794988 
1370	 2.25411043321013E-02 
1371	 0.478383465496242 
1372	 0.484223065532573 
1373	 0.606186986241663 
1374	 0.689065346273669 
1375	 0.148065004038137 
1376	-2.32026625198053E-03 
1377	 0.146800967792738 
1378	 0.152292607134542 
1379	-1.90459842362665E-02 
1380	-1.68587150922541E-02 
1381	 0.222732450350729 
1382	 0.28385952111881 
1383	 0.172332986645266 
1384	 0.158139334961253 
1385	 9.32338811610223E-02 
1386	-1.28269548953424E-02 
1387	-1.46422051748588E-02 
1388	-5.46133879043352E-03 
1389	-0.118804492636457 
1390	-0.166988323933194 
1391	-0.274452512540523 
1392	 2.20577094708815E-02 
1393	 9.87427238229796E-02 
1394	 1.28029261033362E-02 
1395	 2.52017708870832E-02 
1396	 0.139369460513036 
1397	 0.360154749330367 
1398	 0.413646155315806 
1399	 0.150472521761797 
1400	-0.126996530096557 
1401	-0.310203599118194 
1402	-5.15299470168618E-02 
1403	 0.397365938725324 
1404	 0.558265648935949 
1405	 0.52588966510943 
1406	 0.152355334875093 
1407	 6.20338230739271E-02 
1408	 5.40555166458755E-04 
1409	-5.26477310397575E-02 
1410	-9.84640312960032E-02 
1411	-0.049441464792642 
1412	 4.09872442065645E-02 
1413	 3.01931278495075E-02 
1414	 4.25760939836736E-02 
1415	 4.43006124838724E-02 
1416	-0.049695686772013 
1417	-2.43248664659538E-02 
1418	 9.97079630423874E-02 
1419	 0.116470060067433 
1420	 0.130159651629755 
1421	 0.108829602852267 
1422	 4.65783091620596E-02 
1423	 2.90837642099263E-02 
1424	 2.13257996597772E-02 
1425	 1.74961487363394E-02 
1426	 1.92021888894249E-02 
1427	 1.96499719080049E-02 
1428	 2.36785360334711E-02 
1429	 2.16426753011744E-02 
1430	 2.03588038050915E-02 
1431	 1.69379668688745E-02 
1432	 1.60970640555757E-03 
1433	-2.85986594536696E-03 
1434	-2.68913220030934E-03 
1435	 2.77599647587576E-04 
1436	 1.05091874087896E-02 
1437	 2.30999992198221E-02 
1438	 1.30409438940951E-02 
1439	-1.30047914111329E-03 
1440	-1.40344319446463E-03 
1441	 2.3929212690454E-03 
1442	 8.41532396347532E-03 
1443	 0.009384648448456 
1444	 5.56389077400263E-03 
1445	 3.79449749667706E-03 
1446	 9.9223562545321E-03 
1447	 1.84885034746246E-02 
1448	 1.50083060709678E-02 
1449	 8.59869578239822E-03 
1450	 7.77386013130434E-03 
1451	 6.85140624153645E-03 
1452	 6.23284854361755E-03 
1453	 5.90509111152414E-03 
1454	 6.25139994946222E-03 
1455	 5.60661994157086E-03 
1456	 5.03710061906058E-03 
1457	 5.27314971082817E-03 
1458	 5.73465900137647E-03 
1459	 5.69225193560842E-03 
1460	 5.28994813468071E-03 
1461	 5.61889133724462E-03 
1462	 5.61254668883505E-03 
1463	 4.2443816237461E-03 
1464	 3.69016929203314E-03 
1465	 4.11815459237113E-03 
1466	 4.70525903824748E-03 
1467	 5.13330062242433E-03 
1468	 5.24532372313068E-03 
1469	 6.12486548759091E-03 
1470	 6.4683901575854E-03 
1471	 6.41915596008514E-03 
1472	 5.82431838759068E-03 
1473	 4.09647715079475E-03 
1474	 3.83807845031303E-03 
1475	 3.73550944604553E-03 
1476	 4.42838689876577E-03 
1477	 7.02514264828644E-03 
1478	 7.08194675871635E-03 
1479	 6.08877729796789E-03 
1480	 5.63527727497147E-03 
1481	 3.95917747208832E-03 
1482	 3.69504672174035E-03 
1483	 4.72969518091912E-03 
1484	 4.93349091426763E-03 
1485	 5.02625669835858E-03 
1486	 4.93569147759044E-03 
1487	 4.56393492227331E-03 
1488	 0.004479271546055 
1489	 4.36570145154947E-03 
1490	 4.44176087022924E-03 
1491	 4.92856876971836E-03 
1492	 4.87328138799223E-03 
1493	 4.41878302259132E-03 
1494	 4.36182820488707E-03 
1495	 4.32246213567307E-03 
1496	 4.35039555799269E-03 
1497	 4.69443787017055E-03 
1498	 4.74212636072674E-03 
1499	 4.53350924419529E-03 
1500	 4.46446479315447E-03 
1501	 4.36598244489737E-03 
1502	 4.34800519216477E-03 
1503	 4.46548871117203E-03 
1504	 4.53248718199602E-03 
1505	 4.61190817662729E-03 
1506	 4.6035678710424E-03 
1507	 4.68323417181463E-03 
1508	 4.67036969566526E-03 
1509	 4.50607508765077E-03 
1510	 4.48450710991542E-03 
1511	 4.52429348274998E-03 
1512	 4.58569249437278E-03 
1513	 4.68462299128335E-03 
1514	 4.62528523880453E-03 
1515	 4.56226453268351E-03 
1516	 4.51795821205983E-03 
1517	 4.40181885967934E-03 
1518	 4.45690906189576E-03 
1519	 4.5859112026796E-03 
1520	 4.54667419630348E-03 
1521	 4.46768547074737E-03 
1522	 4.44977156600993E-03 
1523	 4.5156757098329E-03 
1524	 4.5602541290416E-03 
1525	 4.53314385431138E-03 
1526	 4.63198418624965E-03 
1527	 4.73161374657482E-03 
1528	 4.66624880324086E-03 
1529	 4.57777475978294E-03 
1530	 4.64845241588752E-03 
1531	 4.66213703311949E-03 
1532	 4.4198618489547E-03 
1533	 4.48904846080059E-03 
1534	 4.67991636990053E-03 
1535	 4.37574028465332E-03 
1536	 4.23326459461299E-03 
1537	 4.49927634852577E-03 
1538	 4.62788323827115E-03 
1539	 4.65501130480441E-03 
1540	 4.62415558449581E-03 
1541	 4.35112383937018E-03 
1542	 4.11714583097464E-03 
1543	 4.23133065857814E-03 
1544	 4.46549318332787E-03 
1545	 4.44120217825832E-03 
1546	 4.26172331053229E-03 
1547	 4.28754021819867E-03 
1548	 4.40187531516524E-03 
1549	 4.48704254476618E-03 
1550	 4.55172279940597E-03 
1551	 4.45221051900294E-03 
1552	 0.004298939262724 
1553	 4.27291690718526E-03 
1554	 4.30803435075017E-03 
1555	 4.42826375563524E-03 
1556	 4.65077776601306E-03 
1557	 0.004727215673893 
1558	 4.68525679171641E-03 
1559	 4.58423137258566E-03 
1560	 4.39388506902687E-03 
1561	 4.35364723547972E-03 
1562	 4.49058462814142E-03 
1563	 4.50399135093213E-03 
1564	 4.45273899392989E-03 
1565	 4.63132900251795E-03 
1566	 4.75912203774084E-03 
1567	 4.67728055195717E-03 
1568	 4.64536135657902E-03 
1569	 4.48702245452849E-03 
1570	 4.37286506415209E-03 
1571	 4.64689640860803E-03 
1572	 4.73935154829742E-03 
1573	 4.61590641353704E-03 
1574	 4.65131214502489E-03 
1575	 4.56258811475689E-03 
1576	 4.44154541679715E-03 
1577	 4.46131246848518E-03 
1578	 4.47287371290019E-03 
1579	 4.41868872717973E-03 
1580	 4.34801308393446E-03 
1581	 4.56141145734879E-03 
1582	 4.72533117769589E-03 
1583	 4.4903754345105E-03 
1584	 4.51785720729043E-03 
1585	 4.6483847496445E-03 
1586	 4.40535426498957E-03 
1587	 4.40260442715372E-03 
1588	 4.55004152367778E-03 
1589	 4.27512518575957E-03 
1590	 4.23405104319314E-03 
1591	 4.70416824005013E-03 
1592	 4.86248137402584E-03 
1593	 4.6796418799108E-03 
1594	 4.63535148355096E-03 
1595	 4.63124651542951E-03 
1596	 4.56000579249879E-03 
1597	 4.55086043934827E-03 
1598	 4.57628428482957E-03 
1599	 4.5320761730681E-03 
1600	 4.50635675846106E-03 
1601	 4.61850583653352E-03 
1602	 4.72074312665944E-03 
1603	 4.57333148304239E-03 
1604	 4.47433925844787E-03 
1605	 4.58118972460901E-03 
1606	 4.50722058165025E-03 
1607	 4.45734942242084E-03 
1608	 4.62141357202778E-03 
1609	 4.58257256627057E-03 
1610	 4.40566857001504E-03 
1611	 4.53849232103191E-03 
1612	 4.74791064802959E-03 
1613	 4.52526502272697E-03 
1614	 4.42890678374095E-03 
1615	 4.9039314874757E-03 
1616	 5.00424324660173E-03 
1617	 4.71649608593008E-03 
1618	 4.86884823470968E-03 
1619	 4.94381242448659E-03 
1620	 4.60665579059795E-03 
1621	 4.54606174099158E-03 
1622	 4.84567313603464E-03 
1623	 4.84317941482836E-03 
1624	 4.45170829815607E-03 
1625	 4.38073450011494E-03 
1626	 4.61361348892318E-03 
1627	 4.5141040202943E-03 
1628	 4.40801257334522E-03 
1629	 4.67332506194712E-03 
1630	 4.68533545125842E-03 
1631	 4.43157024144796E-03 
1632	 4.49308074371134E-03 
1633	 4.4668488804831E-03 
1634	 4.3395397451973E-03 
1635	 4.57127540975156E-03 
1636	 4.64964584409044E-03 
1637	 4.55373568335148E-03 
1638	 4.54698880320464E-03 
1639	 4.37313553525086E-03 
1640	 4.40022804877376E-03 
1641	 4.5486963306674E-03 
1642	 4.46931257690591E-03 
1643	 4.58797094387164E-03 
1644	 4.67752489516959E-03 
1645	 4.55047773884601E-03 
1646	 4.46650511621664E-03 
1647	 4.29382402553461E-03 
1648	 4.31924077743227E-03 
1649	 4.45986014444549E-03 
1650	 4.51185526737159E-03 
1651	 4.82970785231982E-03 
1652	 4.8140357088091E-03 
1653	 4.34516858997563E-03 
1654	 4.2873835434637E-03 
1655	 4.36546458837785E-03 
1656	 4.33476581036505E-03 
1657	 4.46035953695371E-03 
1658	 4.46469318652052E-03 
1659	 4.3198730739271E-03 
1660	 4.28730406116852E-03 
1661	 4.22932330892778E-03 
1662	 4.20746525013656E-03 
1663	 4.30049604791536E-03 
1664	 4.32379483098661E-03 
1665	 4.22028812212424E-03 
1666	 4.17942186588115E-03 
1667	 4.3101849274152E-03 
1668	 4.29055511981344E-03 
1669	 4.28794187649973E-03 
1670	 4.68329935687622E-03 
1671	 4.5938967719192E-03 
1672	 4.22876233872686E-03 
1673	 4.40040952886532E-03 
1674	 4.52281144811969E-03 
1675	 4.25274580924417E-03 
1676	 4.34504124927023E-03 
1677	 4.55210905583208E-03 
1678	 4.14407841971788E-03 
1679	 3.89631494047291E-03 
1680	 4.34063981036747E-03 
1681	 4.58280958621072E-03 
1682	 4.47148148842491E-03 
1683	 4.37893122089982E-03 
1684	 4.08445708673295E-03 
1685	 3.80139647836219E-03 
1686	 3.8470431565486E-03 
1687	 4.06548248356309E-03 
1688	 4.14267481778807E-03 
1689	 4.04790041108644E-03 
1690	 4.13444426290014E-03 
1691	 4.33409361662751E-03 
1692	 4.40428554583249E-03 
1693	 4.19049191961208E-03 
1694	 4.00174970106292E-03 
1695	 4.21210427757621E-03 
1696	 4.25018259560423E-03 
1697	 4.16170281153505E-03 
1698	 4.39802554454959E-03 
1699	 4.38521441612143E-03 
1700	 4.23339502793074E-03 
1701	 4.62791218577827E-03 
1702	 4.9263777679789E-03 
1703	 4.6447288800975E-03 
1704	 4.51449605501182E-03 
1705	 4.53295347052632E-03 
1706	 4.30477660122133E-03 
1707	 4.24727425653406E-03 
1708	 4.45913713561121E-03 
1709	 4.52104816069282E-03 
1710	 4.39921025452044E-03 
1711	 4.4715176041516E-03 
1712	 4.63442264716012E-03 
1713	 4.60009785363179E-03 
1714	 4.59211021314197E-03 
1715	 4.76226848423102E-03 
1716	 4.74130506278792E-03 
1717	 4.63757051261889E-03 
1718	 4.57297565316587E-03 
1719	 4.33997831344819E-03 
1720	 4.46533153567965E-03 
1721	 4.4814626254676E-03 
1722	 4.39518561740468E-03 
1723	 4.65914377491317E-03 
1724	 4.49817064207936E-03 
1725	 4.31323634864926E-03 
1726	 4.65555320933641E-03 
1727	 4.43984389816045E-03 
1728	 3.90718135172064E-03 
1729	 4.13082397833514E-03 
1730	 4.3909981626404E-03 
1731	 4.18984618802707E-03 
1732	 4.48890866160794E-03 
1733	 4.6127276242513E-03 
1734	 4.08651089246282E-03 
1735	 4.21437086575746E-03 
1736	 4.30613016577504E-03 
1737	 4.17488862779809E-03 
1738	 4.74732730638738E-03 
1739	 4.93955826189852E-03 
1740	 4.97042600659089E-03 
1741	 5.27358517588653E-03 
1742	 4.76630343300612E-03 
1743	 4.26693990094495E-03 
1744	 4.04860205403101E-03 
1745	 3.47048518964227E-03 
1746	 4.07950722109954E-03 
1747	 4.31394921790641E-03 
1748	 4.88354771427106E-03 
1749	 4.94269381919735E-03 
1750	 3.88859016917639E-03 
1751	 3.63285338119618E-03 
1752	 3.93158190347241E-03 
1753	 3.97863484843223E-03 
1754	 4.51571244287281E-03 
1755	 4.43069047981151E-03 
1756	 3.19091546758716E-03 
1757	 2.84857980078527E-03 
1758	 3.62126786691017E-03 
1759	 4.66297017548062E-03 
1760	 5.68229726310235E-03 
1761	 5.45332852958245E-03 
1762	 4.46931994579232E-03 
1763	 4.0422954787129E-03 
1764	 4.18936267004609E-03 
1765	 4.54112867632033E-03 
1766	 4.72691445631406E-03 
1767	 4.44628100141696E-03 
1768	 3.71255247965239E-03 
1769	 3.72413125808881E-03 
1770	 4.51128981136314E-03 
1771	 4.81082287447953E-03 
1772	 4.76978932549885E-03 
1773	 4.67955749056133E-03 
1774	 4.46679291545057E-03 
1775	 4.63432423401047E-03 
1776	 4.5470663543542E-03 
1777	 3.77684479840517E-03 
1778	 3.8599410169665E-03 
1779	 4.84441884714524E-03 
1780	 4.94568531319541E-03 
1781	 5.21700083407333E-03 
1782	 5.34540927716973E-03 
1783	 4.48581094915677E-03 
1784	 4.21717793231782E-03 
1785	 4.37298786322553E-03 
1786	 4.73464841157554E-03 
1787	 4.70771773735984E-03 
1788	 5.01466246684719E-03 
1789	 7.05332833119684E-03 
1790	 7.17974194171287E-03 
1791	 7.30463333816715E-03 
1792	 7.90183800043304E-03 
1793	 5.50105629405408E-03 
1794	 5.80563946181319E-03 
1795	 7.21689774240293E-03 
1796	 4.54277149097276E-03 
1797	 3.26935134486927E-03 
1798	 3.33876975846936E-03 
1799	 1.17645290530142E-03 
1800	-6.08729196170754E-03 
1801	-6.42203807479776E-03 
1802	-6.10951095153324E-03 
1803	-3.97558456039924E-03 
1804	 0.030606562665855 
1805	 4.73284486026439E-02 
1806	 3.23426032923111E-02 
1807	 2.84363065267543E-02 
1808	 4.19160327136904E-03 
1809	-2.97124517654883E-02 
1810	-7.20688253636645E-02 
1811	-0.105394461621774 
1812	-0.13296048983603 
1813	-0.119885142601317 
1814	 2.9472190887054E-04 
1815	-8.51528966346682E-03 
1816	-9.98356733713405E-02 
1817	-0.144542731010447 
1818	-4.42059368590792E-02 
1819	-5.88343009982519E-03 
1820	-0.164226969624528 
1821	-0.418206965372142 
1822	-8.07536792188377E-02 
1823	 12.093945832535 
1824	 1.04526423650327 
1825	 8.87813983166534E-02 
1826	 5.80604394527604E-02 
1827	 0.369278368547477 
1828	 0.454834367848102 
1829	 0.668321975406762 
1830	 0.688409376113417 
1831	-1.72790254768855 
1832	-2.67035929726113 
1833	-2.01921163151447 
1834	 187.42724910563 
1835	 0.622461103542558 
1836	 0.482400959894569 
1837	 8.13707599099108 
1838	-2.21764744488925 
1839	-1.32269191199051 
1840	-0.619926735457846 
1841	-0.630961011698618 
1842	-4.52588413009226 
1843	-3.17245750007989 
1844	-0.631378397723841 
1845	-0.53658147441754 
1846	-0.536643680735305 
1847	-0.822236468783017 
1848	 10.6400421741882 
1849	 2.39682531653297 
1850	 1.31847945847167 
1851	 2.24808349754407 
1852	-2.40614812946995 
1853	-0.648349278082483 
1854	-0.529842191616824 
1855	-0.931901540749187 
1856	-1.01107666288541 
1857	-1.11392162000704 
1858	-1.97038160410457 
1859	 3.24062691793712 
1860	 0.969642003545739 
1861	 1.42658637272562 
1862	 1.50642751672007 
1863	 7.43800863587422 
1864	-0.599336201900569 
1865	-0.563985858777208 
1866	 1.88971181518849 
1867	 2.17357055159101 
1868	-35.0194662829211 
1869	 12.7626077216617 
1870	-12.9129190033454 
1871	-1.26201667771431 
1872	-0.53789455264572 
1873	-0.991942132516301 
1874	 1.5379409205391 
1875	-2.88161129551973 
1876	-3.8371637012812 
1877	 7.9790970059654 
1878	 6.15121071538539 
1879	 4.06108643674487 
1880	 4.90893009902537 
1881	 72.1959334255997 
1882	-3.16941067496137 
1883	-1.21662110395773 
1884	-2.56289593849227 
1885	-0.65861917493223 
1886	-1.98101567639103E-02 
1887	 10.2636707479994 
1888	-15.4875500693887 
1889	-8.71937691443009 
1890	-0.422591278113453 
1891	 3.88116211931644E-02 
1892	 3.19893935408623 
1893	-2.16369531681432 
1894	 1.60792803933482 
1895	 0.531853327482358 
1896	-0.627020397268485 
1897	-1.53273001784239 
1898	 1.75259706057481 
1899	 4.77402311604573E-02 
1900	-1.79063860031438E-02 
1901	-0.287428115865005 
1902	-0.601082651118681 
1903	-1.81491134849647 
1904	 3.47883163433035 
1905	 4.31434276258212 
1906	 1.66999469425542 
1907	 0.792437850140174 
1908	 0.583074330455789 
1909	 0.250070149967058 
1910	-9.44781389351566E-02 
1911	-0.798653781850692 
1912	-0.949654100736768 
1913	-0.861751466294716 
1914	-5.50770850834182E-02 
1915	 5.37320904256334E-02 
1916	 0.280153186729836 
1917	 0.584543808252853 
1918	-0.328453385209108 
1919	-0.63437179393202 
1920	 0.138489099884378 
1921	 0.692865174745779 
1922	 0.48271753183481 
1923	 2.37315017186138 
1924	-0.688833507473346 
1925	 0.356585517200405 
1926	 0.533864948520795 
1927	 0.256803648284598 
1928	 0.403060750832716 
1929	 0.242552656015716 
1930	 1.27515933568807 
1931	 2.32039572435868 
1932	 0.619231918499558 
1933	 0.322800040933695 
1934	 0.254552447388219 
1935	 9.26396298543527E-02 
1936	 6.47468841888589E-02 
1937	 0.074184255165287 
1938	 1.34141764994427E-03 
1939	-1.10662702877314E-02 
1940	 2.69597396930825E-02 
1941	 3.64886414189968E-02 
1942	 6.13974340836515E-03 
1943	-3.3132120846771E-03 
1944	 1.76215283600975E-02 
1945	 3.82330897780695E-02 
1946	 4.38672103157141E-02 
1947	 6.03635012573946E-02 
1948	 5.13796145683392E-02 
1949	 3.12306448456235E-02 
1950	 4.21605419031164E-02 
1951	 6.32158454187069E-02 
1952	 6.55624690600494E-02 
1953	 6.55181121084999E-02 
1954	 5.90021634377385E-02 
1955	 5.07769980135879E-02 
1956	 4.13886317403846E-02 
1957	 3.17003644825706E-02 
1958	 0.022279791735024 
1959	 1.51440227289407E-02 
1960	 4.10708596801441E-03 
1961	-4.06983390146167E-03 
1962	-2.85817073682648E-03 
1963	 2.68898787970885E-03 
1964	 4.78347574622526E-03 
1965	 2.57710955493813E-03 
1966	 2.55463401481261E-03 
1967	 2.62359117363384E-03 
1968	 1.82321416131632E-03 
1969	 4.46939150585998E-04 
1970	 0.001097862334896 
1971	 2.0762146676606E-03 
1972	 2.33180696791271E-03 
1973	 3.23923258875629E-03 
1974	 4.09907669740302E-03 
1975	 2.91191073567328E-03 
1976	 1.74174883112133E-03 
1977	 1.50383784935153E-03 
1978	 1.30420541221119E-03 
1979	 1.60951337108698E-03 
1980	 3.02912344469922E-03 
1981	 3.66090610657428E-03 
1982	 3.19574594503939E-03 
1983	 3.57112305159723E-03 
1984	 3.94578507620171E-03 
1985	 3.66000992793781E-03 
1986	 4.36449916548328E-03 
1987	 5.32987824318745E-03 
1988	 5.08318640608473E-03 
1989	 4.65011051297617E-03 
1990	 3.99790092270069E-03 
1991	 3.4710005723798E-03 
1992	 3.39383578437272E-03 
1993	 3.75074446756518E-03 
1994	 3.75644467825754E-03 
1995	 4.14048276773594E-03 
1996	 2.51021447715651E-03 
1997	 9.33395606073997E-04 
1998	 9.20743055395721E-04 
1999	 1.82830097142888E-04 
2000	 4.47769121053998E-04 
2001	 3.71978675510932E-03 
2002	 4.54600878493456E-03 
2003	 3.22056175837966E-03 
2004	 4.71663747424956E-03 
2005	 2.9204785863532E-03 
2006	 7.23178786975825E-04 
2007	 1.63802628113672E-03 
2008	 1.14365778473827E-03 
2009	 2.76816867947286E-03 
2010	 7.84667684668406E-03 
2011	 8.94527132344178E-03 
2012	 9.34070910391865E-03 
2013	 9.74987149834212E-03 
2014	 7.50547332167205E-03 
2015	 3.31156730094019E-03 
2016	 1.7875156262479E-03 
2017	 1.78457245938453E-03 
2018	 1.20609561672132E-03 
2019	 2.02209420273474E-03 
2020	 3.66826212606561E-03 
2021	 4.11934921713844E-03 
2022	 4.07365403808231E-03 
2023	 3.81567244947836E-03 
2024	 3.5875625592763E-03 
2025	 2.66635654576339E-03 
2026	 2.6503167168841E-03 
2027	 3.16522113420973E-03 
2028	 3.27278229499613E-03 
2029	 3.74654368951992E-03 
2030	 3.78730714589845E-03 
2031	 2.53813248634389E-03 
2032	 2.1119754331126E-03 
2033	 2.57602067443974E-03 
2034	 2.56256184862896E-03 
2035	 2.35406635002852E-03 
2036	 0.002572952785313 
2037	 2.60495395748099E-03 
2038	 2.37615300197709E-03 
2039	 2.46714155373096E-03 
2040	 3.64714670136792E-03 
2041	 3.91158372887044E-03 
2042	 3.41245046552015E-03 
2043	 3.41414576930373E-03 
2044	 3.70465490123889E-03 
2045	 0.003509607000297 
2046	 3.20591283186142E-03 
2047	 3.02708971574976E-03 
2048	 2.54248943693255E-03 
2049	 2.80059434747118E-03 
2050	 3.76076699008024E-03 
2051	 4.49121088704111E-03 
2052	 4.51890542961093E-03 
2053	 3.62910939067119E-03 
2054	 2.98428638508659E-03 
2055	 3.18339420616057E-03 
2056	 2.65565844997799E-03 
2057	 1.85946925198077E-03 
2058	 1.93703131855361E-03 
2059	 1.82673589185255E-03 
2060	 1.80289146972091E-03 
2061	 2.26579522649006E-03 
2062	 3.7965534588738E-03 
2063	 4.76066228095906E-03 
2064	 5.02699997448297E-03 
2065	 4.73735443027026E-03 
2066	 4.6360736187271E-03 
2067	 4.32329123128116E-03 
2068	 3.53336747393945E-03 
2069	 3.45577090492024E-03 
2070	 4.19222529235633E-03 
2071	 4.24341845077168E-03 
2072	 3.59178711556732E-03 
2073	 3.82857993590469E-03 
2074	 4.89692958777051E-03 
2075	 5.02922829154225E-03 
2076	 5.00932416728296E-03 
2077	 4.94594026875673E-03 
2078	 4.3625604601287E-03 
2079	 3.80871254891708E-03 
2080	 2.98290307146337E-03 
2081	 3.17441392168967E-03 
2082	 3.19197968528772E-03 
2083	 3.01552865286993E-03 
2084	 3.05319480862757E-03 
2085	 3.18272258224848E-03 
2086	 3.65662757718798E-03 
2087	 3.86863898885089E-03 
2088	 3.62330914650759E-03 
2089	 3.2102559299892E-03 
2090	 2.53558011421962E-03 
2091	 2.39522220049199E-03 
2092	 2.51575649254759E-03 
2093	 3.31148124837927E-03 
2094	 3.73859446189134E-03 
2095	 4.41422947901866E-03 
2096	 4.49346082245587E-03 
2097	 4.29795601441807E-03 
2098	 4.3138503307791E-03 
2099	 4.25605231365656E-03 
2100	 3.78476927901531E-03 
2101	 3.62206163838579E-03 
2102	 2.92196960683704E-03 
2103	 2.62232157632783E-03 
2104	 2.87429570233618E-03 
2105	 3.19751153308431E-03 
2106	 4.17426401861961E-03 
2107	 4.50881387725384E-03 
2108	 4.19474911173718E-03 
2109	 3.77047374183119E-03 
2110	 3.04835298432596E-03 
2111	 3.1872845565413E-03 
2112	 3.39076364774934E-03 
2113	 3.31597752648212E-03 
2114	 3.26762482350633E-03 
2115	 3.43412900101065E-03 
2116	 3.46978461653589E-03 
2117	 3.53360498949865E-03 
2118	 3.85625061938415E-03 
2119	 4.1815747792918E-03 
2120	 4.67804463070722E-03 
2121	 4.34582393314886E-03 
2122	 4.0921597620647E-03 
2123	 4.27614157370833E-03 
2124	 3.87588431843596E-03 
2125	 3.58133226086738E-03 
2126	 3.61786759268098E-03 
2127	 3.6342884753376E-03 
2128	 3.5906171547323E-03 
2129	 3.48034992457041E-03 
2130	 3.54822138363396E-03 
2131	 3.51684934496708E-03 
2132	 3.94481579884317E-03 
2133	 4.30551568328434E-03 
2134	 4.02998681185324E-03 
2135	 3.09778271929502E-03 
2136	 3.14834405499088E-03 
2137	 3.35834223997451E-03 
2138	 3.28493483264728E-03 
2139	 3.67767996385892E-03 
2140	 4.07467185044844E-03 
2141	 3.89816442101574E-03 
2142	 3.91658854036793E-03 
2143	 4.56905166186459E-03 
2144	 5.08853311901814E-03 
2145	 4.51087562541319E-03 
2146	 3.9037235766884E-03 
2147	 3.46889484385204E-03 
2148	 3.28658986019402E-03 
2149	 3.59377685718034E-03 
2150	 3.79096259159915E-03 
2151	 3.89573455743426E-03 
2152	 4.47259845938805E-03 
2153	 4.38111330229917E-03 
2154	 3.59325820512953E-03 
2155	 3.29312741615876E-03 
2156	 2.71622199129929E-03 
2157	 2.6109541821644E-03 
2158	 3.29962281272119E-03 
2159	 3.64074866126518E-03 
2160	 4.21177909927267E-03 
2161	 4.04949154835676E-03 
2162	 3.00452037089571E-03 
2163	 2.8029756120034E-03 
2164	 2.48958160620146E-03 
2165	 2.49205748064995E-03 
2166	 3.69683583468864E-03 
2167	 4.10326478866821E-03 
2168	 3.88187872051109E-03 
2169	 3.88728604554629E-03 
2170	 3.82928829580586E-03 
2171	 3.63459947169345E-03 
2172	 3.82253453461844E-03 
2173	 3.6965511310139E-03 
2174	 3.4608704913078E-03 
2175	 4.11184894322831E-03 
2176	 4.30324595028831E-03 
2177	 4.40099297625274E-03 
2178	 5.22785874567062E-03 
2179	 4.89576396996911E-03 
2180	 4.25684622544206E-03 
2181	 4.59511896899392E-03 
2182	 4.73720429809853E-03 
2183	 4.90131536520788E-03 
2184	 5.00234116704972E-03 
2185	 4.79044444976686E-03 
2186	 4.70825493898168E-03 
2187	 4.32413310562823E-03 
2188	 3.75792179695796E-03 
2189	 3.57633200265969E-03 
2190	 2.81724307969661E-03 
2191	 8.01643151617324E-04 
2192	 2.67072750048693E-04 
2193	 3.48872256210113E-04 
2194	 2.81231539261172E-04 
2195	 1.0029425928134E-03 
2196	 1.44806672413753E-03 
2197	 1.5472846121487E-03 
2198	 1.72949564488175E-03 
2199	 2.13370471362535E-03 
2200	 2.73309225924762E-03 
2201	 1.64677366310857E-03 
2202	 1.78969456081404E-03 
2203	 3.83623360887639E-03 
2204	 5.54099463573594E-03 
2205	 7.03492277862255E-03 
2206	 8.1551404538231E-03 
2207	 6.55373512542222E-03 
2208	 3.34423470920193E-03 
2209	 3.07013924079172E-03 
2210	 4.27997146728913E-03 
2211	 4.5094530529991E-03 
2212	 5.21915248038543E-03 
2213	 4.9957340356388E-03 
2214	 3.54542391136045E-03 
2215	 3.22998892513623E-03 
2216	 3.03140491187532E-03 
2217	 3.37951798930749E-03 
2218	 4.9272882519963E-03 
2219	 5.08328166761868E-03 
2220	 0.004550206443631 
2221	 4.57151651264532E-03 
2222	 4.03682811420077E-03 
2223	 3.47805741207246E-03 
2224	 3.59805718240227E-03 
2225	 4.0072639656562E-03 
2226	 4.44460713039433E-03 
2227	 3.83010454125339E-03 
2228	 2.53852581487363E-03 
2229	 2.35658522955434E-03 
2230	 2.35230955327343E-03 
2231	 1.7201457927195E-03 
2232	 8.79934720406809E-04 
2233	 1.24830621858974E-03 
2234	 1.19541407252875E-03 
2235	 0.002146437031582 
2236	 4.3360246248439E-03 
2237	 6.56827201710408E-03 
2238	 7.14684750681061E-03 
2239	 5.42710503364191E-03 
2240	 3.64081026275671E-03 
2241	 3.21195901400933E-03 
2242	 3.15933534756695E-03 
2243	 3.75141812477154E-03 
2244	 3.38115889219944E-03 
2245	 0.00244294288074 
2246	 1.16233583090495E-03 
2247	-9.12535263149079E-05 
2248	 5.40329010817532E-04 
2249	 1.5419969821085E-03 
2250	 2.69259936374779E-03 
2251	 3.26527679897869E-03 
2252	 3.37272506512165E-03 
2253	 2.90238402865338E-03 
2254	 2.01615749051736E-03 
2255	 2.39942064354262E-03 
2256	 1.75277352011567E-03 
2257	 9.06573329152166E-04 
2258	 2.59341286052747E-03 
2259	 2.40542443980509E-03 
2260	 3.24593386250377E-03 
2261	 7.07484757137912E-03 
2262	 8.01102358758692E-03 
2263	 7.39702015327417E-03 
2264	 6.05383555674608E-03 
2265	 1.49627555080133E-03 
2266	 1.61266319378323E-04 
2267	 3.954668491045E-04 
2268	 2.66423341463144E-05 
2269	 5.46815363096201E-04 
2270	 1.16836530014412E-03 
2271	 1.10834320421023E-03 
2272	 1.84072634886313E-03 
2273	 5.47493508514924E-03 
2274	 6.31358100474145E-03 
2275	 3.01267755981475E-03 
2276	 2.9788666116837E-03 
2277	 5.31556012013141E-03 
2278	 5.46931118461323E-03 
2279	 7.41702492298211E-03 
2280	 8.10438489511089E-03 
2281	 6.75966098754848E-03 
2282	 2.9126814070939E-03 
2283	 1.34033360131215E-03 
2284	 9.12502199663591E-04 
2285	 2.17584360933351E-03 
2286	 3.16874183103449E-03 
2287	 5.02228314378409E-03 
2288	 5.15578477337294E-03 
2289	 1.27243158366586E-03 
2290	-2.37099227135777E-03 
2291	-3.33863953668055E-03 
2292	-1.09733542763275E-03 
2293	 3.99347634138607E-03 
2294	 8.07751538587976E-03 
2295	 7.41423397426362E-03 
2296	 5.5866135614784E-03 
2297	 3.78236168034084E-03 
2298	 2.60569539624303E-03 
2299	 2.20553332048282E-03 
2300	 1.61934602842846E-04 
2301	 3.58815515726803E-04 
2302	 2.99627574332186E-03 
2303	 6.14222271468789E-03 
2304	 9.07386569786692E-03 
2305	 8.56074152010044E-03 
2306	 4.35730240323474E-03 
2307	 5.99260836646417E-04 
2308	-4.56527816369498E-04 
2309	-6.2963912993051E-04 
2310	 1.78409840765771E-03 
2311	 3.88635594803091E-03 
2312	 4.0443809343767E-03 
2313	 5.46324088734222E-03 
2314	 6.29328310936272E-03 
2315	 8.3269176016844E-03 
2316	 1.14087341601936E-02 
2317	 1.20718973429193E-02 
2318	 1.06760563932642E-02 
2319	 9.62502177601677E-03 
2320	 7.20589096573496E-03 
2321	 5.85789105928959E-03 
2322	 7.55137140201273E-03 
2323	 5.45990506849199E-03 
2324	 3.16978699841825E-03 
2325	 1.33796365706123E-03 
2326	-2.45478541706442E-03 
2327	-1.41804729082361E-03 
2328	 1.16916528145247E-04 
2329	-1.0381861935634E-03 
2330	 2.93716115812931E-03 
2331	 1.83007622617159E-03 
2332	-2.38641138395688E-03 
2333	 4.20151702108786E-03 
2334	 7.34668616742852E-03 
2335	 4.77904786937186E-03 
2336	 5.02380085237244E-03 
2337	 5.23307238427586E-03 
2338	 5.86165618751194E-03 
2339	 0.009972800991847 
2340	 1.50058710050313E-02 
2341	 0.012085731191781 
2342	 1.32661832476537E-03 
2343	-6.80709066386782E-03 
2344	-1.19599741286053E-02 
2345	-1.48767779772521E-02 
2346	-9.71032326420919E-03 
2347	-3.93496950138193E-03 
2348	-4.3459754987774E-03 
2349	-3.77909868814925E-03 
2350	 3.13746286409143E-03 
2351	 3.08118697332163E-03 
2352	 2.34065137421249E-03 
2353	 7.46368985967544E-03 
2354	-4.50754811328857E-03 
2355	-6.6092044375947E-03 
2356	 8.92670480443139E-03 
2357	 6.38811842385992E-03 
2358	 6.78656913472347E-03 
2359	 0.011847493968628 
2360	 4.71665886883355E-03 
2361	 6.8602445805905E-03 
2362	 6.19592540573864E-03 
2363	 0.001632015845375 
2364	 5.51470463281012E-03 
2365	 7.0819513495603E-03 
2366	 0.012497168333392 
2367	 1.55483497925296E-02 
2368	 5.16191798022056E-03 
2369	-1.37608536239799E-03 
2370	 6.3636610053192E-03 
2371	 6.09926250192849E-03 
2372	 1.49539229095051E-03 
2373	 7.91106636578035E-03 
2374	-3.56295284373642E-03 
2375	-2.03761407983423E-02 
2376	-0.013964886798367 
2377	-1.39724864271245E-02 
2378	-6.80418248594508E-03 
2379	 1.04289247833017E-02 
2380	 3.92133148266605E-03 
2381	 3.79957515698336E-03 
2382	 1.20389576776474E-02 
2383	 1.15464224750819E-02 
2384	 9.64801706528749E-03 
2385	 2.93723254083813E-03 
2386	 3.2628519866569E-03 
2387	 1.38381778447334E-02 
2388	 3.35383065395224E-02 
2389	 5.21142911750556E-02 
2390	 4.95775100284184E-02 
2391	 3.76694895347619E-02 
2392	 1.00619674466149E-02 
2393	-3.22240905162524E-02 
2394	-4.67492783476983E-02 
2395	-2.82115985507519E-02 
2396	-6.63821837913767E-03 
2397	 1.48424484613403E-02 
2398	 3.48398587671658E-02 
2399	 2.67394657982151E-02 
2400	 3.11440368187439E-02 
2401	 5.91305222611883E-02 
2402	 4.64285781353191E-02 
2403	 2.16487882362506E-02 
2404	 1.63539045760707E-02 
2405	 2.78703041049589E-03 
2406	-4.18653324091765E-02 
2407	-7.60941675521561E-02 
2408	-9.78540684742767E-02 
2409	-0.157608306300554 
2410	-0.181160448421218 
2411	-0.157716381214992 
2412	-0.160671665690141 
2413	-0.150441209360033 
2414	-6.04559005984926E-02 
2415	 5.69606790097954E-02 
2416	 9.80743049977094E-02 
2417	 8.99418413975266E-02 
2418	 0.130377204331414 
2419	 0.17722605985794 
2420	 0.169276980983485 
2421	 0.174257735806864 
2422	 0.16807861811383 
2423	 7.26491039450716E-02 
2424	-5.62709491719035E-02 
2425	-0.117274761242631 
2426	-0.107957823513482 
2427	-4.59470653973378E-03 
2428	 9.09412754095821E-02 
2429	 0.180474456320779 
2430	 0.193400903129535 
2431	 0.114417141002642 
2432	 9.22004045973373E-02 
2433	 8.69985632202375E-02 
2434	 2.37578291353964E-02 
2435	-0.036930236198078 
2436	-6.97797362389842E-02 
2437	 2.06128815043433E-02 
2438	 0.142511730601156 
2439	 0.10329923715102 
2440	-2.18970056396255E-02 
2441	-0.183453176814878 
2442	-0.349497957875818 
2443	-0.350429718626575 
2444	-0.262711698279033 
2445	-0.260322853825531 
2446	-0.218413354073604 
2447	-6.91783868502638E-02 
2448	 8.06874429592466E-02 
2449	 0.482011863440644 
2450	 0.629008209536375 
2451	 0.197666612521707 
2452	-0.537479677496884 
2453	-0.306666876636216 
2454	-0.217324208238698 
2455	 4.91723344955858E-02 
2456	-1.78627825690219E-02 
2457	-6.01175582366757E-02 
2458	 0.150566314821781 
2459	 9.34206026979039E-02 
2460	-1.51485490472907E-02 
2461	 0.156711737583483 
2462	 0.225809191519044 
2463	 0.431977788190123 
2464	 1.03471270683665 
2465	 1.13838266870635 
2466	 0.588952434952873 
2467	 5.74846492970714E-02 
2468	-0.14624860721255 
2469	-0.283265997738481 
2470	 0.860687996709825 
2471	-0.572650719148171 
2472	-8.31637398816751 
2473	 0.551149880614005 
2474	 1.00841731413429 
2475	 2.27950808117294 
2476	 1.94262594098798 
2477	 0.088916195350925 
2478	-1.05632295713956 
2479	-1.70722668390875 
2480	-3.97203479057458 
2481	 4.11176206404413E-02 
2482	-1.15195071771623 
2483	 16.5166222252192 
2484	-19.6846531797771 
2485	-2.04396421103902 
2486	-4.65075119275485 
2487	 2.31757339727058 
2488	 1.17775695609814 
2489	 0.242909323345184 
2490	 0.407710276599898 
2491	-0.495374118035151 
2492	 6.09531781153537E-02 
2493	-0.125595646978166 
2494	-0.241666080475808 
2495	 1.9140160703309 
2496	 0.377537115595694 
2497	 0.153706535427079 
2498	 0.667577958362241 
2499	 7.50441295378275 
2500	-0.813886567874294 
