Wavelength	rt0629dirt00004.asd
350	 9.89379555128681E-02 
351	 9.90316345938906E-02 
352	 9.79014729045822E-02 
353	 9.81374258888331E-02 
354	 0.100247069638181 
355	 9.92438290107495E-02 
356	 9.86396368586607E-02 
357	 9.91297824501137E-02 
358	 0.100175415756077 
359	 0.10006640121254 
360	 0.100279817639843 
361	 0.10046769153648 
362	 9.93349860365843E-02 
363	 0.100096074514145 
364	 0.100939374500095 
365	 0.100682663190697 
366	 0.100008221884533 
367	 0.100514918973863 
368	 0.101331017451399 
369	 0.101336663331734 
370	 0.101076662122304 
371	 0.101575987405582 
372	 0.102401113764242 
373	 0.102363362998558 
374	 0.102010949528603 
375	 0.102575450615555 
376	 0.103821793293198 
377	 0.103514904725416 
378	 0.103534061955205 
379	 0.10411917322246 
380	 0.104930442644085 
381	 0.105093654480731 
382	 0.105894689180176 
383	 0.106553430667829 
384	 0.105836838810167 
385	 0.10683015254998 
386	 0.107780160305647 
387	 0.107832571339514 
388	 0.107634572166642 
389	 0.108123500915687 
390	 0.109389191583649 
391	 0.110721198434873 
392	 0.10987134022763 
393	 0.110071821593318 
394	 0.111424339538705 
395	 0.112636678065283 
396	 0.112316814822445 
397	 0.112093455687951 
398	 0.112589102298198 
399	 0.113351387163026 
400	 0.113353641818441 
401	 0.113254174130677 
402	 0.113606233911578 
403	 0.114194362940094 
404	 0.114322221913893 
405	 0.114392149693612 
406	 0.115042730263113 
407	 0.115647867232159 
408	 0.116048257582232 
409	 0.116311569610884 
410	 0.116690087131549 
411	 0.117242633250921 
412	 0.117681403799554 
413	 0.117932226822455 
414	 0.118589095469077 
415	 0.119262240103746 
416	 0.119739883460636 
417	 0.119973829337814 
418	 0.120401154720783 
419	 0.120918855595834 
420	 0.121481194292549 
421	 0.122147058700641 
422	 0.122833472112001 
423	 0.123407528167036 
424	 0.123899038204754 
425	 0.124839931029258 
426	 0.125525926237458 
427	 0.126076087824688 
428	 0.126947857053578 
429	 0.127850458074714 
430	 0.128764123990567 
431	 0.129682597892031 
432	 0.13059124803335 
433	 0.131387262848215 
434	 0.132170819286879 
435	 0.133019087540619 
436	 0.133791444583599 
437	 0.134637122034321 
438	 0.135462675751534 
439	 0.136107609110939 
440	 0.137127760600667 
441	 0.137860680141321 
442	 0.138233816337651 
443	 0.13922862168783 
444	 0.140038418122717 
445	 0.140696635107853 
446	 0.141396709487855 
447	 0.141994790489242 
448	 0.142833052690368 
449	 0.143659005379876 
450	 0.143876165554186 
451	 0.144396479549304 
452	 0.144910217243505 
453	 0.145265432590932 
454	 0.146040876350438 
455	 0.146431751545955 
456	 0.146665515237194 
457	 0.147222013230987 
458	 0.147747310784892 
459	 0.148155638560425 
460	 0.148518981216713 
461	 0.149032228023723 
462	 0.149287856006521 
463	 0.14950210718297 
464	 0.149916648568146 
465	 0.150494942994487 
466	 0.151123718864034 
467	 0.151550236820898 
468	 0.151592256943359 
469	 0.152030026776 
470	 0.152453334208504 
471	 0.152716722461844 
472	 0.153174521797586 
473	 0.15385866241305 
474	 0.154432534002612 
475	 0.154687250966967 
476	 0.155226846831865 
477	 0.155770601237651 
478	 0.156213208578032 
479	 0.156605362330752 
480	 0.157219037495534 
481	 0.157899546509685 
482	 0.158491362215142 
483	 0.158938347334875 
484	 0.159577524307938 
485	 0.1602282938847 
486	 0.160677092526592 
487	 0.161670132795925 
488	 0.162539833419519 
489	 0.163120242842777 
490	 0.163796596175589 
491	 0.164404263452996 
492	 0.164945416675253 
493	 0.165533809490839 
494	 0.166561157201158 
495	 0.167371787724213 
496	 0.168046247577646 
497	 0.168995814382757 
498	 0.169941496645334 
499	 0.170880333585862 
500	 0.171763261710505 
501	 0.172418629083967 
502	 0.173310893915124 
503	 0.174263561309362 
504	 0.1750130399013 
505	 0.175727473043375 
506	 0.176652873170983 
507	 0.177781377251578 
508	 0.178886928353052 
509	 0.179657871515729 
510	 0.18058220370663 
511	 0.181873140457411 
512	 0.182826520124292 
513	 0.183634704165154 
514	 0.184639000576705 
515	 0.186095327150293 
516	 0.187046021694212 
517	 0.188076064143488 
518	 0.189372869619712 
519	 0.190469758634667 
520	 0.191577879341847 
521	 0.192693942043356 
522	 0.193775026925068 
523	 0.194730477839574 
524	 0.19591185033893 
525	 0.197311273503737 
526	 0.198657343780689 
527	 0.199801701057946 
528	 0.200956668108602 
529	 0.202207270972996 
530	 0.20327227206935 
531	 0.204399958651652 
532	 0.205616287556923 
533	 0.206850488550516 
534	 0.208012563833649 
535	 0.209250128461687 
536	 0.210529218646576 
537	 0.211593381077628 
538	 0.2128542817744 
539	 0.214091370549816 
540	 0.215133540726862 
541	 0.216499511088607 
542	 0.217890910602905 
543	 0.219137288167241 
544	 0.220214376255162 
545	 0.221630277660617 
546	 0.222918486623647 
547	 0.223913673215373 
548	 0.225288320659639 
549	 0.226545246917777 
550	 0.227690907389293 
551	 0.228889599692929 
552	 0.230136098321907 
553	 0.231299457482668 
554	 0.232378951073548 
555	 0.233519238459989 
556	 0.234768299971284 
557	 0.235979347561166 
558	 0.237039892828183 
559	 0.238180412506578 
560	 0.239172831168141 
561	 0.24008377667687 
562	 0.241136616177843 
563	 0.242033629752147 
564	 0.242895553436052 
565	 0.24380430910414 
566	 0.244672049551997 
567	 0.245365298251957 
568	 0.246072111513357 
569	 0.246994435876544 
570	 0.247648004916067 
571	 0.248377855505673 
572	 0.249192840107697 
573	 0.249698933586844 
574	 0.250247794159112 
575	 0.250825002868006 
576	 0.251374389875383 
577	 0.25201779035537 
578	 0.252503282199436 
579	 0.252836965067721 
580	 0.253190547918708 
581	 0.253628199947223 
582	 0.253842403091008 
583	 0.253783784813136 
584	 0.253962032642628 
585	 0.253985523997107 
586	 0.253850305313163 
587	 0.253673310407201 
588	 0.253442678817985 
589	 0.253231940682299 
590	 0.253116527671923 
591	 0.253132261627793 
592	 0.252984330026679 
593	 0.25286045355795 
594	 0.252887542107342 
595	 0.25272522083711 
596	 0.252213536545788 
597	 0.251606217280853 
598	 0.251334490291754 
599	 0.25099077673979 
600	 0.250691857389486 
601	 0.250459120111512 
602	 0.250033921352727 
603	 0.249717236354035 
604	 0.249779778536722 
605	 0.250236991676963 
606	 0.249917237553964 
607	 0.249656917763014 
608	 0.249742026224779 
609	 0.24978870129657 
610	 0.249789239840765 
611	 0.249827630120889 
612	 0.249955213844599 
613	 0.250058058784568 
614	 0.250065858150615 
615	 0.250052081938027 
616	 0.250146977207855 
617	 0.250157335713695 
618	 0.250119528980911 
619	 0.250084031770029 
620	 0.250078777099272 
621	 0.250154000078315 
622	 0.250211531836195 
623	 0.25015355739953 
624	 0.250151857103009 
625	 0.250093935795053 
626	 0.249976604071801 
627	 0.249921338317195 
628	 0.250249787841873 
629	 0.250326853176414 
630	 0.249915353231114 
631	 0.250366586840955 
632	 0.250067745348246 
633	 0.249610634559215 
634	 0.250316570792862 
635	 0.250345657592206 
636	 0.250153476972644 
637	 0.250114324656013 
638	 0.250166357207792 
639	 0.250173610192525 
640	 0.250180950623216 
641	 0.25021488881092 
642	 0.249973115695891 
643	 0.249864263922107 
644	 0.249755042797638 
645	 0.249110851473598 
646	 0.248773401783861 
647	 0.248571577833901 
648	 0.248317484232889 
649	 0.248257390678077 
650	 0.248110122137585 
651	 0.247800251489594 
652	 0.247353775344838 
653	 0.246806830736728 
654	 0.24603109571561 
655	 0.245120976305329 
656	 0.244594481164158 
657	 0.243910531095907 
658	 0.243280174329627 
659	 0.242883868059959 
660	 0.24242251030386 
661	 0.241899375926908 
662	 0.24138673035638 
663	 0.240981537685423 
664	 0.240388097383983 
665	 0.2398935910983 
666	 0.239665074378441 
667	 0.239567800623399 
668	 0.239182293580209 
669	 0.238680930919235 
670	 0.238380098531104 
671	 0.238133314351847 
672	 0.238142005541975 
673	 0.23818541007687 
674	 0.237709211598824 
675	 0.237734829429261 
676	 0.237739825803178 
677	 0.237376124267366 
678	 0.237519198981299 
679	 0.237447037915352 
680	 0.237165952381768 
681	 0.237005718324079 
682	 0.237065330954325 
683	 0.237036378417403 
684	 0.23680792025454 
685	 0.2365534879943 
686	 0.236040246690463 
687	 0.235676778893692 
688	 0.235722246794175 
689	 0.235197450574573 
690	 0.234923620802214 
691	 0.234732197210924 
692	 0.233937366953584 
693	 0.233408707667176 
694	 0.232930473365427 
695	 0.232370603483986 
696	 0.23194235058201 
697	 0.231183610617327 
698	 0.230154740401692 
699	 0.229139389179185 
700	 0.228184293743152 
701	 0.227354516142184 
702	 0.226485063205499 
703	 0.225271496950214 
704	 0.224433382206688 
705	 0.223295970983967 
706	 0.221603794612923 
707	 0.220367859831845 
708	 0.218755406755877 
709	 0.216934763161306 
710	 0.215300708785341 
711	 0.213374557788183 
712	 0.211279910772888 
713	 0.209082820890195 
714	 0.206693644896281 
715	 0.203980071192927 
716	 0.200983598901154 
717	 0.198051215939983 
718	 0.194809106524467 
719	 0.192132923463602 
720	 0.190224992044933 
721	 0.188324746190666 
722	 0.18581239474032 
723	 0.182702925394169 
724	 0.179599086721118 
725	 0.176738067566102 
726	 0.173762244172137 
727	 0.170495798560875 
728	 0.166922000941895 
729	 0.163203309971727 
730	 0.159255048733636 
731	 0.155583359937509 
732	 0.152489279716205 
733	 0.149752411586942 
734	 0.147211450536812 
735	 0.144940067112846 
736	 0.143260269889758 
737	 0.141636614980684 
738	 0.140317214423441 
739	 0.139569604911928 
740	 0.1391525990603 
741	 0.138455460852426 
742	 0.137689743545831 
743	 0.137395517082602 
744	 0.137024121400088 
745	 0.136692952964517 
746	 0.136498847319829 
747	 0.136423058299362 
748	 0.136049954092719 
749	 0.135603103775715 
750	 0.13536810206746 
751	 0.135256563118064 
752	 0.134978264084865 
753	 0.134625725838143 
754	 0.134469260788863 
755	 0.134302872861351 
756	 0.134156201815399 
757	 0.134030846179831 
758	 0.133822285020768 
759	 0.133063497344003 
760	 0.132513398377326 
761	 0.133255240802588 
762	 0.132669516275149 
763	 0.132479701281383 
764	 0.132870850064746 
765	 0.133376947511676 
766	 0.133574720880123 
767	 0.133561539924713 
768	 0.133537686914776 
769	 0.133791702294312 
770	 0.133981238322169 
771	 0.134125706449484 
772	 0.1342906746611 
773	 0.13444802199091 
774	 0.134748365632926 
775	 0.135055804519442 
776	 0.135209938371582 
777	 0.135707591609587 
778	 0.136205865825006 
779	 0.136527010263863 
780	 0.136743535319794 
781	 0.137125060809374 
782	 0.137648492966013 
783	 0.138211638290761 
784	 0.138680351174995 
785	 0.139152006080508 
786	 0.139654989407622 
787	 0.140160156897372 
788	 0.140483679174205 
789	 0.140845404797329 
790	 0.141447839934051 
791	 0.142377780993416 
792	 0.142945167598659 
793	 0.143468476478409 
794	 0.144104044937986 
795	 0.144471359152446 
796	 0.145076014804279 
797	 0.145746168343979 
798	 0.14627000283967 
799	 0.146935491892289 
800	 0.147142007628833 
801	 0.14733258249678 
802	 0.148292173240911 
803	 0.148559442811539 
804	 0.148715385963894 
805	 0.148960887448443 
806	 0.148898064035836 
807	 0.148562650472598 
808	 0.14861589357642 
809	 0.149164014868554 
810	 0.148474719882362 
811	 0.147812954741029 
812	 0.147426976509041 
813	 0.14705997586144 
814	 0.146016242883742 
815	 0.145155599686743 
816	 0.144751155670308 
817	 0.14436932977703 
818	 0.143844987098163 
819	 0.14263806286501 
820	 0.141044108891531 
821	 0.140435281489035 
822	 0.138667487862979 
823	 0.136203401174272 
824	 0.134011813322039 
825	 0.132038547431995 
826	 0.130049059010199 
827	 0.12737182845851 
828	 0.123756344596087 
829	 0.121000566107005 
830	 0.118810480821623 
831	 0.116944114880881 
832	 0.115324529896214 
833	 0.113354145939377 
834	 0.11167964752461 
835	 0.110736641026339 
836	 0.110495566512556 
837	 0.109603145253332 
838	 0.10850750415194 
839	 0.107761177239604 
840	 0.107075554083852 
841	 0.106611815774926 
842	 0.106080122205651 
843	 0.105269712398844 
844	 0.105141507891981 
845	 0.104419588247188 
846	 0.103476225863 
847	 0.103596121766601 
848	 0.102983688291465 
849	 0.102308836436656 
850	 0.10185259919526 
851	 0.101067954104286 
852	 0.100620614084275 
853	 0.10049945941874 
854	 0.100295133848929 
855	 9.91139900000081E-02 
856	 9.82944799450154E-02 
857	 9.81210771759507E-02 
858	 9.83054823106653E-02 
859	 9.77759130357558E-02 
860	 9.75105198903674E-02 
861	 9.73290331784227E-02 
862	 9.66308190134409E-02 
863	 9.61879557823659E-02 
864	 9.59240071040898E-02 
865	 9.54843841797323E-02 
866	 9.44927396889532E-02 
867	 9.44647054243336E-02 
868	 0.094125999384863 
869	 9.31835420001282E-02 
870	 9.30484564141543E-02 
871	 0.092575311032498 
872	 9.18547780572035E-02 
873	 9.10893032095828E-02 
874	 9.00706502315642E-02 
875	 8.98680162581118E-02 
876	 8.99513118598061E-02 
877	 8.94898468459639E-02 
878	 8.85708842294091E-02 
879	 8.78999233371306E-02 
880	 8.75662180445511E-02 
881	 8.72308736124062E-02 
882	 8.62408761917704E-02 
883	 8.55243678176179E-02 
884	 8.51812655903898E-02 
885	 8.46550575978798E-02 
886	 8.42082990320457E-02 
887	 8.34435347489732E-02 
888	 8.26858034609812E-02 
889	 8.29965347864416E-02 
890	 8.28273206221469E-02 
891	 8.16207075301582E-02 
892	 8.00026221323914E-02 
893	 8.05112897965078E-02 
894	 8.00907033186639E-02 
895	 7.91024350764844E-02 
896	 7.84937286783069E-02 
897	 7.72688431819161E-02 
898	 7.73060635342349E-02 
899	 7.72098292479648E-02 
900	 7.58100441445029E-02 
901	 0.076842864907065 
902	 7.74498489032145E-02 
903	 7.69841349667937E-02 
904	 7.58889237951126E-02 
905	 7.51647444250213E-02 
906	 7.51477974223017E-02 
907	 7.46354099400632E-02 
908	 7.19411644174162E-02 
909	 7.07759195191012E-02 
910	 7.22975510428579E-02 
911	 7.40104908699155E-02 
912	 0.071487122192866 
913	 7.07165627832376E-02 
914	 6.89156250316882E-02 
915	 6.67802773803964E-02 
916	 6.89767924600936E-02 
917	 6.64750181213858E-02 
918	 6.59089702442143E-02 
919	 0.068595150179955 
920	 6.68233764496423E-02 
921	 6.38637484173958E-02 
922	 6.24536694652793E-02 
923	 6.29156011778132E-02 
924	 6.05443627944228E-02 
925	 6.00110677038034E-02 
926	 6.15726200288796E-02 
927	 6.28898832187554E-02 
928	 5.72845644364615E-02 
929	 5.60371609850937E-02 
930	 0.060818786908922 
931	 0.065030697148141 
932	 5.90361079574444E-02 
933	 5.59416322166935E-02 
934	 6.07229292547814E-02 
935	 6.48003051233826E-02 
936	 4.87478572649734E-02 
937	 5.58754915784738E-02 
938	 6.01251133044964E-02 
939	 3.70629228691272E-02 
940	 4.86124899209509E-02 
941	 5.36772015911115E-02 
942	 4.90159506293563E-02 
943	 4.93193766477272E-02 
944	 4.92778953050477E-02 
945	 4.96743373048257E-02 
946	 4.73845337366798E-02 
947	 4.01348157250581E-02 
948	 4.11458146396033E-02 
949	 4.98208787772098E-02 
950	 5.69522024540039E-02 
951	 5.29515255362892E-02 
952	 4.99196073844503E-02 
953	 5.23495933485443E-02 
954	 5.26117626737084E-02 
955	 0.041356918188832 
956	 4.56550413525438E-02 
957	 4.90555992083977E-02 
958	 4.87247863222871E-02 
959	 5.18107252330557E-02 
960	 0.048951182021652 
961	 4.71621492193264E-02 
962	 4.82077673019383E-02 
963	 4.90339176811968E-02 
964	 4.76214774231925E-02 
965	 4.48736496609259E-02 
966	 4.38520184797065E-02 
967	 4.71124251315589E-02 
968	 4.43176461826044E-02 
969	 4.39476760422122E-02 
970	 4.70461438414526E-02 
971	 0.047391314053417 
972	 4.37211641085379E-02 
973	 4.45052710387605E-02 
974	 4.91597107174578E-02 
975	 4.81998360389879E-02 
976	 4.45340254478263E-02 
977	 0.042957548642222 
978	 4.43641385097722E-02 
979	 4.58581914031277E-02 
980	 4.55380491863179E-02 
981	 4.64495260151576E-02 
982	 4.67229021406037E-02 
983	 4.21509393545303E-02 
984	 4.28909172639815E-02 
985	 4.54179808922108E-02 
986	 4.59874975560229E-02 
987	 4.27494719290864E-02 
988	 3.89759731174698E-02 
989	 4.24783790614331E-02 
990	 4.81672335776966E-02 
991	 4.45200447691491E-02 
992	 4.43841622950757E-02 
993	 4.46681397098091E-02 
994	 4.52832563477973E-02 
995	 0.047508180342094 
996	 4.26058166629693E-02 
997	 4.24657229256128E-02 
998	 4.56508809040292E-02 
999	 4.33412326529541E-02 
1000	 4.04696816838461E-02 
1001	 5.03310086714392E-02 
1002	 5.12400278605791E-02 
1003	 5.14827218613342E-02 
1004	 5.15596890542745E-02 
1005	 5.11932003491283E-02 
1006	 5.06545506733036E-02 
1007	 4.90806227096205E-02 
1008	 4.80699170858491E-02 
1009	 4.79423994581722E-02 
1010	 0.047582236518791 
1011	 4.86617696910147E-02 
1012	 5.00117543751293E-02 
1013	 5.04764919749848E-02 
1014	 5.03068210336208E-02 
1015	 4.95739385515496E-02 
1016	 4.86494796851148E-02 
1017	 4.58268615580575E-02 
1018	 4.55930423347642E-02 
1019	 4.74305348107209E-02 
1020	 4.79523975214401E-02 
1021	 4.96577099003684E-02 
1022	 4.95804715671083E-02 
1023	 4.86111134306799E-02 
1024	 4.72362488025204E-02 
1025	 4.73240198478996E-02 
1026	 4.87954779904916E-02 
1027	 4.95194036191675E-02 
1028	 5.10172453330175E-02 
1029	 5.14663005779792E-02 
1030	 5.09751709909036E-02 
1031	 5.11369562943584E-02 
1032	 5.13177703700895E-02 
1033	 5.16317092110611E-02 
1034	 5.24945421439032E-02 
1035	 5.27581942700657E-02 
1036	 5.25450565401944E-02 
1037	 5.25213258032973E-02 
1038	 5.25207783965106E-02 
1039	 5.20547594299308E-02 
1040	 5.19785558680702E-02 
1041	 5.24780081613788E-02 
1042	 5.25641648512807E-02 
1043	 5.28198803598305E-02 
1044	 5.26072633033832E-02 
1045	 5.15683470915807E-02 
1046	 5.17472043183008E-02 
1047	 0.052908701315399 
1048	 5.25787980575537E-02 
1049	 5.16441543437195E-02 
1050	 5.17911095254676E-02 
1051	 5.09328786192918E-02 
1052	 5.11764650759746E-02 
1053	 5.43014418161968E-02 
1054	 5.52751945476377E-02 
1055	 0.054902565010194 
1056	 5.49011805558374E-02 
1057	 5.46189288045892E-02 
1058	 5.30279542844097E-02 
1059	 0.053371653527277 
1060	 5.52834459573604E-02 
1061	 5.53147828287622E-02 
1062	 5.51535472226011E-02 
1063	 5.50748240587014E-02 
1064	 5.35391616141613E-02 
1065	 5.33433723138028E-02 
1066	 5.49897011487428E-02 
1067	 5.49658358437073E-02 
1068	 5.37811775111577E-02 
1069	 0.053532964070722 
1070	 5.30119699972396E-02 
1071	 5.26864710822227E-02 
1072	 5.33503454306069E-02 
1073	 5.36820227111279E-02 
1074	 5.36207896612573E-02 
1075	 5.28775339404615E-02 
1076	 5.27930639783764E-02 
1077	 5.29128187619706E-02 
1078	 5.28615189873706E-02 
1079	 0.052817648343348 
1080	 5.29906108971879E-02 
1081	 5.33991437295785E-02 
1082	 5.32495051835822E-02 
1083	 5.31895784069396E-02 
1084	 0.052834716624157 
1085	 5.13670028391834E-02 
1086	 5.09464598318981E-02 
1087	 5.07048323823642E-02 
1088	 5.09012695362503E-02 
1089	 5.23924441597204E-02 
1090	 5.31970777475503E-02 
1091	 5.34651875983663E-02 
1092	 5.36873838001684E-02 
1093	 5.37421668755933E-02 
1094	 5.27110425097637E-02 
1095	 0.052792097854888 
1096	 5.46852502363833E-02 
1097	 5.38841973326034E-02 
1098	 5.03279747970962E-02 
1099	 4.93327823902092E-02 
1100	 4.80268075987053E-02 
1101	 4.74331050797848E-02 
1102	 5.06521476738196E-02 
1103	 5.16017623084576E-02 
1104	 5.19194965696705E-02 
1105	 4.87636678418774E-02 
1106	 4.84032697539828E-02 
1107	 4.90904308719532E-02 
1108	 0.048350819623966 
1109	 4.89249097660358E-02 
1110	 4.99007127871218E-02 
1111	 5.00744962797909E-02 
1112	 0.051712645606071 
1113	 5.76935948339142E-02 
1114	 6.03376482353073E-02 
1115	 5.97803918785638E-02 
1116	 6.17201145432477E-02 
1117	 6.19410185239077E-02 
1118	 6.69928520446214E-02 
1119	 8.24466200074935E-02 
1120	 9.31173574431757E-02 
1121	 0.105146588874576 
1122	 0.11797882397479 
1123	 0.102269988654049 
1124	 8.65608177773867E-02 
1125	 7.52821706901423E-02 
1126	 5.77690790323139E-02 
1127	 6.50785705093589E-02 
1128	 7.16004169195995E-02 
1129	 7.47138862240349E-02 
1130	 8.09191310013714E-02 
1131	 8.01654265863625E-02 
1132	 0.075422927381973 
1133	 7.24982876514789E-02 
1134	 6.49769643963093E-02 
1135	 0.062413532182153 
1136	 6.31688188471002E-02 
1137	 6.56785431731958E-02 
1138	 7.45647495691042E-02 
1139	 7.29597185289936E-02 
1140	 6.93882500606413E-02 
1141	 5.68703923045644E-02 
1142	 4.56414057950005E-02 
1143	 4.99280198933176E-02 
1144	 5.07491000087807E-02 
1145	 4.94227172249877E-02 
1146	 5.72734131423472E-02 
1147	 5.67839865881159E-02 
1148	 4.92547514445596E-02 
1149	 0.050642617409955 
1150	 5.17943505056679E-02 
1151	 4.85197683532307E-02 
1152	 4.85917227498738E-02 
1153	 5.43804680095997E-02 
1154	 5.43590867531774E-02 
1155	 5.18478907770226E-02 
1156	 4.99667876934345E-02 
1157	 4.85688210855945E-02 
1158	 0.048160455092452 
1159	 4.71468065913306E-02 
1160	 4.41153116699356E-02 
1161	 4.27359655431836E-02 
1162	 4.31421712146795E-02 
1163	 4.30308400192485E-02 
1164	 4.31640749194771E-02 
1165	 4.31420579111671E-02 
1166	 4.25752725008867E-02 
1167	 4.30910413570014E-02 
1168	 4.39754403270516E-02 
1169	 4.38552147561229E-02 
1170	 4.37536951070023E-02 
1171	 4.36995116750802E-02 
1172	 0.043810462365591 
1173	 4.33772176398665E-02 
1174	 4.31604835594156E-02 
1175	 0.041339755841388 
1176	 3.94679831007585E-02 
1177	 3.81555087845518E-02 
1178	 3.83540325105222E-02 
1179	 4.02842349981681E-02 
1180	 4.12978458934834E-02 
1181	 4.11574443429394E-02 
1182	 4.03930406061885E-02 
1183	 3.99363783210481E-02 
1184	 3.99392224015896E-02 
1185	 3.97884375845074E-02 
1186	 4.08511507460655E-02 
1187	 4.17849596887042E-02 
1188	 4.16209458410985E-02 
1189	 4.19463233864991E-02 
1190	 4.21656553949876E-02 
1191	 4.17180889784138E-02 
1192	 4.15181216807487E-02 
1193	 4.17325268230941E-02 
1194	 4.25615764376238E-02 
1195	 4.32573375024925E-02 
1196	 4.31826122072875E-02 
1197	 4.32572875291568E-02 
1198	 4.29071179146583E-02 
1199	 0.040773083401989 
1200	 4.02799220324082E-02 
1201	 4.05580207235735E-02 
1202	 4.03962982115025E-02 
1203	 4.16173858375776E-02 
1204	 4.08982319585282E-02 
1205	 3.97026559512218E-02 
1206	 4.07859361656386E-02 
1207	 4.08355187186117E-02 
1208	 4.06258493225042E-02 
1209	 4.14189678340948E-02 
1210	 4.05412995038506E-02 
1211	 3.93304150589848E-02 
1212	 4.00000553590288E-02 
1213	 4.02329207368531E-02 
1214	 0.040037337582303 
1215	 3.96088104400837E-02 
1216	 4.02336297543444E-02 
1217	 4.00648238551868E-02 
1218	 3.88364891133376E-02 
1219	 3.87038114138305E-02 
1220	 4.00512246658987E-02 
1221	 4.11214122780672E-02 
1222	 4.10973160274165E-02 
1223	 4.07332012855057E-02 
1224	 4.05774524679287E-02 
1225	 4.03513465265372E-02 
1226	 4.13818322808579E-02 
1227	 4.27768596393431E-02 
1228	 4.17950700280572E-02 
1229	 4.06411479035953E-02 
1230	 4.05468674901205E-02 
1231	 4.05492990694774E-02 
1232	 4.05964984843691E-02 
1233	 0.039962495706277 
1234	 0.039351468078996 
1235	 0.039405828198196 
1236	 4.02639889943603E-02 
1237	 4.04491825976549E-02 
1238	 4.08647750559949E-02 
1239	 4.12063056880902E-02 
1240	 4.07825667245661E-02 
1241	 4.02270506527862E-02 
1242	 4.09093128049382E-02 
1243	 4.14515107240504E-02 
1244	 4.09011917657105E-02 
1245	 4.09951375567376E-02 
1246	 4.13034470470679E-02 
1247	 4.03149520001238E-02 
1248	 4.00187383191987E-02 
1249	 4.09847042587964E-02 
1250	 4.08621787585085E-02 
1251	 4.01382712569767E-02 
1252	 4.02527353383027E-02 
1253	 0.04044708178384 
1254	 4.04358046935988E-02 
1255	 4.08870460010396E-02 
1256	 4.11169835974722E-02 
1257	 4.07279247926955E-02 
1258	 4.07940521374381E-02 
1259	 4.14210399442783E-02 
1260	 4.17195130191352E-02 
1261	 4.23225505537695E-02 
1262	 0.042208044230587 
1263	 4.14809519497849E-02 
1264	 0.040752408198363 
1265	 3.99703966178563E-02 
1266	 3.91398776368123E-02 
1267	 4.01875827729404E-02 
1268	 4.23595103258813E-02 
1269	 4.34198329890732E-02 
1270	 4.39064938288415E-02 
1271	 0.043385847725185 
1272	 4.13080290418188E-02 
1273	 4.03645437324412E-02 
1274	 4.10949524016481E-02 
1275	 4.14665498861424E-02 
1276	 4.14846301483738E-02 
1277	 4.16046176114385E-02 
1278	 0.040814397507157 
1279	 0.040220115644481 
1280	 4.11329638592158E-02 
1281	 4.10126193029836E-02 
1282	 4.03057000300169E-02 
1283	 4.01532898031706E-02 
1284	 3.99043579860593E-02 
1285	 3.95266180083212E-02 
1286	 3.92199053105812E-02 
1287	 3.97219737010075E-02 
1288	 4.10655565379683E-02 
1289	 4.12487853554068E-02 
1290	 4.14647448873792E-02 
1291	 4.12461537397341E-02 
1292	 4.10960516041658E-02 
1293	 4.07593651978345E-02 
1294	 4.06988275231961E-02 
1295	 4.23340089911722E-02 
1296	 4.27253788113722E-02 
1297	 4.08657947784215E-02 
1298	 4.04128009730963E-02 
1299	 4.07914493841642E-02 
1300	 4.05610895954972E-02 
1301	 4.10650606330304E-02 
1302	 4.14611957920485E-02 
1303	 4.08548586526673E-02 
1304	 4.08597491925371E-02 
1305	 4.20489906092148E-02 
1306	 4.23196433611239E-02 
1307	 4.24966467489496E-02 
1308	 4.22908006073823E-02 
1309	 4.11758183351266E-02 
1310	 0.040723934098074 
1311	 4.08100965934533E-02 
1312	 4.04582847677408E-02 
1313	 3.93158424023294E-02 
1314	 0.039233902002507 
1315	 3.99982913428488E-02 
1316	 4.03958356958295E-02 
1317	 4.16357552892399E-02 
1318	 4.22512831541978E-02 
1319	 4.23702035071203E-02 
1320	 0.041756257185868 
1321	 3.97613350069907E-02 
1322	 3.91399544763322E-02 
1323	 4.06798987872352E-02 
1324	 4.19614246975948E-02 
1325	 4.36346578074634E-02 
1326	 4.62660209371767E-02 
1327	 4.78520514276461E-02 
1328	 4.63259478584351E-02 
1329	 4.70302377784908E-02 
1330	 5.10711468714336E-02 
1331	 5.06422291942593E-02 
1332	 4.74789171004543E-02 
1333	 4.75136755274031E-02 
1334	 4.85436409787896E-02 
1335	 4.70690644720634E-02 
1336	 4.51198608714523E-02 
1337	 4.59885355060508E-02 
1338	 4.61989751013828E-02 
1339	 4.46318326818616E-02 
1340	 4.45212083575791E-02 
1341	 4.68576272736616E-02 
1342	 5.02699675677309E-02 
1343	 4.92504574127175E-02 
1344	 4.64013623446304E-02 
1345	 0.048847427561164 
1346	 4.58866559878172E-02 
1347	 4.71552382842658E-02 
1348	 7.12979079354886E-02 
1349	 0.101459396046984 
1350	 0.156501784738272 
1351	 0.191810691309015 
1352	 0.16439283405178 
1353	 0.214326861850689 
1354	 0.327815066805466 
1355	 0.261414669159227 
1356	 0.301318161083446 
1357	 0.49100004940529 
1358	 0.485628029749685 
1359	 0.443684030234057 
1360	 0.40997298335409 
1361	 0.630567183996188 
1362	 0.870003132796234 
1363	 0.727320641259527 
1364	 0.895276549210122 
1365	 1.32024814509707 
1366	 1.56478517452272 
1367	 1.25240579157891 
1368	 1.16177246413532 
1369	 1.18326543547229 
1370	 1.2793969615246 
1371	 0.972777051640299 
1372	 1.02160436882995 
1373	 3.94018080048179 
1374	 2.36391923081248 
1375	 0.802440541284319 
1376	 0.733546520679466 
1377	 1.06831109697271 
1378	 0.818275420456505 
1379	 0.253078683526836 
1380	 0.384063391627475 
1381	 1.12122873052108 
1382	 1.04020147227284 
1383	 0.861958775507649 
1384	 1.25661243708248 
1385	 1.22061536758899 
1386	 1.22519245159688 
1387	 3.25621495353917 
1388	 8.76167171662906 
1389	 5.94241750994518 
1390	 7.87606120105675 
1391	 8.46067133414375 
1392	-12.8816036997798 
1393	-8.86625489178148 
1394	 8.21368846263794 
1395	 2.69461013821554 
1396	 1.51889760238254 
1397	 1.27001930154158 
1398	 1.51060396863449 
1399	 2.06836208701058 
1400	 1.93082830136552 
1401	 1.80917172550025 
1402	 1.98273995019518 
1403	 1.94644655264205 
1404	 1.74937082596558 
1405	 1.52562676419323 
1406	 0.920828732819151 
1407	 1.39301575828797 
1408	 8.74949704776139 
1409	 8.12464883531829 
1410	 4.4863290468864 
1411	 5.2871320356989 
1412	 2.83924298517578 
1413	 1.6266773687586 
1414	 1.31179106719272 
1415	 1.51162050710457 
1416	 1.73657599148603 
1417	 1.17751093961522 
1418	 0.657438892259864 
1419	 0.651716916425182 
1420	 0.418095310197026 
1421	 0.224647155222317 
1422	 0.378709140657694 
1423	 0.463916120408194 
1424	 0.371338640419972 
1425	 0.312363944161603 
1426	 0.387150427187918 
1427	 0.411405921890062 
1428	 0.305486975431621 
1429	 0.261749452366433 
1430	 0.286358829587996 
1431	 0.297917363563828 
1432	 0.264002662760989 
1433	 0.274330178784718 
1434	 0.341883452240723 
1435	 0.380714063959896 
1436	 0.420613541316033 
1437	 0.467764744072309 
1438	 0.428214217212561 
1439	 0.374638453082494 
1440	 0.354457369624829 
1441	 0.318205416296319 
1442	 0.258030369657102 
1443	 0.255572327702738 
1444	 0.274387841564526 
1445	 0.210344442076781 
1446	 0.176439348435133 
1447	 0.182613103086119 
1448	 0.170171273952717 
1449	 0.144379871344026 
1450	 0.120074382823578 
1451	 0.108462853975401 
1452	 8.02626757030009E-02 
1453	 6.84694736487119E-02 
1454	 7.00098729216343E-02 
1455	 7.74165236009739E-02 
1456	 6.92815603518265E-02 
1457	 6.90555949137446E-02 
1458	 6.74028875668035E-02 
1459	 4.95316716570283E-02 
1460	 4.53357508009185E-02 
1461	 5.66117936707798E-02 
1462	 6.10268880224324E-02 
1463	 5.64555838183264E-02 
1464	 6.18663156825031E-02 
1465	 7.82863138381042E-02 
1466	 8.59869567431377E-02 
1467	 9.42995377513371E-02 
1468	 0.103284177312677 
1469	 0.119925192635375 
1470	 0.110310579787453 
1471	 7.70691670425404E-02 
1472	 0.065994441166952 
1473	 0.046831057372735 
1474	 4.64896886188061E-02 
1475	 7.55086638337532E-02 
1476	 7.36469972685297E-02 
1477	 5.65982719470208E-02 
1478	 0.053310734337968 
1479	 4.57482209196578E-02 
1480	 4.66106728808116E-02 
1481	 5.88638740677412E-02 
1482	 6.18406860098265E-02 
1483	 6.19474041767995E-02 
1484	 5.94824404400891E-02 
1485	 5.64973059226535E-02 
1486	 0.052947802546152 
1487	 4.94026125162001E-02 
1488	 4.44506438215439E-02 
1489	 3.64403674725466E-02 
1490	 3.40792395901085E-02 
1491	 3.35360189903276E-02 
1492	 3.12573811487141E-02 
1493	 2.92610297898634E-02 
1494	 3.00771153663602E-02 
1495	 3.27471242596311E-02 
1496	 3.18869639843356E-02 
1497	 2.88821613872978E-02 
1498	 3.02847542526775E-02 
1499	 3.44186864692273E-02 
1500	 3.38221658239597E-02 
1501	 3.20493643322947E-02 
1502	 3.30201998876667E-02 
1503	 3.35241011136267E-02 
1504	 3.10512399333613E-02 
1505	 2.77457336141857E-02 
1506	 2.89207696645023E-02 
1507	 2.80127779131775E-02 
1508	 2.51901032009505E-02 
1509	 0.02646782332169 
1510	 0.028590695485169 
1511	 2.81348750961974E-02 
1512	 2.74966628179937E-02 
1513	 2.76438986096039E-02 
1514	 2.78938650550235E-02 
1515	 0.026950906365849 
1516	 0.026877568353909 
1517	 2.84846912359143E-02 
1518	 2.72650527103488E-02 
1519	 2.64160976325385E-02 
1520	 2.79758895989821E-02 
1521	 2.83855351896304E-02 
1522	 2.86329416797856E-02 
1523	 2.93462218241101E-02 
1524	 2.90650179102436E-02 
1525	 2.77309690993027E-02 
1526	 2.77439573760097E-02 
1527	 2.93376544603084E-02 
1528	 2.94208408147821E-02 
1529	 2.99263414262969E-02 
1530	 3.20012198500397E-02 
1531	 3.18617568185369E-02 
1532	 3.11851804852527E-02 
1533	 3.14468291539538E-02 
1534	 3.03677750956355E-02 
1535	 2.98533258959585E-02 
1536	 0.030622484223272 
1537	 3.13905694638593E-02 
1538	 3.26631084240037E-02 
1539	 3.26718617816435E-02 
1540	 3.23771444141314E-02 
1541	 3.22215407152667E-02 
1542	 3.05992608162798E-02 
1543	 3.03365033079142E-02 
1544	 3.09097866546048E-02 
1545	 3.08486468628603E-02 
1546	 3.14142624480533E-02 
1547	 3.20157475742842E-02 
1548	 0.031616959591509 
1549	 3.11961949269068E-02 
1550	 3.14531872249033E-02 
1551	 3.20717577069403E-02 
1552	 3.25346184889664E-02 
1553	 3.15449594816158E-02 
1554	 3.09470395647852E-02 
1555	 0.03218654049626 
1556	 3.21259002806208E-02 
1557	 3.14348561602729E-02 
1558	 3.26035795959694E-02 
1559	 3.21692008664813E-02 
1560	 3.04499167403325E-02 
1561	 0.031276345568557 
1562	 3.31977906360374E-02 
1563	 3.38388790552898E-02 
1564	 0.033813912021945 
1565	 0.032951590273794 
1566	 3.24253104680039E-02 
1567	 3.42338225059357E-02 
1568	 3.47806998305359E-02 
1569	 0.034957093935381 
1570	 3.51387362249693E-02 
1571	 3.30215508780428E-02 
1572	 3.19089415997622E-02 
1573	 3.21598576816354E-02 
1574	 3.18237823603535E-02 
1575	 3.01681379431014E-02 
1576	 3.04025506329354E-02 
1577	 3.27326681277943E-02 
1578	 3.23449092512448E-02 
1579	 3.23881075305065E-02 
1580	 3.47039850126917E-02 
1581	 3.52486614444992E-02 
1582	 3.51277694820783E-02 
1583	 3.56511016703131E-02 
1584	 3.54080489924286E-02 
1585	 3.52626214647892E-02 
1586	 3.53818295165988E-02 
1587	 3.56741949491106E-02 
1588	 3.66921936352671E-02 
1589	 3.72957642771261E-02 
1590	 3.73954854571874E-02 
1591	 3.67050705009752E-02 
1592	 3.56704560703926E-02 
1593	 3.47745372259771E-02 
1594	 3.37225622050002E-02 
1595	 3.40247914035521E-02 
1596	 3.35442518934045E-02 
1597	 3.20372922970685E-02 
1598	 3.22829872400889E-02 
1599	 3.35511582889043E-02 
1600	 3.49843283693914E-02 
1601	 3.54039718434356E-02 
1602	 3.52070915467152E-02 
1603	 0.034944702045703 
1604	 3.40331048616967E-02 
1605	 3.31611875445352E-02 
1606	 3.36122090677098E-02 
1607	 3.46286654560519E-02 
1608	 3.37032258197002E-02 
1609	 3.31559583934705E-02 
1610	 3.37466972965664E-02 
1611	 3.28347689893675E-02 
1612	 3.27095639002638E-02 
1613	 3.43834549084178E-02 
1614	 3.46081092380587E-02 
1615	 0.032667020817537 
1616	 3.25113430350186E-02 
1617	 3.44001148316507E-02 
1618	 3.43349362979447E-02 
1619	 3.45207838718535E-02 
1620	 3.60551414260194E-02 
1621	 3.57730548060096E-02 
1622	 3.55203564222924E-02 
1623	 3.68093108102017E-02 
1624	 3.67267165506446E-02 
1625	 3.55336762633868E-02 
1626	 3.51447622677535E-02 
1627	 3.51833299889791E-02 
1628	 3.58724817066228E-02 
1629	 3.63413694344004E-02 
1630	 3.62741091405073E-02 
1631	 3.63598912133061E-02 
1632	 3.55836211714225E-02 
1633	 3.49155468661083E-02 
1634	 3.45316167581207E-02 
1635	 3.35339460990333E-02 
1636	 3.41265008152583E-02 
1637	 3.54167754308573E-02 
1638	 3.52496334812722E-02 
1639	 3.58510408767071E-02 
1640	 3.64644715377855E-02 
1641	 3.53053778018877E-02 
1642	 3.58897160395778E-02 
1643	 3.73544353576093E-02 
1644	 3.62307251318012E-02 
1645	 3.47825385147247E-02 
1646	 3.48956769676486E-02 
1647	 3.51004002227195E-02 
1648	 3.53711603790475E-02 
1649	 3.61391008242048E-02 
1650	 3.67022397405899E-02 
1651	 3.70502287600727E-02 
1652	 3.62910208619913E-02 
1653	 3.74940483954554E-02 
1654	 3.77168603717619E-02 
1655	 3.61485145437325E-02 
1656	 3.64833233362202E-02 
1657	 3.78164657490488E-02 
1658	 0.037840121626318 
1659	 0.038002570608126 
1660	 3.80012966572713E-02 
1661	 3.74618903769863E-02 
1662	 3.68940049220387E-02 
1663	 3.62198431062475E-02 
1664	 3.59410956205642E-02 
1665	 3.52471440075089E-02 
1666	 3.57332367195557E-02 
1667	 3.72043456814396E-02 
1668	 3.59078683934343E-02 
1669	 3.65854100801848E-02 
1670	 3.60082365643746E-02 
1671	 3.53870197992072E-02 
1672	 3.60346054227285E-02 
1673	 3.54419158024719E-02 
1674	 3.39062273035783E-02 
1675	 3.45321700560988E-02 
1676	 3.65329905880412E-02 
1677	 3.63931992442123E-02 
1678	 3.62255997559457E-02 
1679	 3.62242630876416E-02 
1680	 3.44548185250074E-02 
1681	 3.39897119415945E-02 
1682	 3.55366896026879E-02 
1683	 3.70958941095668E-02 
1684	 3.65081205517882E-02 
1685	 3.52026083535607E-02 
1686	 3.49985978492364E-02 
1687	 0.03428194892559 
1688	 3.49737529413993E-02 
1689	 3.49897116633154E-02 
1690	 3.35418671544772E-02 
1691	 3.58248223231787E-02 
1692	 0.037352947649688 
1693	 3.59786198113135E-02 
1694	 3.74090914740393E-02 
1695	 3.84562282039374E-02 
1696	 3.61547001497546E-02 
1697	 3.65170432287849E-02 
1698	 0.038310233664519 
1699	 3.59313364751979E-02 
1700	 3.45974928740153E-02 
1701	 3.77864996912545E-02 
1702	 3.84284703916465E-02 
1703	 3.64152137898515E-02 
1704	 3.63887117846338E-02 
1705	 0.03685775576613 
1706	 3.73684639318928E-02 
1707	 3.75448979730199E-02 
1708	 3.78855420296755E-02 
1709	 0.037925452166431 
1710	 3.62596126500191E-02 
1711	 3.65649726845254E-02 
1712	 0.039921056080244 
1713	 3.86582017243376E-02 
1714	 3.83441893678889E-02 
1715	 3.83907731640252E-02 
1716	 3.50018158240378E-02 
1717	 3.52479091098848E-02 
1718	 3.76451571137561E-02 
1719	 0.037483155116853 
1720	 3.60966372893066E-02 
1721	 3.80440075171408E-02 
1722	 4.04209627940434E-02 
1723	 3.77659627094042E-02 
1724	 3.81274994183922E-02 
1725	 4.09652586700659E-02 
1726	 3.75390788590415E-02 
1727	 0.036586455272041 
1728	 3.77214476434727E-02 
1729	 3.49356474541886E-02 
1730	 0.036834843153492 
1731	 4.04590528735779E-02 
1732	 4.01509893982045E-02 
1733	 3.83045049989175E-02 
1734	 3.80884747261668E-02 
1735	 4.05279998291887E-02 
1736	 4.25703617879746E-02 
1737	 4.42827816024031E-02 
1738	 4.14028594716587E-02 
1739	 3.68038615774686E-02 
1740	 3.77701594124715E-02 
1741	 0.039614079647424 
1742	 4.13154746409523E-02 
1743	 4.22277735127182E-02 
1744	 3.88569436604743E-02 
1745	 0.037503981389754 
1746	 4.16241129897668E-02 
1747	 4.25523774460397E-02 
1748	 4.35459789117382E-02 
1749	 4.33426193779603E-02 
1750	 3.93014119381805E-02 
1751	 3.88898923385863E-02 
1752	 4.00449068161273E-02 
1753	 3.93420779520553E-02 
1754	 4.22044679015738E-02 
1755	 4.16576853736266E-02 
1756	 3.42384195971309E-02 
1757	 0.039362454588412 
1758	 4.03045409615473E-02 
1759	 3.75791074505549E-02 
1760	 4.26135878633324E-02 
1761	 4.13533827232056E-02 
1762	 4.02613114265034E-02 
1763	 4.59624983505162E-02 
1764	 4.46232181785002E-02 
1765	 4.31857673311574E-02 
1766	 4.40765141935056E-02 
1767	 0.042243296124616 
1768	 4.43257553016423E-02 
1769	 4.44730167139031E-02 
1770	 3.77989412813762E-02 
1771	 3.94640717729018E-02 
1772	 0.045503184775877 
1773	 4.30079324802068E-02 
1774	 0.043639868795656 
1775	 3.83294079627842E-02 
1776	 0.038124758665128 
1777	 5.56152526316408E-02 
1778	 5.76459581878449E-02 
1779	 4.50893608730472E-02 
1780	 4.33260925931633E-02 
1781	 3.69213833527832E-02 
1782	 3.62134921877833E-02 
1783	 5.01765831446485E-02 
1784	 0.053238580226082 
1785	 4.72687957202268E-02 
1786	 5.23870596074437E-02 
1787	 6.56542240602483E-02 
1788	 7.18614488437216E-02 
1789	 8.12722244363019E-02 
1790	 7.36715897957376E-02 
1791	 7.50681933325293E-02 
1792	 8.27276668882613E-02 
1793	 6.85653210139901E-02 
1794	 7.44004213472724E-02 
1795	 8.29979311314472E-02 
1796	 7.52425410012199E-02 
1797	 0.14307373819386 
1798	 0.186790127026575 
1799	 0.137302591696245 
1800	 0.130013874834522 
1801	 0.124998125492223 
1802	 0.151523353384531 
1803	 0.166386274332418 
1804	 0.139891722995715 
1805	 0.13002735553038 
1806	 0.133239350077531 
1807	 0.13045858556134 
1808	 0.12286032670309 
1809	 0.174015191592275 
1810	 0.340262096447619 
1811	 0.728325205352123 
1812	 1.24274136777122 
1813	 1.3203591778099 
1814	 0.948099913766322 
1815	 0.738625924495904 
1816	 0.252060420951501 
1817	 0.602208027754282 
1818	 0.653983859506156 
1819	 0.81481772838781 
1820	 4.38870729120183 
1821	-2.56717818726487 
1822	-2.1909291455428 
1823	 11.3278431413626 
1824	 3.9581130688319 
1825	 1.12869942624199 
1826	 0.779867838781554 
1827	 1.04160578540551 
1828	 1.19177398130499 
1829	 1.77898906950441 
1830	 1.76216018194144 
1831	 0.652257515157607 
1832	 1.65819109378077 
1833	 1.72525092698925 
1834	 2.58100307961987 
1835	 7.49054003455937 
1836	-6.30988651532794 
1837	-1.25611122952678 
1838	-0.665426901846156 
1839	 0.433692378377769 
1840	 0.385291710035929 
1841	 0.336311613028971 
1842	 0.316998686161662 
1843	 0.457424145907799 
1844	 0.670424114273655 
1845	 0.692245344607487 
1846	 0.511775503012795 
1847	 0.767326868877278 
1848	 1.58784047296291 
1849	 73.576659248881 
1850	-0.98540954671697 
1851	-0.619876740833086 
1852	-0.847389054594001 
1853	-1.62196092547501 
1854	-2.66242636905825 
1855	 5.60699582459999 
1856	 6.13504256836146 
1857	-3.00907203912953 
1858	-1.64215963977114 
1859	-0.899926253324073 
1860	-0.764844514559948 
1861	-0.594740403485461 
1862	-0.295174347461441 
1863	-0.4134768375879 
1864	-0.290726965457434 
1865	-0.133507367892074 
1866	-0.5216799264138 
1867	-2.09193114901605 
1868	-2.40842044009136 
1869	-1.82037282045288 
1870	-1.51663257361412 
1871	-2.80823322641114 
1872	-1.57170808439331 
1873	 1.7157280668555 
1874	 0.225493943564522 
1875	-0.376681401461017 
1876	-0.312543816727809 
1877	-0.239446287783641 
1878	-0.345275007006282 
1879	 0.146354934625832 
1880	 0.479836667822975 
1881	 0.341770840107661 
1882	-2.08742540161611 
1883	-6.38157114171771 
1884	-2.00897193197039 
1885	-1.00442412504046 
1886	 0.949516017520716 
1887	 5.93230965377442 
1888	-0.303048168225817 
1889	-0.535482000250683 
1890	-2.4376271148406 
1891	-3.4182754830201 
1892	 0.283740797375514 
1893	 0.384358567474092 
1894	-0.639165655684435 
1895	-2.21263316074403 
1896	-75.4929244417335 
1897	 6.77303998396137 
1898	 2.01768665060931 
1899	 0.805827535553415 
1900	 0.491832509750486 
1901	 0.944827846831095 
1902	 0.397408922933068 
1903	-0.392671747798973 
1904	-0.979402552633103 
1905	-0.572868919463428 
1906	 1.29532988558801 
1907	 1.1837370428793 
1908	 1.15136978309105 
1909	 2.27849282331759 
1910	 1.5478432163457 
1911	 2.34383032880502 
1912	-13.5239468568701 
1913	-4.05400464913409 
1914	-8.23541030699985 
1915	 19.3724836167344 
1916	 19.8029518736854 
1917	-5.06876865345281 
1918	 7.58094142057498 
1919	-46.8956982003938 
1920	-10.8360813266091 
1921	 8.3095339631921 
1922	 18.5584415923488 
1923	-7.33415400568198 
1924	 2.39857727132863 
1925	 1.69872818668195 
1926	 2.14449652590256 
1927	 0.301919792541522 
1928	 1.7376610590963 
1929	-1.23689334003443 
1930	 0.437326429047606 
1931	-1.43983314795049 
1932	 0.225759218353975 
1933	 0.287889182401354 
1934	 0.828934109913392 
1935	 0.826457637257196 
1936	 1.04055930272612 
1937	 1.09261780514792 
1938	 1.05492837099856 
1939	 1.14308860512461 
1940	 1.20922226351484 
1941	 1.81404155748502 
1942	 2.34761612346632 
1943	 0.93990690612476 
1944	 2.02620500791301 
1945	 0.742821583469842 
1946	 0.681993100796231 
1947	 0.767361882608812 
1948	 1.12172159395595 
1949	 2.06998203964509 
1950	-13.7257417352657 
1951	 3.425855569159 
1952	-2.43116311482741E-02 
1953	-0.378461208788857 
1954	 9.09139593932976E-02 
1955	 0.216922704701988 
1956	-7.45751298669183E-02 
1957	-0.233596183708612 
1958	-0.184098291742834 
1959	-0.135646322622158 
1960	-0.191818644904191 
1961	-0.114121425860576 
1962	-2.01275408914225E-02 
1963	-8.49118528369979E-02 
1964	-7.73030235582627E-02 
1965	-3.50769441427451E-02 
1966	-1.61431557514864E-02 
1967	-4.9128893586137E-03 
1968	 3.99191502355266E-03 
1969	 1.14656827614951E-02 
1970	-0.042027567475337 
1971	-0.125084403198126 
1972	-0.13105707762603 
1973	-0.127753887712295 
1974	-0.111724303635283 
1975	-5.28163579515764E-02 
1976	-3.37617691652455E-02 
1977	-2.79486334875122E-02 
1978	-6.28800237673643E-03 
1979	-1.69229805482617E-03 
1980	-8.21648918180997E-03 
1981	-1.94490540558011E-02 
1982	-0.031758100738388 
1983	-3.53704047261175E-02 
1984	-2.93814748858326E-02 
1985	-2.48566114250023E-02 
1986	-4.3889742518452E-03 
1987	 0.013088774936471 
1988	 9.27881080849581E-03 
1989	 1.93736965790616E-02 
1990	 1.91616332161327E-02 
1991	 4.57566551609472E-03 
1992	 1.85821834592368E-02 
1993	 3.63844240192042E-02 
1994	 4.44591442222895E-02 
1995	 5.70525567718476E-02 
1996	 5.98341397695955E-02 
1997	 4.84539240056955E-02 
1998	 5.32991604761521E-02 
1999	 5.51654055693969E-02 
2000	 6.11075736445632E-02 
2001	 4.51398404756974E-02 
2002	-5.74556144201496E-03 
2003	-0.055273024328807 
2004	-7.03957606702346E-02 
2005	-4.85160431138764E-02 
2006	-4.60087144772126E-02 
2007	-3.25965621683915E-03 
2008	 4.96169433078455E-02 
2009	 8.31280186264482E-02 
2010	 0.152934485341855 
2011	 0.164783810224022 
2012	 0.143637487579921 
2013	 8.76821248628564E-02 
2014	 4.61466149770839E-02 
2015	 1.48032868107392E-02 
2016	-2.55337356281935E-02 
2017	-2.94267215452095E-02 
2018	-1.72367956506816E-02 
2019	-2.90381348226024E-02 
2020	-1.00367489800746E-02 
2021	 2.05464230683211E-02 
2022	 2.05748313280453E-02 
2023	 2.16710162515116E-02 
2024	 1.99320518039413E-02 
2025	 1.11455880170572E-02 
2026	 5.02566179070382E-03 
2027	 8.87091877845551E-04 
2028	-9.01974280294492E-03 
2029	-9.56221594711033E-03 
2030	-1.54532334938244E-02 
2031	-1.29306404521389E-02 
2032	 6.54199335011478E-03 
2033	 1.44039742267477E-02 
2034	 1.28702888040003E-02 
2035	 8.44305665776581E-03 
2036	 7.17852214189279E-04 
2037	 4.31047719177643E-03 
2038	 0.018297109838424 
2039	 2.10764085389849E-02 
2040	 2.44323557308282E-02 
2041	 2.32605399081005E-02 
2042	 7.49449660335053E-03 
2043	 1.86932312482717E-03 
2044	-4.95618387388092E-04 
2045	 2.83917185789313E-03 
2046	 6.52043379869964E-03 
2047	 1.09181908094893E-02 
2048	 1.75240803335671E-02 
2049	 2.09203779461585E-02 
2050	 1.14333146946759E-02 
2051	 2.27799782835305E-03 
2052	 3.37283810754123E-03 
2053	-3.45046371873324E-03 
2054	-4.19068027758543E-03 
2055	 6.37261199317812E-03 
2056	 9.26793557169002E-03 
2057	 2.40808764487536E-03 
2058	 2.11053272683185E-03 
2059	 4.75576319698104E-03 
2060	 6.60759258610438E-03 
2061	 5.62025507045773E-03 
2062	 1.41917927036769E-02 
2063	 2.16159989473551E-02 
2064	 1.85529217428224E-02 
2065	 1.25167154963322E-02 
2066	 5.75667435320924E-03 
2067	 4.6683256703777E-04 
2068	 5.01639927522405E-03 
2069	 1.06775502304513E-02 
2070	 4.44569807841405E-03 
2071	 1.69449127645286E-03 
2072	 1.07191182161714E-03 
2073	 1.01017212299906E-03 
2074	 3.8650498246051E-03 
2075	 7.3423261307463E-03 
2076	 9.70424582882989E-03 
2077	 1.40801513775115E-02 
2078	 2.62075615752797E-02 
2079	 2.74115988694841E-02 
2080	 2.58024907239158E-02 
2081	 1.92662968707218E-02 
2082	 9.97655832216456E-03 
2083	 6.24825302094123E-03 
2084	 5.36143723690533E-03 
2085	 4.35968499371666E-03 
2086	 5.88418255111383E-03 
2087	-4.98671772743935E-04 
2088	-3.21887859630832E-03 
2089	 5.64693029228232E-04 
2090	 2.71042231603074E-03 
2091	 1.14338797020827E-02 
2092	 1.76653744159675E-02 
2093	 2.58655181212785E-02 
2094	 0.028265140997339 
2095	 3.07442799520144E-02 
2096	 2.91960993880396E-02 
2097	 0.018479704161437 
2098	 1.75855578660589E-02 
2099	 0.023133591630652 
2100	 1.70566967561811E-02 
2101	 0.018848614768392 
2102	 0.023902543812784 
2103	 1.54516942505175E-02 
2104	 1.07235211531315E-02 
2105	 6.10982301315991E-03 
2106	-2.29932927533313E-03 
2107	-8.16855287360993E-04 
2108	 4.48399612489354E-03 
2109	 1.00656280626319E-02 
2110	 1.37341958641931E-02 
2111	 1.32672901237712E-02 
2112	 1.41179245834909E-02 
2113	 1.73971052980835E-02 
2114	 2.57019608062494E-02 
2115	 0.025669191988712 
2116	 2.21146558051226E-02 
2117	 0.021279312470871 
2118	 1.03589964128258E-02 
2119	 9.18914003062061E-03 
2120	 1.50484928504632E-02 
2121	 2.83215719542296E-02 
2122	 3.11934385373538E-02 
2123	 3.48998506191505E-02 
2124	 4.03686744738621E-02 
2125	 3.42032402044304E-02 
2126	 3.01361762940973E-02 
2127	 0.03200086653754 
2128	 0.026735010805598 
2129	 1.87685618089264E-02 
2130	 1.05745739041858E-02 
2131	 3.5134173187567E-03 
2132	 2.14099673558607E-03 
2133	 3.43174085199267E-03 
2134	 7.10012944555348E-03 
2135	 1.91381432259926E-02 
2136	 2.14490023189602E-02 
2137	 2.15938136025553E-02 
2138	 2.10039840070538E-02 
2139	 1.25720528340358E-02 
2140	 9.72137474204734E-03 
2141	 8.70544511240235E-03 
2142	 9.80542747223798E-03 
2143	 0.015226050117781 
2144	 1.66549859224475E-02 
2145	 1.96832296953368E-02 
2146	 2.20687918150209E-02 
2147	 8.70453624560803E-03 
2148	 8.83112775509768E-03 
2149	 1.55675364624631E-02 
2150	 8.70518846866844E-03 
2151	 9.00671460777267E-03 
2152	 1.30345398876206E-02 
2153	 1.14143227753092E-02 
2154	 9.42489480643796E-03 
2155	 7.1785314198895E-03 
2156	 9.71269288072298E-03 
2157	 0.01701132967061 
2158	 3.19020910724962E-02 
2159	 3.31526963526337E-02 
2160	 3.39211426012575E-02 
2161	 3.22231707312093E-02 
2162	 1.36544962737661E-02 
2163	 6.80386851007479E-03 
2164	 1.04355559175693E-02 
2165	 1.12558759383245E-02 
2166	 0.012581725039527 
2167	 1.51145435405804E-02 
2168	 2.39556634695243E-02 
2169	 0.023926569124355 
2170	 1.75116070939737E-02 
2171	 8.27435788940791E-03 
2172	 8.63740585484887E-03 
2173	 1.37028875824876E-02 
2174	 2.88197600903205E-02 
2175	 4.11604216753866E-02 
2176	 4.04897571604779E-02 
2177	 3.69022085933517E-02 
2178	 2.45625332171742E-02 
2179	 8.17372238637242E-03 
2180	 9.09909541666369E-03 
2181	 1.45296556821765E-02 
2182	 7.35240834013316E-03 
2183	 8.13585252832332E-03 
2184	 1.13370669468971E-02 
2185	 4.60558080876599E-03 
2186	 6.70954128346643E-03 
2187	 2.62244531244451E-02 
2188	 3.24590837422379E-02 
2189	 3.08641397624666E-02 
2190	 3.00176875645819E-02 
2191	 2.62933777439592E-02 
2192	 2.78164619667759E-02 
2193	 3.13738918978301E-02 
2194	 3.37351985511341E-02 
2195	 4.01391835622209E-02 
2196	 3.84257785855263E-02 
2197	 2.98607174368739E-02 
2198	 2.36886453384211E-02 
2199	 1.19948423481832E-02 
2200	 4.92627632857494E-03 
2201	 1.45354654920595E-02 
2202	 2.36535277956466E-02 
2203	 3.99297520052158E-02 
2204	 0.045972934160649 
2205	 2.45236387623504E-02 
2206	 4.65850555501134E-03 
2207	-1.58579846926551E-03 
2208	 9.8760083246015E-04 
2209	 0.012233833017669 
2210	 3.10914450761305E-02 
2211	 3.44297596502612E-02 
2212	 2.03825724178233E-02 
2213	 8.05728874051101E-03 
2214	-1.33622537205828E-03 
2215	-1.02051493912829E-02 
2216	-3.65245009417987E-03 
2217	-2.4359117982138E-03 
2218	 2.59072580113949E-03 
2219	 1.67640722930433E-03 
2220	-4.35884264348415E-03 
2221	-8.01570866210634E-03 
2222	-7.77063308020901E-03 
2223	-7.07262608963015E-03 
2224	-1.20040830464049E-02 
2225	-6.82358188649429E-03 
2226	 8.47185177231972E-03 
2227	 1.79701087661663E-02 
2228	 3.15883155912362E-02 
2229	 3.85270732408094E-02 
2230	 3.64955378601176E-02 
2231	 3.57698237457469E-02 
2232	 3.58573667098744E-02 
2233	 3.65015406508425E-02 
2234	 3.04747334100019E-02 
2235	 0.040291541752587 
2236	 5.14763468438944E-02 
2237	 5.63300886101594E-02 
2238	 7.35377476645022E-02 
2239	 6.43123172555988E-02 
2240	 4.85304824098902E-02 
2241	 3.69346334111574E-02 
2242	 0.026356213169638 
2243	 3.90150884113428E-02 
2244	 4.75524907266589E-02 
2245	 5.10519808831393E-02 
2246	 4.37592029874517E-02 
2247	 2.33963367131239E-02 
2248	 9.47244776341914E-03 
2249	 3.09599145100026E-03 
2250	 8.2341943729899E-03 
2251	 1.89051081413441E-02 
2252	 2.18876827282281E-02 
2253	 1.19552976601369E-02 
2254	 4.92040507985525E-03 
2255	 1.00556931744589E-02 
2256	 2.56171202224025E-02 
2257	 3.72287519332173E-02 
2258	 0.036789713985951 
2259	 3.09076729156266E-02 
2260	 2.37091243960101E-02 
2261	-1.06622370977866E-03 
2262	-6.18845977448905E-04 
2263	 1.22735064395653E-02 
2264	 2.17136882190671E-02 
2265	 4.27586033061203E-02 
2266	 5.43685222815338E-02 
2267	 6.67494210132425E-02 
2268	 6.80217786792109E-02 
2269	 6.27367142904635E-02 
2270	 5.22558138791091E-02 
2271	 1.80446354015813E-02 
2272	 1.39483411601406E-02 
2273	 0.029119816496464 
2274	 2.94090600826134E-02 
2275	 0.039708159055748 
2276	 0.040326587333258 
2277	 2.15237436206338E-02 
2278	 1.25259190793295E-02 
2279	 5.5753371365483E-03 
2280	 1.49125052322624E-02 
2281	 3.71970094725461E-02 
2282	 5.39669256559115E-02 
2283	 7.12115736515541E-02 
2284	 6.08010087871319E-02 
2285	 4.52743811423997E-02 
2286	 2.56755532752413E-02 
2287	 1.46861021664958E-02 
2288	 0.027646146860247 
2289	 1.53067405904476E-02 
2290	 1.29606255066926E-02 
2291	 2.39576390643595E-02 
2292	 2.11785803748968E-02 
2293	 2.50415405918826E-02 
2294	 0.036121272867603 
2295	 0.026837513819562 
2296	 7.70422661223677E-03 
2297	 6.64668203013513E-03 
2298	-9.47424923367442E-04 
2299	 5.76069664466808E-03 
2300	 1.77772060287641E-02 
2301	-2.30982365575564E-03 
2302	-3.68146920467809E-03 
2303	-2.20434643662626E-02 
2304	-4.37637650504682E-02 
2305	-3.83348121026768E-02 
2306	-5.67746412729061E-02 
2307	-4.64114608427822E-02 
2308	-3.61546613829735E-02 
2309	-4.87949876090588E-02 
2310	-0.045707334359958 
2311	-5.38869646311782E-02 
2312	-5.15654505906253E-02 
2313	-0.024616208046483 
2314	-2.10846002280184E-02 
2315	-3.20443147290659E-02 
2316	-2.18521906804397E-02 
2317	-2.03775479579144E-02 
2318	-3.11233641650248E-02 
2319	-2.55904547002672E-02 
2320	-3.36189726885906E-02 
2321	-5.54456071936548E-02 
2322	-5.46765228135472E-02 
2323	-4.50372727455805E-02 
2324	-5.15217254243333E-02 
2325	-0.021976712532899 
2326	 1.49354739453152E-02 
2327	 1.03761060508835E-03 
2328	-5.06718745390448E-03 
2329	-8.82645321351302E-03 
2330	-0.050296531316977 
2331	-4.34995437118726E-02 
2332	 0.057611368208261 
2333	 6.45053616549442E-02 
2334	 1.94299876366013E-02 
2335	-2.24227113156862E-02 
2336	-0.100146064132924 
2337	-0.081162029972557 
2338	-3.34580802318103E-02 
2339	-5.40620982198101E-02 
2340	-4.70129902664549E-02 
2341	-0.113066217950745 
2342	-0.169428688128176 
2343	 2.22075428821995E-02 
2344	 0.069854583085126 
2345	 1.89302455470801E-02 
2346	 6.21352250440711E-02 
2347	-0.107681366677322 
2348	-0.275444793456396 
2349	-0.258307771221317 
2350	-0.214449001804891 
2351	-0.127219230098306 
2352	 9.94481299266136E-02 
2353	 0.178002555782672 
2354	 0.123289249177795 
2355	 0.178135612582141 
2356	 7.36978942404695E-02 
2357	-0.007878584938482 
2358	 3.76097092169678E-02 
2359	-8.19104900172008E-03 
2360	-5.63274389221159E-02 
2361	-0.078772062473245 
2362	-0.1762728089918 
2363	-0.271329696012337 
2364	-0.270443148268959 
2365	-0.234828049152896 
2366	-5.51728795103392E-02 
2367	 7.49563788999116E-02 
2368	 0.252080583758304 
2369	 0.546825578928018 
2370	 1.35860706334011 
2371	 0.542631095512729 
2372	-0.335151356936192 
2373	-0.443447974960749 
2374	-9.31537509277708E-02 
2375	-0.179565329945095 
2376	 0.464604135035519 
2377	 0.821675311512462 
2378	 2.96743180859862E-02 
2379	-0.358570587659399 
2380	-0.526129783128915 
2381	-0.717376690232228 
2382	-0.632843349434289 
2383	-0.358535726486708 
2384	-0.335903007829342 
2385	-0.288815442415241 
2386	-0.403096794313015 
2387	-0.678843559058311 
2388	-0.842965434853334 
2389	-0.561712530100441 
2390	-0.410909270875468 
2391	-0.171725827296497 
2392	-7.05853818405693E-02 
2393	-8.54527588430993E-02 
2394	 1.38841344941457E-02 
2395	-2.04293048930908E-02 
2396	-0.197508043950647 
2397	-0.294013845851596 
2398	-0.414055948425026 
2399	-0.746979443589497 
2400	-0.797751125150708 
2401	-0.527037671073577 
2402	-0.261586346288127 
2403	-0.147000932729673 
2404	-0.460395895823447 
2405	-0.80903494674149 
2406	-1.05891877879147 
2407	-1.09269743220155 
2408	-0.551336055619324 
2409	-0.552838483793099 
2410	-1.35957646572549 
2411	-1.78262813907291 
2412	-1.61569175640411 
2413	-1.53555731059103 
2414	-1.14352319159226 
2415	-1.23874936309696 
2416	-1.58183645445852 
2417	-1.32534529285881 
2418	-0.820736068339926 
2419	 3.62029723611717 
2420	 5.5963100212081 
2421	-0.538187340251759 
2422	-1.63921099583366 
2423	-0.69319071367273 
2424	-0.346591559832073 
2425	 0.400202192146111 
2426	 2.23294041917124 
2427	-1.04594481925253 
2428	-0.600143299542517 
2429	-0.556745143878557 
2430	-0.288093237836329 
2431	 0.279514760807245 
2432	 0.772523798165137 
2433	 0.785193247722894 
2434	 0.880660304933373 
2435	 0.89153385247659 
2436	 1.00342180882681 
2437	-4.6407195738938 
2438	 17.0986815161049 
2439	 2.39143552874265 
2440	 1.29951558738997 
2441	 6.13613287010359E-02 
2442	-0.131904812402195 
2443	 0.934677089725664 
2444	-5.9754966078088 
2445	-5.68412916331184 
2446	-2.55891847952127 
2447	-1.86169180666993 
2448	-2.61113388269474 
2449	-20.2209571356346 
2450	 24.845775617586 
2451	 3.24181479805641 
2452	 5.86560267801797 
2453	-10.3401413359342 
2454	 14.6151718720168 
2455	-75.0494536171488 
2456	-2.5565824676905 
2457	-5.31082100268619 
2458	-1.45541994307106 
2459	-0.890529276722525 
2460	-2.05808316897809 
2461	 5.67448754916054 
2462	 7.23792971057419E-02 
2463	-7.10414866302453E-02 
2464	-1.328783810028 
2465	 2.83378558755816E-02 
2466	-3.38782362403714 
2467	 0.706441190300794 
2468	-0.183583193003245 
2469	-0.210794179542985 
2470	 0.560016530324079 
2471	 0.269737031927229 
2472	 0.52448917960255 
2473	 4.25594185208863 
2474	 10.4419942035769 
2475	 2.17061936900085 
2476	 0.852455272704813 
2477	-0.852908593937878 
2478	-0.783318292810427 
2479	-7.82737260022915 
2480	-8.5945832032957 
2481	-5.94957776962843 
2482	-23.7364437573573 
2483	-3.73690813341108 
2484	-0.890161759849925 
2485	-5.04765800503604E-02 
2486	 0.273713974161775 
2487	 0.988046102892739 
2488	 0.99966859091535 
2489	 0.907351173583397 
2490	 0.716457083894834 
2491	 0.357711888544389 
2492	 8.94682406678591E-03 
2493	-0.27655264395899 
2494	-0.359105129773693 
2495	 1.71291170943058E-02 
2496	 0.866903465080243 
2497	 4.64209412404191 
2498	 14.4082936164899 
2499	-3.65171995147531 
2500	-2.14832735434416 
