Wavelength	rt0629dirtre00006.asd
350	 0.111806072318508 
351	 0.111348112402864 
352	 0.110794457513043 
353	 0.111234624112168 
354	 0.112540259566171 
355	 0.112183877306869 
356	 0.111402605074568 
357	 0.111068247572321 
358	 0.111718912314767 
359	 0.113158767790376 
360	 0.113326014477833 
361	 0.112453534404635 
362	 0.112289855223039 
363	 0.112449654658889 
364	 0.112709893781982 
365	 0.112971551800602 
366	 0.113344415699222 
367	 0.112822326471489 
368	 0.112917903671106 
369	 0.114547834957279 
370	 0.114143072632667 
371	 0.113977492525415 
372	 0.114373338787194 
373	 0.114543099861954 
374	 0.115136376017379 
375	 0.115755134816085 
376	 0.116174226447319 
377	 0.116566847088428 
378	 0.116307531441736 
379	 0.116498604323248 
380	 0.11776119207493 
381	 0.117945310744988 
382	 0.118542703924313 
383	 0.119272099721469 
384	 0.119263480832259 
385	 0.119908723760747 
386	 0.120948461047463 
387	 0.121678726580003 
388	 0.121196950666389 
389	 0.121961598313639 
390	 0.123078219447386 
391	 0.12355675339285 
392	 0.123836515432365 
393	 0.12427624927325 
394	 0.124868938810931 
395	 0.125439456257264 
396	 0.125930089511346 
397	 0.125975566391276 
398	 0.125791829891533 
399	 0.126055589984205 
400	 0.126783256336102 
401	 0.12738734820762 
402	 0.127590682459479 
403	 0.127996443533949 
404	 0.128095411375959 
405	 0.128274387257868 
406	 0.1290344031262 
407	 0.129556861976992 
408	 0.13002794962677 
409	 0.13054133340337 
410	 0.131036448032 
411	 0.131393764416985 
412	 0.131930203868315 
413	 0.132713520808861 
414	 0.133031891999004 
415	 0.133325536342908 
416	 0.133903180624632 
417	 0.134839750055005 
418	 0.135162034424119 
419	 0.135582145304193 
420	 0.136275140892564 
421	 0.136731327136984 
422	 0.137594495045413 
423	 0.138525315786323 
424	 0.139190169663743 
425	 0.139802132282685 
426	 0.140786312450251 
427	 0.141842304391216 
428	 0.142453463071536 
429	 0.1433795823419 
430	 0.144529436978071 
431	 0.145685171654014 
432	 0.146593305655779 
433	 0.14740370153836 
434	 0.148364289619555 
435	 0.149496702738397 
436	 0.150040976766558 
437	 0.151059555130929 
438	 0.152349126374549 
439	 0.153099619330832 
440	 0.153875253803971 
441	 0.154790135982749 
442	 0.155804503281408 
443	 0.156731651947115 
444	 0.157452651486307 
445	 0.158253517808649 
446	 0.159298074498503 
447	 0.15979431301271 
448	 0.160524762124991 
449	 0.161424444427778 
450	 0.161858451180561 
451	 0.162598808299784 
452	 0.163244589974489 
453	 0.16360013503847 
454	 0.164229660491719 
455	 0.16484293204113 
456	 0.165347663470806 
457	 0.165762296252701 
458	 0.166342677782191 
459	 0.166784778335155 
460	 0.167108318062158 
461	 0.167661239482879 
462	 0.168061169212694 
463	 0.168418175927017 
464	 0.16889767826066 
465	 0.169576521648712 
466	 0.169981222612831 
467	 0.170287954869171 
468	 0.170917452206131 
469	 0.171418966268662 
470	 0.171759627372753 
471	 0.172110147387075 
472	 0.172851554731962 
473	 0.17330535433483 
474	 0.17369290732656 
475	 0.174311350917808 
476	 0.174798216365522 
477	 0.175510170559114 
478	 0.176210280822456 
479	 0.176377760527499 
480	 0.177157270328332 
481	 0.178024160854019 
482	 0.178595033992555 
483	 0.179219835768233 
484	 0.179985062899916 
485	 0.180813041974443 
486	 0.181589652838308 
487	 0.182436746056087 
488	 0.183408541691353 
489	 0.184383167884583 
490	 0.185097743041851 
491	 0.185699911230902 
492	 0.186503519543394 
493	 0.187605948598648 
494	 0.188451305356393 
495	 0.189400617389165 
496	 0.190425704678161 
497	 0.191337865564776 
498	 0.192367775949007 
499	 0.193426899018899 
500	 0.19445770441135 
501	 0.195495823229916 
502	 0.196607606609638 
503	 0.19767382726102 
504	 0.198620165656381 
505	 0.199759239256525 
506	 0.200927717029911 
507	 0.202070180618029 
508	 0.20323478683075 
509	 0.204551110069252 
510	 0.205839972144235 
511	 0.207011223306334 
512	 0.208323127647682 
513	 0.20952660726983 
514	 0.210833318547246 
515	 0.212522879610528 
516	 0.213939170066179 
517	 0.215180113881844 
518	 0.216412292325056 
519	 0.217789778492696 
520	 0.219462956969787 
521	 0.22103023694225 
522	 0.222224091245882 
523	 0.223604285404685 
524	 0.225093687226515 
525	 0.226636853683379 
526	 0.228197509482661 
527	 0.229690156002738 
528	 0.231189009077615 
529	 0.232756142205824 
530	 0.234403517082851 
531	 0.236024890370798 
532	 0.237588080028959 
533	 0.239096451167027 
534	 0.240582816668425 
535	 0.242194363931968 
536	 0.243913773671425 
537	 0.245527603445816 
538	 0.247052050380308 
539	 0.248626377610836 
540	 0.250324198207258 
541	 0.251892906901214 
542	 0.253562200858304 
543	 0.255260048525771 
544	 0.256777925429797 
545	 0.258521755951501 
546	 0.260228653178984 
547	 0.261760352391464 
548	 0.263378007833092 
549	 0.26511962870624 
550	 0.266800956118418 
551	 0.268260821886194 
552	 0.269985216187114 
553	 0.271548962958984 
554	 0.272909264760273 
555	 0.274494044853023 
556	 0.276196075127772 
557	 0.277777431503085 
558	 0.279107927202696 
559	 0.280601621858973 
560	 0.281952425926051 
561	 0.283207158303467 
562	 0.284613298581809 
563	 0.285941508370259 
564	 0.287188476896276 
565	 0.288337497948637 
566	 0.289262192829751 
567	 0.290402677904462 
568	 0.291544313663233 
569	 0.292366618469988 
570	 0.293521305855606 
571	 0.294541572206409 
572	 0.295365566453756 
573	 0.296421839936123 
574	 0.297294684735962 
575	 0.298146819394245 
576	 0.299096986590869 
577	 0.299685649125308 
578	 0.30046215665291 
579	 0.301257078829363 
580	 0.30155638107043 
581	 0.302160199470039 
582	 0.302690959572341 
583	 0.302929545941329 
584	 0.30320756962131 
585	 0.303388342147312 
586	 0.30336339056709 
587	 0.303089601688814 
588	 0.302898366521893 
589	 0.302854779998185 
590	 0.302874889325096 
591	 0.302756902372584 
592	 0.302881211771868 
593	 0.302983134191716 
594	 0.302833697120566 
595	 0.302731557973229 
596	 0.302500484197085 
597	 0.302164536988031 
598	 0.301847429772063 
599	 0.301423604768432 
600	 0.301256363786554 
601	 0.301331585948359 
602	 0.300890220361483 
603	 0.300537504229204 
604	 0.300603365816961 
605	 0.30112533951594 
606	 0.301179690103452 
607	 0.301073816016136 
608	 0.30101733957747 
609	 0.301058733410122 
610	 0.301398555360809 
611	 0.301659185991753 
612	 0.301623458848005 
613	 0.301936196030922 
614	 0.302007775201283 
615	 0.301852500723406 
616	 0.3018492726657 
617	 0.302293549862264 
618	 0.302556854001117 
619	 0.302410099071557 
620	 0.302397786866775 
621	 0.30262590399856 
622	 0.302883526091249 
623	 0.302875280353939 
624	 0.302535492575534 
625	 0.302456539064184 
626	 0.302627453359051 
627	 0.30247144914657 
628	 0.302612140173523 
629	 0.302853369825838 
630	 0.302978785666322 
631	 0.303151463513898 
632	 0.303215029869344 
633	 0.303197619904288 
634	 0.303215110144142 
635	 0.303295202065331 
636	 0.30339711624883 
637	 0.303490571647114 
638	 0.303570863286036 
639	 0.303806752948402 
640	 0.303886566910505 
641	 0.30357972762356 
642	 0.303579621240988 
643	 0.303400494667524 
644	 0.302994364521702 
645	 0.302661990891134 
646	 0.301885742168949 
647	 0.301413631408778 
648	 0.301662250098367 
649	 0.301763837210833 
650	 0.301554221272305 
651	 0.3012161736114 
652	 0.30101118063044 
653	 0.300435643948952 
654	 0.299727148166298 
655	 0.299032313628362 
656	 0.298394424920758 
657	 0.297596586316749 
658	 0.296996905299623 
659	 0.296799267991595 
660	 0.296540535495105 
661	 0.296014445276244 
662	 0.295387199517453 
663	 0.29502811748995 
664	 0.294566359340054 
665	 0.294175560851621 
666	 0.293964481455004 
667	 0.293836238458096 
668	 0.293526477824811 
669	 0.293163183552089 
670	 0.292945537775855 
671	 0.292635799153787 
672	 0.292625639599419 
673	 0.292749692102119 
674	 0.292354691251974 
675	 0.29206301926914 
676	 0.291991406733523 
677	 0.292038174150666 
678	 0.291807841019879 
679	 0.291618371442406 
680	 0.291483094321736 
681	 0.291288466883461 
682	 0.291050471017806 
683	 0.290897022276092 
684	 0.290710328541372 
685	 0.289982254778196 
686	 0.289223893974891 
687	 0.288782254795322 
688	 0.288689721601728 
689	 0.288266675077871 
690	 0.287765949699374 
691	 0.287112441883053 
692	 0.286079116969064 
693	 0.28523914019928 
694	 0.284535930774255 
695	 0.283971049927283 
696	 0.283794518121665 
697	 0.282672553535411 
698	 0.281040887418319 
699	 0.279863208859114 
700	 0.278975508739649 
701	 0.277903933181548 
702	 0.276663469094297 
703	 0.275579176519623 
704	 0.274067015113751 
705	 0.272413017130943 
706	 0.270924168334737 
707	 0.269566314989402 
708	 0.267942613476225 
709	 0.266009928121778 
710	 0.263882591001371 
711	 0.261628968941283 
712	 0.259256849830547 
713	 0.256688678051634 
714	 0.25369880920816 
715	 0.250569473127948 
716	 0.246958965391453 
717	 0.242918726880842 
718	 0.239122561465169 
719	 0.236225539774132 
720	 0.234177885375705 
721	 0.232023500598295 
722	 0.229109536290954 
723	 0.225431545932402 
724	 0.221743659773228 
725	 0.218478142099666 
726	 0.214645061004896 
727	 0.21066304805976 
728	 0.206926841877283 
729	 0.202735316189542 
730	 0.197969451571481 
731	 0.193571967968852 
732	 0.190236348605615 
733	 0.187253265992095 
734	 0.184259808550552 
735	 0.181360755199278 
736	 0.179198812615228 
737	 0.177563587877673 
738	 0.176120916003518 
739	 0.174822940216832 
740	 0.174536951888876 
741	 0.173930306043105 
742	 0.173029114381363 
743	 0.172530681593488 
744	 0.17234389976484 
745	 0.17209652213458 
746	 0.171628212507825 
747	 0.171097016325787 
748	 0.170902775822798 
749	 0.170777166393747 
750	 0.170435795817278 
751	 0.170142600544254 
752	 0.169978948193329 
753	 0.169822084252766 
754	 0.169473385916364 
755	 0.169127657235215 
756	 0.168906255393422 
757	 0.168726149374994 
758	 0.168090415505512 
759	 0.167010986790113 
760	 0.166365827212513 
761	 0.167082485893973 
762	 0.166626793625262 
763	 0.166636016728062 
764	 0.167095703738411 
765	 0.16751628056083 
766	 0.16810235901511 
767	 0.168512484625555 
768	 0.168665154622431 
769	 0.16868062176151 
770	 0.168684112370178 
771	 0.168876118151588 
772	 0.169341682344744 
773	 0.169893238074306 
774	 0.17022655733176 
775	 0.170316641291518 
776	 0.170360314715183 
777	 0.170872734555251 
778	 0.171470634576296 
779	 0.172059451383525 
780	 0.172869520968982 
781	 0.173214509619047 
782	 0.17347358730419 
783	 0.173965889835196 
784	 0.17440338115358 
785	 0.175069432260517 
786	 0.175708708984441 
787	 0.176036053545144 
788	 0.176718132874993 
789	 0.177484500041048 
790	 0.178119307030264 
791	 0.178597815758816 
792	 0.179793448040568 
793	 0.180931104508585 
794	 0.181479634997394 
795	 0.181587441187627 
796	 0.182360840716776 
797	 0.183211165903836 
798	 0.183501970121264 
799	 0.184094508309081 
800	 0.184887276793187 
801	 0.185567978603794 
802	 0.185803355354802 
803	 0.18595891136712 
804	 0.186408739183933 
805	 0.186922174378428 
806	 0.186697040633229 
807	 0.186645858763553 
808	 0.186711216887043 
809	 0.186637656776413 
810	 0.186165877100619 
811	 0.185570319134494 
812	 0.184920999849998 
813	 0.184163627821975 
814	 0.182977592550404 
815	 0.181960149628764 
816	 0.181419903307019 
817	 0.181105963986641 
818	 0.179759936035439 
819	 0.178602893949008 
820	 0.177701464816355 
821	 0.175559782193163 
822	 0.173265797153849 
823	 0.171007855611333 
824	 0.168743685961781 
825	 0.166243290791764 
826	 0.163545682947079 
827	 0.159989904574138 
828	 0.155524363049343 
829	 0.15329755859681 
830	 0.150348776146813 
831	 0.146864901211275 
832	 0.145288660431523 
833	 0.143126746313439 
834	 0.141321449587774 
835	 0.140391016970073 
836	 0.139821395896437 
837	 0.138423727888571 
838	 0.13729184763762 
839	 0.137047732894055 
840	 0.135744515169848 
841	 0.13511602166383 
842	 0.13473138213999 
843	 0.133743635342064 
844	 0.133262313741619 
845	 0.132790167653293 
846	 0.132042474117828 
847	 0.131007512182864 
848	 0.130319157829244 
849	 0.129851928763848 
850	 0.129219910311675 
851	 0.127922477168613 
852	 0.127763218938102 
853	 0.127723664473252 
854	 0.126868499018149 
855	 0.125742194898341 
856	 0.125394330244434 
857	 0.12516880058949 
858	 0.124390615055753 
859	 0.124223343765892 
860	 0.123656271217351 
861	 0.122824846924378 
862	 0.122393351554282 
863	 0.122375056621989 
864	 0.122048945696435 
865	 0.121009398611381 
866	 0.119436313180801 
867	 0.11938721257501 
868	 0.118899451435473 
869	 0.117601094503149 
870	 0.117802483063267 
871	 0.117522450812348 
872	 0.116630474288665 
873	 0.115567924286426 
874	 0.115128311283547 
875	 0.114285530674381 
876	 0.113256439209461 
877	 0.112543266733555 
878	 0.112207833503158 
879	 0.111348707090621 
880	 0.110202264286077 
881	 0.109490227268284 
882	 0.10910089421057 
883	 0.108644603189598 
884	 0.107784050470612 
885	 0.1064401949345 
886	 0.106003124948367 
887	 0.10546727694762 
888	 0.104598213080782 
889	 0.104286643143289 
890	 0.103755875630029 
891	 0.103213999198595 
892	 0.102759814025811 
893	 0.101938855870379 
894	 0.100284137840909 
895	 0.099313678091832 
896	 9.98344941000659E-02 
897	 9.80583723681245E-02 
898	 9.74442412887933E-02 
899	 9.69240481390776E-02 
900	 0.095115962003953 
901	 9.54635147987459E-02 
902	 9.52800857075966E-02 
903	 9.47820479109494E-02 
904	 9.50680217928867E-02 
905	 9.58505279115114E-02 
906	 9.53638770532083E-02 
907	 9.30005330076891E-02 
908	 8.96858721143084E-02 
909	 8.85940092409025E-02 
910	 8.96319098531679E-02 
911	 9.07503079019615E-02 
912	 0.08917238232726 
913	 8.77379059472218E-02 
914	 8.62321902117666E-02 
915	 8.49046966988813E-02 
916	 8.45965655172083E-02 
917	 8.26411927819899E-02 
918	 8.19194516529369E-02 
919	 8.25284932331482E-02 
920	 8.03717170404026E-02 
921	 7.85173959929295E-02 
922	 7.67970544180685E-02 
923	 7.49894025905264E-02 
924	 7.40828409261851E-02 
925	 7.33180964779523E-02 
926	 7.24167832444233E-02 
927	 7.11602966542343E-02 
928	 0.069048291860872 
929	 6.55660218906377E-02 
930	 6.26496175146035E-02 
931	 6.43269752149817E-02 
932	 7.14874293947437E-02 
933	 7.09683915790014E-02 
934	 6.53802478492665E-02 
935	 6.50174700136263E-02 
936	 5.62202964015073E-02 
937	 6.11043387466463E-02 
938	 0.066457770137339 
939	 5.82623307861591E-02 
940	 5.86847396506348E-02 
941	 5.92848376079264E-02 
942	 5.75627453970138E-02 
943	 5.52970768419818E-02 
944	 6.13268483041931E-02 
945	 5.22725393717378E-02 
946	 0.038862426024264 
947	 4.53497768544918E-02 
948	 4.40505463070383E-02 
949	 5.02798313195593E-02 
950	 5.71875624455884E-02 
951	 4.93397565045212E-02 
952	 4.86312229280784E-02 
953	 5.44510456396611E-02 
954	 5.69593178602291E-02 
955	 4.69736295840097E-02 
956	 4.71939024660131E-02 
957	 4.82073688028927E-02 
958	 4.86884727330461E-02 
959	 5.25935051281741E-02 
960	 4.71763946913692E-02 
961	 4.92448403955309E-02 
962	 5.41218745675604E-02 
963	 4.63154117613124E-02 
964	 4.59161226059817E-02 
965	 4.49455331768656E-02 
966	 4.26433175049999E-02 
967	 4.37692823758139E-02 
968	 4.35494257432764E-02 
969	 4.28253441489627E-02 
970	 4.33734515903036E-02 
971	 4.63533998041372E-02 
972	 4.43654626442746E-02 
973	 4.50444311104375E-02 
974	 4.84818494681596E-02 
975	 4.69535148427122E-02 
976	 4.57795683480256E-02 
977	 4.52339499474614E-02 
978	 4.43106327269379E-02 
979	 4.22969824895568E-02 
980	 4.52848824249516E-02 
981	 4.82766090103502E-02 
982	 4.77502192938807E-02 
983	 4.35823742006431E-02 
984	 4.31255625272208E-02 
985	 4.26159321693442E-02 
986	 4.00840231016807E-02 
987	 3.66960151550212E-02 
988	 3.73366516444769E-02 
989	 4.32526420554512E-02 
990	 4.85392628692784E-02 
991	 4.56644349239555E-02 
992	 4.80807185811319E-02 
993	 4.81724387118892E-02 
994	 4.61671085004137E-02 
995	 4.70710339763689E-02 
996	 4.25266677707259E-02 
997	 4.03564483010884E-02 
998	 4.14115209124117E-02 
999	 4.21053839511721E-02 
1000	 4.53653051136659E-02 
1001	 4.78294851135287E-02 
1002	 4.76722992879217E-02 
1003	 4.79035125419613E-02 
1004	 4.89763031990673E-02 
1005	 4.87483246983146E-02 
1006	 4.79969569119274E-02 
1007	 4.65879182174186E-02 
1008	 4.63620447650446E-02 
1009	 0.045474225446501 
1010	 4.53058111614216E-02 
1011	 4.67029571939771E-02 
1012	 4.63160146794801E-02 
1013	 4.64430753351698E-02 
1014	 4.66570169621209E-02 
1015	 4.65952978669623E-02 
1016	 0.04723884704659 
1017	 4.90352376960679E-02 
1018	 0.049606795884366 
1019	 0.049807992006558 
1020	 5.04879925264056E-02 
1021	 5.09821390188797E-02 
1022	 5.09268094770268E-02 
1023	 5.19054597671243E-02 
1024	 5.23864071746416E-02 
1025	 5.12283701624765E-02 
1026	 4.93201322323607E-02 
1027	 4.88820219190193E-02 
1028	 4.84944252463215E-02 
1029	 4.87832912338697E-02 
1030	 5.03936520850914E-02 
1031	 5.12455978167788E-02 
1032	 5.20600519007942E-02 
1033	 0.052446303346824 
1034	 5.25518115528759E-02 
1035	 5.29978552951301E-02 
1036	 5.33297033566237E-02 
1037	 5.35489672826919E-02 
1038	 0.053948442289472 
1039	 5.42680752035344E-02 
1040	 5.45822322048332E-02 
1041	 5.45127502315885E-02 
1042	 5.45293653267256E-02 
1043	 5.43695148828913E-02 
1044	 5.48914962450113E-02 
1045	 5.55191351809538E-02 
1046	 5.63076621274664E-02 
1047	 5.81123915851137E-02 
1048	 5.89252059416012E-02 
1049	 5.94466078032453E-02 
1050	 5.95092330312223E-02 
1051	 5.86751365757063E-02 
1052	 5.85105004668939E-02 
1053	 5.80767148203908E-02 
1054	 0.058023838949928 
1055	 5.90224520721955E-02 
1056	 5.92639102123926E-02 
1057	 5.92514688213344E-02 
1058	 5.88881413251155E-02 
1059	 5.88753471464326E-02 
1060	 5.82321434701137E-02 
1061	 0.058761918033381 
1062	 6.08010905538178E-02 
1063	 6.09830800727079E-02 
1064	 6.08077025603335E-02 
1065	 6.05567000293313E-02 
1066	 5.82953487294769E-02 
1067	 5.80906379387108E-02 
1068	 5.94930734551909E-02 
1069	 6.01993121627111E-02 
1070	 6.20592087741214E-02 
1071	 6.27111576225244E-02 
1072	 6.25790383915804E-02 
1073	 6.17405268155735E-02 
1074	 6.17383062608118E-02 
1075	 6.17350366276473E-02 
1076	 6.15033857310415E-02 
1077	 6.16366579027689E-02 
1078	 6.13478863782657E-02 
1079	 6.01330249947855E-02 
1080	 5.97184395059011E-02 
1081	 5.97803018373684E-02 
1082	 5.98710584514184E-02 
1083	 0.060481897608338 
1084	 6.04605349333953E-02 
1085	 6.02902887092598E-02 
1086	 0.059956524288504 
1087	 5.89135648247119E-02 
1088	 5.82661655535018E-02 
1089	 5.80691946823198E-02 
1090	 5.73519828828257E-02 
1091	 5.66206980497609E-02 
1092	 0.055933974532413 
1093	 5.53383092197126E-02 
1094	 5.39732902859306E-02 
1095	 5.39807711594553E-02 
1096	 0.055132776555233 
1097	 5.52346716073398E-02 
1098	 5.63669924706557E-02 
1099	 5.63370890031501E-02 
1100	 0.053993140040366 
1101	 5.37306361828249E-02 
1102	 5.46657616540951E-02 
1103	 5.42713585252967E-02 
1104	 5.43453746956774E-02 
1105	 5.43594945392267E-02 
1106	 5.10805040985981E-02 
1107	 5.01568871772931E-02 
1108	 4.79977381322717E-02 
1109	 4.61873434602773E-02 
1110	 4.67077354521965E-02 
1111	 4.89498715452339E-02 
1112	 0.050714715161935 
1113	 5.92389431984751E-02 
1114	 5.88580659017374E-02 
1115	 0.047371798541524 
1116	 4.67110236963685E-02 
1117	 4.48477517316658E-02 
1118	 4.47439510727553E-02 
1119	 6.66933728383696E-02 
1120	 7.60455965265575E-02 
1121	 6.80510898488329E-02 
1122	 0.062123778158308 
1123	 5.78398059380522E-02 
1124	 7.39826427954715E-02 
1125	 7.60651789872467E-02 
1126	 5.76567594785165E-02 
1127	 6.52870551894714E-02 
1128	 5.34799373869459E-02 
1129	 4.38929161698725E-02 
1130	 4.43672409909295E-02 
1131	 4.26460569657819E-02 
1132	 2.89731043469788E-02 
1133	 3.16626689084094E-02 
1134	 4.77388311693406E-02 
1135	 4.97538805570732E-02 
1136	 4.98153850401818E-02 
1137	 5.07690063943773E-02 
1138	 4.65502724636724E-02 
1139	 4.32232908065643E-02 
1140	 5.21586935466504E-02 
1141	 0.056809536082081 
1142	 5.02026269458043E-02 
1143	 5.11444992070163E-02 
1144	 5.40202559435724E-02 
1145	 4.68716376815106E-02 
1146	 4.48432251236811E-02 
1147	 4.68648443553181E-02 
1148	 4.53147463944418E-02 
1149	 4.30686158370506E-02 
1150	 4.04384450119784E-02 
1151	 3.57837917019929E-02 
1152	 3.83084894301602E-02 
1153	 4.47859000259858E-02 
1154	 4.55960627636278E-02 
1155	 4.84672233439685E-02 
1156	 4.65324674569477E-02 
1157	 0.042151824393777 
1158	 3.94274767290784E-02 
1159	 3.99354058241681E-02 
1160	 4.16864470149257E-02 
1161	 4.09751101865876E-02 
1162	 3.94875097005643E-02 
1163	 3.84525488009804E-02 
1164	 3.87252289266574E-02 
1165	 4.08949506102143E-02 
1166	 4.13502414402836E-02 
1167	 4.02273501173296E-02 
1168	 3.91778932250198E-02 
1169	 0.03618506517781 
1170	 3.56188393320141E-02 
1171	 3.64349255008879E-02 
1172	 3.92919501065813E-02 
1173	 3.91639996402883E-02 
1174	 3.88271314954542E-02 
1175	 3.99827487024182E-02 
1176	 3.82726930870961E-02 
1177	 3.75308861511498E-02 
1178	 4.00828547392814E-02 
1179	 3.96310287701529E-02 
1180	 3.62990485862957E-02 
1181	 3.63762812092162E-02 
1182	 3.80601636212452E-02 
1183	 3.79822750273375E-02 
1184	 3.85218014580121E-02 
1185	 3.93918224278038E-02 
1186	 3.91846245384123E-02 
1187	 3.91413261858444E-02 
1188	 3.89852755065779E-02 
1189	 3.81824264371155E-02 
1190	 0.038051362535434 
1191	 3.85532786429426E-02 
1192	 3.80538922520702E-02 
1193	 3.81107026605198E-02 
1194	 3.83072431262272E-02 
1195	 0.037842080489967 
1196	 3.70573763308673E-02 
1197	 3.83386319646758E-02 
1198	 4.01569595588547E-02 
1199	 3.99233347263801E-02 
1200	 3.88361202218763E-02 
1201	 3.85809566445352E-02 
1202	 3.88642517071707E-02 
1203	 3.92079714718125E-02 
1204	 4.05416424573454E-02 
1205	 4.10088297094169E-02 
1206	 4.02176215231115E-02 
1207	 4.07607073257657E-02 
1208	 4.10257035947786E-02 
1209	 4.07847563087849E-02 
1210	 4.09953226230311E-02 
1211	 4.04514801320761E-02 
1212	 0.03916088156799 
1213	 3.79770016992383E-02 
1214	 3.72900140323933E-02 
1215	 3.67163026895848E-02 
1216	 3.68922395776713E-02 
1217	 3.79766233259173E-02 
1218	 3.83808808376851E-02 
1219	 0.038797392590408 
1220	 3.92079119070661E-02 
1221	 3.92463034527229E-02 
1222	 3.96875420479624E-02 
1223	 3.93541193571764E-02 
1224	 3.89324095772528E-02 
1225	 3.84618928716112E-02 
1226	 3.76928540576249E-02 
1227	 3.85885850668876E-02 
1228	 3.95919915089396E-02 
1229	 0.038698263738562 
1230	 3.84491078811906E-02 
1231	 3.84975777706765E-02 
1232	 3.70703855260868E-02 
1233	 3.72285957636764E-02 
1234	 3.89517850172729E-02 
1235	 3.93927536032001E-02 
1236	 3.92066197847098E-02 
1237	 3.94808269602525E-02 
1238	 3.98582540933545E-02 
1239	 3.90811271957741E-02 
1240	 3.92111681981606E-02 
1241	 4.06366854689654E-02 
1242	 4.10288289536651E-02 
1243	 4.05164589302376E-02 
1244	 0.040236141825322 
1245	 4.01079125142687E-02 
1246	 0.040266973410324 
1247	 0.040089487391193 
1248	 3.90727277071926E-02 
1249	 3.84048286289674E-02 
1250	 3.82581135164523E-02 
1251	 3.86696242390528E-02 
1252	 3.92168365531456E-02 
1253	 0.039162059564509 
1254	 3.93544330304579E-02 
1255	 3.94853105614598E-02 
1256	 3.94369658003177E-02 
1257	 4.00780796380184E-02 
1258	 3.98174354542641E-02 
1259	 3.80101608814953E-02 
1260	 3.78116262100348E-02 
1261	 3.85910488409128E-02 
1262	 3.85727728946019E-02 
1263	 3.89076584725884E-02 
1264	 3.89398885774696E-02 
1265	 3.79666804226638E-02 
1266	 0.037690464392348 
1267	 3.85148890183202E-02 
1268	 3.88435475901688E-02 
1269	 3.81632503749444E-02 
1270	 3.74564677213742E-02 
1271	 3.72246756077243E-02 
1272	 3.75030895954471E-02 
1273	 3.81226644015897E-02 
1274	 3.84133443053285E-02 
1275	 3.82088092301414E-02 
1276	 3.82244483110308E-02 
1277	 3.86321102686427E-02 
1278	 3.88877317829539E-02 
1279	 3.94857442991936E-02 
1280	 3.88365306112015E-02 
1281	 3.84621213431232E-02 
1282	 3.88523198310598E-02 
1283	 3.84119304095658E-02 
1284	 3.59735517990377E-02 
1285	 3.58928418244714E-02 
1286	 3.74190838439162E-02 
1287	 3.75692020548037E-02 
1288	 0.038488195845319 
1289	 3.91095559789281E-02 
1290	 3.92689618056515E-02 
1291	 0.037706054686119 
1292	 3.72510537399458E-02 
1293	 3.67917656064904E-02 
1294	 3.64758781379352E-02 
1295	 3.66427302083174E-02 
1296	 3.69469434962113E-02 
1297	 3.81716887978267E-02 
1298	 3.85421959420121E-02 
1299	 3.76738015788268E-02 
1300	 3.80678687334447E-02 
1301	 3.92371508405693E-02 
1302	 3.83988686508355E-02 
1303	 3.74707723010458E-02 
1304	 3.80922499083408E-02 
1305	 0.038350904986023 
1306	 3.78372656025136E-02 
1307	 3.79159703026022E-02 
1308	 3.86413523374544E-02 
1309	 0.03879915766186 
1310	 3.81397163921188E-02 
1311	 3.87328959786989E-02 
1312	 3.94246073266486E-02 
1313	 3.76521449111504E-02 
1314	 3.65342368572924E-02 
1315	 3.73531137362945E-02 
1316	 3.84155297100161E-02 
1317	 3.81518123517007E-02 
1318	 3.85319314788996E-02 
1319	 4.26683087766827E-02 
1320	 0.043585239537143 
1321	 4.09454146795083E-02 
1322	 4.02220435102472E-02 
1323	 4.27571239337109E-02 
1324	 4.17394371618871E-02 
1325	 3.99128024088821E-02 
1326	 4.18422674025267E-02 
1327	 0.043629472570229 
1328	 4.12806534444724E-02 
1329	 4.16236770512956E-02 
1330	 4.40272925275416E-02 
1331	 4.13498069301952E-02 
1332	 3.98654725355088E-02 
1333	 3.91829403016632E-02 
1334	 3.46396431045404E-02 
1335	 3.55205049428722E-02 
1336	 4.13795574175202E-02 
1337	 4.07422160944155E-02 
1338	 3.96496376812605E-02 
1339	 4.08799629492728E-02 
1340	 0.036281160231603 
1341	 3.50016743152216E-02 
1342	 4.11173916418704E-02 
1343	 4.61506498975547E-02 
1344	 5.01796950464515E-02 
1345	 5.32224505809361E-02 
1346	 5.76444086914175E-02 
1347	 6.64789249951254E-02 
1348	 8.11305337551721E-02 
1349	 9.76404202831294E-02 
1350	 0.129799598431994 
1351	 0.178812878789249 
1352	 0.216272530391513 
1353	 0.266149045916348 
1354	 0.310258730850156 
1355	 0.412507739353199 
1356	 0.521588774267729 
1357	 0.577013797655631 
1358	 0.629296786279959 
1359	 0.527154375918454 
1360	 0.411620427513996 
1361	 0.103677254343082 
1362	-0.249307334206979 
1363	 0.154544618195907 
1364	 0.886407225772229 
1365	 1.72224617847972 
1366	 2.14629785275003 
1367	 1.32386067754775 
1368	 1.36574856509147 
1369	 1.19226834558301 
1370	 1.07777805960709 
1371	 2.11216791779134 
1372	 3.9866370395776 
1373	 1.72618812690952 
1374	 0.534994648343812 
1375	 1.45252323632489 
1376	 1.52163707688853 
1377	 1.40648330627384 
1378	 1.13297153698678 
1379	 0.647941415869286 
1380	 0.609654520428378 
1381	 0.600861846650254 
1382	 0.367632925902315 
1383	 0.482408195841401 
1384	 0.529749274566583 
1385	 0.17325710116819 
1386	 0.114233145069284 
1387	 0.680222568104378 
1388	 1.09317425272016 
1389	-1.26672004805983 
1390	-1.03591602442015 
1391	 1.7060504465538 
1392	-3.281203378274 
1393	-1.71435734658278 
1394	 3.79095132324044 
1395	 1.85345585618459 
1396	 0.985753071713695 
1397	 0.930421542393554 
1398	 0.803508628416143 
1399	 0.152046365907698 
1400	 9.96971922637546E-02 
1401	-0.111924090193115 
1402	-0.474869167734475 
1403	-5.26851085778482E-02 
1404	 0.239736000038351 
1405	 0.358026009500314 
1406	 0.763634512537514 
1407	 1.18087736976929 
1408	 2.9072953236189 
1409	 2.17124191113658 
1410	 1.53973712506502 
1411	 1.77424086974225 
1412	 0.830372102672747 
1413	 0.598525844429939 
1414	 0.693296295300499 
1415	 0.776899520483328 
1416	 0.810853544916111 
1417	 0.679947011096785 
1418	 0.712168620134826 
1419	 0.595477486506985 
1420	 9.10194326687109E-02 
1421	 7.82847988702385E-03 
1422	 3.13187824876451E-02 
1423	-1.89852950993331E-02 
1424	 2.10168660302371E-02 
1425	 9.67353493033979E-02 
1426	 0.176829667478839 
1427	 0.171915235666283 
1428	 0.177043713269886 
1429	 0.208947371577007 
1430	 0.184559126402882 
1431	 0.137226511206334 
1432	 0.148951514756839 
1433	 0.163927062629795 
1434	 0.111682014446249 
1435	 6.31547109578211E-02 
1436	 6.83220097129131E-02 
1437	 3.63961742413225E-02 
1438	-3.57482226155198E-02 
1439	-9.6025514485389E-03 
1440	 6.36536300265107E-02 
1441	 6.93122820567869E-02 
1442	 0.067670421750318 
1443	 9.73488392334707E-02 
1444	 0.184388000659161 
1445	 0.20395048008915 
1446	 8.71271469081216E-02 
1447	 1.24742931753123E-02 
1448	 3.41258420270974E-02 
1449	 0.017705670084146 
1450	 3.60184132032737E-02 
1451	 9.33082031558591E-02 
1452	 0.110118590094059 
1453	 0.101137559877529 
1454	 8.65025028032904E-02 
1455	 8.29753475813567E-02 
1456	 8.39688639748565E-02 
1457	 6.90943166286782E-02 
1458	 0.052718336486399 
1459	 4.36283754649985E-02 
1460	 4.92403565723324E-02 
1461	 4.73280585158391E-02 
1462	 4.47815547018313E-02 
1463	 7.15572783921098E-02 
1464	 7.40035253862024E-02 
1465	 3.62876495763996E-02 
1466	 0.030766895369838 
1467	 4.96811016356679E-02 
1468	 5.40160184896891E-02 
1469	 6.23191484424252E-02 
1470	 6.26997588828892E-02 
1471	 5.37563153408464E-02 
1472	 5.12717360621668E-02 
1473	 4.52879348394228E-02 
1474	 4.15991116016334E-02 
1475	 4.58787549477832E-02 
1476	 4.28963542129215E-02 
1477	 3.35643457688298E-02 
1478	 3.18900072159894E-02 
1479	 2.32076700691408E-02 
1480	 3.13704358456207E-02 
1481	 6.08913419775121E-02 
1482	 6.42541536605522E-02 
1483	 6.02615172280102E-02 
1484	 0.059311554290255 
1485	 5.17138687959914E-02 
1486	 4.43417943892071E-02 
1487	 4.06891583153553E-02 
1488	 3.79405796630633E-02 
1489	 2.98832996061159E-02 
1490	 2.79847226225653E-02 
1491	 3.14313539975826E-02 
1492	 3.28220724060794E-02 
1493	 3.44703896162987E-02 
1494	 3.46643727668826E-02 
1495	 3.38902900220894E-02 
1496	 0.03465202055409 
1497	 3.60645976600326E-02 
1498	 3.62708770073054E-02 
1499	 3.68979292304685E-02 
1500	 3.66143414457264E-02 
1501	 3.42867159528791E-02 
1502	 3.39549871633524E-02 
1503	 3.56296416800803E-02 
1504	 3.51866767391057E-02 
1505	 3.27153873438349E-02 
1506	 3.31880647200002E-02 
1507	 3.57599829534722E-02 
1508	 3.50840744633679E-02 
1509	 3.72768845934313E-02 
1510	 3.81948750234838E-02 
1511	 3.37268102430622E-02 
1512	 3.43962980951319E-02 
1513	 3.63320480942965E-02 
1514	 3.48044802159256E-02 
1515	 3.48163313361219E-02 
1516	 3.51924250559697E-02 
1517	 3.50432169712079E-02 
1518	 3.60975190495964E-02 
1519	 3.64263481880755E-02 
1520	 3.53746173334094E-02 
1521	 3.39019817324602E-02 
1522	 3.21604183046485E-02 
1523	 3.32737776582307E-02 
1524	 0.034922334338526 
1525	 3.41328394662464E-02 
1526	 0.034768468753761 
1527	 3.45154754889661E-02 
1528	 3.25154940534874E-02 
1529	 3.26399964119292E-02 
1530	 3.42952007983131E-02 
1531	 3.59016174533221E-02 
1532	 3.66699006422225E-02 
1533	 0.036935960150949 
1534	 3.69390554468835E-02 
1535	 3.67696476801424E-02 
1536	 3.61550209568805E-02 
1537	 3.51349330094628E-02 
1538	 3.46726520994502E-02 
1539	 3.53812825835937E-02 
1540	 3.63336887420045E-02 
1541	 3.62051231166965E-02 
1542	 0.035657167542733 
1543	 3.49541326624183E-02 
1544	 3.47440684761499E-02 
1545	 3.49341632965189E-02 
1546	 3.51118713963618E-02 
1547	 0.035067642854732 
1548	 3.48703680940155E-02 
1549	 3.58495112022102E-02 
1550	 3.59294056147548E-02 
1551	 3.56156945123218E-02 
1552	 3.58867510636402E-02 
1553	 3.51108051849665E-02 
1554	 3.53773383739461E-02 
1555	 3.53206028990794E-02 
1556	 3.36634374802424E-02 
1557	 3.36684640983939E-02 
1558	 3.45633254434874E-02 
1559	 3.44489636133668E-02 
1560	 3.51425875717864E-02 
1561	 3.60941229240486E-02 
1562	 3.56667339537936E-02 
1563	 3.51012763583901E-02 
1564	 3.46303761631499E-02 
1565	 3.45248529259735E-02 
1566	 3.49308805600639E-02 
1567	 3.50265350318945E-02 
1568	 0.034895608291472 
1569	 3.47766567027043E-02 
1570	 3.53472702292493E-02 
1571	 3.63966992258398E-02 
1572	 3.70108438286032E-02 
1573	 0.035824584094102 
1574	 3.32001883693462E-02 
1575	 3.26722966066733E-02 
1576	 3.25900097025988E-02 
1577	 3.34830617815755E-02 
1578	 3.65446267953372E-02 
1579	 3.67308520080251E-02 
1580	 3.61871524777807E-02 
1581	 3.56175233077022E-02 
1582	 3.35651536139731E-02 
1583	 3.41822818216987E-02 
1584	 3.55591172611611E-02 
1585	 3.54677672095276E-02 
1586	 0.035597082950517 
1587	 3.59535163721025E-02 
1588	 3.62639307298883E-02 
1589	 3.55254029400213E-02 
1590	 3.46757259985901E-02 
1591	 3.43608999359149E-02 
1592	 3.35868916929403E-02 
1593	 3.34470344570063E-02 
1594	 3.48796578886722E-02 
1595	 3.59301222808016E-02 
1596	 3.54577158243793E-02 
1597	 3.50320711603579E-02 
1598	 3.44254597546464E-02 
1599	 3.41839514899993E-02 
1600	 3.43676009886111E-02 
1601	 3.46058155259793E-02 
1602	 3.53558726866048E-02 
1603	 3.47229760170602E-02 
1604	 3.31082689027893E-02 
1605	 3.32769351045865E-02 
1606	 3.55856541741198E-02 
1607	 3.57687125158265E-02 
1608	 3.40948325381378E-02 
1609	 3.51031960660513E-02 
1610	 3.67753118543175E-02 
1611	 0.03699457192568 
1612	 3.78178170511712E-02 
1613	 3.88612713757242E-02 
1614	 3.78184998866437E-02 
1615	 3.57722699267961E-02 
1616	 3.52211561737487E-02 
1617	 0.036007099298174 
1618	 0.035965929851582 
1619	 3.60093152448101E-02 
1620	 3.61540235418638E-02 
1621	 3.39703914463941E-02 
1622	 3.26145250849063E-02 
1623	 3.31190491370005E-02 
1624	 3.41450320454506E-02 
1625	 0.03628974213266 
1626	 3.58634236273337E-02 
1627	 3.32218593269801E-02 
1628	 3.39733081787259E-02 
1629	 3.66509748419521E-02 
1630	 3.66692167368233E-02 
1631	 3.64763764018683E-02 
1632	 3.75941243973623E-02 
1633	 3.64717659767328E-02 
1634	 0.034380944936799 
1635	 3.46462809019162E-02 
1636	 3.55830381899922E-02 
1637	 3.47919607412321E-02 
1638	 3.46122767364797E-02 
1639	 3.61354480038399E-02 
1640	 3.58215893058695E-02 
1641	 3.41162873515911E-02 
1642	 3.45835262884014E-02 
1643	 3.55583130293736E-02 
1644	 3.44396546828771E-02 
1645	 3.45277692301613E-02 
1646	 3.56576303691761E-02 
1647	 3.40182317044079E-02 
1648	 3.34776767646092E-02 
1649	 3.52773939545105E-02 
1650	 3.44567562092676E-02 
1651	 3.28288517612731E-02 
1652	 3.45022441995936E-02 
1653	 3.68439781460362E-02 
1654	 3.72643764772887E-02 
1655	 3.82128718258964E-02 
1656	 3.80485515583403E-02 
1657	 3.52503887120268E-02 
1658	 3.45978069619073E-02 
1659	 3.51894572458517E-02 
1660	 0.034562409884692 
1661	 3.38710479535757E-02 
1662	 3.44265998537929E-02 
1663	 3.43690787827766E-02 
1664	 3.42723507748747E-02 
1665	 3.62951629016414E-02 
1666	 3.60261973798039E-02 
1667	 3.38065802573364E-02 
1668	 3.41141443546244E-02 
1669	 3.38826677218577E-02 
1670	 3.29744689799029E-02 
1671	 3.29685671371897E-02 
1672	 3.46373417329218E-02 
1673	 3.44241161485227E-02 
1674	 3.27341469855942E-02 
1675	 3.29474181392782E-02 
1676	 3.41141420906219E-02 
1677	 3.43051837929384E-02 
1678	 3.42986844162057E-02 
1679	 0.033707102831369 
1680	 3.29465759465575E-02 
1681	 0.033469532729685 
1682	 0.034736011511558 
1683	 3.63678031516067E-02 
1684	 3.74759557424902E-02 
1685	 3.73724422095551E-02 
1686	 3.69598035590835E-02 
1687	 3.63385871681586E-02 
1688	 3.51271527397792E-02 
1689	 3.32538882976297E-02 
1690	 3.25587569002666E-02 
1691	 3.51676411283479E-02 
1692	 3.72567764456666E-02 
1693	 3.60432044151819E-02 
1694	 3.51796565838449E-02 
1695	 3.51766113212692E-02 
1696	 3.35758503500132E-02 
1697	 3.40266565658339E-02 
1698	 3.60471525952899E-02 
1699	 0.033774227341802 
1700	 3.29042847369019E-02 
1701	 3.55399007268555E-02 
1702	 3.49513727976241E-02 
1703	 3.39112197331756E-02 
1704	 3.51935417258894E-02 
1705	 3.48442098061806E-02 
1706	 3.37071879283577E-02 
1707	 3.51399272497995E-02 
1708	 3.66881651390811E-02 
1709	 3.63012060439848E-02 
1710	 3.50295964532847E-02 
1711	 3.41816432729046E-02 
1712	 3.30659995289473E-02 
1713	 3.27471280953611E-02 
1714	 0.032770490451393 
1715	 3.38838210534326E-02 
1716	 3.47604658396252E-02 
1717	 3.43139387010429E-02 
1718	 3.68120925027605E-02 
1719	 3.99388615043592E-02 
1720	 3.98925145258114E-02 
1721	 4.10650351865501E-02 
1722	 3.82865137330935E-02 
1723	 3.29335540273192E-02 
1724	 3.44203880379474E-02 
1725	 3.65380539344097E-02 
1726	 3.62967425758903E-02 
1727	 3.82564003612065E-02 
1728	 3.78179132656689E-02 
1729	 0.031290495908414 
1730	 2.94074272620395E-02 
1731	 3.24359360787839E-02 
1732	 3.24611801894726E-02 
1733	 3.51726504376956E-02 
1734	 3.81084353528876E-02 
1735	 3.63171600436967E-02 
1736	 0.034672102242157 
1737	 3.55463992018004E-02 
1738	 3.58240091181978E-02 
1739	 3.64819238051083E-02 
1740	 3.83193351538804E-02 
1741	 3.44019722724178E-02 
1742	 0.031733341277279 
1743	 3.50514925412291E-02 
1744	 3.54030233624522E-02 
1745	 3.66422035210997E-02 
1746	 3.67994477958195E-02 
1747	 3.54759160562978E-02 
1748	 3.13603308686041E-02 
1749	 3.17944895179397E-02 
1750	 3.70111449060277E-02 
1751	 3.77364675641722E-02 
1752	 3.69868241819172E-02 
1753	 3.73006066443667E-02 
1754	 3.46325813190866E-02 
1755	 3.32094713458345E-02 
1756	 0.035188496141291 
1757	 3.72048728295252E-02 
1758	 0.03636677287363 
1759	 3.29142843221564E-02 
1760	 3.32949182741024E-02 
1761	 3.03747350086669E-02 
1762	 0.027444228798852 
1763	 3.30842304407123E-02 
1764	 3.25842557530762E-02 
1765	 3.25958008586876E-02 
1766	 3.61410839254752E-02 
1767	 3.20148644646597E-02 
1768	 2.92293131512817E-02 
1769	 3.01006822298042E-02 
1770	 0.029209978985553 
1771	 3.20516982235113E-02 
1772	 3.91807618972362E-02 
1773	 4.18708199035516E-02 
1774	 4.18139609062711E-02 
1775	 4.56072326176345E-02 
1776	 4.59387075798562E-02 
1777	 4.21575986590951E-02 
1778	 4.29574046577379E-02 
1779	 0.04574879516385 
1780	 4.43890275258314E-02 
1781	 4.43520867169157E-02 
1782	 4.67385678372331E-02 
1783	 4.43774942359134E-02 
1784	 4.12295605386494E-02 
1785	 4.09730097256011E-02 
1786	 3.87087846932427E-02 
1787	 2.93304526572739E-02 
1788	 2.77391282035518E-02 
1789	 3.90845482955697E-02 
1790	 2.65106020999643E-02 
1791	 2.64650273849397E-02 
1792	 3.31259420165721E-02 
1793	 2.09847329541912E-02 
1794	 3.33633793532031E-02 
1795	 5.06417604750766E-02 
1796	 3.38009977471173E-02 
1797	 2.48931404632883E-02 
1798	 4.09908806507205E-02 
1799	 4.72946421393322E-02 
1800	 0.121395060083431 
1801	 0.163208795093398 
1802	 8.45692151505482E-02 
1803	 8.14253970991401E-02 
1804	 0.100580823849251 
1805	 0.138182645550771 
1806	 0.296554804911685 
1807	 0.346574133001587 
1808	 0.302765839212811 
1809	 0.292149404522019 
1810	 0.102183294194626 
1811	 0.143811091876215 
1812	 0.58289474832291 
1813	 0.526248780143034 
1814	 0.349730630333174 
1815	 0.107942024605672 
1816	-0.538278966373458 
1817	-7.75454491175498E-02 
1818	 0.488611813332606 
1819	 0.529405300794452 
1820	 1.98295506661138 
1821	 0.091884275522054 
1822	 0.333703548030043 
1823	 6.77698077139467 
1824	 2.60634204001544 
1825	-8.40539095424637E-02 
1826	-0.268806619262269 
1827	-1.0128412086207 
1828	-1.66173962239787 
1829	-0.639635049343045 
1830	-0.118387430483144 
1831	-5.59492200294205 
1832	-5.24348310747781 
1833	-0.506811311387836 
1834	 0.190631970276787 
1835	 1.74093861042714 
1836	-2.3166827894753 
1837	-9.54465741169383E-03 
1838	 0.105035008475879 
1839	 8.21042570534083E-02 
1840	-0.444499109952277 
1841	 9.54619000008519E-02 
1842	 0.753812736037938 
1843	 1.0712330707491 
1844	 1.8182559564499 
1845	 1.83282247852089 
1846	 0.841748208442531 
1847	 0.792523301391275 
1848	 0.805050975210431 
1849	 45.9118132610065 
1850	-0.57199524061437 
1851	-0.277399307963977 
1852	-8.24201192889905E-02 
1853	 7.63677385700194E-02 
1854	 0.270651687726364 
1855	-1.60327021960763 
1856	-2.47356925437339 
1857	 0.926273680323415 
1858	 0.716476220038356 
1859	 0.914591956311664 
1860	 0.854117111308291 
1861	 0.637708302755427 
1862	 0.606671754895213 
1863	 1.05604779061342 
1864	 0.871110339524866 
1865	 0.263757117393325 
1866	-0.701846478586891 
1867	-2.3040734439625 
1868	-1.87023556783037 
1869	-1.956658290258 
1870	-2.78971575457167 
1871	-4.48552565807843 
1872	-1.79169750895822 
1873	 0.83571488993077 
1874	 0.350414232479805 
1875	-0.150308990776002 
1876	-0.167417781023333 
1877	 0.732306628814752 
1878	 1.26738229953612 
1879	 1.55079526876476 
1880	 1.31862628096327 
1881	 0.745114678999264 
1882	 0.622046509177026 
1883	-1.07128668857734 
1884	 7.6946480153223 
1885	 3.19908418000655 
1886	 1.44368780676712 
1887	 1.31387153869145 
1888	-0.222905044460189 
1889	-0.426074279873352 
1890	-1.49797250901289 
1891	-2.99556897363255 
1892	 2.27061703180033 
1893	 1.43321526316922 
1894	 0.754653889136239 
1895	 0.975544087502121 
1896	 49.5685615724156 
1897	-3.97685153540223 
1898	-0.163704157188443 
1899	 1.16147797237115 
1900	 1.34586666145711 
1901	 2.39377286073154 
1902	 1.61145867695079 
1903	-1.06972463839391 
1904	-1.87475022120748 
1905	-2.35818055930348 
1906	-5.36678878159425 
1907	-2.43353085642441 
1908	-1.44273304811993 
1909	-2.56767137819431 
1910	-2.62345228203495 
1911	-2.62944927395659 
1912	 4.49680268833172 
1913	 0.519690925473193 
1914	-2.53496160831127 
1915	 10.8223883803681 
1916	 23.9163427038882 
1917	 1.41809743676006 
1918	-4.10913053343305 
1919	 17.7461339768394 
1920	 9.56763391656435 
1921	-8.77878240007405 
1922	-14.785830061616 
1923	 8.22301187449242 
1924	-1.5812003563865 
1925	-0.420952843492208 
1926	-0.47063772092086 
1927	 1.61224923148309 
1928	-3.20602193491167 
1929	 2.32209944101678 
1930	 0.616307237570522 
1931	-8.30698845698609 
1932	 0.521020885970095 
1933	-0.10328171039148 
1934	 5.79263743872955E-02 
1935	 6.74103575869664E-02 
1936	-0.374781769212591 
1937	-0.58175272819587 
1938	-0.737904483526331 
1939	-0.749160526478381 
1940	-0.730984595500747 
1941	-1.07450154783049 
1942	-1.22316933205793 
1943	-0.525869103274585 
1944	-10.0158335506349 
1945	-0.638100633936913 
1946	-1.18110888643162 
1947	-1.25426076114619 
1948	-2.260668539956 
1949	-4.903883199937 
1950	 43.5075285478599 
1951	-16.5261012175656 
1952	-3.6389590898731 
1953	-0.13902991854464 
1954	 0.218010675633237 
1955	 0.435127760679393 
1956	 0.159510901443463 
1957	-0.216273205079613 
1958	-0.292851204779813 
1959	-0.268843722109287 
1960	-0.111830323617392 
1961	-2.79982535435346E-02 
1962	 1.81965704055918E-03 
1963	 5.42269503218093E-02 
1964	 6.91459150551406E-02 
1965	 6.20075142973749E-02 
1966	 4.05721939469565E-02 
1967	 3.02339234320949E-02 
1968	 1.71012522627992E-02 
1969	-2.03033790371197E-02 
1970	-3.62359446467043E-02 
1971	 8.69416415769894E-03 
1972	 7.92730274818511E-02 
1973	 0.112400202413562 
1974	 0.109693932812858 
1975	 0.1146995801471 
1976	 7.76330438943231E-02 
1977	 3.25848619554858E-02 
1978	 2.77902526249194E-02 
1979	 2.17338979369351E-02 
1980	 7.05779725832172E-03 
1981	 2.12694832563883E-02 
1982	 4.55100274795749E-02 
1983	 2.71048800269732E-02 
1984	 1.55972530999512E-02 
1985	 9.86663526609096E-03 
1986	 3.90067849838508E-03 
1987	 2.60671523977872E-02 
1988	 6.63565487492827E-02 
1989	 7.29926377961316E-02 
1990	 6.64311457186925E-02 
1991	 6.07401567401267E-02 
1992	 4.01157691396437E-02 
1993	 2.46940798727699E-02 
1994	 1.64414103350172E-02 
1995	 1.51861969996743E-02 
1996	 2.64683084508682E-02 
1997	 9.54032528739594E-03 
1998	-4.81599135851247E-04 
1999	-7.15973189402085E-03 
2000	-4.09989958593404E-02 
2001	-2.66361517320603E-02 
2002	-4.66028707044902E-03 
2003	 8.82549674040145E-03 
2004	 1.90487979732942E-02 
2005	 4.70028493638394E-02 
2006	 0.104263893085048 
2007	 0.157059672525107 
2008	 0.159042005061547 
2009	 0.167795467144308 
2010	 0.172200509453304 
2011	 0.15619825827851 
2012	 0.110240184036885 
2013	 0.105524106424581 
2014	 0.089077766041604 
2015	 3.41711169280879E-02 
2016	 2.12245903433949E-02 
2017	 2.17445315144648E-02 
2018	 3.87438560544484E-02 
2019	 4.06848421097777E-02 
2020	 4.06342527050836E-02 
2021	 5.32240117487553E-02 
2022	 5.11588894009176E-02 
2023	 4.77409531432002E-02 
2024	 3.73101484276419E-02 
2025	 1.24953056679124E-02 
2026	 8.45153547697484E-03 
2027	 5.0493061720286E-03 
2028	 1.15725770277764E-02 
2029	 2.63577884943912E-02 
2030	 3.30623250254515E-02 
2031	 4.81314138163152E-02 
2032	 4.79062621775474E-02 
2033	 4.23354986149368E-02 
2034	 4.49580725884506E-02 
2035	 4.10165564419158E-02 
2036	 3.93814963353092E-02 
2037	 3.30650487522283E-02 
2038	 3.31515808822056E-02 
2039	 3.54171226105605E-02 
2040	 3.70913383554641E-02 
2041	 3.88429126558595E-02 
2042	 0.048255306443148 
2043	 4.76989147479977E-02 
2044	 3.95861080943647E-02 
2045	 3.49565989285604E-02 
2046	 2.67430614946354E-02 
2047	 2.86782865875085E-02 
2048	 3.28165674288382E-02 
2049	 2.57674749880679E-02 
2050	 1.72349030636991E-02 
2051	 1.25641566281347E-02 
2052	 1.09983319201545E-02 
2053	 1.44481059173404E-02 
2054	 3.40406326268107E-02 
2055	 4.95087858116453E-02 
2056	 5.44856641918785E-02 
2057	 5.20310489033749E-02 
2058	 5.63271361997533E-02 
2059	 5.13562593102387E-02 
2060	 4.88270597811689E-02 
2061	 5.24876250578335E-02 
2062	 5.40185811452315E-02 
2063	 0.047749945358537 
2064	 0.044375758470393 
2065	 4.68611221234642E-02 
2066	 5.40513099641262E-02 
2067	 5.39469456092595E-02 
2068	 5.43799419267224E-02 
2069	 5.92614162430549E-02 
2070	 5.60075606377511E-02 
2071	 0.056257985863118 
2072	 5.30376769413368E-02 
2073	 5.11491035164893E-02 
2074	 4.81193052227551E-02 
2075	 4.74433705035687E-02 
2076	 5.10193519575947E-02 
2077	 5.14153449144669E-02 
2078	 4.80918483698836E-02 
2079	 4.66217008484127E-02 
2080	 4.53629251444833E-02 
2081	 4.18276520671665E-02 
2082	 4.07809556626037E-02 
2083	 0.045740889681576 
2084	 4.21571951253422E-02 
2085	 3.33779538948739E-02 
2086	 3.14520741546932E-02 
2087	 2.61859657516663E-02 
2088	 2.07300258712078E-02 
2089	 2.07197835692428E-02 
2090	 1.97930199666196E-02 
2091	 2.40103022999596E-02 
2092	 2.74710077767429E-02 
2093	 3.69324853035723E-02 
2094	 4.13432739051727E-02 
2095	 3.92332605775884E-02 
2096	 4.14416555350161E-02 
2097	 5.00885807606179E-02 
2098	 0.049910884875383 
2099	 4.46420932706123E-02 
2100	 4.64962172673953E-02 
2101	 3.95736527381594E-02 
2102	 3.22319110599377E-02 
2103	 3.56128148216431E-02 
2104	 3.49224460759748E-02 
2105	 2.86955667434777E-02 
2106	 2.24209201314727E-02 
2107	 1.43440712445273E-02 
2108	 4.32153322061027E-03 
2109	 6.58907433642784E-03 
2110	 1.75266329534034E-02 
2111	 2.01006815394673E-02 
2112	 2.57297306831809E-02 
2113	 0.031056374157059 
2114	 3.28989932521779E-02 
2115	 0.032088160402543 
2116	 3.21582691999967E-02 
2117	 3.36425738598301E-02 
2118	 2.89868999001378E-02 
2119	 2.94253348931987E-02 
2120	 3.52036237292305E-02 
2121	 4.30929028153298E-02 
2122	 4.19489363956425E-02 
2123	 4.41583718745415E-02 
2124	 4.52377707666638E-02 
2125	 3.85544620618011E-02 
2126	 3.08988007042592E-02 
2127	 3.02319126172663E-02 
2128	 3.76416049756617E-02 
2129	 4.38468527224483E-02 
2130	 0.049865171487547 
2131	 5.45972952573446E-02 
2132	 4.94418890460077E-02 
2133	 3.92240442780873E-02 
2134	 0.034537564458707 
2135	 3.33828898377196E-02 
2136	 2.89353613009945E-02 
2137	 2.04433546067505E-02 
2138	 0.020289269891791 
2139	 0.023519332978785 
2140	 2.50718813593979E-02 
2141	 0.035364951490276 
2142	 3.91239793893114E-02 
2143	 3.92577216823878E-02 
2144	 3.38721209084609E-02 
2145	 3.26050931312905E-02 
2146	 3.27956124559464E-02 
2147	 3.01571154495925E-02 
2148	 3.33293912978424E-02 
2149	 3.66936050487356E-02 
2150	 3.66789601209501E-02 
2151	 3.53636254597233E-02 
2152	 0.031147031916776 
2153	 0.024971017159855 
2154	 1.36318842935779E-02 
2155	 1.06169449702341E-02 
2156	 1.54407909602816E-02 
2157	 1.47431694066573E-02 
2158	 1.09570385532107E-02 
2159	 1.80562359152289E-02 
2160	 3.18238342027655E-02 
2161	 3.36090947199512E-02 
2162	 4.21144154745095E-02 
2163	 4.22198137017897E-02 
2164	 0.025586021252194 
2165	 1.81551763972191E-02 
2166	 8.73212924894717E-03 
2167	 6.5189631576442E-03 
2168	 0.007304024108229 
2169	 1.16871709323848E-02 
2170	 2.72955243578023E-02 
2171	 4.02735976771932E-02 
2172	 3.97316477595011E-02 
2173	 3.75599840637683E-02 
2174	 2.41707067170169E-02 
2175	 1.97058383589987E-02 
2176	 1.90893342182745E-02 
2177	 1.36495218006265E-02 
2178	 2.11931603530046E-02 
2179	 2.99980896101958E-02 
2180	 0.033976879583671 
2181	 4.50784394391263E-02 
2182	 4.66639056632385E-02 
2183	 3.36917849582831E-02 
2184	 3.30350678556373E-02 
2185	 2.22079680400276E-02 
2186	 1.51145375846837E-02 
2187	 1.08692657749024E-02 
2188	 1.14770964348332E-02 
2189	 1.26685259968086E-02 
2190	 0.0171452590329 
2191	 2.95253777442964E-02 
2192	 3.06272816041881E-02 
2193	 2.39872577884667E-02 
2194	 2.40219914610688E-02 
2195	 0.025335403237976 
2196	 0.026493816661395 
2197	 3.62996450699712E-02 
2198	 3.16742402454323E-02 
2199	 1.58863318943528E-02 
2200	 1.25355089681352E-03 
2201	-1.58799169754308E-02 
2202	-1.71359844684518E-02 
2203	 6.12228966906952E-05 
2204	-3.06822248113479E-03 
2205	-7.06632154554172E-03 
2206	-5.75514029182459E-04 
2207	 3.02578770497033E-03 
2208	 1.59963021166937E-02 
2209	 3.24506196508585E-02 
2210	 3.74995661954893E-02 
2211	 0.032090099904881 
2212	 2.45560761994439E-02 
2213	 1.69904669935544E-02 
2214	 1.26493682550096E-02 
2215	 8.91116751218717E-03 
2216	 1.97370104324488E-03 
2217	-8.81639280807321E-04 
2218	-5.87986099332072E-03 
2219	-5.38711002750457E-03 
2220	 2.25287707516994E-03 
2221	 0.012343841063213 
2222	 2.81339597292884E-02 
2223	 2.52203489061933E-02 
2224	 1.00484251858787E-02 
2225	 1.40988401614415E-02 
2226	 2.08129287025894E-02 
2227	 2.41677326654183E-02 
2228	 4.73981192568257E-02 
2229	 4.97040731625151E-02 
2230	 2.74254611510633E-02 
2231	 2.13768787983208E-02 
2232	 1.71259439317333E-02 
2233	 1.42005753434768E-02 
2234	 1.59708481683886E-02 
2235	 9.58330225485477E-03 
2236	 1.79249683635922E-02 
2237	 2.69385402901714E-02 
2238	 3.93053819410089E-02 
2239	 5.42584012272295E-02 
2240	 0.046594048602137 
2241	 0.038314474279618 
2242	 0.039869249084126 
2243	 3.98507232020117E-02 
2244	 4.30169424987531E-02 
2245	 6.12921699716412E-02 
2246	 7.41602334864889E-02 
2247	 5.95762628022898E-02 
2248	 4.52005348305496E-02 
2249	 3.02005294420415E-02 
2250	 1.48020083484777E-02 
2251	 2.22051333925914E-02 
2252	 3.89756593908588E-02 
2253	 5.68924806355707E-02 
2254	 6.71575740634916E-02 
2255	 6.08275332790318E-02 
2256	 4.78359169445502E-02 
2257	 4.33307519172057E-02 
2258	 5.55091433809273E-02 
2259	 6.82697881237595E-02 
2260	 6.64471503332199E-02 
2261	 0.065526396009761 
2262	 5.79195544481568E-02 
2263	 2.78365760762793E-02 
2264	 1.17874141660355E-02 
2265	 5.30131245385155E-03 
2266	-7.50873286957249E-03 
2267	-3.68273422569242E-02 
2268	-3.94086917910162E-02 
2269	-1.56468538406383E-02 
2270	-8.4195258540284E-03 
2271	 1.14738164895507E-02 
2272	 1.73029604676372E-02 
2273	-7.88786167791847E-04 
2274	-1.13820215161121E-02 
2275	-1.90956022015688E-02 
2276	-2.87061388871491E-02 
2277	-4.79900960143975E-02 
2278	-5.39437015905827E-02 
2279	-5.08153673228806E-02 
2280	-4.54437344897452E-02 
2281	-3.45449095066392E-02 
2282	-1.84626673287903E-02 
2283	 1.38113987854617E-02 
2284	 0.042072982279083 
2285	 0.056309393282484 
2286	 7.78777133986682E-02 
2287	 8.84618004956412E-02 
2288	 4.95017135486602E-02 
2289	 3.74884292433728E-02 
2290	 3.95772651286484E-02 
2291	-2.50997528888608E-02 
2292	-4.75668345957111E-02 
2293	-4.74890373186548E-02 
2294	-7.60681143841642E-02 
2295	-4.58855894109561E-02 
2296	-6.19380720595758E-03 
2297	 1.67044059179645E-02 
2298	 2.29453227761642E-02 
2299	-3.89936990724446E-04 
2300	-1.80883772217731E-02 
2301	-3.07459914961436E-02 
2302	-3.98720442987693E-02 
2303	 4.28450167173498E-03 
2304	 3.75910148213842E-02 
2305	 1.26447429513824E-02 
2306	 0.013339285929233 
2307	 0.021551233409821 
2308	 4.26357885419458E-02 
2309	 9.54910824172245E-02 
2310	 0.119880068598928 
2311	 0.117869579656338 
2312	 0.102037303855421 
2313	 4.97400935845548E-02 
2314	 2.20821586834301E-02 
2315	 2.25005869939373E-02 
2316	-1.68953789955157E-02 
2317	-2.57136802510921E-02 
2318	-8.91685688228494E-03 
2319	-3.77912685542449E-02 
2320	-4.68032055260136E-02 
2321	-3.16291026528022E-02 
2322	-4.83414076467124E-02 
2323	-6.43521808800675E-02 
2324	-9.20116496228774E-02 
2325	-0.105749977852137 
2326	-8.52650999168889E-02 
2327	-8.47602406540087E-02 
2328	-8.01891978329589E-02 
2329	-9.16439006394155E-02 
2330	-8.37937559986298E-02 
2331	-4.49935511546584E-02 
2332	-1.77415544203296E-02 
2333	 2.37181249581309E-02 
2334	 4.37857409241239E-02 
2335	 4.13617587518785E-02 
2336	 3.65295081114437E-02 
2337	 6.62128756067032E-02 
2338	 0.103839931250849 
2339	 9.80639599109465E-02 
2340	 7.56423879293277E-02 
2341	 1.46204138149919E-02 
2342	-4.87458789553912E-02 
2343	-2.41693521558428E-02 
2344	-4.04175697186581E-02 
2345	-0.084784360592377 
2346	-1.89252387832954E-02 
2347	-9.97610544064433E-02 
2348	-0.180478855749879 
2349	-0.122427445041569 
2350	-0.133566264847035 
2351	-8.20940481568805E-02 
2352	 6.14243619758758E-02 
2353	 0.247738608394055 
2354	 0.298642146030085 
2355	 0.234666236582796 
2356	 8.83512569478471E-02 
2357	-0.173885775348585 
2358	-0.196145586721179 
2359	-0.202444508164795 
2360	-0.246247188392109 
2361	-0.143709871683917 
2362	-0.134306245689948 
2363	-0.200002101598243 
2364	-8.75401334223967E-02 
2365	-6.89193390709964E-02 
2366	-0.224170042629869 
2367	-0.314534857103466 
2368	-0.595907373889977 
2369	-1.68159393096733 
2370	-5.76725640781084 
2371	-3.02209773419033 
2372	-1.70458327586104 
2373	-0.32143826736288 
2374	 0.577091428739367 
2375	 1.77894366039088 
2376	 1.50256980243336 
2377	 4.06252974768518E-02 
2378	-0.309019717958694 
2379	-1.02570503084663 
2380	-0.645635528438588 
2381	-0.195178292017872 
2382	-4.27653491484913E-02 
2383	 6.73847288479535E-02 
2384	-9.03996714090846E-02 
2385	-0.28189390182466 
2386	-0.409708616816741 
2387	-0.831426003468904 
2388	-1.01283054993066 
2389	-0.369984780246266 
2390	-0.249824983612092 
2391	-0.195838110716132 
2392	-0.424254822287213 
2393	-0.622780297843317 
2394	-0.571204911780874 
2395	-0.412830154034961 
2396	-6.56026477914102E-02 
2397	 0.327822165081541 
2398	 0.475287083169965 
2399	 0.502771033151068 
2400	 0.551105120288005 
2401	 0.259446082384663 
2402	-0.196360925581549 
2403	-0.37566094245541 
2404	-0.703682825519072 
2405	-0.948930964892671 
2406	-0.674927527976532 
2407	-0.514747296667702 
2408	-0.764147949529083 
2409	-0.944748218482574 
2410	-1.38543533672869 
2411	-1.29645485639262 
2412	-0.98569369029946 
2413	-0.813491005643963 
2414	-0.363875886766882 
2415	-0.333127019747201 
2416	-0.751582657374516 
2417	-0.671498162846924 
2418	-1.56490255255879 
2419	-2.92684250855566 
2420	-1.70702553562993 
2421	-2.61807734730958 
2422	-2.57270113793033 
2423	-1.07306260739477 
2424	-1.38853875502326 
2425	-3.36127594555799 
2426	-4.2341510435946 
2427	 0.538326855065886 
2428	 0.203836695338232 
2429	 0.729676663683488 
2430	 0.573110092951986 
2431	 0.49854044907116 
2432	 0.350393461653557 
2433	-7.35589726651477E-02 
2434	-0.4634187627486 
2435	-0.598031148067653 
2436	-1.43715643174862 
2437	 4.5085294880847 
2438	-6.01224474980209 
2439	-0.565837047043282 
2440	 6.59929594955073E-02 
2441	 0.91440202118973 
2442	 1.17649980684063 
2443	 2.34290279285155 
2444	-1.41676075444815 
2445	 0.739313034668804 
2446	 0.433078263097035 
2447	-0.162576605149494 
2448	-0.343441565102913 
2449	 0.17780559385816 
2450	-0.831086369171216 
2451	-0.216487464836643 
2452	 0.324259799978155 
2453	-4.68993204286832 
2454	 9.98849916431302 
2455	-93.6644023963373 
2456	-2.26314672836005 
2457	-3.79120225875618 
2458	-2.86952410067858 
2459	-0.357161018488437 
2460	 1.50372946724202 
2461	-12.5544992695906 
2462	-3.00761024204513E-02 
2463	 21.424630288067 
2464	 3.64235033905569 
2465	 0.375209496073811 
2466	 8.24563529189813 
2467	-0.926653546945152 
2468	-0.419492478415925 
2469	-0.284456561800953 
2470	-0.664378861159009 
2471	 0.282270246813907 
2472	 0.196400237385285 
2473	 2.48556094293148 
2474	-1.74284865610986 
2475	-1.33159936790826 
2476	-3.92617826605278 
2477	-2.31290487101959 
2478	-1.65736424019034 
2479	-6.72468145332813 
2480	-4.81345533196807 
2481	-4.45761131341474 
2482	-12.417220858727 
2483	 3.31712995988867 
2484	-2.38417909946988 
2485	-1.85761840720362 
2486	-1.70368450847422 
2487	-1.19320048921454 
2488	-0.5216534016716 
2489	-0.146925468036077 
2490	 0.204578521948828 
2491	 0.325658204128937 
2492	 0.620763063100915 
2493	 9.09900606093257E-02 
2494	-6.38962295062055E-02 
2495	 0.138030721741088 
2496	 0.589639939493439 
2497	 4.80939254538574 
2498	 17.9525700444907 
2499	-5.57783954410793 
2500	-2.79828783903002 
