Wavelength	rt0629dirt00000.asd
350	 9.64807247528417E-02 
351	 9.64171903494025E-02 
352	 9.68360463089761E-02 
353	 0.097443419438896 
354	 9.76860111753835E-02 
355	 9.61625759637552E-02 
356	 9.60703463407589E-02 
357	 9.73954724240865E-02 
358	 0.098837189515565 
359	 9.87797012950768E-02 
360	 0.098530881480053 
361	 9.86892135608053E-02 
362	 9.91786524447376E-02 
363	 9.92692032776192E-02 
364	 9.91262504962484E-02 
365	 9.91277405081945E-02 
366	 0.099801340350057 
367	 9.96486836171149E-02 
368	 0.09960709179012 
369	 0.100556668304268 
370	 0.100817741154143 
371	 0.100802713716439 
372	 0.100894271725077 
373	 0.10137217671812 
374	 0.101792352500322 
375	 0.10201661211902 
376	 0.102247561837668 
377	 0.103079440057271 
378	 0.10357842301767 
379	 0.10374682628989 
380	 0.103983120798149 
381	 0.105205483622873 
382	 0.105634068684568 
383	 0.105634251064484 
384	 0.106481807381771 
385	 0.107669338656747 
386	 0.108382743492126 
387	 0.1084996740007 
388	 0.10869403213418 
389	 0.109123852358001 
390	 0.110058943072935 
391	 0.111253665659816 
392	 0.111174506936655 
393	 0.111761831583107 
394	 0.11264020743544 
395	 0.112845114106598 
396	 0.113351001461253 
397	 0.113545863273146 
398	 0.113729227343048 
399	 0.114908138666809 
400	 0.114794517261751 
401	 0.114648792680616 
402	 0.115354267735072 
403	 0.115703173322898 
404	 0.116454413403217 
405	 0.117252929149197 
406	 0.117527453004017 
407	 0.11794873070386 
408	 0.11831247589349 
409	 0.118635666386948 
410	 0.119189804897182 
411	 0.119922491762849 
412	 0.120386259389907 
413	 0.120542212748661 
414	 0.121541528314408 
415	 0.122067137061345 
416	 0.122384685615303 
417	 0.123210069745875 
418	 0.123724681790974 
419	 0.124223691748376 
420	 0.124848656567368 
421	 0.125496516190197 
422	 0.126289635818013 
423	 0.127201728139423 
424	 0.128139885252102 
425	 0.128919154569752 
426	 0.129703901321534 
427	 0.13042139509199 
428	 0.131006215387849 
429	 0.132311678652394 
430	 0.133398848970455 
431	 0.134096726882093 
432	 0.135316433123166 
433	 0.136253101163787 
434	 0.137149509068016 
435	 0.138235483400503 
436	 0.138978153452836 
437	 0.139866680395263 
438	 0.140844550623807 
439	 0.141613690403536 
440	 0.142655282694083 
441	 0.143542716582812 
442	 0.144228972136667 
443	 0.145373977072734 
444	 0.146085697910265 
445	 0.1467231861691 
446	 0.147715009823826 
447	 0.148328572135829 
448	 0.149197822907579 
449	 0.150097024582593 
450	 0.150272771768643 
451	 0.150895289674742 
452	 0.151577875553073 
453	 0.152044569777319 
454	 0.152737221492501 
455	 0.153222273250187 
456	 0.153608101885007 
457	 0.154127901600161 
458	 0.154553306882981 
459	 0.154948295354355 
460	 0.155404739076078 
461	 0.156004579263582 
462	 0.156330555778646 
463	 0.156568646079614 
464	 0.156984887853244 
465	 0.157747345245091 
466	 0.158286337092351 
467	 0.158575499510534 
468	 0.158902519993053 
469	 0.159561820768039 
470	 0.16008290957293 
471	 0.160362304947146 
472	 0.16087610594782 
473	 0.161470074005026 
474	 0.161987036311924 
475	 0.162388250785585 
476	 0.163090594613351 
477	 0.163652380378217 
478	 0.164115247846052 
479	 0.164818856784612 
480	 0.165363372755037 
481	 0.165894638073902 
482	 0.166551951869081 
483	 0.167319531896377 
484	 0.168059910446673 
485	 0.168745577705839 
486	 0.169429729201866 
487	 0.170294811632539 
488	 0.171196220458857 
489	 0.172046227217468 
490	 0.172837087625153 
491	 0.173494379084256 
492	 0.174196343975306 
493	 0.175050875010581 
494	 0.175842340872598 
495	 0.176790899070116 
496	 0.177807020857871 
497	 0.17867936005676 
498	 0.179636695364808 
499	 0.180610535291304 
500	 0.18154848889585 
501	 0.182463319942248 
502	 0.183486708280437 
503	 0.184479014796829 
504	 0.185338327889135 
505	 0.186433044495855 
506	 0.187558928292994 
507	 0.188703589225953 
508	 0.189987766318374 
509	 0.190948519012073 
510	 0.191951268834637 
511	 0.193232902603009 
512	 0.194452169666705 
513	 0.195549148512688 
514	 0.196677935631859 
515	 0.198019126576313 
516	 0.199137418401028 
517	 0.200426225716047 
518	 0.201876550934266 
519	 0.202913693630856 
520	 0.20432134446295 
521	 0.205694693050693 
522	 0.206677875096677 
523	 0.208002884178161 
524	 0.209426559118551 
525	 0.21082006283898 
526	 0.212152278007031 
527	 0.213387335313195 
528	 0.214697046568028 
529	 0.216142063161408 
530	 0.217547419716161 
531	 0.218712304562639 
532	 0.219921950433019 
533	 0.221498850874176 
534	 0.222788837709293 
535	 0.224051669733566 
536	 0.225398494790684 
537	 0.226697148914129 
538	 0.227927138380932 
539	 0.22927538681109 
540	 0.230815607733074 
541	 0.232093592121592 
542	 0.233410918649762 
543	 0.234802867104799 
544	 0.236150806581276 
545	 0.237552381848745 
546	 0.238894774650222 
547	 0.240153504847107 
548	 0.241531278780234 
549	 0.24285484012914 
550	 0.244171385233385 
551	 0.245568863148177 
552	 0.246899285724689 
553	 0.248079124165103 
554	 0.249217603172609 
555	 0.250614350069663 
556	 0.251828973258371 
557	 0.253025185648764 
558	 0.254360654120016 
559	 0.255548684472978 
560	 0.256507784675144 
561	 0.257428731491118 
562	 0.258627191107319 
563	 0.259693501802272 
564	 0.260669534498854 
565	 0.261590434309648 
566	 0.262351686439839 
567	 0.263093775351467 
568	 0.263916850645296 
569	 0.264840916844502 
570	 0.265570570949637 
571	 0.26626571068688 
572	 0.26697303188052 
573	 0.267587282171417 
574	 0.268211107804506 
575	 0.268950167440734 
576	 0.26974382463347 
577	 0.269999090938325 
578	 0.270432583949836 
579	 0.271035344792808 
580	 0.271376111513667 
581	 0.271711070804779 
582	 0.271904008506589 
583	 0.271936024831826 
584	 0.272091097057127 
585	 0.272083887440417 
586	 0.271861585493312 
587	 0.271521863497488 
588	 0.27155745285215 
589	 0.271380421287629 
590	 0.270929505368135 
591	 0.270757206254836 
592	 0.270752701121838 
593	 0.270772372653346 
594	 0.270665012150075 
595	 0.270310172420821 
596	 0.269768912134647 
597	 0.269229539242912 
598	 0.268908406902182 
599	 0.268527282272151 
600	 0.268152896097347 
601	 0.267850466728516 
602	 0.267611997847553 
603	 0.26735122575138 
604	 0.267303112391105 
605	 0.267596654881326 
606	 0.267280952986435 
607	 0.266975560014733 
608	 0.266974787206719 
609	 0.267146291296988 
610	 0.267294341177638 
611	 0.267358143281609 
612	 0.267351656290576 
613	 0.267381698705742 
614	 0.267416808627725 
615	 0.267444687815488 
616	 0.267452698130586 
617	 0.267343073643264 
618	 0.267288101310166 
619	 0.267371784050218 
620	 0.267504158200048 
621	 0.267525521655939 
622	 0.267537152193045 
623	 0.267639276615612 
624	 0.267426315046323 
625	 0.267450006916115 
626	 0.26760813069327 
627	 0.267203147329333 
628	 0.267297130495933 
629	 0.267676893492166 
630	 0.267893434565794 
631	 0.267537354128539 
632	 0.267271529110132 
633	 0.267342057337856 
634	 0.267683543747045 
635	 0.267640795603878 
636	 0.267515157422676 
637	 0.267505890030401 
638	 0.26752500559989 
639	 0.267598188871405 
640	 0.267545792242415 
641	 0.267282003759014 
642	 0.26734922672888 
643	 0.267176729763095 
644	 0.266641457781472 
645	 0.266017294899445 
646	 0.265435876571998 
647	 0.265251793966523 
648	 0.265437599305151 
649	 0.265032682524372 
650	 0.264659428749483 
651	 0.264362305134358 
652	 0.263971927885047 
653	 0.26328878067182 
654	 0.262443052342216 
655	 0.261526267518787 
656	 0.260666417609917 
657	 0.259790504895122 
658	 0.259109064523901 
659	 0.258707726399523 
660	 0.258242098376254 
661	 0.2577533181231 
662	 0.2571898274183 
663	 0.256483028496583 
664	 0.255818351796803 
665	 0.255352957573166 
666	 0.255074986948758 
667	 0.254717018596157 
668	 0.254236159254254 
669	 0.253698986468972 
670	 0.253254385856737 
671	 0.253175181955966 
672	 0.253193021134624 
673	 0.253062057244299 
674	 0.252629839515714 
675	 0.252573188249438 
676	 0.252663138444258 
677	 0.252610311697394 
678	 0.252437388062015 
679	 0.252195761921975 
680	 0.252011896502286 
681	 0.252012719750203 
682	 0.252105670141759 
683	 0.252129254124559 
684	 0.251986949297738 
685	 0.251646347950429 
686	 0.251200746389638 
687	 0.251029539334658 
688	 0.251248487959966 
689	 0.250982428556856 
690	 0.250490319351356 
691	 0.249824562003054 
692	 0.248959776104978 
693	 0.248450978386269 
694	 0.248285656043789 
695	 0.24822060073465 
696	 0.247901834828152 
697	 0.24698052896027 
698	 0.245838824629011 
699	 0.245006030022921 
700	 0.243859898591364 
701	 0.242764775662863 
702	 0.241735060024312 
703	 0.24047494521085 
704	 0.239471798622532 
705	 0.238370955687112 
706	 0.236979206071186 
707	 0.235644510184393 
708	 0.23392245077519 
709	 0.231943336622675 
710	 0.230008673047522 
711	 0.228068309004115 
712	 0.225889497488751 
713	 0.223429948385867 
714	 0.220792284825559 
715	 0.21800607448236 
716	 0.214770993576773 
717	 0.211160340361584 
718	 0.207666762665528 
719	 0.20502644585487 
720	 0.203181642711639 
721	 0.201213196714151 
722	 0.198632975798945 
723	 0.19547186822476 
724	 0.192341547730783 
725	 0.189452396005854 
726	 0.186263770005387 
727	 0.183000949026481 
728	 0.179849663061169 
729	 0.176264163829907 
730	 0.172368299202924 
731	 0.16886486566564 
732	 0.166145321173415 
733	 0.163622123882233 
734	 0.161290149260289 
735	 0.159168044035462 
736	 0.15722922223136 
737	 0.155761476146103 
738	 0.154703141416639 
739	 0.153956061520287 
740	 0.153577322336799 
741	 0.152935662452008 
742	 0.15221474716998 
743	 0.151931048559147 
744	 0.151618082012988 
745	 0.151245249688174 
746	 0.150871592330573 
747	 0.150611042246279 
748	 0.150472091538476 
749	 0.150268099147522 
750	 0.149890988745061 
751	 0.149649295681219 
752	 0.149352951287526 
753	 0.149039009384182 
754	 0.148839387152101 
755	 0.148576162099427 
756	 0.148342432218185 
757	 0.148152897127961 
758	 0.147816549393777 
759	 0.147216018361994 
760	 0.146677927500374 
761	 0.146723840614014 
762	 0.145888231111689 
763	 0.145928006729689 
764	 0.146519543930845 
765	 0.146859673545135 
766	 0.147386981926223 
767	 0.147630754791726 
768	 0.147607861464236 
769	 0.147757622178808 
770	 0.147874731466215 
771	 0.147954167253034 
772	 0.148065558701645 
773	 0.148385247534654 
774	 0.148782598860686 
775	 0.149009044134108 
776	 0.14890747137884 
777	 0.149096063007552 
778	 0.149517696067065 
779	 0.150060187203504 
780	 0.1505902794524 
781	 0.150615209159356 
782	 0.150731859599228 
783	 0.151306333770133 
784	 0.151722153172348 
785	 0.152253654196572 
786	 0.152720846446923 
787	 0.152907333266654 
788	 0.15324537773291 
789	 0.153761138002126 
790	 0.154379851204526 
791	 0.154977837652087 
792	 0.155616789224649 
793	 0.156232048125065 
794	 0.156761148826358 
795	 0.15712759703392 
796	 0.15769702323593 
797	 0.158209122709217 
798	 0.158476636350439 
799	 0.159121845023281 
800	 0.159626829854398 
801	 0.159927881209403 
802	 0.160248032951922 
803	 0.160646167406923 
804	 0.161119227881668 
805	 0.161415416539387 
806	 0.161075149664961 
807	 0.160747762534071 
808	 0.160803545770651 
809	 0.161177585747982 
810	 0.160847032246205 
811	 0.160067086855425 
812	 0.159304776079229 
813	 0.158962772740776 
814	 0.157845271886978 
815	 0.15657572227282 
816	 0.1558538132703 
817	 0.155980341100417 
818	 0.155854654945579 
819	 0.155199089837085 
820	 0.154056464054565 
821	 0.152675532413933 
822	 0.150632909694084 
823	 0.148504685680131 
824	 0.146784116058599 
825	 0.145002987370609 
826	 0.142950346009683 
827	 0.14033686277824 
828	 0.137303206351196 
829	 0.135096484767972 
830	 0.132966169247835 
831	 0.131015739259021 
832	 0.129948987049916 
833	 0.128467937657687 
834	 0.127001462431567 
835	 0.125969477454059 
836	 0.125493201877444 
837	 0.125048171168545 
838	 0.124651597824999 
839	 0.124246017116522 
840	 0.123182162691914 
841	 0.122569749295106 
842	 0.122325161822253 
843	 0.121997365503986 
844	 0.121822448566171 
845	 0.120995777157194 
846	 0.119889430848985 
847	 0.119576751853317 
848	 0.119466504597904 
849	 0.11924591459123 
850	 0.118741332295014 
851	 0.117972878025716 
852	 0.117997488125359 
853	 0.117881141064554 
854	 0.116977562995329 
855	 0.116122340225384 
856	 0.116145844678273 
857	 0.116230053008015 
858	 0.115576163569466 
859	 0.115202907778094 
860	 0.114966122920672 
861	 0.114622501185707 
862	 0.113973571365027 
863	 0.113414590248304 
864	 0.113304996368408 
865	 0.113250802541046 
866	 0.112350788111039 
867	 0.111796367485051 
868	 0.111387819178703 
869	 0.111005468544096 
870	 0.110882798157388 
871	 0.110478383015439 
872	 0.109980720356333 
873	 0.109559541184694 
874	 0.108938683881374 
875	 0.108668988884767 
876	 0.108604713272562 
877	 0.108326042293747 
878	 0.107283565753957 
879	 0.106669060513724 
880	 0.106358049000331 
881	 0.105673811045496 
882	 0.104886831900999 
883	 0.104593442198846 
884	 0.104387293831572 
885	 0.103326002034908 
886	 0.102763170006363 
887	 0.102586059835455 
888	 0.102602365447511 
889	 0.102672106896681 
890	 0.101694460198321 
891	 0.100746052972134 
892	 0.100452260512533 
893	 9.97281374190087E-02 
894	 9.90945563861927E-02 
895	 9.92084354925946E-02 
896	 9.97021345047728E-02 
897	 9.67775211828631E-02 
898	 9.65792970337638E-02 
899	 9.74288311403751E-02 
900	 9.62528855932631E-02 
901	 9.62731117297887E-02 
902	 9.70949938090458E-02 
903	 9.75345105015521E-02 
904	 9.65716975482512E-02 
905	 9.53138335822084E-02 
906	 0.094568084978272 
907	 9.39565768000427E-02 
908	 9.25081221172622E-02 
909	 9.20676107367984E-02 
910	 9.28330073462582E-02 
911	 0.093311499435084 
912	 9.13527880222044E-02 
913	 9.11953236030244E-02 
914	 9.01684747597769E-02 
915	 8.79405558451141E-02 
916	 8.74887538860829E-02 
917	 8.68640627273422E-02 
918	 8.75896667190994E-02 
919	 8.89431123898893E-02 
920	 8.71125151382401E-02 
921	 8.47166173026717E-02 
922	 8.36733811491168E-02 
923	 8.42086792226291E-02 
924	 8.32988303999156E-02 
925	 8.04681195951498E-02 
926	 7.89796550878179E-02 
927	 8.10322020624665E-02 
928	 7.84513683367647E-02 
929	 0.076940108877709 
930	 7.70447496118203E-02 
931	 7.68177631935961E-02 
932	 8.02645298094191E-02 
933	 0.083202891226634 
934	 0.084994094131851 
935	 8.47670947075813E-02 
936	 6.87635711955913E-02 
937	 6.95371019516154E-02 
938	 7.29784979720788E-02 
939	 6.24116056478894E-02 
940	 6.94155847770178E-02 
941	 6.94935308282961E-02 
942	 6.46604847507608E-02 
943	 6.84707485848677E-02 
944	 7.40368546834455E-02 
945	 6.83201209455309E-02 
946	 6.03689094973066E-02 
947	 6.61172333462436E-02 
948	 6.06864971235976E-02 
949	 6.63555073069098E-02 
950	 7.65123166473856E-02 
951	 7.20533070670443E-02 
952	 7.67031305637819E-02 
953	 0.075757651290073 
954	 6.76674693723557E-02 
955	 6.13116409626897E-02 
956	 5.74895230405462E-02 
957	 6.30133712676357E-02 
958	 7.14880812305023E-02 
959	 0.070630466244687 
960	 6.67938015847046E-02 
961	 6.71689118592188E-02 
962	 6.81236789193855E-02 
963	 6.22335352515974E-02 
964	 6.52494873538957E-02 
965	 6.45940524573592E-02 
966	 6.15788212294503E-02 
967	 0.065766846517394 
968	 6.32156008283032E-02 
969	 6.08407575373079E-02 
970	 6.14196713919074E-02 
971	 6.24323243967203E-02 
972	 6.05965741872224E-02 
973	 6.22715690383613E-02 
974	 6.56146676587781E-02 
975	 6.19961015051789E-02 
976	 6.37611234306236E-02 
977	 6.52527035931154E-02 
978	 6.47537817872573E-02 
979	 6.53320101193537E-02 
980	 6.43639555279162E-02 
981	 6.39950996912373E-02 
982	 6.40116000144563E-02 
983	 6.27405531761495E-02 
984	 6.47844249351147E-02 
985	 6.50523071389653E-02 
986	 6.17583638288308E-02 
987	 5.74359937182971E-02 
988	 5.90745866180221E-02 
989	 6.34104369921682E-02 
990	 6.51267287703573E-02 
991	 6.12469022591628E-02 
992	 6.67047225885691E-02 
993	 6.70681751278893E-02 
994	 6.39918408691089E-02 
995	 6.81800591184824E-02 
996	 6.30911719796586E-02 
997	 6.04209678828546E-02 
998	 6.13195834706522E-02 
999	 6.02280009323733E-02 
1000	 6.15761843477534E-02 
1001	 6.59618573908918E-02 
1002	 6.40009067334722E-02 
1003	 6.33337436938997E-02 
1004	 6.25559637079682E-02 
1005	 6.21003027159559E-02 
1006	 6.32134023951204E-02 
1007	 6.26146959460246E-02 
1008	 6.13603502857742E-02 
1009	 6.16178389819827E-02 
1010	 6.03880796316468E-02 
1011	 5.97954390961137E-02 
1012	 6.05072483302759E-02 
1013	 0.060404457605787 
1014	 6.07150302039985E-02 
1015	 6.21690929402709E-02 
1016	 0.062394991004324 
1017	 6.18295267367691E-02 
1018	 6.14753444123334E-02 
1019	 5.98469333106058E-02 
1020	 6.02062354753476E-02 
1021	 6.21123807703867E-02 
1022	 6.31161286446558E-02 
1023	 6.42596500311419E-02 
1024	 6.51149910626751E-02 
1025	 6.50350011696959E-02 
1026	 6.47114204856112E-02 
1027	 6.45115461833195E-02 
1028	 6.47298877862771E-02 
1029	 6.47021828942153E-02 
1030	 6.40406967493304E-02 
1031	 6.40908465352531E-02 
1032	 6.43949602356039E-02 
1033	 6.50660799246092E-02 
1034	 6.66862678815881E-02 
1035	 6.69520500617361E-02 
1036	 6.74917491018634E-02 
1037	 6.71077328167151E-02 
1038	 6.45025841971516E-02 
1039	 6.32527813634379E-02 
1040	 6.37558871212748E-02 
1041	 6.32567314332794E-02 
1042	 6.37344983311505E-02 
1043	 6.58003158479958E-02 
1044	 0.066431523088377 
1045	 6.63776432083529E-02 
1046	 6.69017321315678E-02 
1047	 6.75511246370135E-02 
1048	 6.78586151071413E-02 
1049	 6.84053947925684E-02 
1050	 0.068405196941662 
1051	 6.75335336961963E-02 
1052	 6.72849865511721E-02 
1053	 6.69723144089968E-02 
1054	 6.69375795411991E-02 
1055	 6.70799771083407E-02 
1056	 6.76440048652147E-02 
1057	 0.068488893252178 
1058	 7.00980683723629E-02 
1059	 7.02065412102949E-02 
1060	 6.99930757866857E-02 
1061	 6.98471243628825E-02 
1062	 0.068284139670798 
1063	 6.82164638517023E-02 
1064	 6.95953205541248E-02 
1065	 6.98149927213887E-02 
1066	 6.99638503166785E-02 
1067	 6.98884850203795E-02 
1068	 6.89128603220505E-02 
1069	 6.86060158679819E-02 
1070	 6.82442876960401E-02 
1071	 6.84624362594446E-02 
1072	 0.069594978142285 
1073	 7.04333525065273E-02 
1074	 7.06794247613489E-02 
1075	 7.12730009794432E-02 
1076	 7.07420171097017E-02 
1077	 6.86135622755475E-02 
1078	 6.80344941778637E-02 
1079	 6.71661511621542E-02 
1080	 6.73632606427483E-02 
1081	 6.92453423694688E-02 
1082	 6.99499123513205E-02 
1083	 7.09410917883548E-02 
1084	 7.13473011131695E-02 
1085	 7.12231353192708E-02 
1086	 7.06268995221522E-02 
1087	 6.89568622891057E-02 
1088	 6.81789298194086E-02 
1089	 6.75434044816747E-02 
1090	 6.64475150317914E-02 
1091	 6.62364046220956E-02 
1092	 6.70239606964561E-02 
1093	 6.77248930005447E-02 
1094	 6.91735581514937E-02 
1095	 6.90869203421217E-02 
1096	 6.81642894160955E-02 
1097	 6.77998683671628E-02 
1098	 6.70658151324793E-02 
1099	 6.61102921444717E-02 
1100	 6.54218311065786E-02 
1101	 6.49591298684179E-02 
1102	 6.22558200069365E-02 
1103	 6.16177864876224E-02 
1104	 6.29934854699393E-02 
1105	 6.59460140869693E-02 
1106	 6.59327643547308E-02 
1107	 6.64815779812226E-02 
1108	 6.46666656013957E-02 
1109	 6.07382925792317E-02 
1110	 6.05917981275498E-02 
1111	 6.37512482541303E-02 
1112	 6.55789989560243E-02 
1113	 7.07094564499608E-02 
1114	 7.27114975490421E-02 
1115	 7.14345972973847E-02 
1116	 7.01357299879339E-02 
1117	 6.57661805010465E-02 
1118	 6.40891974456601E-02 
1119	 6.40831347655972E-02 
1120	 6.11810637838711E-02 
1121	 6.20428325568254E-02 
1122	 5.02511945885777E-02 
1123	 3.79767449765516E-02 
1124	 4.26913319485501E-02 
1125	 5.65187435790449E-02 
1126	 7.48366029743859E-02 
1127	 0.102172693758173 
1128	 0.104295991974863 
1129	 8.96790895240432E-02 
1130	 4.92627353977849E-02 
1131	 4.65475925475561E-02 
1132	 5.54484103647936E-02 
1133	 5.40234469584159E-02 
1134	 5.37074599122193E-02 
1135	 5.77759968720312E-02 
1136	 5.64204857086602E-02 
1137	 5.18211889555406E-02 
1138	 4.28947901649042E-02 
1139	 6.58191839252384E-02 
1140	 7.00620093562635E-02 
1141	 5.58651624343648E-02 
1142	 0.055860962491061 
1143	 5.38557395220397E-02 
1144	 4.74602985336983E-02 
1145	 5.22298614921943E-02 
1146	 5.99577572821605E-02 
1147	 6.28254071464694E-02 
1148	 6.32947461344691E-02 
1149	 6.53736221427307E-02 
1150	 6.35863527304855E-02 
1151	 5.56556051646853E-02 
1152	 5.38795686939399E-02 
1153	 5.65222731608536E-02 
1154	 5.51427515670888E-02 
1155	 5.26398668434193E-02 
1156	 5.09502899804915E-02 
1157	 5.48203193189948E-02 
1158	 5.48811372406154E-02 
1159	 5.50736183606432E-02 
1160	 0.057155983852064 
1161	 0.05535000798451 
1162	 5.37475471511983E-02 
1163	 5.37604807993891E-02 
1164	 5.32577034824753E-02 
1165	 5.31560978812357E-02 
1166	 5.28354431867623E-02 
1167	 5.20472080865335E-02 
1168	 5.34745064428295E-02 
1169	 5.54423392102718E-02 
1170	 0.055245247513725 
1171	 5.55042412818468E-02 
1172	 5.61729167764925E-02 
1173	 0.055978088635996 
1174	 5.52172430434856E-02 
1175	 5.45078279338235E-02 
1176	 5.25857746986055E-02 
1177	 5.21680133576481E-02 
1178	 5.34190077625998E-02 
1179	 5.39149709240313E-02 
1180	 5.55396014551237E-02 
1181	 5.63352220433774E-02 
1182	 5.43220691886417E-02 
1183	 5.40699888009207E-02 
1184	 5.50946764857647E-02 
1185	 5.52962795583966E-02 
1186	 5.53945330932643E-02 
1187	 0.054567391317116 
1188	 5.41192062333507E-02 
1189	 5.42963052087436E-02 
1190	 5.36260145543796E-02 
1191	 5.37933017119593E-02 
1192	 5.41157708666734E-02 
1193	 5.45559370277285E-02 
1194	 5.34951478434994E-02 
1195	 5.31238947823559E-02 
1196	 5.37380868750069E-02 
1197	 5.37971542886837E-02 
1198	 0.053077131976404 
1199	 5.32220982208101E-02 
1200	 5.38802997212327E-02 
1201	 5.24217947942727E-02 
1202	 5.14248411449083E-02 
1203	 5.23815307794056E-02 
1204	 5.27249329002689E-02 
1205	 5.33637332036897E-02 
1206	 5.49882850039785E-02 
1207	 5.51502772044216E-02 
1208	 5.36649110675637E-02 
1209	 5.36033167090602E-02 
1210	 5.40986301552642E-02 
1211	 5.39370120110592E-02 
1212	 5.45964980073534E-02 
1213	 5.51491303759744E-02 
1214	 5.52345810996842E-02 
1215	 5.47901985906002E-02 
1216	 5.44861329607079E-02 
1217	 5.42668266645414E-02 
1218	 5.39721772691008E-02 
1219	 5.39717977117504E-02 
1220	 5.47383152137854E-02 
1221	 5.51501645936196E-02 
1222	 5.45659476143119E-02 
1223	 5.36629915933696E-02 
1224	 0.053348883935252 
1225	 5.32967187230234E-02 
1226	 5.36895335757669E-02 
1227	 5.44040658787783E-02 
1228	 5.44129582982159E-02 
1229	 5.41687298277117E-02 
1230	 5.41069198876527E-02 
1231	 5.39527311298538E-02 
1232	 5.37675853299625E-02 
1233	 5.37424264485244E-02 
1234	 5.42475515020995E-02 
1235	 5.43491600422832E-02 
1236	 5.41755910455418E-02 
1237	 5.38745033185218E-02 
1238	 5.33457927325695E-02 
1239	 5.29542133121871E-02 
1240	 5.34502197619508E-02 
1241	 5.44707105062189E-02 
1242	 5.49569437821817E-02 
1243	 5.50800618526286E-02 
1244	 5.44493886517201E-02 
1245	 5.45392742091271E-02 
1246	 5.56905172428272E-02 
1247	 5.54255343096031E-02 
1248	 5.49050569786229E-02 
1249	 0.055011881920337 
1250	 5.44681495366097E-02 
1251	 5.40945145491021E-02 
1252	 5.46847919230074E-02 
1253	 5.55801539268736E-02 
1254	 5.57572560963268E-02 
1255	 5.57733090095372E-02 
1256	 5.57862735460986E-02 
1257	 5.49051341460535E-02 
1258	 5.48352967462352E-02 
1259	 5.56836414375591E-02 
1260	 0.055956125653846 
1261	 0.056223410593194 
1262	 5.62436510122299E-02 
1263	 5.55528415728418E-02 
1264	 5.55679338474519E-02 
1265	 5.56241628262879E-02 
1266	 5.58156804375679E-02 
1267	 5.57482398647236E-02 
1268	 5.50626864895283E-02 
1269	 5.50642769264937E-02 
1270	 5.49468576801888E-02 
1271	 5.50431170772283E-02 
1272	 5.61525945811967E-02 
1273	 5.64958316301484E-02 
1274	 5.60430692871118E-02 
1275	 5.63715264687646E-02 
1276	 5.71951133197538E-02 
1277	 5.73791960287933E-02 
1278	 5.67160845749733E-02 
1279	 5.61459325894409E-02 
1280	 5.56071508228061E-02 
1281	 5.54426665825446E-02 
1282	 5.66672407946478E-02 
1283	 5.64160179263869E-02 
1284	 5.46390513109236E-02 
1285	 5.42543697069593E-02 
1286	 0.05416521767446 
1287	 5.39709754496317E-02 
1288	 5.46718068969242E-02 
1289	 5.52852176648263E-02 
1290	 5.60707319455193E-02 
1291	 5.49450918982435E-02 
1292	 5.45693979156718E-02 
1293	 5.53717963282982E-02 
1294	 5.44467776372048E-02 
1295	 0.054281330045936 
1296	 5.59014125831565E-02 
1297	 0.056298986067238 
1298	 5.54043093507105E-02 
1299	 0.055089975523783 
1300	 5.48604395486335E-02 
1301	 5.38804236714835E-02 
1302	 5.39028351467178E-02 
1303	 5.51285653218938E-02 
1304	 5.61410032380142E-02 
1305	 5.61820782940209E-02 
1306	 5.63162082369349E-02 
1307	 5.73169466288525E-02 
1308	 5.73519480019385E-02 
1309	 5.55237164773241E-02 
1310	 0.054786314114848 
1311	 5.41983107247082E-02 
1312	 5.41474445690624E-02 
1313	 5.60182565505731E-02 
1314	 5.55825805906694E-02 
1315	 5.24928038191445E-02 
1316	 5.22037864756724E-02 
1317	 5.29367376084832E-02 
1318	 5.20737107075751E-02 
1319	 5.23547996991003E-02 
1320	 0.053506802752539 
1321	 5.38134991237133E-02 
1322	 0.052292599989529 
1323	 0.052258364747349 
1324	 5.45032057557957E-02 
1325	 5.38800975669224E-02 
1326	 5.07015832386055E-02 
1327	 5.07257220795242E-02 
1328	 5.27919481049101E-02 
1329	 5.44271785544322E-02 
1330	 0.056774283925971 
1331	 5.71022868132063E-02 
1332	 5.59877971573958E-02 
1333	 5.78480671658496E-02 
1334	 5.84033959063114E-02 
1335	 5.86733961172443E-02 
1336	 6.31142063489924E-02 
1337	 0.063303469916289 
1338	 0.057033435671057 
1339	 5.58227018153652E-02 
1340	 5.74608814147658E-02 
1341	 5.79515072476038E-02 
1342	 5.92984310815286E-02 
1343	 5.89995651599183E-02 
1344	 5.89066423794126E-02 
1345	 5.71835875878241E-02 
1346	 0.046707750733526 
1347	 4.28568171593927E-02 
1348	 5.46865580274706E-02 
1349	 0.050553712692804 
1350	 1.51376885931238E-02 
1351	 6.0184954664246E-03 
1352	 3.66239497392852E-02 
1353	 4.24607599362967E-03 
1354	-5.88939210790185E-02 
1355	-6.93231784192401E-02 
1356	-0.161088089506159 
1357	-0.275075806964239 
1358	-0.420284316188531 
1359	-0.279248783570707 
1360	-2.86333560374895E-02 
1361	 2.36538701218356E-02 
1362	 0.245015243986813 
1363	 0.337933058304546 
1364	 0.288189645944534 
1365	 0.299986874238684 
1366	 0.512336732680788 
1367	 0.70393960074965 
1368	 0.839658026166548 
1369	 1.03797724634988 
1370	 1.20978264099681 
1371	 1.59003779119076 
1372	 2.27964393251767 
1373	 2.24095062040551 
1374	 1.18818775028951 
1375	 0.582067588738661 
1376	 0.675181488353544 
1377	 1.0318593320873 
1378	 0.989935114755552 
1379	 0.924692669135736 
1380	 1.01448689540338 
1381	 1.08389073056775 
1382	 0.974395342390152 
1383	 0.912152199780044 
1384	 1.1942407338949 
1385	 1.51827284241879 
1386	 1.81437250546165 
1387	 4.44023901125669 
1388	 10.0283714654292 
1389	 6.84736512606281 
1390	 6.63910414722349 
1391	 6.93019513052748E-02 
1392	 1.93386945862704E-02 
1393	 0.132499846738208 
1394	-0.762316591690018 
1395	 0.237996892076638 
1396	 0.240317469651986 
1397	 0.121542642688227 
1398	 5.23692591144004E-02 
1399	 0.34590103749368 
1400	 0.153105065704163 
1401	-0.337102751225012 
1402	-4.12362776694968E-02 
1403	 0.591878058050549 
1404	 0.05722548119945 
1405	 1.39213408915571E-02 
1406	-0.152164588594548 
1407	 0.126106594058422 
1408	 4.11570018874052 
1409	 3.87893938666716 
1410	 1.28162107251016 
1411	 2.59555064499319 
1412	 3.29417251254483 
1413	 1.85219235068535 
1414	 1.15221604988246 
1415	 1.17940782641833 
1416	 0.256103741441669 
1417	-1.23288197429938E-04 
1418	 0.495654984402187 
1419	 0.678179920673296 
1420	 0.455069105129394 
1421	 0.3165125913182 
1422	 0.40621200033298 
1423	 0.460897870459635 
1424	 0.349161434568366 
1425	 0.273026318352028 
1426	 0.328172420166562 
1427	 0.305731829157662 
1428	 0.149980370601908 
1429	 0.107162340323252 
1430	 0.115642616836362 
1431	 0.105422580144632 
1432	 0.11605600288725 
1433	 0.115504809474174 
1434	 8.45956823426506E-02 
1435	 9.51635623263486E-02 
1436	 0.192629200758469 
1437	 0.172293754538454 
1438	 8.04961308801214E-02 
1439	 7.01025306268509E-02 
1440	 0.121182998837471 
1441	 0.194363267450794 
1442	 0.183048080552554 
1443	 0.163668887691031 
1444	 0.181286969211306 
1445	 0.130807867417119 
1446	 5.95519808669892E-02 
1447	 3.87787983688883E-02 
1448	 4.22587250205358E-02 
1449	 2.49956334077768E-02 
1450	 5.31642825920463E-02 
1451	 9.15431876773531E-02 
1452	 7.06725168777888E-02 
1453	 5.11046115670304E-02 
1454	 4.62073579557319E-02 
1455	 5.04499321837068E-02 
1456	 5.73208896242353E-02 
1457	 7.38937507109168E-02 
1458	 6.62050216932108E-02 
1459	 4.85150505203878E-02 
1460	 0.049234241234833 
1461	 4.03320069184984E-02 
1462	 3.56762586368504E-02 
1463	 5.33657116589718E-02 
1464	 6.43566627749926E-02 
1465	 0.061618602273835 
1466	 6.30721043791829E-02 
1467	 7.74321168571865E-02 
1468	 8.58294110989169E-02 
1469	 8.33117201535513E-02 
1470	 8.77861584927547E-02 
1471	 0.109308528588881 
1472	 0.10017547808597 
1473	 7.04523252734626E-02 
1474	 6.10689184262679E-02 
1475	 4.68557842739116E-02 
1476	 0.038385071310553 
1477	 3.89761383459153E-02 
1478	 3.67108661259306E-02 
1479	 3.63726655965329E-02 
1480	 3.03339760527904E-02 
1481	 2.44675014651463E-02 
1482	 2.11563364289755E-02 
1483	 6.79223920374613E-03 
1484	 9.25820179607543E-03 
1485	 2.67690886716464E-02 
1486	 3.05050354462716E-02 
1487	 3.12085887619561E-02 
1488	 3.49153891135544E-02 
1489	 0.036370721035861 
1490	 3.65864193234918E-02 
1491	 3.88143102710991E-02 
1492	 3.90810131927623E-02 
1493	 3.71060994379531E-02 
1494	 3.56280438782053E-02 
1495	 0.034517729389934 
1496	 3.43259972414725E-02 
1497	 3.33865811298211E-02 
1498	 3.23688766379778E-02 
1499	 3.21064448943266E-02 
1500	 3.20809380047739E-02 
1501	 3.26500651409246E-02 
1502	 3.19731291547555E-02 
1503	 3.02344048735578E-02 
1504	 2.98361913494244E-02 
1505	 2.97050272463027E-02 
1506	 2.88282448452558E-02 
1507	 0.029275849352961 
1508	 3.13133093930101E-02 
1509	 3.34747705630577E-02 
1510	 3.36489575093416E-02 
1511	 3.37977931615567E-02 
1512	 3.37022083866772E-02 
1513	 3.22403533243091E-02 
1514	 3.18333181754609E-02 
1515	 3.23465577741641E-02 
1516	 3.24816530047843E-02 
1517	 3.31418480585464E-02 
1518	 3.48662818094448E-02 
1519	 3.50979229830042E-02 
1520	 3.37514989332519E-02 
1521	 0.03315006810243 
1522	 3.30748602477848E-02 
1523	 3.37457067928677E-02 
1524	 3.48036118383826E-02 
1525	 3.49158001054944E-02 
1526	 0.034922196741322 
1527	 3.58222749806258E-02 
1528	 3.64282005953117E-02 
1529	 3.61754545288516E-02 
1530	 3.59951474835492E-02 
1531	 3.59451001492801E-02 
1532	 3.54890786850989E-02 
1533	 3.60541764252901E-02 
1534	 3.75875034688006E-02 
1535	 3.75101868437789E-02 
1536	 3.72817852010597E-02 
1537	 3.75819798959416E-02 
1538	 3.70620986452248E-02 
1539	 3.69599824054941E-02 
1540	 3.69252115251369E-02 
1541	 3.63043920532595E-02 
1542	 3.58567725922513E-02 
1543	 3.58835832387995E-02 
1544	 0.036417684883499 
1545	 3.73406915028486E-02 
1546	 3.76436735591563E-02 
1547	 3.69451220435533E-02 
1548	 3.67294226703616E-02 
1549	 3.66709279170103E-02 
1550	 3.60610733111387E-02 
1551	 3.56797214751824E-02 
1552	 3.62702086512612E-02 
1553	 3.64515430498636E-02 
1554	 3.62500488707905E-02 
1555	 3.80121697829902E-02 
1556	 3.82478001098767E-02 
1557	 3.68637624112459E-02 
1558	 3.77678814079499E-02 
1559	 3.83959131653229E-02 
1560	 3.77639938209968E-02 
1561	 3.74630411951063E-02 
1562	 0.037946562747315 
1563	 3.85209159197382E-02 
1564	 3.82380136487704E-02 
1565	 3.94854517842963E-02 
1566	 4.09365294362801E-02 
1567	 4.01867784681176E-02 
1568	 4.05667108719607E-02 
1569	 4.04139140751179E-02 
1570	 3.90865723918143E-02 
1571	 3.95784672637371E-02 
1572	 3.86637147493843E-02 
1573	 3.74588628399148E-02 
1574	 3.93264447585129E-02 
1575	 0.041192169285586 
1576	 4.17732240133528E-02 
1577	 0.042426075470368 
1578	 4.15559705299505E-02 
1579	 4.03901310451044E-02 
1580	 4.00194058260844E-02 
1581	 3.83224780796154E-02 
1582	 3.76415909321963E-02 
1583	 3.74929798357196E-02 
1584	 3.78633394168798E-02 
1585	 3.96031220792278E-02 
1586	 4.09299537624506E-02 
1587	 4.22612750372203E-02 
1588	 4.23177254318897E-02 
1589	 4.20205934644342E-02 
1590	 4.36400854082744E-02 
1591	 4.53308064199727E-02 
1592	 4.37615337702615E-02 
1593	 4.17290110389519E-02 
1594	 4.07742874487835E-02 
1595	 3.80837077201996E-02 
1596	 3.64957078341838E-02 
1597	 3.66773402310292E-02 
1598	 3.76545497581237E-02 
1599	 3.87109105535342E-02 
1600	 3.98159215048674E-02 
1601	 4.11456518442237E-02 
1602	 4.04432931344123E-02 
1603	 3.95731949772585E-02 
1604	 4.00856134581215E-02 
1605	 4.08541699975524E-02 
1606	 4.14400159076453E-02 
1607	 4.15829353232572E-02 
1608	 4.18775727096667E-02 
1609	 4.26039173703542E-02 
1610	 4.28545762756895E-02 
1611	 4.28462575060938E-02 
1612	 4.22976965878248E-02 
1613	 4.21488498966236E-02 
1614	 4.33541173763402E-02 
1615	 4.36074069772563E-02 
1616	 4.34902523694232E-02 
1617	 4.49187417868803E-02 
1618	 4.55753494386738E-02 
1619	 4.58966224486146E-02 
1620	 4.72746098751655E-02 
1621	 4.58085122667376E-02 
1622	 4.30107932158077E-02 
1623	 4.17963169923628E-02 
1624	 4.09523839315817E-02 
1625	 4.08866051683086E-02 
1626	 4.13163863130589E-02 
1627	 4.17278524829537E-02 
1628	 4.32424169992608E-02 
1629	 4.55932227225213E-02 
1630	 4.59434642169901E-02 
1631	 4.53972626357356E-02 
1632	 4.59307998815182E-02 
1633	 4.52045220752664E-02 
1634	 4.36988657785716E-02 
1635	 4.40777860488358E-02 
1636	 4.43721447278018E-02 
1637	 4.18390818009586E-02 
1638	 4.09320076575918E-02 
1639	 4.26698209845334E-02 
1640	 4.21087625625285E-02 
1641	 4.14176307115872E-02 
1642	 0.043334105968293 
1643	 4.45406257956989E-02 
1644	 4.33841700041397E-02 
1645	 0.043592751319039 
1646	 4.40232806151076E-02 
1647	 4.19900050598239E-02 
1648	 4.18931684661474E-02 
1649	 4.31630796532541E-02 
1650	 4.34095934163287E-02 
1651	 4.34367713632651E-02 
1652	 4.23085453314035E-02 
1653	 4.13238849438469E-02 
1654	 4.12625583169868E-02 
1655	 4.23526752810047E-02 
1656	 4.25082568987626E-02 
1657	 4.19695085712329E-02 
1658	 4.27596244577103E-02 
1659	 4.50395696927679E-02 
1660	 4.48129742564804E-02 
1661	 4.32336026089245E-02 
1662	 4.32357275408202E-02 
1663	 4.20301654990929E-02 
1664	 4.18051292948396E-02 
1665	 4.33255413973522E-02 
1666	 4.40897057420813E-02 
1667	 4.52509191852621E-02 
1668	 4.76498613850339E-02 
1669	 4.83696840208161E-02 
1670	 4.94961544039194E-02 
1671	 4.90825006331809E-02 
1672	 4.74707927010277E-02 
1673	 4.59198100347395E-02 
1674	 4.55170067366369E-02 
1675	 4.56255290715081E-02 
1676	 4.62685884968069E-02 
1677	 4.71549276013118E-02 
1678	 4.78381241492023E-02 
1679	 4.77109082830631E-02 
1680	 4.60291361147188E-02 
1681	 4.52767156316555E-02 
1682	 4.56997244513225E-02 
1683	 4.56774210494481E-02 
1684	 4.59621382061995E-02 
1685	 4.68002836022306E-02 
1686	 4.76738784504762E-02 
1687	 4.75155789210397E-02 
1688	 4.65625803555006E-02 
1689	 4.61592621869514E-02 
1690	 0.045302390049594 
1691	 4.52616766019357E-02 
1692	 4.51353182456835E-02 
1693	 4.40173533711388E-02 
1694	 4.54564148295179E-02 
1695	 0.046531789610607 
1696	 4.56807728072153E-02 
1697	 4.44757993903041E-02 
1698	 0.043101508214881 
1699	 4.19216701347659E-02 
1700	 4.15747651167513E-02 
1701	 4.41363352944502E-02 
1702	 4.58861927178722E-02 
1703	 4.49298752182577E-02 
1704	 4.52645037235812E-02 
1705	 4.65260540961305E-02 
1706	 4.52589347853666E-02 
1707	 4.34424346737679E-02 
1708	 4.49434957588571E-02 
1709	 4.74099520047896E-02 
1710	 4.76612230664692E-02 
1711	 4.64178418975892E-02 
1712	 4.47780922125099E-02 
1713	 4.13169710154281E-02 
1714	 4.10128807939647E-02 
1715	 4.44835591024328E-02 
1716	 4.30093286044748E-02 
1717	 4.40343459039875E-02 
1718	 4.40937529705703E-02 
1719	 4.31768470855613E-02 
1720	 4.30060133109084E-02 
1721	 4.24767643802121E-02 
1722	 4.23653863921018E-02 
1723	 0.045018935609469 
1724	 4.71016999126445E-02 
1725	 4.54464195870225E-02 
1726	 4.48595796266945E-02 
1727	 4.47845894282922E-02 
1728	 4.26318419071825E-02 
1729	 4.33936008725638E-02 
1730	 4.61324598668185E-02 
1731	 4.51406602752967E-02 
1732	 4.27928588946506E-02 
1733	 4.37699142422205E-02 
1734	 4.47450041096513E-02 
1735	 4.46613572409866E-02 
1736	 4.59674670941191E-02 
1737	 4.57674673905991E-02 
1738	 4.39880139755121E-02 
1739	 0.04429237231753 
1740	 4.58180965319177E-02 
1741	 4.74076031733984E-02 
1742	 4.76232939402361E-02 
1743	 4.52139077574332E-02 
1744	 4.47129837229936E-02 
1745	 0.044796430447775 
1746	 4.62215833131558E-02 
1747	 4.65907389769782E-02 
1748	 4.78708510256056E-02 
1749	 4.84601434058536E-02 
1750	 4.53713598424625E-02 
1751	 4.46776841432005E-02 
1752	 4.71066392259451E-02 
1753	 4.66531178585414E-02 
1754	 4.56020978209606E-02 
1755	 4.59769097585827E-02 
1756	 4.43992980397192E-02 
1757	 4.20184685951882E-02 
1758	 4.30758032994819E-02 
1759	 4.56150883762085E-02 
1760	 4.60604972877569E-02 
1761	 4.50720883908015E-02 
1762	 4.76312521579785E-02 
1763	 4.65483032819794E-02 
1764	 4.47757113310912E-02 
1765	 4.52924441394182E-02 
1766	 4.38496163348062E-02 
1767	 4.65248669975237E-02 
1768	 5.11104877815767E-02 
1769	 4.94220104254841E-02 
1770	 4.35701706224383E-02 
1771	 4.05731769403085E-02 
1772	 3.81102132190237E-02 
1773	 4.32248983729396E-02 
1774	 5.34075510303987E-02 
1775	 5.08483598774969E-02 
1776	 4.99220135964038E-02 
1777	 4.80880625099384E-02 
1778	 4.85638373762858E-02 
1779	 5.04418362124421E-02 
1780	 5.05761846596734E-02 
1781	 0.051018984333357 
1782	 5.10468372575544E-02 
1783	 5.10519158708449E-02 
1784	 4.72750128005191E-02 
1785	 4.07538670530151E-02 
1786	 3.82483706825493E-02 
1787	 2.50026253494399E-02 
1788	 0.033037624325545 
1789	 7.15544190017306E-02 
1790	 7.30662076456203E-02 
1791	 7.54437450609995E-02 
1792	 8.01897665497385E-02 
1793	 6.03047925232232E-02 
1794	 6.33679925026648E-02 
1795	 9.13150108749532E-02 
1796	 8.95694658609046E-02 
1797	 8.78608809838724E-02 
1798	 0.109456562420003 
1799	 0.102035972019629 
1800	 4.15989603106388E-02 
1801	 4.16266862429135E-02 
1802	 0.15182973406839 
1803	 0.168063969775149 
1804	 0.190185641501885 
1805	 0.201271345447227 
1806	-7.73950980189301E-03 
1807	-7.05894107151117E-02 
1808	 6.30961582977961E-02 
1809	 0.117760794755076 
1810	 0.153787672723073 
1811	 0.452809061531614 
1812	 0.846796026674554 
1813	 0.841684518362723 
1814	 0.631822321074586 
1815	 0.59558003055236 
1816	 0.332353937374606 
1817	 0.26498639891624 
1818	 0.062773931494532 
1819	-7.91595244519004E-02 
1820	-0.401433015373812 
1821	 0.73602924499408 
1822	 0.288568459833488 
1823	 2.80962357103312 
1824	 0.971295261672941 
1825	 0.499701913163587 
1826	 0.317729967416582 
1827	-1.53833245054712 
1828	-2.18901709083219 
1829	-0.42258027716717 
1830	-1.75916250612122E-02 
1831	 1.2518474966543 
1832	 2.59603468902202 
1833	 1.42488422581105 
1834	 1.62554566391125 
1835	 3.83111936699173 
1836	-1.98411249536584 
1837	 0.875986966802137 
1838	 0.959221007585815 
1839	 0.769827208490375 
1840	 0.451019708912427 
1841	 0.348968299244985 
1842	-0.178616186519075 
1843	-0.369510392161847 
1844	-0.341300892553256 
1845	-0.202288975683849 
1846	 9.10221365165881E-02 
1847	 0.258618553388747 
1848	 0.95111401353924 
1849	 62.3055415415329 
1850	-0.465844375856016 
1851	 7.33913823099566E-02 
1852	 0.756868565875187 
1853	 1.59111962273011 
1854	 2.66543964438068 
1855	-2.46477684486552 
1856	-1.87023975944938 
1857	 0.516386735316359 
1858	 0.183367577854249 
1859	 0.287004880073794 
1860	 9.12660902199461E-02 
1861	 0.321329264992945 
1862	 0.339138796682841 
1863	-0.242987405782199 
1864	-0.192358411733383 
1865	 0.472843280650665 
1866	 1.7315198616046 
1867	 4.21389729742434 
1868	 5.01079630886476 
1869	 4.5380453326477 
1870	 4.50942335912766 
1871	 4.40984457695405 
1872	 3.65815726431759 
1873	-8.98549490467466 
1874	-2.19749001028802 
1875	-1.64083552689827 
1876	-1.12255344802955 
1877	 6.76009117726682E-02 
1878	 0.847916757961873 
1879	 1.05363285889781 
1880	 0.270336401878268 
1881	-1.71727489155928 
1882	-13.7996435849555 
1883	-24.8460457339263 
1884	 20.3423580676669 
1885	 2.48306055168044 
1886	 0.124718741926275 
1887	-0.538090789801517 
1888	 0.819902970009826 
1889	 1.1909342855295 
1890	 0.982162836856493 
1891	 1.33375677776624 
1892	-0.466820972174048 
1893	-0.722680558381896 
1894	-0.714490170482398 
1895	-0.539325563770758 
1896	-19.9706333104093 
1897	-1.13715793412211 
1898	-2.05151817511293 
1899	-1.3145383193818 
1900	-1.56952154000932 
1901	-2.92736452072689 
1902	-2.96229765415837 
1903	-3.05529397987825 
1904	-2.50764422447323 
1905	-1.76469976940361 
1906	-1.03505585864206 
1907	-0.491487280779552 
1908	-0.317510752862098 
1909	-1.18984173332087 
1910	-2.10752487941991 
1911	-0.828051494201969 
1912	-3.68216342378968 
1913	-2.56669643023534 
1914	-21.3279822624174 
1915	 66.9761566348628 
1916	 96.2669302670906 
1917	-14.2918337478328 
1918	 9.68573154450803 
1919	-48.1420130137488 
1920	-10.514433251376 
1921	 9.4126832765269 
1922	 18.3621228804555 
1923	-8.32250203090231 
1924	 3.89376533904406 
1925	 2.80578498560768 
1926	 4.27196128997493 
1927	-4.03266467569344 
1928	 4.27905572722829 
1929	 2.25455698129969 
1930	 0.920236996281639 
1931	 26.2697585997336 
1932	-0.303935330393041 
1933	 0.254305971249561 
1934	 0.26905728014017 
1935	 0.102858862649396 
1936	-0.246386487624547 
1937	-0.257859204472983 
1938	-0.211380543107601 
1939	-0.355054744269549 
1940	-0.291123020705187 
1941	-0.893348834447963 
1942	-2.87167766913899 
1943	-2.21191563983294 
1944	-31.1544829326792 
1945	 2.16534372315336 
1946	 0.359101125412559 
1947	 0.131135644838762 
1948	 1.87087158533043E-03 
1949	 0.24081282026041 
1950	-1.74330961987146 
1951	 4.21315480371713 
1952	 3.13362297323825 
1953	 2.03155182657855 
1954	 1.73492669510898 
1955	 1.47142626552064 
1956	 0.978593358263118 
1957	 0.567278111859685 
1958	 0.189759154205724 
1959	-0.138211388210747 
1960	-0.18435564944593 
1961	-7.72688776353393E-02 
1962	-2.02608502833433E-02 
1963	 5.28281139510025E-02 
1964	 0.15357123454265 
1965	 0.109141706763556 
1966	 7.77369062994027E-02 
1967	 8.53116797110205E-03 
1968	-5.85626595584001E-03 
1969	-1.59429180388797E-02 
1970	 1.49884979048552E-03 
1971	-2.33970758256517E-03 
1972	-9.31109316197389E-03 
1973	 1.14424858655995E-02 
1974	 4.10645050978934E-02 
1975	 7.78388948319011E-02 
1976	 9.71403447011644E-02 
1977	 0.101659960541117 
1978	 9.77223057712563E-02 
1979	 7.46997752799747E-02 
1980	 3.51067488423259E-02 
1981	 7.3412309376741E-04 
1982	-8.34746518690897E-03 
1983	-1.09130352178651E-02 
1984	-4.56807180839981E-03 
1985	 5.86715139061741E-03 
1986	-2.0566305513595E-04 
1987	-1.93678018217126E-03 
1988	-2.70595601563037E-03 
1989	-2.46948853999163E-03 
1990	 9.67711656747342E-04 
1991	-6.39612999342697E-03 
1992	-1.24744515040433E-02 
1993	-1.37559189907384E-02 
1994	-1.09028846678386E-02 
1995	-3.35023337514729E-03 
1996	 7.98598305141936E-03 
1997	 3.73235831095019E-02 
1998	 7.91286864184708E-02 
1999	 0.10679442348218 
2000	 0.111664725624673 
2001	 0.11486581805681 
2002	 0.110572753845534 
2003	 0.090240784001037 
2004	 9.64334676169085E-02 
2005	 3.49793211227775E-02 
2006	-6.63194834354782E-02 
2007	-7.46639382031611E-02 
2008	-5.91884227395305E-02 
2009	-4.85082534877907E-02 
2010	 3.50079067068183E-03 
2011	 3.49249107944611E-02 
2012	 5.67977544949731E-02 
2013	 7.11229129688333E-02 
2014	 8.53742454680006E-02 
2015	 7.40301274030486E-02 
2016	 5.09230132219604E-02 
2017	 3.14751423282063E-02 
2018	 9.23768592451572E-03 
2019	 9.72379986566878E-03 
2020	 1.32924795696986E-02 
2021	 9.77887606816077E-03 
2022	 2.09877498117305E-02 
2023	 2.36806453719158E-02 
2024	 2.32855880044834E-02 
2025	 2.18036542098807E-02 
2026	 2.17483758453382E-02 
2027	 1.71602911384071E-02 
2028	 1.69037455330137E-02 
2029	 2.71085175439242E-02 
2030	 2.69388912110841E-02 
2031	 1.98844517481939E-02 
2032	 2.53291412901939E-02 
2033	 3.26425328414975E-02 
2034	 3.97367053734179E-02 
2035	 4.57179332775587E-02 
2036	 4.37979629995235E-02 
2037	 2.90466922410216E-02 
2038	 1.54578013075041E-02 
2039	 0.012437933152266 
2040	 1.62626419416375E-02 
2041	 2.04919535621412E-02 
2042	 3.96175929999445E-02 
2043	 0.041840072295969 
2044	 3.60272939061092E-02 
2045	 0.029828871535889 
2046	 2.14588066298233E-02 
2047	 0.021095860439689 
2048	 2.97277207529377E-02 
2049	 4.09441702144512E-02 
2050	 4.47619025911544E-02 
2051	 3.57981319596166E-02 
2052	 3.20887162377638E-02 
2053	 0.030595932037972 
2054	 3.26916673527445E-02 
2055	 0.040420965952133 
2056	 0.043485506331238 
2057	 4.92826840136905E-02 
2058	 4.30511342847583E-02 
2059	 2.24272288209454E-02 
2060	 1.66498368750623E-02 
2061	 0.010496598411053 
2062	 4.51335440549094E-03 
2063	 1.29891155583371E-02 
2064	 2.49831927719163E-02 
2065	 1.97903531550774E-02 
2066	 1.28750557618887E-02 
2067	 2.13477690845576E-02 
2068	 2.22936183778053E-02 
2069	 1.98962602054422E-02 
2070	 2.41548440163724E-02 
2071	 2.24978748715086E-02 
2072	 2.14949462893954E-02 
2073	 2.24727345203029E-02 
2074	 3.32011956207185E-02 
2075	 3.46222623300992E-02 
2076	 2.91036880927658E-02 
2077	 2.50987190841825E-02 
2078	 1.65917050636828E-02 
2079	 1.52296910398738E-02 
2080	 1.49124888458628E-02 
2081	 2.19178154296375E-02 
2082	 2.70786628160121E-02 
2083	 2.85671647050624E-02 
2084	 2.31009550880556E-02 
2085	 1.16539148145958E-02 
2086	 3.31432129710974E-03 
2087	 3.94764310430889E-03 
2088	 1.38703156097752E-02 
2089	 2.37351758684115E-02 
2090	 3.09293914922973E-02 
2091	 3.50986724583508E-02 
2092	 3.22470026452573E-02 
2093	 0.012869379070194 
2094	 1.08168704187553E-02 
2095	 1.38174555887094E-02 
2096	 1.75949193050926E-02 
2097	 3.66418141904046E-02 
2098	 4.12143809788074E-02 
2099	 0.04139662256813 
2100	 2.93475504857978E-02 
2101	 0.021974695270854 
2102	 1.84873726699675E-02 
2103	 0.015072824174115 
2104	 1.61016553365652E-02 
2105	 1.69706925992809E-02 
2106	 1.64625619905735E-02 
2107	 1.70064359358667E-02 
2108	 1.85168453426326E-02 
2109	 2.30409771593783E-02 
2110	 2.58424117748515E-02 
2111	 2.58858770298299E-02 
2112	 2.69864932457992E-02 
2113	 3.08406922976361E-02 
2114	 3.56854075152181E-02 
2115	 3.82206027285575E-02 
2116	 4.52876541392447E-02 
2117	 4.71101965488364E-02 
2118	 3.79493473908981E-02 
2119	 3.67341223221391E-02 
2120	 4.00808931837554E-02 
2121	 4.23478571400297E-02 
2122	 3.87273968848269E-02 
2123	 3.39004321061921E-02 
2124	 2.67054992262866E-02 
2125	 0.020545028902442 
2126	 0.021459316247633 
2127	 2.35014705865631E-02 
2128	 2.09935721986378E-02 
2129	 0.017096806604038 
2130	 7.78840474369435E-03 
2131	 3.05916235239909E-03 
2132	 4.45439044857388E-03 
2133	 5.78643805034195E-03 
2134	 1.08441155937295E-02 
2135	 2.72565479394127E-02 
2136	 3.05522275833119E-02 
2137	 2.78996208238698E-02 
2138	 2.85368145607762E-02 
2139	 2.13702053930388E-02 
2140	 2.24494865139186E-02 
2141	 3.39100545087202E-02 
2142	 3.72505329836906E-02 
2143	 3.74934640418976E-02 
2144	 4.31120133172648E-02 
2145	 4.10312385044026E-02 
2146	 3.08538721475273E-02 
2147	 3.39498304539232E-02 
2148	 3.48930860948113E-02 
2149	 2.86944525370613E-02 
2150	 3.85351182407127E-02 
2151	 4.18288811248997E-02 
2152	 2.82482619155737E-02 
2153	 3.35469100041475E-02 
2154	 3.62767164356461E-02 
2155	 0.032436345726461 
2156	 4.22308611012584E-02 
2157	 4.36786879166876E-02 
2158	 4.06392051022891E-02 
2159	 3.76584573905378E-02 
2160	 3.10735954584422E-02 
2161	 3.04409447876888E-02 
2162	 3.02893846835317E-02 
2163	 3.21150548809516E-02 
2164	 3.93932249163784E-02 
2165	 4.24519830624048E-02 
2166	 4.91579406832413E-02 
2167	 4.90385625822258E-02 
2168	 4.21181815456773E-02 
2169	 3.86775123211264E-02 
2170	 3.23737217633116E-02 
2171	 2.36023024610353E-02 
2172	 0.026328764547406 
2173	 0.029751605820705 
2174	 3.12083506662712E-02 
2175	 2.94235877957709E-02 
2176	 2.02871621560748E-02 
2177	 2.07404228541669E-02 
2178	 2.65343925742101E-02 
2179	 2.61045133363427E-02 
2180	 2.71767746521412E-02 
2181	 2.20227227542023E-02 
2182	 1.41589890892548E-02 
2183	 1.74792836525239E-02 
2184	 2.56652758865954E-02 
2185	 2.80265169519429E-02 
2186	 2.88313594514158E-02 
2187	 2.84505716953893E-02 
2188	 2.78565160720836E-02 
2189	 2.33385630166579E-02 
2190	 1.93523881263337E-02 
2191	 1.09005443112943E-02 
2192	 1.07663743292537E-02 
2193	 2.00034902426325E-02 
2194	 2.14572016797266E-02 
2195	 2.55920629294848E-02 
2196	 2.43144685373607E-02 
2197	 4.39073045578511E-03 
2198	 1.96469287244406E-04 
2199	 2.78768128613724E-03 
2200	 1.36438975843977E-02 
2201	 2.82710983089233E-02 
2202	 4.49262313610039E-02 
2203	 5.65619198850405E-02 
2204	 5.26437475981788E-02 
2205	 2.93802068895732E-02 
2206	 2.30269528797993E-02 
2207	 1.84789660289567E-02 
2208	 1.59020111706716E-02 
2209	 4.33238245012594E-02 
2210	 4.95898483130689E-02 
2211	 4.65393004314817E-02 
2212	 5.16547357022423E-02 
2213	 3.31621897256677E-02 
2214	 2.29471948110498E-02 
2215	 3.01569271513294E-02 
2216	 3.29098638123302E-02 
2217	 3.37018791673428E-02 
2218	 4.17050029837299E-02 
2219	 0.046217719010083 
2220	 3.99123741469406E-02 
2221	 4.47121427289001E-02 
2222	 0.064874754174697 
2223	 7.15817532991431E-02 
2224	 7.18208445376558E-02 
2225	 7.36472872251469E-02 
2226	 7.40806791506593E-02 
2227	 6.94457404396143E-02 
2228	 0.057947955111184 
2229	 5.24858390348308E-02 
2230	 4.71130119558822E-02 
2231	 4.10763741893815E-02 
2232	 4.16273478938585E-02 
2233	 4.00092449558423E-02 
2234	 3.43937438354961E-02 
2235	 2.66258298175922E-02 
2236	 2.35584977466728E-02 
2237	 1.50864514257309E-02 
2238	 1.99200209081095E-02 
2239	 2.95710421391796E-02 
2240	 3.30464131516289E-02 
2241	 4.61628728435414E-02 
2242	 4.09628055417043E-02 
2243	 3.57531675151464E-02 
2244	 6.16261064210508E-02 
2245	 7.23582216514149E-02 
2246	 7.86640569130584E-02 
2247	 8.18054162852935E-02 
2248	 6.84947825035407E-02 
2249	 6.86203549782814E-02 
2250	 7.70379051320645E-02 
2251	 6.90142323609088E-02 
2252	 4.56440016456351E-02 
2253	 3.86462653600896E-02 
2254	 3.96823391827335E-02 
2255	 0.050889877245612 
2256	 7.38726190734123E-02 
2257	 0.066134118321761 
2258	 3.49633542208357E-02 
2259	 1.06671555802507E-02 
2260	-2.00508383042418E-03 
2261	-0.014846306268559 
2262	-2.10483948428217E-02 
2263	-2.77073339340195E-03 
2264	-2.03576944703917E-04 
2265	-1.17482651619638E-02 
2266	-7.18179190332143E-03 
2267	-8.85217329287421E-03 
2268	 7.64937531383704E-03 
2269	 5.74994441937665E-02 
2270	 7.92839117560677E-02 
2271	 0.109888083905228 
2272	 0.121117287982779 
2273	 0.101338157015995 
2274	 8.42280101163604E-02 
2275	 0.053097067904091 
2276	 4.01271216304722E-02 
2277	 2.93824206114983E-02 
2278	 1.84402084474182E-02 
2279	 2.24046459108149E-02 
2280	 1.76549473453926E-02 
2281	 3.4712051211672E-04 
2282	-6.42575695264168E-03 
2283	 5.41487446413563E-04 
2284	 1.89188981807049E-02 
2285	 3.64498506934904E-02 
2286	 3.95416197723684E-02 
2287	 3.96011517547554E-02 
2288	 1.96325265684628E-02 
2289	 4.3230739965519E-03 
2290	 1.91580211117947E-02 
2291	 4.13938445933669E-02 
2292	 7.20355585241787E-02 
2293	 6.34589274374212E-02 
2294	 5.76339129507563E-02 
2295	 8.39578051770741E-02 
2296	 6.07966883250695E-02 
2297	 0.058907143137245 
2298	 7.84905321412421E-02 
2299	 0.045352483126612 
2300	 2.48098413152369E-02 
2301	 3.52902388771478E-02 
2302	 3.22032681096187E-02 
2303	 1.57501905649429E-02 
2304	 4.24895813377005E-03 
2305	 0.010239038252442 
2306	-1.68963653753034E-02 
2307	-3.59834497813959E-02 
2308	-2.31742915674275E-02 
2309	-5.46100801757835E-02 
2310	-4.69021392064693E-02 
2311	-1.09258997254573E-02 
2312	-2.40491105744338E-02 
2313	-0.027151784898145 
2314	-1.16312206918421E-02 
2315	 1.20647005161696E-02 
2316	 3.45811122477201E-02 
2317	 4.89642411305892E-02 
2318	 4.48009431659681E-02 
2319	 1.06174802034662E-02 
2320	-2.29294439710192E-03 
2321	 1.20776856636441E-02 
2322	 4.45004213116346E-02 
2323	 5.63952196927977E-02 
2324	 0.015066565635226 
2325	 1.09407554326675E-02 
2326	 3.79439552307471E-03 
2327	 2.92081527079689E-03 
2328	 5.35492908395849E-02 
2329	 4.34294477416566E-02 
2330	 0.032412615194909 
2331	 4.66467043228201E-02 
2332	 1.55482369476185E-02 
2333	 6.12336891848141E-03 
2334	-3.49230704259888E-02 
2335	-9.82552755657312E-02 
2336	-9.54747762112281E-02 
2337	-6.53668382723644E-02 
2338	-4.77442300847218E-02 
2339	-2.68044124391095E-02 
2340	-2.65694342953632E-02 
2341	-8.44195399432318E-02 
2342	-9.92250351026175E-02 
2343	-7.41480673798901E-02 
2344	-0.135871961180556 
2345	-0.181005300233999 
2346	-0.110466245894437 
2347	-9.20103683740391E-02 
2348	-6.73846778028083E-02 
2349	 0.079353915016814 
2350	 0.177986356611961 
2351	 0.144530992899239 
2352	 0.038301883940436 
2353	-1.07154673787454E-02 
2354	-0.162733810971759 
2355	-0.285989203663226 
2356	-0.207803629907659 
2357	-0.247683817627524 
2358	-0.332835876680018 
2359	-0.257154763822703 
2360	-0.23546659728837 
2361	-0.143000817013988 
2362	-1.38813749701252E-02 
2363	 1.86025708153055E-02 
2364	 4.52768281488481E-02 
2365	 7.49105029943422E-02 
2366	 1.70727920004178E-02 
2367	-1.48678629819325E-02 
2368	 1.45056409836619E-02 
2369	-0.259058951136438 
2370	-0.96756718774645 
2371	-0.41738524142347 
2372	 3.78176072054861E-03 
2373	 0.439845609657551 
2374	 0.432864827610282 
2375	 1.37521080721008 
2376	 1.54791836553485 
2377	 1.71298662337477 
2378	 1.60891705326738 
2379	 0.370759121602558 
2380	 2.58340467335939E-02 
2381	-1.85922274666025E-02 
2382	-0.460645618004079 
2383	-7.17390529909943E-02 
2384	 0.183002941177763 
2385	 0.14478280315872 
2386	 0.381834132206384 
2387	 0.521610975266254 
2388	 0.21276209732552 
2389	 0.248858856934852 
2390	 0.179646628804915 
2391	 0.256686349391828 
2392	 0.387538055047667 
2393	 0.347243862013734 
2394	 0.342139641213901 
2395	 0.306598757368076 
2396	 0.115914908921521 
2397	 0.022138405958725 
2398	 0.220373714772219 
2399	 0.142593498032446 
2400	 7.25383801848339E-02 
2401	 0.195945314646628 
2402	-0.111965137792939 
2403	-0.104251191886407 
2404	 0.280061300515065 
2405	 0.177757609528191 
2406	 0.177173427781418 
2407	 0.493251952121864 
2408	 0.142134599929868 
2409	-9.78428287226164E-02 
2410	 0.168328820632914 
2411	 0.350268558840538 
2412	 0.568045193681621 
2413	 0.964733143854582 
2414	 0.9697913319867 
2415	 1.12839933113885 
2416	 1.79590403845124 
2417	 2.99131873093352 
2418	 5.09293064264501 
2419	 4.07722563956894 
2420	 4.14997669072877 
2421	 5.67110738131465 
2422	 4.43357926263695 
2423	 0.58626425902146 
2424	-0.616401751310738 
2425	-5.4473473610637 
2426	-6.65275233411189 
2427	 1.21386628895712 
2428	 0.416859322760831 
2429	-0.252907011531234 
2430	-0.21838338527792 
2431	-0.359723203049243 
2432	-0.583596561069337 
2433	-0.221980984772026 
2434	-1.00644397592252E-02 
2435	-3.05303281633872E-02 
2436	 0.781696975254179 
2437	-4.26445739275835 
2438	 6.63118869046482 
2439	 0.758413060062517 
2440	 0.270833545305065 
2441	-0.87111782663321 
2442	-1.38256801573197 
2443	-3.06806162056897 
2444	 7.40179962241017 
2445	 2.88791781652083 
2446	 0.912864386275926 
2447	 0.86689726260678 
2448	 1.13671187679284 
2449	 11.7823799112503 
2450	-15.4152017975307 
2451	-1.30071393335602 
2452	-2.02895627554024 
2453	 4.18427818527938 
2454	-9.0835784537531 
2455	 67.015124129571 
2456	 1.63991941001755 
2457	 4.72846936503392 
2458	 3.03727139959998 
2459	 1.00352701287367 
2460	 5.3085593717695 
2461	-43.052156430786 
2462	 4.61381653216949 
2463	 45.7848911807969 
2464	 1.52561606277865 
2465	-0.43916576445329 
2466	-8.70279110703584 
2467	 1.48875826098812 
2468	 1.72382992022355 
2469	 1.32263034804512 
2470	 2.06519317880309 
2471	-1.15803195681302 
2472	 0.117980329094205 
2473	 0.36937238101285 
2474	-5.8463066928421 
2475	-1.42814168208684 
2476	-2.00368996795866 
2477	-1.10012489949246 
2478	-0.632707425303987 
2479	-3.1611833663804 
2480	-1.83830541341164 
2481	-0.318047897264575 
2482	-3.07416778668792 
2483	 0.392663991909231 
2484	-0.763579228369983 
2485	-0.197224338097233 
2486	-0.459221119991081 
2487	-1.01325842832536 
2488	-0.501679043811416 
2489	-0.17705917150263 
2490	-4.80648793370266E-02 
2491	 0.163889111950266 
2492	 0.412531137785887 
2493	 0.152726645441679 
2494	-0.345838618008393 
2495	-0.447324989359071 
2496	-1.07100821129536 
2497	-5.27704384015527 
2498	-1.88953763330075 
2499	-1.70334945004875 
2500	-1.2174798310096 
