Wavelength	rt0622far00002.asd
350	 4.15986334744457E-02 
351	 4.20694728759803E-02 
352	 4.14088601771805E-02 
353	 4.12034873541454E-02 
354	 4.20500082785235E-02 
355	 4.15286847488536E-02 
356	 4.22094657202134E-02 
357	 4.28442721241151E-02 
358	 4.19600911753943E-02 
359	 4.23781540742001E-02 
360	 4.28239182761835E-02 
361	 4.30415739738013E-02 
362	 4.34691117243507E-02 
363	 4.30798734390633E-02 
364	 4.27386854862378E-02 
365	 4.30318180816783E-02 
366	 4.38041675853795E-02 
367	 4.38389781388235E-02 
368	 4.37662197010352E-02 
369	 4.42465481513389E-02 
370	 4.41096539823365E-02 
371	 4.40684638594236E-02 
372	 4.43535766447789E-02 
373	 4.48176704819943E-02 
374	 4.48840576693209E-02 
375	 4.49364174473531E-02 
376	 4.50488210584952E-02 
377	 4.47426494459999E-02 
378	 4.55132316270496E-02 
379	 4.60696951827941E-02 
380	 0.04551299270524 
381	 4.63383083572257E-02 
382	 4.66269167490822E-02 
383	 0.046486450279863 
384	 4.68787093100333E-02 
385	 4.72651310536585E-02 
386	 4.69860664188203E-02 
387	 4.66259301598934E-02 
388	 4.79843056993546E-02 
389	 4.80661246593436E-02 
390	 4.75694034500552E-02 
391	 0.047645077636221 
392	 4.87472667968521E-02 
393	 4.91288019896977E-02 
394	 4.88918999377612E-02 
395	 4.88236226738544E-02 
396	 4.89599556765527E-02 
397	 4.93069584524854E-02 
398	 4.96706836868237E-02 
399	 4.97461661315129E-02 
400	 5.02741095638764E-02 
401	 5.04593266388518E-02 
402	 5.00279924863064E-02 
403	 5.03499236605973E-02 
404	 5.07757394988258E-02 
405	 5.09724478161896E-02 
406	 5.08666296537675E-02 
407	 5.12270560073147E-02 
408	 5.13602131428445E-02 
409	 5.12854789113603E-02 
410	 5.17504657720405E-02 
411	 0.051888779505829 
412	 5.19646930003881E-02 
413	 0.052253044736944 
414	 5.25774489023713E-02 
415	 5.27017202216749E-02 
416	 5.28512226335079E-02 
417	 5.33328211398625E-02 
418	 5.36782027671799E-02 
419	 5.38814243507916E-02 
420	 5.40396103977721E-02 
421	 5.43159993639558E-02 
422	 5.47090351740596E-02 
423	 5.50195956468612E-02 
424	 0.055154021409384 
425	 5.54195282103946E-02 
426	 5.57347464459711E-02 
427	 5.60611560314289E-02 
428	 5.63915213576831E-02 
429	 5.68377100574375E-02 
430	 0.057219113369642 
431	 5.75129049326335E-02 
432	 0.057910010380672 
433	 5.83669743996647E-02 
434	 0.058785100422779 
435	 5.91186766123808E-02 
436	 5.94960343651054E-02 
437	 6.00225287681954E-02 
438	 6.04677911472763E-02 
439	 6.05246392081813E-02 
440	 6.09502335137782E-02 
441	 6.14440751973281E-02 
442	 0.061825432645214 
443	 6.22710078274771E-02 
444	 6.26021069066169E-02 
445	 6.29246759885261E-02 
446	 6.33587385872165E-02 
447	 6.37722823149755E-02 
448	 6.41927641964899E-02 
449	 6.45074498719375E-02 
450	 6.45568480661387E-02 
451	 6.49417375260754E-02 
452	 6.52854178208533E-02 
453	 0.065390792593365 
454	 6.57279591269417E-02 
455	 6.60197473534859E-02 
456	 6.62532783347539E-02 
457	 6.64939388705404E-02 
458	 0.066732114345735 
459	 6.68412864449778E-02 
460	 6.69237657362582E-02 
461	 6.72838101115224E-02 
462	 6.72721329056875E-02 
463	 6.73716737472186E-02 
464	 6.79003789637848E-02 
465	 0.068105280552555 
466	 6.82081656945426E-02 
467	 6.83792628230274E-02 
468	 6.87157594584505E-02 
469	 6.88267022268449E-02 
470	 6.90709628310599E-02 
471	 6.94597247345081E-02 
472	 6.94520495870896E-02 
473	 0.0698325105336 
474	 7.02349064651006E-02 
475	 7.02564646118821E-02 
476	 7.04652830157839E-02 
477	 7.08297990085903E-02 
478	 7.12116344374372E-02 
479	 7.14392073580451E-02 
480	 7.18634512004912E-02 
481	 0.072153098657682 
482	 7.22343015369231E-02 
483	 0.072755383270159 
484	 7.30600349901077E-02 
485	 7.32991428481349E-02 
486	 7.37985759582782E-02 
487	 7.41098920802385E-02 
488	 7.44849709348035E-02 
489	 7.50074608974852E-02 
490	 7.55589917684423E-02 
491	 7.59211649698952E-02 
492	 7.62510357812687E-02 
493	 7.66959713576058E-02 
494	 7.71591995693002E-02 
495	 7.77001472298639E-02 
496	 7.81898816246922E-02 
497	 7.84856353888253E-02 
498	 7.91585809452314E-02 
499	 7.98324897482358E-02 
500	 8.03014626746156E-02 
501	 8.07674925112861E-02 
502	 8.14910295625142E-02 
503	 8.21520003315281E-02 
504	 8.24718126951367E-02 
505	 8.30681968149055E-02 
506	 8.36157924076734E-02 
507	 8.41152243035735E-02 
508	 8.48097491969959E-02 
509	 8.52640475562318E-02 
510	 8.57553823651126E-02 
511	 8.64406791760346E-02 
512	 8.69125467034342E-02 
513	 8.75590838715768E-02 
514	 8.83163930179946E-02 
515	 8.89420893166091E-02 
516	 8.94713293219461E-02 
517	 9.02044627784961E-02 
518	 9.11301960456454E-02 
519	 9.18395677038335E-02 
520	 9.24522223051092E-02 
521	 9.31987885629464E-02 
522	 9.41521561244841E-02 
523	 9.47087776679927E-02 
524	 9.54498187358299E-02 
525	 9.63964959269125E-02 
526	 9.71818555491718E-02 
527	 9.79254775180244E-02 
528	 9.87355080287737E-02 
529	 9.96285546681728E-02 
530	 0.100453013212219 
531	 0.101212007329131 
532	 0.102058026535158 
533	 0.103103445686711 
534	 0.103865923517048 
535	 0.10465154964317 
536	 0.105541507567499 
537	 0.106301748386793 
538	 0.107207237408987 
539	 0.108190597777351 
540	 0.109126615007775 
541	 0.109984576704471 
542	 0.110909860581073 
543	 0.111835072960698 
544	 0.112591454566347 
545	 0.113409731459284 
546	 0.114311572476825 
547	 0.115228433642062 
548	 0.115967736685995 
549	 0.116819875816543 
550	 0.117728072110876 
551	 0.118545751632794 
552	 0.119369964254874 
553	 0.120213236505356 
554	 0.121059121716943 
555	 0.121861459063619 
556	 0.122833684845806 
557	 0.123774484957584 
558	 0.124502138216605 
559	 0.125263265304158 
560	 0.126118431964273 
561	 0.126927851868859 
562	 0.127479305376125 
563	 0.12818974260018 
564	 0.128921706928135 
565	 0.129564018757768 
566	 0.130209245989622 
567	 0.130754612903024 
568	 0.131294562800455 
569	 0.131919159447092 
570	 0.13226730598393 
571	 0.132600955972331 
572	 0.133046714208872 
573	 0.133535106075326 
574	 0.133774161387669 
575	 0.133943066512811 
576	 0.134219472196077 
577	 0.134410506027006 
578	 0.134406642351098 
579	 0.134384374639586 
580	 0.134621172248786 
581	 0.134490463531967 
582	 0.134326259177833 
583	 0.134267197219883 
584	 0.133858115018491 
585	 0.133569461964268 
586	 0.133409335426113 
587	 0.133185017582797 
588	 0.13260704424473 
589	 0.132099466031908 
590	 0.131768772854876 
591	 0.1312861014477 
592	 0.130765053142237 
593	 0.130121287373684 
594	 0.129265801479179 
595	 0.128141835962076 
596	 0.12698752075238 
597	 0.125786262462725 
598	 0.124424521174164 
599	 0.123305104438519 
600	 0.122167557585168 
601	 0.12104980244338 
602	 0.120657731500654 
603	 0.120244603715416 
604	 0.119821349318738 
605	 0.119612044600274 
606	 0.119578597155813 
607	 0.119581364343556 
608	 0.11954708497481 
609	 0.119484878691835 
610	 0.11956165583895 
611	 0.119559925732233 
612	 0.119360261810811 
613	 0.119383589991132 
614	 0.119306888298174 
615	 0.11915936387238 
616	 0.119155472898293 
617	 0.119249244631358 
618	 0.119271640660042 
619	 0.119163049576629 
620	 0.11905098195746 
621	 0.118962576673034 
622	 0.118944492407983 
623	 0.118994151883932 
624	 0.118888338139275 
625	 0.118754916856993 
626	 0.118707107158104 
627	 0.118803012711039 
628	 0.118497611032918 
629	 0.118227460052586 
630	 0.118311381357095 
631	 0.118271713066256 
632	 0.11818215995406 
633	 0.118086213253799 
634	 0.118013838476396 
635	 0.117895135976996 
636	 0.117867741841104 
637	 0.117877405060401 
638	 0.117565064482393 
639	 0.117497164296693 
640	 0.117493422253182 
641	 0.117262797235396 
642	 0.1169884211051 
643	 0.116950536476034 
644	 0.117000086980133 
645	 0.116673615059622 
646	 0.11660522662724 
647	 0.116421507081217 
648	 0.115942950071785 
649	 0.115879872354812 
650	 0.115636931470386 
651	 0.115225681878623 
652	 0.114866711551305 
653	 0.114470838396777 
654	 0.113806705776602 
655	 0.112796828910788 
656	 0.11175055880878 
657	 0.111024798273559 
658	 0.110431194355204 
659	 0.109791562630162 
660	 0.109401329465698 
661	 0.109001891355453 
662	 0.108598784581863 
663	 0.108346368732954 
664	 0.108026247316076 
665	 0.107763201668516 
666	 0.107590679060598 
667	 0.107302451344566 
668	 0.107107560271495 
669	 0.107078993914081 
670	 0.107157382572678 
671	 0.106896308514697 
672	 0.106606661324032 
673	 0.106459621496319 
674	 0.1064453358245 
675	 0.106332868864099 
676	 0.106312927763036 
677	 0.106473577944972 
678	 0.106434875775781 
679	 0.106406807989066 
680	 0.106433239985089 
681	 0.106480698223824 
682	 0.106514810352115 
683	 0.106504206710078 
684	 0.106488911562602 
685	 0.106609826060986 
686	 0.106717234388998 
687	 0.106653632053166 
688	 0.106369935309116 
689	 0.106052430260533 
690	 0.105637437795728 
691	 0.105166485049653 
692	 0.104725268962874 
693	 0.104263722606557 
694	 0.103335426738268 
695	 0.10210521798426 
696	 0.101585819149726 
697	 0.100664078477403 
698	 9.94389130617365E-02 
699	 9.83787665426588E-02 
700	 9.73669415439343E-02 
701	 0.096199638107207 
702	 9.48333411354242E-02 
703	 9.33260530793543E-02 
704	 9.19096960577201E-02 
705	 0.090609523818702 
706	 8.93183888697731E-02 
707	 8.75915977959029E-02 
708	 8.58868854498217E-02 
709	 8.41235246795092E-02 
710	 8.21092097374476E-02 
711	 8.01712525307156E-02 
712	 7.81090599954465E-02 
713	 7.59594967098874E-02 
714	 7.39924013014483E-02 
715	 7.23720412967132E-02 
716	 7.06911208758173E-02 
717	 6.85951082049961E-02 
718	 6.61819050245317E-02 
719	 6.35049570456169E-02 
720	 6.12049961199075E-02 
721	 5.92931467901954E-02 
722	 5.75781581215702E-02 
723	 5.58458949474227E-02 
724	 5.40907192707136E-02 
725	 5.19231265383187E-02 
726	 4.99495695880778E-02 
727	 4.80848875054446E-02 
728	 4.61115140464943E-02 
729	 4.37948127515445E-02 
730	 4.16566950466694E-02 
731	 3.97838286053862E-02 
732	 3.79724407402415E-02 
733	 3.67354859177633E-02 
734	 3.58153253227024E-02 
735	 3.50288414773134E-02 
736	 0.034296950061742 
737	 3.37872126603304E-02 
738	 3.34349999155577E-02 
739	 3.31274187734894E-02 
740	 3.27446244701856E-02 
741	 3.24237182763444E-02 
742	 0.032217242237929 
743	 3.21102167371182E-02 
744	 3.20049605335837E-02 
745	 3.19010311510922E-02 
746	 3.18196286906663E-02 
747	 3.17934929535142E-02 
748	 3.18176900508962E-02 
749	 3.18465484820441E-02 
750	 3.18190071420567E-02 
751	 3.16471511516927E-02 
752	 3.15719334586524E-02 
753	 0.031545006468789 
754	 3.13978167359149E-02 
755	 3.13969143329422E-02 
756	 3.16240052318082E-02 
757	 3.19747656133189E-02 
758	 3.21123871449567E-02 
759	 0.032911518126127 
760	 3.39931881861555E-02 
761	 0.033806678003441 
762	 3.39902559681084E-02 
763	 3.35385955623717E-02 
764	 3.29392743704307E-02 
765	 3.27799544960757E-02 
766	 0.032321919108464 
767	 3.19244025839776E-02 
768	 3.17774505141061E-02 
769	 3.19317784682196E-02 
770	 3.19903145061611E-02 
771	 3.19258687047656E-02 
772	 3.18565015424201E-02 
773	 3.20654577101944E-02 
774	 3.22628506530367E-02 
775	 3.24074024280761E-02 
776	 3.25545257688625E-02 
777	 3.26069731882735E-02 
778	 0.032730463553797 
779	 3.29555297760085E-02 
780	 3.31625197103377E-02 
781	 3.34392899863345E-02 
782	 3.35366313710163E-02 
783	 3.34563064082661E-02 
784	 3.39135502785941E-02 
785	 3.42204029605346E-02 
786	 3.44809366439211E-02 
787	 0.034947903729745 
788	 3.50570475138239E-02 
789	 3.52834430393228E-02 
790	 3.56775066132758E-02 
791	 3.59102157341802E-02 
792	 3.58726777433083E-02 
793	 3.61915589452289E-02 
794	 3.69553132845253E-02 
795	 3.72142445328588E-02 
796	 3.74208845996216E-02 
797	 3.75889168196717E-02 
798	 3.77474577605498E-02 
799	 3.83795082170435E-02 
800	 3.86143054624254E-02 
801	 3.86092323171504E-02 
802	 3.90096274955426E-02 
803	 3.91816654183938E-02 
804	 3.90945565073007E-02 
805	 3.89818409966876E-02 
806	 3.92567172866114E-02 
807	 3.93423651316099E-02 
808	 3.93223698321736E-02 
809	 3.93757319160816E-02 
810	 3.95812764870044E-02 
811	 3.97899690755687E-02 
812	 3.98147626317887E-02 
813	 0.039530234900871 
814	 3.93636676628552E-02 
815	 3.93607973244875E-02 
816	 3.92213947096412E-02 
817	 3.85218623419985E-02 
818	 3.77828459887134E-02 
819	 3.72448493563885E-02 
820	 3.69150469043699E-02 
821	 3.66562885255719E-02 
822	 0.036120062478959 
823	 3.51430216070781E-02 
824	 3.39319104791931E-02 
825	 3.30348184838494E-02 
826	 3.23401944818167E-02 
827	 3.18157972250498E-02 
828	 3.13939138900452E-02 
829	 3.06451408295927E-02 
830	 2.97767649077632E-02 
831	 2.90441185381169E-02 
832	 2.86533420909279E-02 
833	 2.80739945419758E-02 
834	 0.027853631266394 
835	 0.027962709974905 
836	 2.75319981047296E-02 
837	 2.73205056084153E-02 
838	 2.72971418294001E-02 
839	 2.72658734137569E-02 
840	 2.70839556781572E-02 
841	 2.66198578909575E-02 
842	 2.63020870107275E-02 
843	 0.02652966032202 
844	 2.65878891645605E-02 
845	 2.63522832711492E-02 
846	 2.61793211868383E-02 
847	 2.65595124607301E-02 
848	 0.02616544928655 
849	 2.58998578853099E-02 
850	 2.60272971042989E-02 
851	 2.57282337888332E-02 
852	 2.62439186859936E-02 
853	 2.63682777544435E-02 
854	 2.55239018560169E-02 
855	 2.54843962057712E-02 
856	 2.57218048091429E-02 
857	 2.58276703817088E-02 
858	 2.56016824846486E-02 
859	 2.54885820962565E-02 
860	 2.53683741576756E-02 
861	 2.54217371891457E-02 
862	 2.57676287435221E-02 
863	 0.025224261050555 
864	 2.51238339939189E-02 
865	 2.55277815623866E-02 
866	 2.52877773561434E-02 
867	 2.51543114863418E-02 
868	 2.50720221582068E-02 
869	 2.49368593933713E-02 
870	 2.47295646319764E-02 
871	 2.48661998837597E-02 
872	 2.50896630091039E-02 
873	 2.50874885860995E-02 
874	 2.47551524970265E-02 
875	 2.47646469594137E-02 
876	 2.48280821521414E-02 
877	 2.45686199566134E-02 
878	 2.44465072425893E-02 
879	 2.47175401996595E-02 
880	 2.48771762472451E-02 
881	 2.43494213948206E-02 
882	 2.42960683576665E-02 
883	 2.42765026290176E-02 
884	 2.45910228058539E-02 
885	 2.57602226654501E-02 
886	 2.49054197856618E-02 
887	 2.40030883501564E-02 
888	 2.39913204228113E-02 
889	 0.024026705919 
890	 2.50801578675312E-02 
891	 0.02567089591947 
892	 2.51624231029513E-02 
893	 2.53735523719916E-02 
894	 2.56346540604745E-02 
895	 2.58920150727772E-02 
896	 2.60519440330542E-02 
897	 0.025419319556114 
898	 2.58244574249165E-02 
899	 2.65871396122133E-02 
900	 2.64665605768271E-02 
901	 2.58842147867177E-02 
902	 2.55536052865742E-02 
903	 2.53767845501826E-02 
904	 2.51384865892321E-02 
905	 2.59635190146793E-02 
906	 2.53234276969384E-02 
907	 2.40665054157233E-02 
908	 2.51629033695958E-02 
909	 2.57378684860186E-02 
910	 2.59051000556277E-02 
911	 2.60957622204696E-02 
912	 2.65895992378197E-02 
913	 2.57932975955138E-02 
914	 2.51266787087113E-02 
915	 2.51563967574903E-02 
916	 2.50209804788013E-02 
917	 0.025018669216314 
918	 2.49044872017418E-02 
919	 2.47979652670488E-02 
920	 2.53070389781601E-02 
921	 2.53278123517017E-02 
922	 2.51090985217508E-02 
923	 2.47187109914702E-02 
924	 2.32179272380237E-02 
925	 2.50829963878993E-02 
926	 2.72596492609118E-02 
927	 2.61677092821929E-02 
928	 2.65957495606525E-02 
929	 2.75319883924963E-02 
930	 2.94619258300045E-02 
931	 3.24023877934967E-02 
932	 3.02964648172249E-02 
933	 2.16610184868528E-02 
934	 2.12784991900718E-02 
935	 3.78600430152867E-02 
936	 3.75153777315159E-02 
937	 2.96756940097195E-02 
938	 2.36693980107096E-02 
939	 2.44950160025771E-02 
940	 2.81166246675805E-02 
941	 3.08887294298091E-02 
942	 2.93106152291553E-02 
943	 0.022481262979586 
944	 2.29383999055216E-02 
945	 2.55517685733039E-02 
946	 2.35579721779201E-02 
947	 1.53287096906401E-02 
948	 2.33386414736023E-02 
949	 3.45414150734849E-02 
950	 3.54267085300147E-02 
951	 2.15996996976523E-02 
952	 2.80475317310115E-02 
953	 2.77190169501385E-02 
954	 2.13319866107025E-02 
955	 2.70887397667952E-02 
956	 2.81053672827359E-02 
957	 2.51458960332145E-02 
958	 2.40564109590693E-02 
959	 0.030103167706986 
960	 3.05164273559409E-02 
961	 2.69829271729926E-02 
962	 2.33619488326878E-02 
963	 2.33748503938604E-02 
964	 2.73103919982903E-02 
965	 2.62530154904077E-02 
966	 2.27143873461019E-02 
967	 2.54779509325398E-02 
968	 0.024952099631841 
969	 2.43973616166475E-02 
970	 2.51365771886717E-02 
971	 2.60271529375252E-02 
972	 2.85645880063468E-02 
973	 2.65752383763243E-02 
974	 2.27818261737891E-02 
975	 2.68506443259511E-02 
976	 2.42153820910689E-02 
977	 2.33718143634193E-02 
978	 2.59205959477341E-02 
979	 2.59155710319132E-02 
980	 2.64485309412535E-02 
981	 2.50696217138826E-02 
982	 2.38796131544864E-02 
983	 2.68394399119018E-02 
984	 2.12950051234987E-02 
985	 2.05294173438643E-02 
986	 2.42071498513248E-02 
987	 2.17355162150514E-02 
988	 2.34586452227764E-02 
989	 2.35359505275827E-02 
990	 2.21851768215989E-02 
991	 2.38448670524293E-02 
992	 2.20491190686696E-02 
993	 2.09225133572326E-02 
994	 2.18996189522898E-02 
995	 2.34386278411729E-02 
996	 2.30973295087344E-02 
997	 2.32285521560672E-02 
998	 2.34973991675376E-02 
999	 2.24948187746084E-02 
1000	 2.41340461295996E-02 
1001	 2.59093218178762E-02 
1002	 2.55226260735901E-02 
1003	 2.51578479406494E-02 
1004	 0.024849633180965 
1005	 0.024574338139601 
1006	 2.38974137617816E-02 
1007	 2.36523482355104E-02 
1008	 2.41213840082604E-02 
1009	 2.41787185072945E-02 
1010	 2.44770668166881E-02 
1011	 2.49365176763318E-02 
1012	 2.52666885283069E-02 
1013	 2.53501395926974E-02 
1014	 0.025154815504942 
1015	 2.47904401944587E-02 
1016	 2.44385806886903E-02 
1017	 2.31855609387308E-02 
1018	 2.32821959687072E-02 
1019	 0.024445814503743 
1020	 2.49636784571892E-02 
1021	 2.60836638069606E-02 
1022	 2.65972428345871E-02 
1023	 2.59318252886437E-02 
1024	 2.53602922780518E-02 
1025	 2.49540832307254E-02 
1026	 2.46864066825229E-02 
1027	 2.47577519667761E-02 
1028	 2.54440601714167E-02 
1029	 2.55951535242566E-02 
1030	 2.56945022473896E-02 
1031	 0.025848714898149 
1032	 2.62408017837219E-02 
1033	 2.59028492390223E-02 
1034	 2.49023778777396E-02 
1035	 2.43728592262621E-02 
1036	 2.33466290166292E-02 
1037	 2.29506535943046E-02 
1038	 2.30402272757134E-02 
1039	 2.35131237471702E-02 
1040	 2.43105741635396E-02 
1041	 2.46375701418191E-02 
1042	 2.51300190591017E-02 
1043	 2.61267956665808E-02 
1044	 2.61534832767843E-02 
1045	 2.55671397535516E-02 
1046	 2.52312161671452E-02 
1047	 0.024053159195867 
1048	 2.40775933645756E-02 
1049	 2.54800780221208E-02 
1050	 2.53746510977466E-02 
1051	 2.46381161808265E-02 
1052	 2.45539329124695E-02 
1053	 2.36292250759242E-02 
1054	 2.34014332896016E-02 
1055	 2.48049349994106E-02 
1056	 2.52548163533299E-02 
1057	 2.53637015714314E-02 
1058	 2.50947368617412E-02 
1059	 2.46657985178362E-02 
1060	 2.33879816356997E-02 
1061	 2.32739636475674E-02 
1062	 2.33107541293402E-02 
1063	 2.37550504946526E-02 
1064	 2.54368602751934E-02 
1065	 2.60224060588768E-02 
1066	 2.65635270027531E-02 
1067	 2.65330122218619E-02 
1068	 2.54358433052807E-02 
1069	 2.49849507663255E-02 
1070	 2.41214904057883E-02 
1071	 2.39290916325559E-02 
1072	 2.45712901841843E-02 
1073	 2.50377465788908E-02 
1074	 2.53742376275399E-02 
1075	 2.59931341596371E-02 
1076	 2.60960313893615E-02 
1077	 2.57720319482496E-02 
1078	 2.56897097953641E-02 
1079	 2.54483624092102E-02 
1080	 2.53540579059209E-02 
1081	 2.53650816929178E-02 
1082	 2.53690802801897E-02 
1083	 2.56040238751775E-02 
1084	 2.55989834472242E-02 
1085	 2.50777831545822E-02 
1086	 2.50816563320166E-02 
1087	 2.54413750436492E-02 
1088	 0.02552347471197 
1089	 2.57860625967899E-02 
1090	 2.65233476078794E-02 
1091	 2.61213029132705E-02 
1092	 2.43072188981638E-02 
1093	 2.43366163167781E-02 
1094	 2.48771045161158E-02 
1095	 2.53508335158809E-02 
1096	 2.77588700682012E-02 
1097	 2.76202136052002E-02 
1098	 2.45953015029261E-02 
1099	 2.39980485058185E-02 
1100	 2.33974516225318E-02 
1101	 2.35353264030029E-02 
1102	 2.67586674067451E-02 
1103	 2.80185716402174E-02 
1104	 2.87594235735776E-02 
1105	 2.76329930890468E-02 
1106	 0.027510631749522 
1107	 0.026956938217236 
1108	 2.67851080827429E-02 
1109	 2.81497335650891E-02 
1110	 0.028412724485737 
1111	 2.81855018203263E-02 
1112	 2.84807280737743E-02 
1113	 2.86267695806872E-02 
1114	 2.89852215044761E-02 
1115	 0.031402380957371 
1116	 3.13035156777088E-02 
1117	 2.62981022777045E-02 
1118	 2.63622390338603E-02 
1119	 2.93275514374157E-02 
1120	 3.01895704531772E-02 
1121	 3.73785057637936E-02 
1122	 4.21566926941091E-02 
1123	 3.58999445791879E-02 
1124	 0.030721229693988 
1125	 2.93124019130856E-02 
1126	 3.35098550158912E-02 
1127	 2.92980445037118E-02 
1128	 2.78823002617733E-02 
1129	 3.12470341631576E-02 
1130	 3.60190669194724E-02 
1131	 3.42459218021127E-02 
1132	 3.30696425378528E-02 
1133	 3.49227950209061E-02 
1134	 3.33537836382563E-02 
1135	 3.54115338700403E-02 
1136	 4.71296802479622E-02 
1137	 4.68632037371699E-02 
1138	 0.040450949938161 
1139	 3.36625299269819E-02 
1140	 3.27465032097196E-02 
1141	 3.22333679484893E-02 
1142	 3.06940407722955E-02 
1143	 3.06819877473297E-02 
1144	 2.64855609014703E-02 
1145	 2.56575204567542E-02 
1146	 0.031806027537436 
1147	 3.32127821442937E-02 
1148	 3.39244182234002E-02 
1149	 3.27787740261665E-02 
1150	 3.14523864456603E-02 
1151	 2.99001495060904E-02 
1152	 2.96409961885216E-02 
1153	 2.82307814169133E-02 
1154	 0.028262884544462 
1155	 2.92602059852653E-02 
1156	 2.94018506988082E-02 
1157	 2.92909001464014E-02 
1158	 2.87985155520583E-02 
1159	 2.76971335980333E-02 
1160	 2.70384589015111E-02 
1161	 2.72240367979416E-02 
1162	 2.87866522822743E-02 
1163	 2.98321183390369E-02 
1164	 2.89249722896975E-02 
1165	 2.78799431071183E-02 
1166	 2.78127040199115E-02 
1167	 2.73696119584067E-02 
1168	 2.69420528551713E-02 
1169	 2.68379921539775E-02 
1170	 2.59905954366989E-02 
1171	 2.57800435414452E-02 
1172	 2.62656633117713E-02 
1173	 2.61632138271927E-02 
1174	 2.61806244729365E-02 
1175	 2.55291975188689E-02 
1176	 2.49472748082587E-02 
1177	 2.52323108963621E-02 
1178	 2.56894731364907E-02 
1179	 2.64218329740893E-02 
1180	 2.66745327255706E-02 
1181	 2.54938983357743E-02 
1182	 2.52096468208465E-02 
1183	 2.58288054519697E-02 
1184	 2.56154605160509E-02 
1185	 0.025559293939327 
1186	 2.58998985618977E-02 
1187	 2.56093734740066E-02 
1188	 2.54690067973206E-02 
1189	 2.59783963950745E-02 
1190	 2.60745932153821E-02 
1191	 2.56075593094587E-02 
1192	 2.53589770903112E-02 
1193	 2.53192543466477E-02 
1194	 2.52801831632959E-02 
1195	 0.024801972863711 
1196	 2.48437391469139E-02 
1197	 2.52163687140536E-02 
1198	 2.50072516415144E-02 
1199	 2.51398856627262E-02 
1200	 2.53895749836366E-02 
1201	 2.50838298567696E-02 
1202	 2.51256018924844E-02 
1203	 2.52816569053927E-02 
1204	 2.51121596439134E-02 
1205	 2.49499939251777E-02 
1206	 2.48831750446144E-02 
1207	 2.50943022284018E-02 
1208	 2.53442337239473E-02 
1209	 2.54380612994668E-02 
1210	 2.54952227439992E-02 
1211	 2.51757447156968E-02 
1212	 2.49131112506334E-02 
1213	 2.50129763213585E-02 
1214	 2.50023574195917E-02 
1215	 2.50932697029899E-02 
1216	 2.53549001050212E-02 
1217	 2.51690752190374E-02 
1218	 2.45636862408459E-02 
1219	 2.43841063239487E-02 
1220	 2.41614185098974E-02 
1221	 2.41648411604045E-02 
1222	 2.45508934444685E-02 
1223	 2.47295179744295E-02 
1224	 2.44779791527085E-02 
1225	 2.41209985027556E-02 
1226	 2.42291685320934E-02 
1227	 2.41352643817753E-02 
1228	 2.39702944235407E-02 
1229	 2.42337413006518E-02 
1230	 2.41052507623247E-02 
1231	 0.023834750739092 
1232	 2.39532409843218E-02 
1233	 2.39098073148684E-02 
1234	 2.38188598161448E-02 
1235	 2.38831406741679E-02 
1236	 2.42419746138855E-02 
1237	 2.41869403867799E-02 
1238	 0.023891307230378 
1239	 2.40237754095459E-02 
1240	 2.41896901655337E-02 
1241	 2.40659816793499E-02 
1242	 2.40080021599786E-02 
1243	 2.40704075881257E-02 
1244	 2.38416607344702E-02 
1245	 2.33268704250457E-02 
1246	 2.33998396241935E-02 
1247	 2.36141128734602E-02 
1248	 2.32681448683464E-02 
1249	 2.32215645557661E-02 
1250	 0.023615098557342 
1251	 2.34156474553888E-02 
1252	 2.30020445682928E-02 
1253	 2.35820252345365E-02 
1254	 2.40778155453226E-02 
1255	 2.33183596748421E-02 
1256	 2.31040639267236E-02 
1257	 2.31020663587416E-02 
1258	 2.32173434137115E-02 
1259	 2.33606746603669E-02 
1260	 2.36121798663263E-02 
1261	 2.41759836342353E-02 
1262	 2.42820605661546E-02 
1263	 2.40197397254745E-02 
1264	 2.40399282762689E-02 
1265	 2.40332236580799E-02 
1266	 0.023822665524382 
1267	 2.37011323925576E-02 
1268	 2.41347068652182E-02 
1269	 2.41788911417154E-02 
1270	 2.40415329622707E-02 
1271	 2.41345479445536E-02 
1272	 2.37589535596942E-02 
1273	 2.36296126414628E-02 
1274	 2.39662409457423E-02 
1275	 2.36769153514643E-02 
1276	 2.33495599080612E-02 
1277	 2.37357603747216E-02 
1278	 2.35088322037735E-02 
1279	 2.30948465008118E-02 
1280	 2.34865412197601E-02 
1281	 2.34477248687924E-02 
1282	 2.31081793322719E-02 
1283	 2.30953950009789E-02 
1284	 2.32173040883774E-02 
1285	 2.30180933478436E-02 
1286	 2.27271915019104E-02 
1287	 2.28155116381436E-02 
1288	 2.30305041225581E-02 
1289	 2.30199377879419E-02 
1290	 2.30783446558084E-02 
1291	 2.33428615407122E-02 
1292	 0.023568323536298 
1293	 2.32727259197626E-02 
1294	 2.30310383915292E-02 
1295	 2.30335662538747E-02 
1296	 2.31358760377666E-02 
1297	 2.34658087278105E-02 
1298	 2.37120102662696E-02 
1299	 2.39178840032351E-02 
1300	 2.42429554895019E-02 
1301	 2.41324142381599E-02 
1302	 2.36019429035869E-02 
1303	 0.023566556782088 
1304	 2.42406408089028E-02 
1305	 2.40612055961679E-02 
1306	 2.42052483283417E-02 
1307	 2.62052164809919E-02 
1308	 2.64829553991628E-02 
1309	 2.42957020160686E-02 
1310	 2.39932378378568E-02 
1311	 2.49119743873717E-02 
1312	 2.47884825974819E-02 
1313	 2.45082324505125E-02 
1314	 2.46254754181215E-02 
1315	 2.45054975869674E-02 
1316	 2.41449763570606E-02 
1317	 2.37304834285387E-02 
1318	 0.024055673352231 
1319	 0.024594095055506 
1320	 2.46924125014258E-02 
1321	 2.49510744317467E-02 
1322	 2.58463361703522E-02 
1323	 2.62066474711933E-02 
1324	 2.58404409433922E-02 
1325	 2.49553329192385E-02 
1326	 2.46996586774063E-02 
1327	 2.44657233153507E-02 
1328	 2.34794916799182E-02 
1329	 2.31806326013332E-02 
1330	 0.025061620538194 
1331	 2.68715453248414E-02 
1332	 2.74719704172956E-02 
1333	 2.85813800031358E-02 
1334	 2.83295539944956E-02 
1335	 2.87574560891149E-02 
1336	 3.04544697208372E-02 
1337	 0.030085462711055 
1338	 2.82107213003524E-02 
1339	 2.63311905354654E-02 
1340	 2.15083775358055E-02 
1341	 2.05353536840056E-02 
1342	 0.023131724836812 
1343	 2.20356258999727E-02 
1344	 1.94064439722583E-02 
1345	 1.99462006653159E-02 
1346	 2.03256745772058E-02 
1347	 1.79081238541358E-02 
1348	 2.23862518527637E-02 
1349	 2.52994444673334E-02 
1350	 5.79632993965969E-03 
1351	-3.10244015809819E-03 
1352	 3.48473780138157E-02 
1353	 4.50819250890179E-02 
1354	-3.48426091459739E-03 
1355	-2.48356223718911E-02 
1356	 4.84714690175435E-02 
1357	 8.14728403908249E-03 
1358	-0.138558520084892 
1359	-4.62463663349309E-02 
1360	-0.174423745280629 
1361	-0.694246022929885 
1362	-0.450464448029879 
1363	-0.027009006662969 
1364	-6.47665994234335E-02 
1365	-0.146903058510971 
1366	-0.266495236728954 
1367	-0.605872668770061 
1368	-0.681439309293139 
1369	-0.501751319008931 
1370	 0.220472921915096 
1371	 2.75179898773947 
1372	 1.81716812346631 
1373	-66.7821652142608 
1374	-13.9926243554748 
1375	 3.89625443689897E-02 
1376	-4.85556495815244E-02 
1377	 0.409704793016448 
1378	 0.651487454290308 
1379	 1.14069353257951 
1380	 0.845260001810489 
1381	-0.738437745303082 
1382	-2.27108789880558 
1383	-1.46790423637152 
1384	-1.4470333844782 
1385	-0.705171755286606 
1386	-0.627366626351555 
1387	-1.50918075336182 
1388	-1.65819836932929 
1389	-2.68861273078384 
1390	-1.77332069513977 
1391	-0.156933758375106 
1392	-0.211419527864451 
1393	-0.663458008947763 
1394	-0.170439563856422 
1395	-0.266021188249111 
1396	-0.541628394809036 
1397	-0.51396335202097 
1398	-1.13077035502958 
1399	-4.73082315123478 
1400	-3.2926392906069 
1401	 0.340983974317209 
1402	 0.469264914155481 
1403	-9.41602310593894E-02 
1404	-0.340023496352328 
1405	-0.347095128182763 
1406	 4.1385073851776 
1407	-30.1473813165531 
1408	-0.323498171556944 
1409	 0.123952028042983 
1410	 7.52564512745713E-03 
1411	-3.01740883198476E-02 
1412	 0.217846517960354 
1413	 0.278513957215802 
1414	 3.46098197411516E-02 
1415	 7.46756241002007E-02 
1416	 0.373659342472687 
1417	 0.283851931822165 
1418	 1.67097435221571E-03 
1419	 7.33811631702979E-03 
1420	 7.52362553007487E-02 
1421	 7.16446251127415E-02 
1422	 0.158786345942262 
1423	 0.142905069317739 
1424	 2.90508756572891E-02 
1425	 2.57003043190804E-03 
1426	-2.67436891594321E-03 
1427	-3.45960024463465E-04 
1428	 1.43232363301707E-02 
1429	 1.88525961460502E-02 
1430	 3.95795617238653E-02 
1431	 3.76445299140056E-02 
1432	-3.77302029622906E-03 
1433	 5.99857229498949E-03 
1434	 4.60590514035825E-02 
1435	 0.055095084231741 
1436	 7.38538606475056E-02 
1437	 0.112791875099024 
1438	 0.086399674166107 
1439	 6.70284627624748E-02 
1440	 8.82278238171959E-02 
1441	 8.86865400302179E-02 
1442	 5.45460571158701E-02 
1443	 3.31340929669279E-02 
1444	 3.37587868342926E-02 
1445	 2.91770546207669E-02 
1446	 3.01802972348896E-02 
1447	 3.80124645856342E-02 
1448	 3.09124278511652E-02 
1449	 1.89131205761992E-02 
1450	 1.77451404735338E-02 
1451	 1.68808365863315E-02 
1452	 1.73163866307745E-02 
1453	 2.52286477280196E-02 
1454	 2.69012652284637E-02 
1455	 3.04594286646376E-02 
1456	 3.11857355246023E-02 
1457	 2.74201793244327E-02 
1458	 2.73855853642652E-02 
1459	 2.96527284274042E-02 
1460	 3.08334506443464E-02 
1461	 0.031156012860894 
1462	 3.30598868967672E-02 
1463	 3.70986935781615E-02 
1464	 3.94711105246942E-02 
1465	 4.38211723538419E-02 
1466	 4.32902893603432E-02 
1467	 3.79369154720609E-02 
1468	 3.54917662680274E-02 
1469	 0.031033939240057 
1470	 2.62291897282855E-02 
1471	 1.99528026213939E-02 
1472	 2.29313803525879E-02 
1473	 3.16237662168392E-02 
1474	 3.24862871289219E-02 
1475	 3.67541346979239E-02 
1476	 3.85611185496201E-02 
1477	 3.18993574037981E-02 
1478	 3.06402933003072E-02 
1479	 3.59978781674018E-02 
1480	 3.53193886797898E-02 
1481	 2.98154140727916E-02 
1482	 0.029071434488972 
1483	 3.07127440444246E-02 
1484	 3.05378077035725E-02 
1485	 3.16622985273166E-02 
1486	 3.06211044553087E-02 
1487	 2.58848073904022E-02 
1488	 2.50278487586767E-02 
1489	 2.64198934557002E-02 
1490	 2.58248033555192E-02 
1491	 2.53913448348738E-02 
1492	 2.57707580027832E-02 
1493	 2.53017414963389E-02 
1494	 2.51617253436196E-02 
1495	 2.63765665498332E-02 
1496	 2.66509622904174E-02 
1497	 2.62744582776893E-02 
1498	 2.56435415802814E-02 
1499	 2.47267089882725E-02 
1500	 2.42996501320282E-02 
1501	 2.32808951526181E-02 
1502	 2.30535922952575E-02 
1503	 2.42768287674341E-02 
1504	 2.40994589920691E-02 
1505	 2.27069085628635E-02 
1506	 2.28352341579133E-02 
1507	 2.36977638014817E-02 
1508	 2.36074280239222E-02 
1509	 2.34552279996841E-02 
1510	 2.42400971346399E-02 
1511	 0.024892993958459 
1512	 2.49763184940653E-02 
1513	 2.58153107186677E-02 
1514	 2.62125300586998E-02 
1515	 2.49461124992563E-02 
1516	 2.35964390445985E-02 
1517	 2.38499059624995E-02 
1518	 2.44609435687037E-02 
1519	 2.38752620507862E-02 
1520	 2.33551264241959E-02 
1521	 2.34158831417543E-02 
1522	 0.023626908966498 
1523	 2.36016930317392E-02 
1524	 2.36563623427825E-02 
1525	 2.40506800587643E-02 
1526	 0.023581845545402 
1527	 2.29374665796817E-02 
1528	 2.33780509625283E-02 
1529	 2.36637628162741E-02 
1530	 2.32141022901418E-02 
1531	 2.31978085910449E-02 
1532	 2.36735201122438E-02 
1533	 2.32938460557899E-02 
1534	 2.24557330037597E-02 
1535	 2.26487886016012E-02 
1536	 2.29471419751945E-02 
1537	 2.30010523758594E-02 
1538	 0.02316185088966 
1539	 2.30405929809014E-02 
1540	 0.023102921078648 
1541	 0.022982547345624 
1542	 2.27514428075594E-02 
1543	 2.25953602082526E-02 
1544	 2.23419679111912E-02 
1545	 2.26341095115684E-02 
1546	 2.30273995646229E-02 
1547	 2.36808970818709E-02 
1548	 2.44746621040698E-02 
1549	 2.41455275208111E-02 
1550	 2.36939394723614E-02 
1551	 0.023557470461001 
1552	 2.28338372595076E-02 
1553	 2.23605031807526E-02 
1554	 2.27752573422733E-02 
1555	 2.31844760123373E-02 
1556	 0.023204125823813 
1557	 0.023275645169102 
1558	 2.34394359375787E-02 
1559	 2.32722330341278E-02 
1560	 2.26795760679374E-02 
1561	 2.27437064761124E-02 
1562	 2.31809804002719E-02 
1563	 2.28047055352722E-02 
1564	 2.25884216036886E-02 
1565	 2.28704557515705E-02 
1566	 2.30116692336943E-02 
1567	 0.022789373765417 
1568	 2.24476661725892E-02 
1569	 2.26636404959689E-02 
1570	 2.28585404359584E-02 
1571	 2.30265678239482E-02 
1572	 0.023357633451236 
1573	 2.30439213993658E-02 
1574	 2.26703348260911E-02 
1575	 2.28050118713593E-02 
1576	 2.31870173504737E-02 
1577	 2.36955051655353E-02 
1578	 2.38749176644069E-02 
1579	 2.35254877829103E-02 
1580	 2.30818954986017E-02 
1581	 2.31484715920296E-02 
1582	 2.34575599678112E-02 
1583	 2.34540250069371E-02 
1584	 2.36534275506551E-02 
1585	 2.34984693464688E-02 
1586	 2.27660847636797E-02 
1587	 2.28079282539387E-02 
1588	 2.32877772551213E-02 
1589	 2.32091441273804E-02 
1590	 2.30375101170328E-02 
1591	 2.32156766819556E-02 
1592	 2.32086998566045E-02 
1593	 2.29095929485838E-02 
1594	 2.25340270857759E-02 
1595	 2.22690037732884E-02 
1596	 2.21230286252866E-02 
1597	 2.17819183335828E-02 
1598	 2.17404676715105E-02 
1599	 2.19457110019481E-02 
1600	 2.18638621663633E-02 
1601	 2.23423959967261E-02 
1602	 2.29897915440458E-02 
1603	 2.27656032126331E-02 
1604	 2.27033458979803E-02 
1605	 2.24531920405875E-02 
1606	 0.021828416105028 
1607	 0.021927161291402 
1608	 2.18734105466369E-02 
1609	 2.18908569818378E-02 
1610	 0.022262098651878 
1611	 2.24991609721593E-02 
1612	 2.26592272590026E-02 
1613	 0.022412588306787 
1614	 0.022104694974645 
1615	 2.19641553867885E-02 
1616	 2.16143667978902E-02 
1617	 2.09980970143121E-02 
1618	 2.13302102900012E-02 
1619	 0.022044582474491 
1620	 2.18414742411525E-02 
1621	 2.20514154691392E-02 
1622	 2.21680278121035E-02 
1623	 2.14112093319133E-02 
1624	 2.12970644700376E-02 
1625	 2.14129895026908E-02 
1626	 2.13311787841424E-02 
1627	 2.18796337761421E-02 
1628	 2.21888513342111E-02 
1629	 2.19774260125952E-02 
1630	 2.20671506185134E-02 
1631	 2.20231429267407E-02 
1632	 2.17116864811925E-02 
1633	 2.17346217811957E-02 
1634	 0.021769473592131 
1635	 2.18613693872901E-02 
1636	 2.22728098723426E-02 
1637	 2.23096492621338E-02 
1638	 2.20847040460092E-02 
1639	 2.21280475756739E-02 
1640	 2.21890223673919E-02 
1641	 2.28176654731564E-02 
1642	 2.39614907826568E-02 
1643	 2.44271711377587E-02 
1644	 2.41059767539312E-02 
1645	 2.29756400463374E-02 
1646	 2.22767503759954E-02 
1647	 2.26262822226078E-02 
1648	 2.25612459291898E-02 
1649	 2.24180067578651E-02 
1650	 2.21906496472973E-02 
1651	 2.15128556030157E-02 
1652	 2.12301024658261E-02 
1653	 2.17759494444926E-02 
1654	 2.18548348487358E-02 
1655	 2.14989294841741E-02 
1656	 0.02146029917479 
1657	 2.16746150297355E-02 
1658	 2.17540615556932E-02 
1659	 0.02186523784194 
1660	 2.21573973828748E-02 
1661	 2.24309447342311E-02 
1662	 2.22395219679069E-02 
1663	 2.22754194781275E-02 
1664	 0.022231952039286 
1665	 2.13243590828721E-02 
1666	 2.11402640349113E-02 
1667	 2.14694817862298E-02 
1668	 2.07886121474896E-02 
1669	 2.11597500788014E-02 
1670	 2.18818817157978E-02 
1671	 2.23871933782835E-02 
1672	 2.22672854856529E-02 
1673	 2.15417094930668E-02 
1674	 2.15996616202974E-02 
1675	 2.21478055971675E-02 
1676	 0.022216546260867 
1677	 2.24092098138577E-02 
1678	 0.02194011372395 
1679	 2.14769634720638E-02 
1680	 2.18789802779178E-02 
1681	 2.18452025548383E-02 
1682	 2.24418463571495E-02 
1683	 2.30527823511446E-02 
1684	 2.21276984499433E-02 
1685	 2.24516169813058E-02 
1686	 2.35674663564227E-02 
1687	 2.31939113938089E-02 
1688	 0.02294539457825 
1689	 2.27010253420103E-02 
1690	 2.17958996151087E-02 
1691	 2.18011055656642E-02 
1692	 2.31723764152248E-02 
1693	 2.38067155430091E-02 
1694	 2.28906408330041E-02 
1695	 2.21739400741471E-02 
1696	 2.18413663084783E-02 
1697	 2.23834742047884E-02 
1698	 2.42342256376609E-02 
1699	 2.40892048179003E-02 
1700	 2.26220420276983E-02 
1701	 2.27488169521542E-02 
1702	 0.022186683152746 
1703	 2.14878860690706E-02 
1704	 2.24967847231043E-02 
1705	 2.29896913132271E-02 
1706	 2.25499162775455E-02 
1707	 2.31582113313232E-02 
1708	 2.34960012285403E-02 
1709	 0.022208189319568 
1710	 2.14949793665288E-02 
1711	 0.02104380788756 
1712	 2.01194594268644E-02 
1713	 2.12886983746929E-02 
1714	 2.11237606322313E-02 
1715	 2.11521099749707E-02 
1716	 2.08673255912911E-02 
1717	 1.96516986063168E-02 
1718	 1.99561524647326E-02 
1719	 2.11005267387447E-02 
1720	 2.12751451712419E-02 
1721	 2.10229181727434E-02 
1722	 2.14717477626061E-02 
1723	 2.19357320984237E-02 
1724	 2.15264373414244E-02 
1725	 0.021771034576379 
1726	 2.20394390153901E-02 
1727	 2.12972465310933E-02 
1728	 2.25890565435237E-02 
1729	 2.39275717232835E-02 
1730	 2.24632499235554E-02 
1731	 2.19328567300763E-02 
1732	 2.18553644348865E-02 
1733	 2.09445105526453E-02 
1734	 2.14676388163359E-02 
1735	 2.24774049368449E-02 
1736	 0.022149578215164 
1737	 2.16379339051334E-02 
1738	 2.20518832302302E-02 
1739	 0.022065123402282 
1740	 2.19842058742285E-02 
1741	 2.29853200737195E-02 
1742	 2.28478026051556E-02 
1743	 2.17278272350831E-02 
1744	 2.17378967044752E-02 
1745	 2.17419992297679E-02 
1746	 2.47597578293221E-02 
1747	 2.48781387348513E-02 
1748	 2.16926320498014E-02 
1749	 2.12823143059691E-02 
1750	 2.06241252658045E-02 
1751	 2.02238334832686E-02 
1752	 2.34056837388225E-02 
1753	 0.024310414266318 
1754	 2.20542019202061E-02 
1755	 2.26472769846872E-02 
1756	 2.48654807332565E-02 
1757	 2.28973107961524E-02 
1758	 2.37526585476813E-02 
1759	 0.022224164530941 
1760	 2.03904701433949E-02 
1761	 2.33453582198851E-02 
1762	 2.43523110680191E-02 
1763	 2.36304846640438E-02 
1764	 0.02552614316253 
1765	 2.53029642946418E-02 
1766	 2.42978883368219E-02 
1767	 2.48727355820719E-02 
1768	 2.52497261438481E-02 
1769	 2.60664424953457E-02 
1770	 2.46288665195231E-02 
1771	 2.24090865302878E-02 
1772	 2.30731943589507E-02 
1773	 2.36771691746412E-02 
1774	 2.40441515192376E-02 
1775	 2.34342897567173E-02 
1776	 0.023782160864995 
1777	 2.34868097812593E-02 
1778	 2.43802545099732E-02 
1779	 0.029493358182906 
1780	 3.04914810236075E-02 
1781	 2.73926710111585E-02 
1782	 2.60492194122271E-02 
1783	 2.45252636918456E-02 
1784	 2.33628135253807E-02 
1785	 0.021621129629475 
1786	 2.11361800138985E-02 
1787	 2.02446961307909E-02 
1788	 2.15455623811474E-02 
1789	 2.78561050832724E-02 
1790	 3.42125877263403E-02 
1791	 3.70760245771997E-02 
1792	 3.75244455400841E-02 
1793	 2.85797965754241E-02 
1794	 0.020293045004832 
1795	 1.79143270429328E-02 
1796	 1.50134860624332E-02 
1797	 1.52519651274076E-02 
1798	 1.70205303792411E-02 
1799	 1.00191045812805E-02 
1800	 1.00705808793079E-02 
1801	 7.13477486604082E-04 
1802	-4.27214501952454E-02 
1803	-5.62018133293066E-02 
1804	-2.94168665265659E-02 
1805	-3.17620366689019E-02 
1806	-1.28249296404647E-03 
1807	-1.40478901125208E-02 
1808	-0.217598887350218 
1809	-0.26908433838625 
1810	-0.135849982748238 
1811	-8.48480193564383E-02 
1812	 8.74007550140108E-02 
1813	 8.39672586427652E-02 
1814	-0.176412226918896 
1815	-0.159249149800871 
1816	-0.085706022973832 
1817	 0.273120362633495 
1818	 0.871744346378233 
1819	 1.92720936607666 
1820	-17.6690909654156 
1821	 1.74671414863799 
1822	 1.1561530387608 
1823	 1.35698216617556 
1824	 2.87389228151583 
1825	-1.2797302227939 
1826	-0.59041939362629 
1827	 0.519516208159427 
1828	 0.476423644943259 
1829	-0.49243504711233 
1830	-2.79899013920843 
1831	 0.465546528511928 
1832	 0.583273841033968 
1833	 0.282992483067605 
1834	 0.290173705899806 
1835	 0.521362823642832 
1836	 0.652064294023684 
1837	 1.58724937784072 
1838	 2.27642206902939 
1839	 0.315763866827234 
1840	 4.94971165516641E-02 
1841	-0.236374148795075 
1842	-0.118252052938645 
1843	 1.7057105302473E-03 
1844	 0.362435193302667 
1845	 0.548258453700806 
1846	 0.929705354189878 
1847	 1.01453076341963 
1848	 0.795596986866831 
1849	 0.500399035643329 
1850	 0.313556448073837 
1851	 0.429039743206794 
1852	 0.327747471129548 
1853	 3.7989612768679 
1854	 4.14124291871959 
1855	-0.42327612487895 
1856	-0.730653821760163 
1857	-0.753487361717646 
1858	-0.751115345850511 
1859	-0.703174174548203 
1860	-0.995072782208665 
1861	-0.853429420576537 
1862	-0.450914756738943 
1863	-0.288894075024489 
1864	-0.184048093394565 
1865	-0.143581114475246 
1866	-0.181231831144846 
1867	-0.156309722244621 
1868	-0.134835355181389 
1869	-0.098751352488185 
1870	-2.87888918146351E-02 
1871	 0.183077298392537 
1872	 0.499625099960144 
1873	 0.569169888340719 
1874	 0.686039789367872 
1875	 0.817514975967225 
1876	 0.708130539565759 
1877	-0.191938665231098 
1878	-0.690071450279413 
1879	-3.19849537819608 
1880	-13.3641489604171 
1881	-4.31380614946467 
1882	-3.54847455250338 
1883	-2.25211417144566 
1884	-0.475747538276151 
1885	 0.22794097486439 
1886	 0.445978077004589 
1887	 0.418292724230513 
1888	-0.543995004453385 
1889	-0.827620836565217 
1890	-0.989268025511208 
1891	-1.72648775723622 
1892	-2.34993022959955 
1893	-3.97859724341551 
1894	 0.394338707760745 
1895	-8.43876712458587E-02 
1896	 0.472714486852053 
1897	 0.267198540535543 
1898	 0.329118239306981 
1899	 0.675882695883892 
1900	 0.679983074771838 
1901	 0.125311924799213 
1902	 0.265090249592805 
1903	 0.684049995474865 
1904	 1.07900010230891 
1905	 1.46956198330438 
1906	 2.62844431597255 
1907	 9.14889579612073 
1908	 20.5614662289658 
1909	-70.0123167085498 
1910	-56.5932719019916 
1911	 9.62420309777511 
1912	-2.80611788889526 
1913	-2.44586741281708 
1914	-4.80273748055287 
1915	-63.1605554643928 
1916	 5.86734391964352 
1917	 1.63719557632422 
1918	 0.990911946545313 
1919	 0.57572479266478 
1920	-0.235424627792186 
1921	 0.583094780078431 
1922	-1.13207252115511 
1923	 3.72699970286506 
1924	 4.67508451344549 
1925	 4.30413641281823 
1926	 5.30096451249185 
1927	-1.45578215478745 
1928	-661.145148731547 
1929	 0.79027881425574 
1930	 0.099079749170653 
1931	-7.02404021616792E-02 
1932	-0.150614908287925 
1933	-0.129291158743642 
1934	 1.39812553968021 
1935	 1.64313132628037 
1936	 1.42869663713816 
1937	 1.12835191589518 
1938	 0.772572631615395 
1939	 0.579396217134852 
1940	 0.384127739396294 
1941	 0.16068603213151 
1942	 3.83938445069492E-02 
1943	 4.77942554412521E-02 
1944	 0.112725017003661 
1945	 0.184077248766355 
1946	 0.17144882008442 
1947	 0.13870818530355 
1948	 1.81469557588975E-02 
1949	-0.116349968497769 
1950	-0.18675235866766 
1951	-0.247062181938805 
1952	-0.249439848633519 
1953	-0.22310589372042 
1954	-6.55815228079674E-02 
1955	 0.142673845512416 
1956	 0.167570556535746 
1957	 0.160797353250449 
1958	 0.155346439382772 
1959	 9.88941091426599E-02 
1960	 0.053058045855599 
1961	 3.59733997020789E-02 
1962	 0.026436552405365 
1963	 2.04393414409969E-02 
1964	 2.92645519496903E-02 
1965	 3.94284181131174E-02 
1966	 4.74053818205948E-02 
1967	 5.77724249060281E-02 
1968	 5.47710153320189E-02 
1969	 0.049324126315889 
1970	 5.34680707257506E-02 
1971	 3.99030193842111E-02 
1972	 3.57987790436604E-02 
1973	 3.63898493906534E-02 
1974	 2.58055902522513E-02 
1975	 0.0314358298402 
1976	 0.033261964316146 
1977	 0.03167556204868 
1978	 3.04995561356927E-02 
1979	 2.88024825369463E-02 
1980	 2.34796284593653E-02 
1981	 2.50332863514848E-02 
1982	 2.14451165381508E-02 
1983	 0.019174765793077 
1984	 2.04517947383837E-02 
1985	 1.43776686702191E-02 
1986	 1.50579399810275E-02 
1987	 2.18513257248557E-02 
1988	 2.48310540030677E-02 
1989	 2.43364076438666E-02 
1990	 2.43957443813926E-02 
1991	 2.61840435949322E-02 
1992	 0.030630117319268 
1993	 3.95036552355181E-02 
1994	 4.25910671884836E-02 
1995	 4.39604837870593E-02 
1996	 4.06248030531194E-02 
1997	 3.70754011566446E-02 
1998	 3.16208396353882E-02 
1999	 2.74270263821634E-02 
2000	 2.53927471963892E-02 
2001	 2.62386435922828E-02 
2002	 2.22525516275002E-02 
2003	 3.41869975877132E-02 
2004	 5.80719728119326E-02 
2005	 5.76332885895335E-02 
2006	 5.67905245865639E-02 
2007	 5.19971013227787E-02 
2008	 3.99228171666645E-02 
2009	 3.57345803148003E-02 
2010	 4.13109018555836E-02 
2011	 4.25289612423434E-02 
2012	 4.52527640529278E-02 
2013	 4.30120856187252E-02 
2014	 4.05466580660659E-02 
2015	 4.28095910296457E-02 
2016	 4.42242566597675E-02 
2017	 4.72955635531957E-02 
2018	 4.60315101282956E-02 
2019	 3.77101480181286E-02 
2020	 0.03587355848028 
2021	 3.29157198122183E-02 
2022	 2.67490748478849E-02 
2023	 2.71540631572084E-02 
2024	 2.73582456358181E-02 
2025	 2.59154373037754E-02 
2026	 2.49512525902005E-02 
2027	 2.62950900666416E-02 
2028	 2.67403165764154E-02 
2029	 2.48466063150526E-02 
2030	 2.52248194980427E-02 
2031	 2.49002584470389E-02 
2032	 2.55695184793214E-02 
2033	 2.63562556996926E-02 
2034	 2.36293513259821E-02 
2035	 2.14290694738348E-02 
2036	 2.16604018137073E-02 
2037	 2.09330216416703E-02 
2038	 2.13557207275746E-02 
2039	 2.25235005532431E-02 
2040	 2.49949984660358E-02 
2041	 2.57670384113488E-02 
2042	 2.65864448738895E-02 
2043	 2.78866218345894E-02 
2044	 2.94823260531977E-02 
2045	 3.08768966343442E-02 
2046	 2.74362123172278E-02 
2047	 2.67357127205694E-02 
2048	 2.79954804317859E-02 
2049	 2.63693656334268E-02 
2050	 3.04235895297747E-02 
2051	 3.33973011943491E-02 
2052	 3.15515883034087E-02 
2053	 3.28049748421431E-02 
2054	 3.49106386290768E-02 
2055	 3.41679209480973E-02 
2056	 3.23278911173255E-02 
2057	 0.028158992003853 
2058	 2.48814097186004E-02 
2059	 1.76323270678882E-02 
2060	 1.74640261954027E-02 
2061	 2.20493205584564E-02 
2062	 2.42095831290936E-02 
2063	 2.65416223248563E-02 
2064	 3.20566698139701E-02 
2065	 3.42611234902128E-02 
2066	 3.53673334645847E-02 
2067	 3.79103399273168E-02 
2068	 3.79474772398169E-02 
2069	 3.40895789867665E-02 
2070	 0.030582710279387 
2071	 2.75348234811903E-02 
2072	 2.81976636549818E-02 
2073	 2.90008207611571E-02 
2074	 3.06507949866719E-02 
2075	 3.18593251033071E-02 
2076	 3.59861345955786E-02 
2077	 3.51655740548577E-02 
2078	 3.22772570492057E-02 
2079	 3.05193883797222E-02 
2080	 2.76974107736912E-02 
2081	 2.21029161583495E-02 
2082	 1.98459725968967E-02 
2083	 2.13868943019718E-02 
2084	 2.42829170580006E-02 
2085	 2.42471823280573E-02 
2086	 2.17873655346212E-02 
2087	 2.08593760803824E-02 
2088	 1.82163309923773E-02 
2089	 0.018212676610816 
2090	 1.99174599888595E-02 
2091	 1.79355579215547E-02 
2092	 1.90043021354617E-02 
2093	 2.10223528613326E-02 
2094	 2.18052566698071E-02 
2095	 2.47507353602856E-02 
2096	 2.61047378754421E-02 
2097	 2.44323604631328E-02 
2098	 2.39931047977012E-02 
2099	 2.38727049238033E-02 
2100	 0.024500052060493 
2101	 2.56430514191978E-02 
2102	 2.65572594881788E-02 
2103	 2.81572538552817E-02 
2104	 2.88385196528535E-02 
2105	 0.029306364339962 
2106	 2.91531618077855E-02 
2107	 2.79264306935835E-02 
2108	 2.67082801346295E-02 
2109	 2.31700037798437E-02 
2110	 2.24273287526694E-02 
2111	 2.11925525300137E-02 
2112	 1.84775696240441E-02 
2113	 1.89747999658905E-02 
2114	 2.10418604307825E-02 
2115	 2.21521594296601E-02 
2116	 2.67994715794781E-02 
2117	 0.028590682008798 
2118	 2.80118941351748E-02 
2119	 0.028107449942235 
2120	 2.83924560054199E-02 
2121	 2.65064372797745E-02 
2122	 2.31867021472791E-02 
2123	 2.33931678344851E-02 
2124	 2.17509729902666E-02 
2125	 0.019018222739137 
2126	 2.06852199442264E-02 
2127	 2.05736828436077E-02 
2128	 2.15040335631577E-02 
2129	 2.36582939819706E-02 
2130	 2.37080277577668E-02 
2131	 2.43365635651976E-02 
2132	 2.33517964062669E-02 
2133	 2.31015140424783E-02 
2134	 2.36219775854252E-02 
2135	 2.49681155966668E-02 
2136	 2.47753908032254E-02 
2137	 2.42902808946146E-02 
2138	 2.47130406150406E-02 
2139	 2.49332610203499E-02 
2140	 2.53296453566799E-02 
2141	 2.71525400351832E-02 
2142	 2.75943651732881E-02 
2143	 0.027090660561133 
2144	 0.026296216530762 
2145	 2.40276165731988E-02 
2146	 2.22641226602023E-02 
2147	 2.20124178092676E-02 
2148	 2.00717381765901E-02 
2149	 2.19549531023001E-02 
2150	 2.41704275581992E-02 
2151	 2.52325280623308E-02 
2152	 2.83288899670282E-02 
2153	 2.65382552354565E-02 
2154	 2.44499827571806E-02 
2155	 2.29616608815438E-02 
2156	 1.97324833848147E-02 
2157	 2.01292635810101E-02 
2158	 2.46872226707933E-02 
2159	 2.75426055509864E-02 
2160	 3.24102105141489E-02 
2161	 3.32521323022887E-02 
2162	 3.20388835916067E-02 
2163	 3.01099917634046E-02 
2164	 2.48170156918782E-02 
2165	 2.21843138223164E-02 
2166	 1.88597745935062E-02 
2167	 1.87662589010027E-02 
2168	 2.29690612763141E-02 
2169	 2.39268412670308E-02 
2170	 0.025695523523225 
2171	 2.61825589676336E-02 
2172	 2.37369077895008E-02 
2173	 0.019693330219206 
2174	 2.03324058545347E-02 
2175	 0.023883549639495 
2176	 2.48696719218305E-02 
2177	 2.47562061308882E-02 
2178	 2.52690744871588E-02 
2179	 2.32794618009734E-02 
2180	 2.24088707536736E-02 
2181	 2.52786661034198E-02 
2182	 2.45963276914503E-02 
2183	 2.18715026732696E-02 
2184	 2.15537630459934E-02 
2185	 2.23180776373694E-02 
2186	 2.30219653622319E-02 
2187	 2.50649958379545E-02 
2188	 2.64079482712312E-02 
2189	 2.71479934906113E-02 
2190	 0.027951344285361 
2191	 3.01170453431639E-02 
2192	 3.11857875156729E-02 
2193	 3.18460687383463E-02 
2194	 3.05225531232723E-02 
2195	 2.69395594557731E-02 
2196	 2.51119526340008E-02 
2197	 2.14952363301304E-02 
2198	 2.02593493694027E-02 
2199	 2.29168852179864E-02 
2200	 2.14258670766773E-02 
2201	 1.95140044971988E-02 
2202	 0.023828654073758 
2203	 2.86110231572714E-02 
2204	 3.01272778706628E-02 
2205	 3.09522380950513E-02 
2206	 3.25113796801721E-02 
2207	 3.15337119587985E-02 
2208	 3.23858888460587E-02 
2209	 3.43135486316293E-02 
2210	 3.31273662747431E-02 
2211	 3.13753085660423E-02 
2212	 2.82923919881199E-02 
2213	 2.66934832594338E-02 
2214	 2.47123121109333E-02 
2215	 2.18034337015356E-02 
2216	 2.19429759303017E-02 
2217	 2.15709658711766E-02 
2218	 1.93574045946334E-02 
2219	 2.14366368933692E-02 
2220	 2.76908424290001E-02 
2221	 3.15034851361656E-02 
2222	 3.98176461988717E-02 
2223	 3.86834282561016E-02 
2224	 3.03637742353094E-02 
2225	 0.025265754610993 
2226	 1.59312694109325E-02 
2227	 1.06478268234794E-02 
2228	 6.53882224227833E-03 
2229	 6.28138174368121E-03 
2230	 7.00485268778624E-03 
2231	 9.05122184146652E-03 
2232	 2.01854781046969E-02 
2233	 2.50544387977403E-02 
2234	 2.72931654285298E-02 
2235	 2.79040419383424E-02 
2236	 2.71465473415037E-02 
2237	 2.49652299630471E-02 
2238	 2.10055584735428E-02 
2239	 2.22525224845956E-02 
2240	 2.53761129143277E-02 
2241	 2.36827534125226E-02 
2242	 2.37004877293117E-02 
2243	 2.24862581908816E-02 
2244	 2.26091456799912E-02 
2245	 2.14554223278435E-02 
2246	 2.21992711493613E-02 
2247	 2.49375000976809E-02 
2248	 2.15030480986666E-02 
2249	 2.20554278581471E-02 
2250	 1.92733276191617E-02 
2251	 1.66514819372768E-02 
2252	 2.12900080816794E-02 
2253	 1.96136159187728E-02 
2254	 1.56588467034976E-02 
2255	 1.69765602436714E-02 
2256	 0.015990867242504 
2257	 1.13141304193897E-02 
2258	 1.16880807319966E-02 
2259	 1.32513439003907E-02 
2260	 1.65220244838033E-02 
2261	 2.48057942495861E-02 
2262	 2.62217964464793E-02 
2263	 2.67873057055498E-02 
2264	 2.63667797429018E-02 
2265	 1.68610379357117E-02 
2266	 1.48762023821746E-02 
2267	 1.99190046501595E-02 
2268	 0.019799811790748 
2269	 1.87019160978739E-02 
2270	 1.96471883026014E-02 
2271	 1.89788057043362E-02 
2272	 1.88667130841463E-02 
2273	 1.99994117425407E-02 
2274	 2.38209651095241E-02 
2275	 3.11532489228384E-02 
2276	 3.21334075232985E-02 
2277	 2.94684484219123E-02 
2278	 2.88125976154411E-02 
2279	 2.87923983276468E-02 
2280	 2.66254228579253E-02 
2281	 2.27190774096379E-02 
2282	 2.60452796003789E-02 
2283	 2.14711512887167E-02 
2284	 1.11574528578364E-02 
2285	 0.015870514914189 
2286	 1.67195408940627E-02 
2287	 1.47063437685293E-02 
2288	 1.04948140778798E-02 
2289	 1.98879328993626E-05 
2290	-9.32756724177802E-03 
2291	-9.93097039140866E-03 
2292	-7.71687396631313E-03 
2293	-0.010030417046641 
2294	-4.9571264813304E-03 
2295	-2.75471922178722E-03 
2296	-5.14961122014299E-03 
2297	 4.19101801873236E-03 
2298	 7.69514489612895E-03 
2299	 7.39811217173757E-04 
2300	 6.62252120956951E-03 
2301	 7.73095729618316E-03 
2302	 5.16342871495386E-03 
2303	 2.00956336374538E-02 
2304	 2.68827082732387E-02 
2305	 3.08711192738953E-02 
2306	 3.69650277267531E-02 
2307	 0.027348371213073 
2308	 2.48886584110787E-02 
2309	 2.30781916642422E-02 
2310	 1.71301913040348E-02 
2311	 2.59958706562884E-02 
2312	 2.88161378594632E-02 
2313	 2.88149933022398E-02 
2314	 3.09623950009707E-02 
2315	 2.89363531086021E-02 
2316	 3.68599624585301E-02 
2317	 4.98692185805454E-02 
2318	 5.76935500132828E-02 
2319	 6.21751972729301E-02 
2320	 6.39938342911498E-02 
2321	 0.046727772123962 
2322	 2.86358991113478E-02 
2323	 3.48279931584076E-02 
2324	 3.14601449377224E-02 
2325	 2.01880056923304E-02 
2326	 2.63627374768878E-02 
2327	 1.32521606434853E-02 
2328	-2.71670093216616E-03 
2329	 7.46036637609052E-03 
2330	 1.67290976813584E-02 
2331	 2.72299668179565E-02 
2332	 3.13750941524851E-02 
2333	 2.53957557466406E-02 
2334	 2.07476874524139E-02 
2335	 1.97697401352006E-02 
2336	 2.02727773171887E-02 
2337	 2.11066063370428E-02 
2338	 2.02106258933573E-02 
2339	 2.36515335310077E-02 
2340	 3.98486491966252E-02 
2341	 6.48103176181823E-02 
2342	 7.84031032569598E-02 
2343	 7.46956851392953E-02 
2344	 0.070379948199058 
2345	 4.93010892344866E-02 
2346	 3.29470390637764E-02 
2347	 2.28843415917588E-02 
2348	-5.08084786656546E-03 
2349	-2.86387346445231E-02 
2350	-3.54965005454084E-02 
2351	-2.56831424320228E-02 
2352	-3.51492012233092E-03 
2353	 4.74662081543212E-02 
2354	 8.93936472559887E-02 
2355	 8.07275481678606E-02 
2356	 5.90335780217364E-02 
2357	 5.27347441850432E-03 
2358	-4.37354356176219E-02 
2359	-4.92202260753455E-02 
2360	-4.45020955340999E-02 
2361	-2.73721358419035E-02 
2362	 1.02710017467955E-02 
2363	 0.056588461925699 
2364	 5.93011458669793E-02 
2365	 4.31708462918505E-02 
2366	 2.50940590958655E-02 
2367	-1.62571657164966E-02 
2368	-1.45402420907825E-02 
2369	 2.38300592316099E-02 
2370	 4.65105487990608E-02 
2371	 2.68839443553229E-02 
2372	 3.05847320901606E-03 
2373	-3.15266170394723E-05 
2374	 1.61078721479277E-03 
2375	 3.40343988742691E-02 
2376	 8.38660550644251E-02 
2377	 0.105428008790731 
2378	 8.70583461136641E-02 
2379	 8.10977975958708E-02 
2380	 4.02257416879667E-02 
2381	-3.80127596877931E-02 
2382	-5.34596983303983E-02 
2383	-3.81263457287697E-02 
2384	 2.72649575054374E-02 
2385	 8.36432295090963E-02 
2386	 0.100484984723746 
2387	 0.113846092838778 
2388	 5.98874508616842E-02 
2389	 4.11676618746796E-02 
2390	 7.02527849270015E-02 
2391	 1.70530008237889E-02 
2392	-6.76041227755151E-03 
2393	 4.57406358414061E-02 
2394	-1.91526464211638E-02 
2395	-9.13970803505266E-02 
2396	-7.04280726496394E-02 
2397	-0.12726577959031 
2398	-4.76174569021443E-02 
2399	 0.163952749128671 
2400	 0.242556116714118 
2401	 0.305808573145188 
2402	 0.258186300366202 
2403	-6.72871043169907E-03 
2404	-0.12310134250069 
2405	-0.124472478795473 
2406	-0.138482337484119 
2407	-3.15829123911173E-02 
2408	 8.88304180635923E-02 
2409	 4.61978054643611E-02 
2410	 6.25290136649577E-02 
2411	 4.32601234012411E-02 
2412	-0.142340333621194 
2413	-0.212467639687319 
2414	 1.52483587438765E-02 
2415	 0.396716017333847 
2416	 0.741280645360039 
2417	 0.707924082835428 
2418	 0.535492610792151 
2419	 0.388071865014335 
2420	 0.229169798063647 
2421	 0.157052019958881 
2422	 8.32942051284623E-02 
2423	-8.44974139600652E-02 
2424	-0.176230218288331 
2425	-0.147121205081271 
2426	-2.42995482113967E-02 
2427	-8.17763377377644E-03 
2428	 1.09960494267476E-02 
2429	-2.98845446997798E-02 
2430	-0.120843651069206 
2431	-0.169417940147607 
2432	-0.067989434285503 
2433	 0.111160483505021 
2434	 0.193619121555953 
2435	 0.264433306263819 
2436	 0.251567008624573 
2437	-4.41430141509126E-02 
2438	 6.29234442167019E-03 
2439	 0.302253789736188 
2440	 0.304709270662691 
2441	 0.235108136707407 
2442	 0.2289288602936 
2443	 2.26539093928799E-02 
2444	-0.216771254909588 
2445	 0.120476431067596 
2446	 0.182746719884805 
2447	 8.27345747042437E-02 
2448	 5.49377109813596E-02 
2449	 5.69500793473042E-02 
2450	 6.93998383393302E-02 
2451	-0.108782179664999 
2452	-0.259021930412043 
2453	-8.86994128811565E-02 
2454	-1.30021875011504 
2455	-1.38382767082289 
2456	-0.287258940865626 
2457	-0.249146049558067 
2458	-0.293598551275768 
2459	 0.135448083501793 
2460	 9.26728524145461E-02 
2461	-0.762937635676 
2462	-0.654174929848879 
2463	-0.738334899558788 
2464	-1.03322433144305 
2465	-0.916913872635914 
2466	-1.24000420502365 
2467	-1.07895237748513 
2468	-0.899548097345877 
2469	-1.30946035825393 
2470	-1.26693503542852 
2471	-1.34178560376386 
2472	-3.96366582502338 
2473	 1.84428116548085 
2474	 1.89658386318754 
2475	 0.931013136541834 
2476	 0.400783712208635 
2477	-1.42338807628386 
2478	 1.45980912288389 
2479	 0.975935465492901 
2480	 0.436666322761076 
2481	-0.651093966938094 
2482	 1.10231507848585 
2483	-4.1893571082851 
2484	-1.26955520111394 
2485	-1.80738423704826 
2486	-1.19895585174551 
2487	-3.47218789924231 
2488	 10.6250864358451 
2489	-17.9699868020959 
2490	-9.53379756607705 
2491	 4.25944114951074 
2492	 2.81137788323747 
2493	 0.778216542276267 
2494	 1.79256833220543 
2495	 12.0377076933115 
2496	 29.6298580525515 
2497	-29.4869619069769 
2498	-4.86395222521415 
2499	 4.73983952657098 
2500	 1.54807173438463 
