Wavelength	rt0622close00005.asd
350	 1.73264238234917E-02 
351	 1.82669494999323E-02 
352	 1.75649818117429E-02 
353	 1.71364693840241E-02 
354	 1.80183942867732E-02 
355	 1.78745320896729E-02 
356	 1.82744129937567E-02 
357	 0.018606114581769 
358	 1.81464362037766E-02 
359	 1.86263108318002E-02 
360	 1.87620498898658E-02 
361	 0.018619304973419 
362	 1.90940121892669E-02 
363	 0.018853659484737 
364	 1.86108645847239E-02 
365	 1.88630905597024E-02 
366	 1.94144225136355E-02 
367	 1.96770615705032E-02 
368	 1.98801139045543E-02 
369	 2.02734756022049E-02 
370	 2.03057197796632E-02 
371	 2.03367532963952E-02 
372	 2.03983358338874E-02 
373	 2.03738465702096E-02 
374	 2.06912551740574E-02 
375	 2.09764795213883E-02 
376	 2.10744200706182E-02 
377	 2.12479879433586E-02 
378	 2.13746875974596E-02 
379	 2.15875013551556E-02 
380	 2.20060499636416E-02 
381	 2.25683125035737E-02 
382	 2.29261610406612E-02 
383	 2.31913296472985E-02 
384	 2.35832537808707E-02 
385	 2.32804651829914E-02 
386	 2.32371208511283E-02 
387	 2.35794430742137E-02 
388	 0.023401327194118 
389	 2.36971919438017E-02 
390	 2.41457312946903E-02 
391	 2.44420813772543E-02 
392	 2.50250718630078E-02 
393	 2.51501411111183E-02 
394	 2.50559176321669E-02 
395	 0.025252287113361 
396	 2.55198502250026E-02 
397	 2.57217921653369E-02 
398	 2.57874092926036E-02 
399	 2.57261342875771E-02 
400	 2.62082024334065E-02 
401	 2.64367681025562E-02 
402	 2.61164874727927E-02 
403	 2.65388812079579E-02 
404	 0.027117031333625 
405	 2.73337857159749E-02 
406	 2.69775360173978E-02 
407	 2.74554996720344E-02 
408	 2.77081130244014E-02 
409	 2.75926875740493E-02 
410	 2.79666371583381E-02 
411	 2.81206061211859E-02 
412	 0.02824290206834 
413	 2.85309533796517E-02 
414	 2.88324075728307E-02 
415	 2.90204336911262E-02 
416	 2.91943719653458E-02 
417	 2.95095672758385E-02 
418	 2.98038879709058E-02 
419	 3.01191633830326E-02 
420	 0.030407419555092 
421	 3.05212743718719E-02 
422	 3.07448501115949E-02 
423	 3.10832351550984E-02 
424	 3.14303246866313E-02 
425	 0.031541008383936 
426	 3.17254401158551E-02 
427	 3.21010311563988E-02 
428	 3.26264849322064E-02 
429	 3.29322509262082E-02 
430	 3.32900133882082E-02 
431	 3.37405159732806E-02 
432	 3.39881841300278E-02 
433	 3.43767753691474E-02 
434	 3.47711145403299E-02 
435	 3.50687966892396E-02 
436	 3.56108511355301E-02 
437	 3.60086341887184E-02 
438	 3.62580462508641E-02 
439	 3.65668582161369E-02 
440	 3.69670422507937E-02 
441	 3.72854282832578E-02 
442	 0.03753087917396 
443	 3.80168320946745E-02 
444	 3.83958800520178E-02 
445	 3.87063039405019E-02 
446	 3.90514657160826E-02 
447	 0.039347693758279 
448	 3.96549424795456E-02 
449	 3.99262600009105E-02 
450	 4.00680481681865E-02 
451	 4.04669751678146E-02 
452	 4.07567541630208E-02 
453	 4.07759346550708E-02 
454	 4.09870966847935E-02 
455	 4.13677395438598E-02 
456	 4.16784851855559E-02 
457	 4.17032040226689E-02 
458	 4.18789894551903E-02 
459	 4.20029705240689E-02 
460	 4.20935261205595E-02 
461	 4.23990161000776E-02 
462	 4.24592945194332E-02 
463	 4.25639022848447E-02 
464	 4.29247825006082E-02 
465	 4.31384720673065E-02 
466	 4.31994596799169E-02 
467	 4.32770428497308E-02 
468	 4.35710668628331E-02 
469	 4.37090242326791E-02 
470	 4.38249627465393E-02 
471	 4.39726881304737E-02 
472	 4.40329690128059E-02 
473	 4.43354054909206E-02 
474	 0.044694548832759 
475	 4.48784545772008E-02 
476	 4.49884146936413E-02 
477	 4.52225532927527E-02 
478	 4.55578686646302E-02 
479	 4.58247596790867E-02 
480	 4.60812608352801E-02 
481	 0.046337053753314 
482	 4.66357513063307E-02 
483	 4.71284317926264E-02 
484	 4.72731192361284E-02 
485	 4.73823227601912E-02 
486	 0.047906026684331 
487	 4.81397535790079E-02 
488	 4.83924278727265E-02 
489	 4.88211741375075E-02 
490	 4.93730048800623E-02 
491	 4.97873366718671E-02 
492	 5.01546129257322E-02 
493	 5.05702387544759E-02 
494	 0.050925068941858 
495	 5.13935978051717E-02 
496	 5.18268026520439E-02 
497	 5.19978021229146E-02 
498	 5.25019193034438E-02 
499	 5.30754110397105E-02 
500	 5.35437825659572E-02 
501	 5.40094367006839E-02 
502	 5.45674384265003E-02 
503	 5.51322759509238E-02 
504	 5.55987040810104E-02 
505	 5.60046274135406E-02 
506	 5.64584422337526E-02 
507	 5.69998165616964E-02 
508	 5.75985476122228E-02 
509	 5.81002277740865E-02 
510	 5.85404478486867E-02 
511	 5.90106244057541E-02 
512	 5.96803802198068E-02 
513	 6.02116529886167E-02 
514	 6.06941321493306E-02 
515	 6.13652700144622E-02 
516	 6.20682176066214E-02 
517	 6.27052277616533E-02 
518	 6.32734676910425E-02 
519	 6.38815470738976E-02 
520	 6.44978575164948E-02 
521	 6.51997085207823E-02 
522	 6.59912491996721E-02 
523	 6.65124889734912E-02 
524	 6.71783712349742E-02 
525	 6.79634089563208E-02 
526	 6.85564848517866E-02 
527	 6.92405947830361E-02 
528	 6.99977534104205E-02 
529	 7.07643560326447E-02 
530	 7.14674527090896E-02 
531	 7.22947379597648E-02 
532	 7.30779930183769E-02 
533	 7.36320401398441E-02 
534	 7.45448722565325E-02 
535	 7.53710747256848E-02 
536	 7.60023390366972E-02 
537	 7.67751744467369E-02 
538	 7.76854566838834E-02 
539	 7.85587820244862E-02 
540	 7.92784899773489E-02 
541	 8.00678489988519E-02 
542	 0.080923440765876 
543	 8.17689228936177E-02 
544	 8.25062848338332E-02 
545	 8.32822149516044E-02 
546	 8.41803330168856E-02 
547	 8.51200498328605E-02 
548	 8.57089780870622E-02 
549	 0.086465464069953 
550	 8.73491779124799E-02 
551	 8.81556521288213E-02 
552	 0.088983177337772 
553	 8.97586490376434E-02 
554	 9.04738655826659E-02 
555	 9.11980228235907E-02 
556	 9.20171871602702E-02 
557	 9.28727945152669E-02 
558	 9.36653571878416E-02 
559	 9.43171580912214E-02 
560	 9.50577937610428E-02 
561	 9.58168721875412E-02 
562	 9.63754832996663E-02 
563	 9.70513326336373E-02 
564	 9.77547202062379E-02 
565	 9.83829210289398E-02 
566	 0.098908964130524 
567	 9.94574763917753E-02 
568	 0.100002830669417 
569	 0.100475818404452 
570	 0.100926679291448 
571	 0.101382821812817 
572	 0.101834051302864 
573	 0.102231208499446 
574	 0.10261425149345 
575	 0.102994557340545 
576	 0.10335364613703 
577	 0.103603896869779 
578	 0.103852079292443 
579	 0.104165928125325 
580	 0.104548715657257 
581	 0.104661123786385 
582	 0.104769258770335 
583	 0.104960332862906 
584	 0.104831694932075 
585	 0.104918979576754 
586	 0.105024452138241 
587	 0.104779844195402 
588	 0.104551956799496 
589	 0.104408261647357 
590	 0.104334513554538 
591	 0.104237489184253 
592	 0.10410247061161 
593	 0.103920385462586 
594	 0.10366505629487 
595	 0.103241103531475 
596	 0.102680595016461 
597	 0.102079242271499 
598	 0.101564052732294 
599	 0.10116073615927 
600	 0.100642746999448 
601	 0.100074186109512 
602	 0.100091004927038 
603	 9.98399498639599E-02 
604	 9.95735366527884E-02 
605	 9.97380573429565E-02 
606	 9.98067517259459E-02 
607	 9.98762374164663E-02 
608	 9.99873795710163E-02 
609	 0.100093109416214 
610	 0.10011209754035 
611	 0.100100086361603 
612	 0.100117566285433 
613	 0.100137747519433 
614	 0.10021641643536 
615	 0.100253585368058 
616	 0.100122577227408 
617	 0.1002895227781 
618	 0.100504182244627 
619	 0.100556064246695 
620	 0.100409333840969 
621	 0.100360968713705 
622	 0.100461617291039 
623	 0.10061956382206 
624	 0.100545533750992 
625	 0.100426336724785 
626	 0.100373354159269 
627	 0.100393512193313 
628	 0.100233695968534 
629	 0.100160663774194 
630	 0.100349117833254 
631	 0.10049932057133 
632	 0.100526161022623 
633	 0.100489351291652 
634	 0.100507606514256 
635	 0.100451234505786 
636	 0.100463280324206 
637	 0.100576189917363 
638	 0.10063665889824 
639	 0.100621140171282 
640	 0.100599398392103 
641	 0.100600111734607 
642	 0.100314435025647 
643	 0.100235878813043 
644	 0.100355351464504 
645	 0.100251575496617 
646	 0.100097409296247 
647	 9.99675301670089E-02 
648	 9.98946961575267E-02 
649	 9.98473085108088E-02 
650	 0.099699103693527 
651	 9.94988094624181E-02 
652	 9.93664987550154E-02 
653	 9.93740253589473E-02 
654	 9.90000322828085E-02 
655	 9.81994175259328E-02 
656	 9.77513917147523E-02 
657	 9.73869465882941E-02 
658	 9.71324517728159E-02 
659	 9.69784790714577E-02 
660	 9.66380714691068E-02 
661	 9.64608780176525E-02 
662	 9.64118577359516E-02 
663	 9.62406481397997E-02 
664	 9.61300820399534E-02 
665	 9.60752854925432E-02 
666	 9.60365286179641E-02 
667	 9.59575829797916E-02 
668	 9.58227119083204E-02 
669	 9.58010106377669E-02 
670	 9.60042253374999E-02 
671	 9.59672209188093E-02 
672	 9.57747132991114E-02 
673	 9.56195536957097E-02 
674	 9.57424582858314E-02 
675	 0.095815874207539 
676	 9.58179475566902E-02 
677	 9.58184291380875E-02 
678	 9.59665999392778E-02 
679	 9.60974800609765E-02 
680	 9.61820638041181E-02 
681	 9.62617162400022E-02 
682	 9.63940323629786E-02 
683	 9.65173877924916E-02 
684	 9.65533906861483E-02 
685	 9.64059204796805E-02 
686	 9.61211330956687E-02 
687	 9.59557631815004E-02 
688	 9.60485990822182E-02 
689	 9.59341315098447E-02 
690	 9.57497275428611E-02 
691	 9.54602481767353E-02 
692	 0.094964377824472 
693	 9.47350473167873E-02 
694	 9.43692924712492E-02 
695	 9.37766189683979E-02 
696	 9.35002526122987E-02 
697	 9.29304957293314E-02 
698	 9.20839509939804E-02 
699	 9.12209444795164E-02 
700	 9.04648541546819E-02 
701	 8.97967477037634E-02 
702	 8.91127803978461E-02 
703	 8.82426344215327E-02 
704	 8.72298686417912E-02 
705	 8.62917923693058E-02 
706	 8.54726581903894E-02 
707	 8.43018181245834E-02 
708	 8.31087041114996E-02 
709	 8.18381962872857E-02 
710	 8.03689953108753E-02 
711	 0.07900363116626 
712	 7.74464530174984E-02 
713	 7.56104197241212E-02 
714	 7.36189839096218E-02 
715	 7.17136390224347E-02 
716	 6.96330918455914E-02 
717	 0.067316669330919 
718	 6.52284330609627E-02 
719	 6.31985537683713E-02 
720	 6.15320407274015E-02 
721	 6.00971551154574E-02 
722	 0.058246372060766 
723	 5.61073106290079E-02 
724	 5.40419306836045E-02 
725	 5.18921178136821E-02 
726	 4.99062595159815E-02 
727	 4.78283976246029E-02 
728	 4.54093823466163E-02 
729	 4.26105456244511E-02 
730	 4.00075651372214E-02 
731	 3.77410944490472E-02 
732	 3.55988702453086E-02 
733	 3.40621298650973E-02 
734	 3.26386641708946E-02 
735	 0.031234184629774 
736	 3.03005113440712E-02 
737	 2.95387511446054E-02 
738	 0.028979557328659 
739	 0.028650130822345 
740	 2.83057780160944E-02 
741	 2.80033948861019E-02 
742	 2.77872491619736E-02 
743	 2.76851683182983E-02 
744	 2.76945139748522E-02 
745	 0.027594678811093 
746	 2.73761058694019E-02 
747	 0.027330259092426 
748	 2.74452429755042E-02 
749	 2.75497928866773E-02 
750	 2.74948693159049E-02 
751	 2.73512880980758E-02 
752	 2.72779540347173E-02 
753	 2.72830777212376E-02 
754	 2.72963093292508E-02 
755	 0.027414331358588 
756	 2.74672606358388E-02 
757	 2.74118217158631E-02 
758	 2.74150688200134E-02 
759	 2.72142816873054E-02 
760	 2.69505087055073E-02 
761	 2.71069981552926E-02 
762	 2.72698277664561E-02 
763	 2.73750700340404E-02 
764	 2.75754685417726E-02 
765	 2.79387795158187E-02 
766	 2.79311045783631E-02 
767	 2.79397260858152E-02 
768	 2.81178201307619E-02 
769	 2.84110425367999E-02 
770	 2.86426165011783E-02 
771	 2.87639181427465E-02 
772	 2.88393803200681E-02 
773	 2.91520132760368E-02 
774	 2.94317026057416E-02 
775	 2.96753291303078E-02 
776	 2.99761180104895E-02 
777	 3.02300517221912E-02 
778	 3.04732208613705E-02 
779	 3.08177305481224E-02 
780	 3.14073508850263E-02 
781	 3.17227731233704E-02 
782	 3.18447226745937E-02 
783	 3.20297619194278E-02 
784	 3.26932159692788E-02 
785	 3.31036507278225E-02 
786	 3.33387377599159E-02 
787	 3.37186710767635E-02 
788	 3.40834306847349E-02 
789	 3.45986326865289E-02 
790	 3.51902264143258E-02 
791	 3.56109856738718E-02 
792	 3.59134731538015E-02 
793	 0.036366819940253 
794	 3.70147101493309E-02 
795	 3.74713524337823E-02 
796	 3.79299675907333E-02 
797	 3.82509187762063E-02 
798	 3.84055635056843E-02 
799	 3.89827453282499E-02 
800	 3.93785757275896E-02 
801	 3.96327114379221E-02 
802	 4.00991436053173E-02 
803	 4.04092269392118E-02 
804	 4.05669254202899E-02 
805	 4.06701082808169E-02 
806	 4.08601521024907E-02 
807	 4.08292761940592E-02 
808	 4.07741285445286E-02 
809	 4.07922395000644E-02 
810	 4.04308532462998E-02 
811	 4.01391769950392E-02 
812	 3.97872301151938E-02 
813	 0.0391168549034 
814	 3.87309951378252E-02 
815	 3.84880067323752E-02 
816	 3.81375886565851E-02 
817	 3.74829774152947E-02 
818	 3.70164686808703E-02 
819	 3.63712959818747E-02 
820	 3.55825175840093E-02 
821	 3.53214461886074E-02 
822	 3.40660295823244E-02 
823	 3.23436196581441E-02 
824	 3.09098921034241E-02 
825	 2.93447878236152E-02 
826	 2.80132978031533E-02 
827	 2.65573419904557E-02 
828	 0.02466957913375 
829	 2.34395325891916E-02 
830	 2.20431391591696E-02 
831	 2.06440090752672E-02 
832	 2.00673707634077E-02 
833	 1.90921797914195E-02 
834	 1.83453874941095E-02 
835	 1.80133913087649E-02 
836	 1.74771044073493E-02 
837	 1.68841415446071E-02 
838	 1.66424235172463E-02 
839	 1.68034136755808E-02 
840	 1.64002032735138E-02 
841	 1.57969110250172E-02 
842	 1.54887843896837E-02 
843	 1.57394401454306E-02 
844	 1.55421718937542E-02 
845	 1.49439422651371E-02 
846	 1.44868398843374E-02 
847	 1.48288215942943E-02 
848	 0.014779147993028 
849	 1.42524970133845E-02 
850	 1.36560982507884E-02 
851	 0.013775673611485 
852	 1.40897285227353E-02 
853	 1.38420119621366E-02 
854	 1.29406989430874E-02 
855	 0.012698548885287 
856	 1.28244674955594E-02 
857	 1.28612108344159E-02 
858	 1.25218388668931E-02 
859	 0.012278866887593 
860	 1.23373505630956E-02 
861	 1.24640163778636E-02 
862	 1.22707525961988E-02 
863	 1.19593867111301E-02 
864	 1.17451156165722E-02 
865	 1.16879816508758E-02 
866	 1.16424006307045E-02 
867	 1.10061867391571E-02 
868	 1.06772428598199E-02 
869	 1.08936010105906E-02 
870	 1.08056342399295E-02 
871	 1.05657683662246E-02 
872	 0.01035574041829 
873	 1.02267716358151E-02 
874	 9.88151148080941E-03 
875	 9.71133696360566E-03 
876	 9.57597025393921E-03 
877	 9.24875557053757E-03 
878	 8.76655633869789E-03 
879	 8.97593991902824E-03 
880	 9.17058667697271E-03 
881	 8.32637139646523E-03 
882	 8.14050552164764E-03 
883	 7.92643384842173E-03 
884	 7.98505113219782E-03 
885	 9.05672129750535E-03 
886	 8.44202856222368E-03 
887	 7.60338221339631E-03 
888	 7.38574061835002E-03 
889	 7.37019496164427E-03 
890	 7.78904192576675E-03 
891	 7.84858969876878E-03 
892	 7.23313154684221E-03 
893	 6.8920173132142E-03 
894	 6.98578477872307E-03 
895	 6.85823240603965E-03 
896	 6.04478868342957E-03 
897	 5.60952164407491E-03 
898	 6.55189126791234E-03 
899	 7.35954562172934E-03 
900	 6.53142973707252E-03 
901	 5.85797231751358E-03 
902	 5.02381640203721E-03 
903	 4.93598310960739E-03 
904	 6.1470593515698E-03 
905	 5.39740916858178E-03 
906	 4.7258254541731E-03 
907	 4.72973376347609E-03 
908	 4.81935691969817E-03 
909	 5.04991348812583E-03 
910	 4.85967492830875E-03 
911	 4.23066535260404E-03 
912	 3.72585108001111E-03 
913	 3.99894961022817E-03 
914	 4.39003239915703E-03 
915	 4.2132116074068E-03 
916	 3.26646570079327E-03 
917	 3.8869415071315E-03 
918	 4.34091962915513E-03 
919	 3.62457320341332E-03 
920	 2.48457796887395E-03 
921	 3.58154431601678E-03 
922	 4.47268279696362E-03 
923	 3.18157531557346E-03 
924	 8.02731818487267E-04 
925	 2.87921998252626E-03 
926	 4.82361010457994E-03 
927	 1.68589363117479E-03 
928	 1.52638247179735E-03 
929	 1.82405062865004E-03 
930	 1.54041225423951E-03 
931	 2.87110503686627E-04 
932	-3.6643895967924E-04 
933	-3.11701774525751E-03 
934	-1.22266515029386E-03 
935	 8.71448211025279E-03 
936	 5.01950193027676E-03 
937	-2.71277992562412E-04 
938	-2.54448398208668E-03 
939	-1.37822926895362E-03 
940	 2.86164928242237E-03 
941	 2.63594506533701E-03 
942	-5.26069369808053E-04 
943	-9.53559077135796E-04 
944	-6.36259391895295E-04 
945	-3.31361219614351E-03 
946	-7.85498093426252E-03 
947	-1.01800678284283E-02 
948	-9.17169089007618E-03 
949	-1.74341096046292E-03 
950	 5.75566267140914E-03 
951	 4.46807359106491E-03 
952	 2.75118893554276E-03 
953	-3.36328303072307E-03 
954	-8.03862604243378E-03 
955	-1.81491564067715E-03 
956	 3.04228924313979E-03 
957	-3.47247780500876E-04 
958	-4.6951440073858E-03 
959	 2.22045052306537E-03 
960	 4.47768677444727E-03 
961	 2.14130025449946E-04 
962	-4.00478082840721E-03 
963	 3.37038665107898E-04 
964	 3.55858001810551E-03 
965	 1.29652175004439E-03 
966	-2.27994915565413E-03 
967	 5.94641372017887E-04 
968	 2.49773317889154E-03 
969	 2.72709780958708E-03 
970	 1.6847979754308E-03 
971	 6.69084475720882E-04 
972	 5.20972223320023E-03 
973	 4.8408894202525E-03 
974	 9.31333782510263E-04 
975	 5.34519491367103E-03 
976	 1.67938143846403E-03 
977	-9.43443800114703E-04 
978	 1.09321155731868E-03 
979	 3.51585890513882E-03 
980	 3.21665099722466E-03 
981	 4.27544427695127E-04 
982	-2.96453198752513E-04 
983	 5.63167093167525E-03 
984	 1.10825143883966E-03 
985	-1.47319654934426E-03 
986	 1.13316814200304E-03 
987	 2.63234859670597E-03 
988	 2.32729154452469E-04 
989	-3.05694059438378E-04 
990	 1.80444984819854E-03 
991	 2.91054969933735E-03 
992	 1.41537940535443E-03 
993	 9.70330271846352E-04 
994	 9.72529747996032E-04 
995	-1.24905261206503E-03 
996	 2.84340790115412E-05 
997	 2.63857725437157E-03 
998	 2.08813988884642E-03 
999	-3.64467895839639E-03 
1000	 8.53334987718216E-04 
1001	 4.42401772868589E-03 
1002	 4.4381973285148E-03 
1003	 4.40574126863184E-03 
1004	 4.25790377211639E-03 
1005	 3.97651195850144E-03 
1006	 3.56892804621751E-03 
1007	 2.92731464042133E-03 
1008	 3.05603040711301E-03 
1009	 3.12958535626481E-03 
1010	 3.74548739428147E-03 
1011	 4.80999768500245E-03 
1012	 5.2226474134891E-03 
1013	 5.12467560392497E-03 
1014	 4.85145369620107E-03 
1015	 3.84925628381217E-03 
1016	 3.86475827905754E-03 
1017	 4.10762103543349E-03 
1018	 4.24342229837962E-03 
1019	 5.2179940048177E-03 
1020	 5.40101513711389E-03 
1021	 5.06828763515177E-03 
1022	 4.65399523253383E-03 
1023	 3.93832654359223E-03 
1024	 3.36308214300938E-03 
1025	 3.20318477168059E-03 
1026	 3.55235266588973E-03 
1027	 4.06013541814132E-03 
1028	 5.55538367894009E-03 
1029	 5.92223599739145E-03 
1030	 5.90363264284953E-03 
1031	 5.78076228831466E-03 
1032	 5.21781418843781E-03 
1033	 4.8316244213744E-03 
1034	 4.31272707051308E-03 
1035	 4.10779612360889E-03 
1036	 3.7050411074219E-03 
1037	 3.6534993958224E-03 
1038	 4.20399792993626E-03 
1039	 0.004628683396403 
1040	 4.25524191231012E-03 
1041	 3.80361168221819E-03 
1042	 3.59797148313116E-03 
1043	 2.93323889654271E-03 
1044	 2.6944833277243E-03 
1045	 2.85066185748345E-03 
1046	 3.17379623872053E-03 
1047	 3.9470917926636E-03 
1048	 3.80667178294562E-03 
1049	 3.52475637467242E-03 
1050	 3.28349859129888E-03 
1051	 1.6986218709206E-03 
1052	 1.42944152701058E-03 
1053	 2.45064653460621E-03 
1054	 2.91191758909856E-03 
1055	 3.96846354301643E-03 
1056	 4.38693077045394E-03 
1057	 4.43595154674455E-03 
1058	 3.93986231881907E-03 
1059	 3.58859979757252E-03 
1060	 2.55464575629852E-03 
1061	 2.59411838828684E-03 
1062	 3.3413488797543E-03 
1063	 3.40866558235964E-03 
1064	 3.73252427372694E-03 
1065	 3.86532717346293E-03 
1066	 3.51162872578669E-03 
1067	 3.19709792008487E-03 
1068	 2.81144544918671E-03 
1069	 2.76870803239172E-03 
1070	 2.49391084167601E-03 
1071	 2.56527698658875E-03 
1072	 3.62898415284927E-03 
1073	 4.05685950654682E-03 
1074	 4.19962793372122E-03 
1075	 3.99862353743774E-03 
1076	 4.09478755880948E-03 
1077	 4.03994461125885E-03 
1078	 3.92783118320375E-03 
1079	 4.10067287432359E-03 
1080	 3.8786006741756E-03 
1081	 2.96630661691066E-03 
1082	 2.64575555710729E-03 
1083	 2.69516171053771E-03 
1084	 2.39080289491242E-03 
1085	 1.90611348685073E-03 
1086	 1.8921497631244E-03 
1087	 1.67346477298128E-03 
1088	 1.8405242578655E-03 
1089	 3.19051723560225E-03 
1090	 3.84757490072516E-03 
1091	 3.77609011286093E-03 
1092	 3.07332200706964E-03 
1093	 2.87725865027236E-03 
1094	 1.83574957504816E-03 
1095	 1.84727734670082E-03 
1096	 3.08524649756388E-03 
1097	 3.49605469511811E-03 
1098	 3.79269216647377E-03 
1099	 3.93729219427938E-03 
1100	 3.64229463772663E-03 
1101	 3.73104891960931E-03 
1102	 4.42269259681338E-03 
1103	 4.30376789569952E-03 
1104	 4.01921147249656E-03 
1105	 2.86128890774269E-03 
1106	 1.81299589843928E-03 
1107	 1.91565888069502E-03 
1108	 2.14361532682112E-03 
1109	 2.3063851975918E-03 
1110	 1.90170333362312E-03 
1111	-2.54387189365138E-04 
1112	-2.67283496959137E-04 
1113	 1.25942310785562E-03 
1114	 1.20218965499327E-03 
1115	 2.54643055675877E-03 
1116	 2.55850860916772E-03 
1117	-2.00939588180861E-03 
1118	-2.1402433021836E-03 
1119	 3.05446144626787E-03 
1120	 3.38794538948966E-03 
1121	 3.02830862934282E-03 
1122	 1.83740904084226E-03 
1123	-3.89459466085699E-03 
1124	-3.75680756901456E-03 
1125	 2.13704871872058E-03 
1126	 4.14241439418934E-03 
1127	 7.25340818214807E-03 
1128	 1.39694688219659E-02 
1129	 1.26929805908275E-02 
1130	 1.04325073254504E-02 
1131	 5.74973541898745E-03 
1132	-8.93865488196619E-03 
1133	-1.06328619151188E-02 
1134	-6.39515460980621E-03 
1135	-2.93469934732191E-03 
1136	 5.80660901776298E-03 
1137	 8.59432427694515E-03 
1138	 0.010845444237158 
1139	 7.44181484089998E-03 
1140	 2.48608578179784E-03 
1141	 3.8168778830789E-03 
1142	 3.39482522946865E-03 
1143	 2.79466721138747E-03 
1144	 7.97374116056063E-03 
1145	 6.37186378087952E-03 
1146	 4.01697322066538E-03 
1147	 9.97425376538123E-03 
1148	 7.02128625658481E-03 
1149	 1.8049268675118E-03 
1150	 2.59151286672389E-03 
1151	 6.12994917253811E-03 
1152	 4.48763101042474E-03 
1153	 4.24083372154007E-03 
1154	 4.19556581810257E-03 
1155	 2.00505991800942E-03 
1156	 1.21509730447957E-04 
1157	 1.71576393428524E-03 
1158	 2.75581513461873E-03 
1159	 2.35377385430917E-03 
1160	 1.93816667920616E-03 
1161	 0.001983118877837 
1162	 2.34399507825262E-03 
1163	 2.43357064452085E-03 
1164	 1.68403148337764E-03 
1165	 1.48621686535097E-03 
1166	 2.05574104129634E-03 
1167	 2.22499366323537E-03 
1168	 2.15679530392103E-03 
1169	 1.72465198253664E-03 
1170	 1.22050010260794E-03 
1171	 9.67376060824133E-04 
1172	 1.16632202597965E-03 
1173	 1.33839853477499E-03 
1174	 1.69095480296554E-03 
1175	 1.37413787691614E-03 
1176	 1.89347540611115E-03 
1177	 2.46657888307598E-03 
1178	 2.80057441088994E-03 
1179	 3.10317595721165E-03 
1180	 3.09469084137685E-03 
1181	 3.22406924865597E-03 
1182	 0.002981709917291 
1183	 2.28877191902751E-03 
1184	 2.43007825255772E-03 
1185	 2.89572631909026E-03 
1186	 3.1288643645006E-03 
1187	 3.38768617255949E-03 
1188	 2.74805566693012E-03 
1189	 2.32038733544645E-03 
1190	 2.49341223075654E-03 
1191	 2.69047387698356E-03 
1192	 2.49208216628403E-03 
1193	 2.45232188439018E-03 
1194	 1.38683701589803E-03 
1195	 9.76733454245132E-04 
1196	 1.12149296046918E-03 
1197	 1.22179129764864E-03 
1198	 1.7980070832073E-03 
1199	 1.81427245524189E-03 
1200	 1.27986367373758E-03 
1201	 1.16197909453978E-03 
1202	 1.69899987525704E-03 
1203	 1.82278707111497E-03 
1204	 1.83533641699929E-03 
1205	 2.57756406114348E-03 
1206	 2.41819168757716E-03 
1207	 1.94756915126179E-03 
1208	 2.3637569430064E-03 
1209	 2.26910892871018E-03 
1210	 1.7943319829654E-03 
1211	 1.92641099601314E-03 
1212	 1.82297646120518E-03 
1213	 1.04200516460414E-03 
1214	 9.08204425814845E-04 
1215	 1.30588782986999E-03 
1216	 1.81580723803092E-03 
1217	 1.58084422308092E-03 
1218	 1.70183808116954E-03 
1219	 2.36828977105823E-03 
1220	 2.40775945070659E-03 
1221	 1.80544402032559E-03 
1222	 1.97189060465556E-03 
1223	 2.64061935868006E-03 
1224	 2.45866786081298E-03 
1225	 2.30762791714947E-03 
1226	 2.56244623718557E-03 
1227	 2.07600096940174E-03 
1228	 1.73860082277305E-03 
1229	 2.08607344097662E-03 
1230	 2.22723828610693E-03 
1231	 2.39098981330751E-03 
1232	 2.68998243685793E-03 
1233	 2.77810702396826E-03 
1234	 2.96127051007144E-03 
1235	 3.04884643183682E-03 
1236	 2.80428398168031E-03 
1237	 2.67665860606083E-03 
1238	 2.65879476764229E-03 
1239	 2.41283312150175E-03 
1240	 2.32348857991962E-03 
1241	 2.56863205739393E-03 
1242	 2.5617784548955E-03 
1243	 2.70671614627881E-03 
1244	 2.8995686764974E-03 
1245	 2.40395900721781E-03 
1246	 2.01107397781923E-03 
1247	 2.24370314131519E-03 
1248	 2.18686863458697E-03 
1249	 1.90880675696899E-03 
1250	 1.84203349984725E-03 
1251	 1.61139874711308E-03 
1252	 1.57669882397225E-03 
1253	 2.13467143786203E-03 
1254	 2.50143747215652E-03 
1255	 2.55392181153951E-03 
1256	 2.39712398611175E-03 
1257	 1.55190204760968E-03 
1258	 1.51861955759675E-03 
1259	 1.85742416117274E-03 
1260	 1.85343636931063E-03 
1261	 2.25619434662213E-03 
1262	 2.64181869056509E-03 
1263	 2.81761330951102E-03 
1264	 2.52287185811158E-03 
1265	 2.72291254054592E-03 
1266	 3.02676600453432E-03 
1267	 2.93348728736528E-03 
1268	 2.59909795258556E-03 
1269	 2.57832717708667E-03 
1270	 2.44602581694938E-03 
1271	 2.0888209623661E-03 
1272	 2.29816084740001E-03 
1273	 2.30685863295836E-03 
1274	 1.92440148256267E-03 
1275	 1.68249606571498E-03 
1276	 1.5895817890357E-03 
1277	 1.98076026269903E-03 
1278	 2.46456449535821E-03 
1279	 2.2343222109821E-03 
1280	 1.85369876358257E-03 
1281	 1.95840756278673E-03 
1282	 2.39329338944411E-03 
1283	 2.44869201150667E-03 
1284	 2.66952465482607E-03 
1285	 2.60125018260145E-03 
1286	 1.69680189007886E-03 
1287	 1.38249442984373E-03 
1288	 1.8572556901122E-03 
1289	 1.96327855423835E-03 
1290	 1.94981260727699E-03 
1291	 1.8520177615768E-03 
1292	 2.19208266429978E-03 
1293	 2.08001775367565E-03 
1294	 2.37283703352201E-03 
1295	 2.57505990178335E-03 
1296	 2.1851148539724E-03 
1297	 2.12308125600718E-03 
1298	 1.62118307706976E-03 
1299	 1.08422456538908E-03 
1300	 1.17008211955881E-03 
1301	 1.19407170154216E-03 
1302	 1.46335915765741E-03 
1303	 1.70371276753223E-03 
1304	 1.86575768147842E-03 
1305	 1.68892109965737E-03 
1306	 1.79239996895719E-03 
1307	 2.32732469307245E-03 
1308	 2.36197131528031E-03 
1309	 1.9953474223751E-03 
1310	 1.99279499968108E-03 
1311	 1.75992412994511E-03 
1312	 1.57086510907201E-03 
1313	 1.86875579363481E-03 
1314	 2.08345953061859E-03 
1315	 1.95503410226993E-03 
1316	 2.05292064851421E-03 
1317	 2.57469539689234E-03 
1318	 2.67911617016302E-03 
1319	 2.49897308605735E-03 
1320	 2.36503693844484E-03 
1321	 2.03903297457403E-03 
1322	 2.20441725627566E-03 
1323	 1.54179657819163E-03 
1324	 5.89880079489198E-04 
1325	 9.46880326379478E-04 
1326	 9.74774948540295E-04 
1327	 8.90504879117702E-04 
1328	 2.25247964955725E-03 
1329	 3.3417592071416E-03 
1330	 3.07330215477362E-03 
1331	 1.88423695408523E-03 
1332	 5.73458132826814E-04 
1333	-5.01604707984413E-04 
1334	-1.4302178209657E-03 
1335	-8.95549537729089E-04 
1336	 3.94887431872933E-03 
1337	 4.42665235521798E-03 
1338	 2.39745362439851E-03 
1339	 2.00804974891537E-03 
1340	 1.1663398862322E-04 
1341	-4.01461702884308E-04 
1342	 1.10204611961062E-03 
1343	 2.05629781335653E-03 
1344	 4.50031213706033E-03 
1345	 4.21566265270142E-03 
1346	 3.77922033747349E-04 
1347	-4.62256173529924E-04 
1348	-4.04366704335949E-03 
1349	-7.71523813886661E-03 
1350	-2.96962174651759E-03 
1351	 9.50072052474218E-04 
1352	 7.79716613654406E-03 
1353	 4.62967697275389E-03 
1354	-2.78654399480461E-02 
1355	-4.55890637600171E-02 
1356	-6.96599693282853E-03 
1357	 4.53530557261451E-02 
1358	 0.148865195018817 
1359	 0.28762776577236 
1360	 0.128404983431133 
1361	-0.305068097312177 
1362	-0.272824029565033 
1363	 4.25626743588199E-02 
1364	-0.261965829673182 
1365	-0.787764659453265 
1366	-0.188636926304495 
1367	 0.506529200334915 
1368	 0.445603852924973 
1369	 1.09140995049171 
1370	 3.47853314165506 
1371	 2.57588376257611 
1372	 0.975843333482884 
1373	-95.0989242615641 
1374	-20.9923044990193 
1375	 0.184724149230106 
1376	-5.28822802354583E-02 
1377	 0.329056152996208 
1378	 0.505356274443615 
1379	 0.41512666917892 
1380	 0.309853608840644 
1381	 0.677357010089103 
1382	 1.91530529027862 
1383	 1.35862893333554 
1384	 0.913952831659711 
1385	 0.699439675758843 
1386	 0.789553946669342 
1387	 0.252260524704676 
1388	-3.35355121793494E-02 
1389	 0.225032789618071 
1390	 0.36259435884903 
1391	 0.153021437908385 
1392	 0.286400217057917 
1393	 0.498118940059391 
1394	 0.318862205845639 
1395	-0.144131374737922 
1396	-0.535098565608615 
1397	-0.869435186286482 
1398	-1.20499737608754 
1399	-6.52033370360283 
1400	 32.5617106955125 
1401	-0.957348475597479 
1402	-1.1517903841896 
1403	-0.732938517993748 
1404	-0.240421451686687 
1405	 8.95943072903321E-02 
1406	-18.2636035224805 
1407	 90.6576115627588 
1408	 0.371636455066997 
1409	 0.204554355067405 
1410	 0.523148672968979 
1411	 0.34023214706053 
1412	-0.191115663664129 
1413	-0.177067310272036 
1414	-0.170192484784676 
1415	-0.274768009101985 
1416	-0.186979063403447 
1417	-0.153841913399714 
1418	-0.316256646548963 
1419	-0.301015287712329 
1420	-0.15093992460733 
1421	-9.81164852144065E-02 
1422	-6.03311835576754E-02 
1423	-0.045644937142754 
1424	-5.66115087376964E-02 
1425	-3.31480356127856E-02 
1426	 2.77477150813354E-02 
1427	 1.93562220886483E-02 
1428	-5.71299995718815E-02 
1429	-2.93361999652636E-02 
1430	 6.61064257175103E-02 
1431	 0.062348301300646 
1432	 6.97405680722241E-02 
1433	 0.075590552916959 
1434	-1.39644370649218E-02 
1435	-6.33632522271296E-02 
1436	-8.00969477020742E-02 
1437	-6.39030325385278E-02 
1438	-3.10456780721768E-02 
1439	-3.77768523532845E-02 
1440	-0.049190211445877 
1441	-2.97613739907058E-02 
1442	-2.20702455638775E-02 
1443	-4.09641016736277E-02 
1444	-3.69127379595623E-02 
1445	-1.52017894534789E-02 
1446	-1.24205581776655E-02 
1447	-1.56360086833761E-02 
1448	-1.18338997717681E-03 
1449	 9.39588063602035E-03 
1450	 3.38813595093201E-03 
1451	 1.07891996251172E-03 
1452	-5.93460584999347E-04 
1453	-3.82965389088239E-03 
1454	-1.54126838388944E-03 
1455	 9.39198688754888E-03 
1456	 1.02150275477807E-02 
1457	 5.55034175131998E-03 
1458	 7.05177938587607E-03 
1459	 1.09550595098596E-02 
1460	 8.82803863469859E-03 
1461	 5.02116575991076E-03 
1462	 6.48883741824023E-03 
1463	 6.14193893184471E-03 
1464	 4.73088143678761E-03 
1465	 9.36174262522899E-03 
1466	 1.11267459546134E-02 
1467	 6.80281773604361E-03 
1468	 4.2585276316577E-03 
1469	 3.32120244118855E-03 
1470	 5.04510236942204E-03 
1471	 7.3277838426337E-03 
1472	 5.85106708362316E-03 
1473	 8.35272386186203E-03 
1474	 7.63875112141605E-03 
1475	-1.57060021944615E-03 
1476	-4.09010119147311E-03 
1477	-2.83393936992945E-03 
1478	-1.14038026634272E-03 
1479	 3.04830388269019E-03 
1480	 3.72750491928498E-03 
1481	 3.82430835064348E-03 
1482	 4.50938799815429E-03 
1483	 3.43863716120785E-03 
1484	 2.8259463398568E-03 
1485	 4.12453327217441E-03 
1486	 3.49685853577668E-03 
1487	 1.31176613639228E-03 
1488	 1.86636924250889E-04 
1489	-1.65767657283771E-03 
1490	-1.5313276962697E-03 
1491	-3.4929837977919E-04 
1492	 3.60587663362059E-04 
1493	 2.3067581084551E-03 
1494	 2.64368271225318E-03 
1495	 1.63844360852453E-03 
1496	 1.55102496347007E-03 
1497	 1.76771723933087E-03 
1498	 1.62695122507422E-03 
1499	 1.22980546490259E-03 
1500	 1.35519984817709E-03 
1501	 1.78260780717743E-03 
1502	 1.60584561389954E-03 
1503	 1.54589263349086E-03 
1504	 1.57092327143339E-03 
1505	 1.16624480028397E-03 
1506	 6.29902048464077E-04 
1507	 9.85055964740468E-04 
1508	 1.06564641218299E-03 
1509	 1.08214062890302E-03 
1510	 1.6341775286809E-03 
1511	 1.39423437335803E-03 
1512	 6.25404552780017E-04 
1513	 9.54613986893593E-04 
1514	 1.55051898262544E-03 
1515	 1.62387329386111E-03 
1516	 1.60395464956394E-03 
1517	 1.59020698473034E-03 
1518	 1.34820415463583E-03 
1519	 1.12675959073755E-03 
1520	 1.91972808158263E-03 
1521	 2.44057470147716E-03 
1522	 1.96717238174088E-03 
1523	 2.28181835353631E-03 
1524	 2.42553747298655E-03 
1525	 2.44455825542478E-03 
1526	 2.86720490306975E-03 
1527	 2.3114147461915E-03 
1528	 2.12480993189979E-03 
1529	 2.36528433698836E-03 
1530	 2.18751163253471E-03 
1531	 2.19901928451446E-03 
1532	 2.27106446801022E-03 
1533	 2.8276406726358E-03 
1534	 3.17758527488946E-03 
1535	 2.87033568972119E-03 
1536	 3.19307855260524E-03 
1537	 2.94826830465129E-03 
1538	 1.51672378029589E-03 
1539	 1.30790252429773E-03 
1540	 2.07534414145965E-03 
1541	 2.04157400263616E-03 
1542	 1.92123997454439E-03 
1543	 2.07056494364424E-03 
1544	 1.84683604307082E-03 
1545	 1.90504944599212E-03 
1546	 2.24653287437773E-03 
1547	 2.38180268038012E-03 
1548	 2.60079406062849E-03 
1549	 2.64794438139154E-03 
1550	 2.31015969597521E-03 
1551	 1.9096741377913E-03 
1552	 2.1232068885294E-03 
1553	 2.6591082848241E-03 
1554	 2.89816363395867E-03 
1555	 3.04592526102895E-03 
1556	 2.86619929767554E-03 
1557	 2.26487324804689E-03 
1558	 1.9689175821771E-03 
1559	 2.59450372304575E-03 
1560	 3.0016267960253E-03 
1561	 2.4150736216646E-03 
1562	 2.41259708207701E-03 
1563	 2.96564270181674E-03 
1564	 2.7588909878609E-03 
1565	 2.4457938001608E-03 
1566	 2.74243523713252E-03 
1567	 3.01453242356033E-03 
1568	 2.61241644396554E-03 
1569	 2.54946814583526E-03 
1570	 2.89751851760258E-03 
1571	 2.8155340533449E-03 
1572	 3.05910877968222E-03 
1573	 2.67368825105279E-03 
1574	 1.73124611336774E-03 
1575	 1.71926029199585E-03 
1576	 1.78237094575286E-03 
1577	 2.13201104827154E-03 
1578	 2.85742479708527E-03 
1579	 2.53992131046177E-03 
1580	 2.0323514898081E-03 
1581	 2.09892837656952E-03 
1582	 2.08041636722478E-03 
1583	 2.39983860146767E-03 
1584	 2.49422563265442E-03 
1585	 1.9667275463606E-03 
1586	 1.97172525651765E-03 
1587	 0.001937230420046 
1588	 1.20724139085449E-03 
1589	 4.73173294050269E-04 
1590	 5.48129340447768E-04 
1591	 1.17190945192395E-03 
1592	 1.37916337082241E-03 
1593	 1.53674555210905E-03 
1594	 1.51669643323646E-03 
1595	 1.55699044193206E-03 
1596	 1.76881721606635E-03 
1597	 1.54846176359949E-03 
1598	 1.74707522760736E-03 
1599	 1.85252410616448E-03 
1600	 1.46695848160988E-03 
1601	 2.00412994133313E-03 
1602	 2.30470622142241E-03 
1603	 1.66807166088341E-03 
1604	 1.46856484486317E-03 
1605	 9.97229456229198E-04 
1606	 1.10442426933357E-03 
1607	 2.19860690019246E-03 
1608	 2.07609585598952E-03 
1609	 1.39361663187331E-03 
1610	 1.65572784109781E-03 
1611	 2.11947428392562E-03 
1612	 2.13195145244567E-03 
1613	 2.57011519982507E-03 
1614	 2.84011931921124E-03 
1615	 1.86564394161528E-03 
1616	 1.46647045868582E-03 
1617	 1.82663867268639E-03 
1618	 1.45737024486959E-03 
1619	 1.0251217904244E-03 
1620	 1.16642976620288E-03 
1621	 2.18966896444338E-03 
1622	 2.53454002962455E-03 
1623	 1.40507097595413E-03 
1624	 8.52597829364594E-04 
1625	 2.38625747461057E-04 
1626	-2.0601286179706E-04 
1627	 5.95575309973032E-04 
1628	 1.49969640378019E-03 
1629	 1.64375992584391E-03 
1630	 1.04351648639656E-03 
1631	 1.19399732978271E-03 
1632	 1.33760557199961E-03 
1633	 6.2450793313581E-04 
1634	 1.04145221465174E-03 
1635	 2.12043797415037E-03 
1636	 2.68842089368871E-03 
1637	 3.15644378865078E-03 
1638	 3.04119858389832E-03 
1639	 2.34334171972795E-03 
1640	 1.96436789954454E-03 
1641	 1.56064248995741E-03 
1642	 1.20684977563999E-03 
1643	 1.36054054854862E-03 
1644	 1.57311558522099E-03 
1645	 1.66207601887185E-03 
1646	 1.70320478800772E-03 
1647	 2.07068307693404E-03 
1648	 2.20474273346118E-03 
1649	 2.06365188233303E-03 
1650	 2.34428438405179E-03 
1651	 2.08674463045337E-03 
1652	 1.11817797514189E-03 
1653	 1.64330218454558E-03 
1654	 1.73082334361091E-03 
1655	 1.45419374787909E-03 
1656	 1.22885420094656E-03 
1657	 5.34731405770355E-04 
1658	 5.89989952437512E-04 
1659	 1.46269271001202E-03 
1660	 1.77585396362693E-03 
1661	 2.41266595414175E-03 
1662	 2.03074990287817E-03 
1663	 1.92311341767541E-04 
1664	 3.89170946454687E-04 
1665	 0.00156910308581 
1666	 1.3447910724161E-03 
1667	 1.53230758653182E-03 
1668	 7.93330591875107E-04 
1669	 1.09625895528845E-04 
1670	 7.93865467230338E-04 
1671	 1.44860083016261E-03 
1672	 1.02429578232864E-03 
1673	 1.13193578252998E-03 
1674	 1.85457430894773E-03 
1675	 1.73750769771012E-03 
1676	 0.001946063829026 
1677	 2.13232598180738E-03 
1678	 1.52602324546612E-03 
1679	 1.31481882094148E-03 
1680	 1.66902724810752E-03 
1681	 1.60650246672131E-03 
1682	 9.92785819497211E-04 
1683	 9.78066486382902E-04 
1684	 1.09679321533953E-03 
1685	 1.25597559548443E-03 
1686	 1.44973518380054E-03 
1687	 1.17636273470785E-03 
1688	 1.01204826313415E-03 
1689	 9.72505841468774E-04 
1690	 1.36683216334933E-03 
1691	 1.82973857046284E-03 
1692	 2.02260593715688E-03 
1693	 2.31844534519158E-03 
1694	 2.26300621076946E-03 
1695	 1.43641585891675E-03 
1696	 1.24688782175503E-03 
1697	 1.50883229592745E-03 
1698	 8.6372576051493E-04 
1699	 1.46202559244422E-03 
1700	 2.31604495380616E-03 
1701	 1.44636745786191E-03 
1702	 1.0639773312512E-03 
1703	 1.89193076478623E-03 
1704	 2.32152961481027E-03 
1705	 1.62074703833267E-03 
1706	 1.96366372683213E-03 
1707	 2.28744071662816E-03 
1708	 8.52707115425679E-04 
1709	 6.08665871592667E-04 
1710	 1.47313903511367E-03 
1711	 1.6091038204903E-03 
1712	 1.97345884621834E-03 
1713	 2.96736919783001E-03 
1714	 2.91069747385327E-03 
1715	 2.45550107076943E-03 
1716	 2.23749791190951E-03 
1717	 1.72251178789135E-03 
1718	 1.6285271063449E-03 
1719	 1.60216794110811E-03 
1720	 1.09510323812946E-03 
1721	 1.24167824343174E-03 
1722	 2.22380183827007E-03 
1723	 1.30320264483428E-03 
1724	 8.25287144820124E-04 
1725	 1.37008831330068E-03 
1726	 9.93661283906637E-04 
1727	 1.92819182385356E-03 
1728	 2.44738893050789E-03 
1729	 1.73413945516581E-03 
1730	 8.22414416115516E-04 
1731	-8.96595567533158E-04 
1732	-2.61450456348963E-04 
1733	 1.3586208205134E-03 
1734	 1.4934606737635E-03 
1735	 2.35187878329662E-03 
1736	 2.00066151382473E-03 
1737	 1.26247411004219E-04 
1738	-4.2817571134435E-04 
1739	-3.47353531818084E-04 
1740	-5.61447449903241E-05 
1741	 8.5416554335698E-04 
1742	 1.4118486657428E-03 
1743	 1.89542836176067E-03 
1744	 1.86981244158742E-03 
1745	 8.67718696922181E-04 
1746	 3.04305908117569E-04 
1747	 1.01081376877107E-04 
1748	 2.33561358166236E-04 
1749	 4.85273688232142E-04 
1750	 9.96534985658258E-04 
1751	 8.38392942272314E-04 
1752	 1.83890546483455E-04 
1753	 6.47588603552364E-05 
1754	-1.70220845787046E-05 
1755	-1.94284949259397E-04 
1756	 2.98937863915619E-04 
1757	-5.38734104672215E-04 
1758	-9.09825529489411E-04 
1759	-2.15506763598761E-04 
1760	-1.8820148642055E-03 
1761	-2.42073687065198E-03 
1762	-6.7649296121873E-04 
1763	-1.74929011325934E-03 
1764	-1.55535167941155E-03 
1765	 2.44849646827916E-04 
1766	-1.67870189088688E-03 
1767	-1.11664771928796E-03 
1768	 2.82593673974336E-03 
1769	 2.73072614679282E-03 
1770	 0.001265372044813 
1771	 1.48658912391813E-03 
1772	-6.10643582789635E-04 
1773	-8.8186493914619E-04 
1774	 2.17746892449192E-03 
1775	-2.20859876722564E-03 
1776	-0.003100979583612 
1777	-3.86486536326896E-03 
1778	-4.51428887390439E-03 
1779	 8.44879294418661E-04 
1780	 1.16788170905417E-03 
1781	-7.01882419345548E-03 
1782	-8.46452929417344E-03 
1783	-6.68102355284641E-03 
1784	-6.39040543052648E-03 
1785	-1.50282799456321E-03 
1786	 2.80445016636944E-03 
1787	 6.16861504524457E-03 
1788	 5.40031839857657E-03 
1789	 2.99703059512515E-03 
1790	-4.51347996996384E-03 
1791	-9.20126990416847E-03 
1792	-7.81876709355026E-03 
1793	 1.82771220842862E-03 
1794	 1.31313312981133E-02 
1795	 1.82425940942497E-02 
1796	 1.46150282970961E-02 
1797	 7.72026318131379E-03 
1798	 1.04678552390997E-02 
1799	 1.65846941859371E-02 
1800	 1.59069571549488E-02 
1801	 1.27852225120205E-02 
1802	-3.98000717040716E-02 
1803	-7.00538709780722E-02 
1804	-5.77167638274606E-02 
1805	-6.16755637144503E-02 
1806	-3.47054588372835E-02 
1807	-2.52377260386562E-02 
1808	-7.50734816107825E-02 
1809	-5.71267966075429E-02 
1810	 4.32199551903949E-03 
1811	 2.29133277177735E-02 
1812	 5.17468011995737E-02 
1813	 9.84201912197814E-02 
1814	 0.186427590468577 
1815	 0.206873085872489 
1816	 0.267622957390178 
1817	 0.140380542653959 
1818	-9.76332342322348E-03 
1819	 2.66280165983452 
1820	-44.5246293658196 
1821	 6.06811662770449 
1822	 7.30876552415895 
1823	-0.386385170335073 
1824	 3.15050179533279 
1825	-1.45570928908838 
1826	 4.19717996548112E-02 
1827	 1.58272104380156 
1828	 1.60136825019573 
1829	 2.38989774086687 
1830	 3.74782502874483 
1831	-0.945794033367087 
1832	-0.862038063109527 
1833	-0.548109957179333 
1834	-0.49776261537713 
1835	 0.279705546048758 
1836	 0.961137224515529 
1837	 3.63460791934763 
1838	 9.30204258963251 
1839	 3.48036464992981 
1840	 1.17996619582238 
1841	 0.269100883611498 
1842	 0.336407166654203 
1843	 0.234438507569983 
1844	 0.226457922757386 
1845	-8.98647419839527E-02 
1846	-0.651338383513486 
1847	-0.886882776436155 
1848	-1.07053762556291 
1849	-0.879995978607893 
1850	-0.563878342431646 
1851	-0.426283926421395 
1852	-0.965958860056893 
1853	-7.47799939464444 
1854	-10.1806064424851 
1855	-1.1245566162335 
1856	-0.756123277595894 
1857	 0.519140869912146 
1858	 0.599414223242928 
1859	 0.282597529456269 
1860	 1.30014037331831E-02 
1861	-0.366308035079543 
1862	 3.58825872578573E-04 
1863	 0.171404609692778 
1864	 0.338805151630423 
1865	 0.477602156205762 
1866	 0.681373583148423 
1867	 0.721387573841258 
1868	 0.786277777464124 
1869	 0.651024943937968 
1870	 0.109585829419647 
1871	-0.312382376302818 
1872	-0.433043419373555 
1873	-0.491499184915749 
1874	-0.418063946408286 
1875	-0.330785892700681 
1876	-0.377423382106195 
1877	-0.974285849114962 
1878	-1.22010806795883 
1879	-1.68191192623921 
1880	-4.84789131512393 
1881	 1.81384269502728 
1882	-4.01130320942987 
1883	-1.99955329566259 
1884	-1.17366495160392 
1885	-1.1274074981594 
1886	-0.271672446390429 
1887	-0.248019491111926 
1888	-0.297200663207158 
1889	 2.73644288265896E-03 
1890	 0.779836561832941 
1891	 0.811050594015642 
1892	-0.308472248071891 
1893	-1.83939169868316 
1894	 1.56428204864693 
1895	 2.41277435436735 
1896	 0.196313553929742 
1897	-0.825515704519736 
1898	-0.982501521934926 
1899	-0.885294198355194 
1900	-0.615700280421634 
1901	 0.337163338072176 
1902	 0.405012549915531 
1903	 0.210621142114421 
1904	-0.118071087413813 
1905	-0.630624643319562 
1906	-1.37108755348993 
1907	-3.47109160445131 
1908	-2.29256445956291 
1909	 5.54847571370641 
1910	 20.3846297090033 
1911	-8.46921634778525 
1912	 2.59490342026806 
1913	 2.21216261582703 
1914	 2.45401656659797 
1915	 26.8843436344584 
1916	-2.09566450749919 
1917	-0.526756539969812 
1918	-0.626517324412081 
1919	-1.00029089851307 
1920	-1.20421377793065 
1921	 2.08363737988438 
1922	 3.06009656995586 
1923	-2.03762042189344 
1924	-1.90152263681078 
1925	-3.36133475827813 
1926	-4.53485382698676 
1927	 2.21957335814137 
1928	 815.306981718831 
1929	-0.08899065228484 
1930	 0.264285882693488 
1931	-1.47814866149696E-02 
1932	 0.198917033463759 
1933	 0.194706212922841 
1934	-0.176389564779316 
1935	-0.260452358733987 
1936	-0.468478265602435 
1937	-0.20287047656135 
1938	-0.221237262322413 
1939	-0.227899089341092 
1940	-0.223755700681835 
1941	-9.84787135326028E-03 
1942	-7.20043486113833E-02 
1943	-0.149808338127644 
1944	 4.15691687558394E-02 
1945	-9.95521026276173E-03 
1946	-0.182259627085363 
1947	-6.18244178715182E-02 
1948	-3.55001016064184E-02 
1949	-0.195404395007906 
1950	-0.214445129429909 
1951	-0.19197975031319 
1952	-0.220918183111091 
1953	-0.323614171647757 
1954	-0.243207817749757 
1955	-0.12351210137026 
1956	-9.25495894719602E-02 
1957	 6.89737635842824E-02 
1958	 0.174537985986998 
1959	 0.131785021418515 
1960	 0.096880673810585 
1961	 0.081291012596882 
1962	 0.049456571806695 
1963	 1.47110601499159E-02 
1964	 1.45951300803644E-02 
1965	 1.00133258176104E-02 
1966	 7.43861980912051E-03 
1967	 5.66920884962903E-03 
1968	 2.59659871896354E-02 
1969	 2.17438434564319E-02 
1970	 1.25252596239712E-02 
1971	 6.03592857408281E-03 
1972	-4.52160653355515E-03 
1973	-6.23934723368649E-03 
1974	-7.59491441416251E-03 
1975	-7.15466362440348E-03 
1976	-4.03854683187623E-03 
1977	-9.9286647502657E-04 
1978	 3.17473261528592E-04 
1979	 1.37321530795571E-03 
1980	 5.5068198535518E-04 
1981	 2.91046767282751E-03 
1982	 5.0749805641267E-03 
1983	 7.65061236863798E-03 
1984	 1.04631997270761E-02 
1985	 5.54382798581443E-03 
1986	 5.25971035095088E-03 
1987	 8.78926890997648E-03 
1988	 6.65460933926625E-03 
1989	 0.01021143945869 
1990	 1.23595573309967E-02 
1991	 5.77616507385315E-03 
1992	 7.49439958234596E-04 
1993	-4.38675388308834E-03 
1994	-5.83642524059194E-03 
1995	-8.23687599049306E-03 
1996	-1.90105746296033E-03 
1997	 8.5757041314968E-03 
1998	 1.81042392809762E-02 
1999	 2.51425520781759E-02 
2000	 2.62082495057516E-02 
2001	 2.60602035671875E-02 
2002	 0.033790611647074 
2003	 3.49562610294988E-02 
2004	 2.61396038789593E-02 
2005	 0.020008999066878 
2006	 0.024940480335717 
2007	 2.55555811675426E-02 
2008	 2.90135018098002E-02 
2009	 3.41926681973045E-02 
2010	 3.84374672455748E-02 
2011	 3.49264515377465E-02 
2012	 3.16383371122087E-02 
2013	 3.06958342825486E-02 
2014	 1.66321348053696E-02 
2015	 3.88244604229847E-03 
2016	-3.3015079311921E-03 
2017	-4.90012223776332E-03 
2018	-2.66739007350756E-04 
2019	 1.0993758513619E-03 
2020	-1.51106826164638E-03 
2021	 2.87776616857853E-03 
2022	 2.82794639616007E-03 
2023	 1.03586360777848E-03 
2024	 9.02319227385498E-04 
2025	 2.68770879745846E-04 
2026	-5.25180548529961E-04 
2027	-1.66636816559533E-03 
2028	 6.08838810505312E-04 
2029	-1.8764370473289E-03 
2030	-2.4750282061433E-03 
2031	 1.96258339339076E-04 
2032	 2.67666931777839E-03 
2033	 7.06101084277581E-03 
2034	 9.73933401930494E-03 
2035	 9.04984657782212E-03 
2036	 7.82122401709174E-03 
2037	 8.91455003241521E-03 
2038	 1.29346458872423E-02 
2039	 1.36256159010486E-02 
2040	 1.32335509925608E-02 
2041	 1.17608845045125E-02 
2042	 7.60410810320954E-03 
2043	 4.77503309574852E-03 
2044	 8.1186534570223E-04 
2045	 7.11329600090335E-04 
2046	 2.29730173710705E-03 
2047	-2.36976415154188E-03 
2048	-4.57620475396068E-03 
2049	-3.52772881745717E-03 
2050	-3.14200569122295E-03 
2051	 1.02545110845202E-03 
2052	 2.87563804973162E-03 
2053	 2.4803063071569E-03 
2054	 1.32445642294178E-03 
2055	 2.54775160223146E-04 
2056	-8.01603450869116E-04 
2057	 9.34379256916624E-05 
2058	 4.31256813725768E-04 
2059	-2.95987016815653E-03 
2060	-3.5041322917445E-03 
2061	-1.32402873032856E-03 
2062	 1.55164173157603E-03 
2063	-1.35727481003603E-03 
2064	-9.11895093090646E-04 
2065	 2.42761504275474E-03 
2066	 4.44570773968259E-03 
2067	 8.92902569823448E-03 
2068	 1.75873003932083E-02 
2069	 1.83396400378887E-02 
2070	 1.59447564233453E-02 
2071	 1.65280929626982E-02 
2072	 1.18686877012408E-02 
2073	 9.52194330462186E-03 
2074	 8.84738657374999E-03 
2075	 8.26726399880862E-03 
2076	 7.81736991431111E-03 
2077	 6.2724494917382E-03 
2078	 3.63322028614974E-03 
2079	 2.44812113519891E-03 
2080	 7.00208242714809E-04 
2081	 6.87309152080823E-04 
2082	-1.63699324128733E-03 
2083	-2.91078482692551E-03 
2084	-3.16489525579607E-03 
2085	-3.71470625722468E-03 
2086	 1.20339880194023E-04 
2087	 5.2072465130683E-03 
2088	 5.70207176128699E-03 
2089	 5.84056732862881E-03 
2090	 5.31353599382431E-03 
2091	 3.94878877544989E-03 
2092	 3.72840679220097E-03 
2093	 3.86303627784334E-03 
2094	 3.61910686353587E-03 
2095	 4.72381237228408E-03 
2096	 3.36140496728446E-03 
2097	-4.79731327828064E-04 
2098	-1.77060110900926E-03 
2099	-4.34739050127005E-03 
2100	-3.23483074371792E-03 
2101	 5.5351604556442E-04 
2102	 2.61842817373722E-03 
2103	 3.76304022224907E-03 
2104	 2.96735221672855E-03 
2105	 2.44103828437159E-03 
2106	 2.21111879255116E-03 
2107	 9.12852928003365E-04 
2108	 1.16535335879939E-04 
2109	-1.86679533225797E-03 
2110	-1.72316073259442E-03 
2111	 1.05070259746762E-03 
2112	 1.90272242584494E-03 
2113	 3.1569635755731E-03 
2114	 5.12757602092738E-03 
2115	 5.25816464680896E-03 
2116	 4.43869336364746E-03 
2117	 3.7537971013256E-03 
2118	 6.93566541162855E-04 
2119	 4.79460335615948E-04 
2120	 8.48845524345027E-04 
2121	 3.32345744643407E-03 
2122	 7.09387405395672E-03 
2123	 7.70280070639568E-03 
2124	 7.25924194642718E-03 
2125	 4.2128992989271E-03 
2126	-1.11642992140697E-04 
2127	-3.1164431368474E-03 
2128	-5.60161122819919E-03 
2129	-5.17442773248292E-03 
2130	-3.61738411249292E-03 
2131	-2.67701195159091E-03 
2132	-1.87250100619874E-03 
2133	-9.17407263759764E-04 
2134	 2.09847059653965E-04 
2135	 2.11466365400223E-03 
2136	 0.003143203332589 
2137	 2.63054547734146E-03 
2138	 3.98972860161283E-03 
2139	 6.61636246187139E-03 
2140	 8.12823286880925E-03 
2141	 1.15636623760529E-02 
2142	 1.19198576874365E-02 
2143	 0.010526690690282 
2144	 6.89672322226024E-03 
2145	 3.48162778865869E-03 
2146	 3.0452409405647E-03 
2147	-1.60087751898044E-04 
2148	-5.90609860096935E-04 
2149	-3.93741494128854E-04 
2150	-1.17560450805737E-03 
2151	 4.19705968796902E-03 
2152	 5.48171062837725E-03 
2153	 3.50095499372174E-03 
2154	 4.35929577715593E-03 
2155	 3.7671629399013E-03 
2156	 6.29384588702277E-03 
2157	 8.30517604423037E-03 
2158	 0.013790794216461 
2159	 1.39520529194267E-02 
2160	 1.01724550463729E-02 
2161	 8.35204729796291E-03 
2162	 4.28386093231975E-03 
2163	 2.61587289436196E-03 
2164	 3.56510223692549E-03 
2165	 4.0327124547035E-03 
2166	 5.58631467801855E-03 
2167	 5.63932208434054E-03 
2168	 6.35168267592475E-03 
2169	 5.12148546531233E-03 
2170	 1.74477231893276E-03 
2171	-2.80234693110386E-03 
2172	-3.35038223992046E-03 
2173	-4.51637857887629E-03 
2174	-6.10977717483079E-03 
2175	-2.88931974678141E-03 
2176	-7.35518802027344E-04 
2177	-1.81935890572501E-03 
2178	-9.06649772392532E-04 
2179	-4.58192709568073E-04 
2180	-2.2324112253269E-03 
2181	-3.89447678415376E-03 
2182	-1.98483197142138E-03 
2183	-2.73404182631849E-04 
2184	-3.29973833346441E-03 
2185	-3.74107740159472E-03 
2186	-3.45334329485734E-03 
2187	-4.93548941147566E-03 
2188	-4.82603610450272E-03 
2189	-1.84181805482013E-03 
2190	-2.69406503640894E-05 
2191	 2.00642825885754E-03 
2192	 2.50244732339049E-03 
2193	 3.46619495365337E-03 
2194	 3.71568342449199E-03 
2195	-1.35471172335813E-05 
2196	-8.07596732951346E-04 
2197	 2.96826891148551E-04 
2198	 1.79380149803238E-03 
2199	 3.74267657999921E-03 
2200	 8.97783339935153E-03 
2201	 1.23772498096418E-02 
2202	 1.00884937284174E-02 
2203	 8.61795387861706E-03 
2204	 3.00434914088011E-03 
2205	-2.90457596683499E-04 
2206	 3.65284920580281E-03 
2207	 4.41305209905548E-03 
2208	 6.30881093651444E-03 
2209	 6.3242975133652E-03 
2210	 6.27006798529401E-03 
2211	 1.00369846272631E-02 
2212	 8.35250521060796E-03 
2213	 7.64143332842157E-03 
2214	 8.42405754446065E-03 
2215	 6.30008123645332E-03 
2216	 5.20232163958545E-03 
2217	 2.71026525978251E-03 
2218	-3.48029665268125E-03 
2219	-5.21092668048759E-03 
2220	-3.73383522188396E-03 
2221	-3.6790869905315E-03 
2222	-2.90519659295491E-03 
2223	-5.1235309668895E-04 
2224	 1.4611168774992E-03 
2225	 2.25301089875149E-03 
2226	 6.57220304664972E-03 
2227	 7.05213340893142E-03 
2228	 3.39833131619381E-03 
2229	 1.50566235563344E-03 
2230	-6.15560611457277E-04 
2231	-1.55479397498561E-03 
2232	-2.95932668914211E-03 
2233	-4.08598840542398E-03 
2234	-3.77635802709648E-03 
2235	-5.59985964936639E-03 
2236	-5.17967262017719E-03 
2237	-4.23158059917245E-03 
2238	-3.59003090187154E-03 
2239	 2.15844012110976E-04 
2240	 2.08763313690957E-03 
2241	 4.6240400779773E-03 
2242	 5.74240273172961E-03 
2243	 4.67895869608148E-03 
2244	 2.31878103637477E-03 
2245	-3.7522724721054E-03 
2246	-5.34227606357192E-03 
2247	-2.93583950997759E-03 
2248	-5.99330694125956E-03 
2249	-5.85528891058167E-03 
2250	-1.6267913600653E-03 
2251	-3.86508354317969E-03 
2252	-6.63062518770832E-03 
2253	-3.58659867057326E-03 
2254	-1.73784126910105E-03 
2255	-3.18317808611082E-03 
2256	 1.44980591531738E-03 
2257	 6.50346323994151E-03 
2258	 7.30668989395785E-03 
2259	 7.52768148920884E-03 
2260	 7.17059425897761E-03 
2261	 4.62021116043024E-03 
2262	 4.54060676988286E-03 
2263	 6.21824973989716E-03 
2264	 4.26140038903861E-03 
2265	 2.47001235016862E-03 
2266	 2.17313745290783E-04 
2267	-8.29893971002171E-03 
2268	-7.51167330705331E-03 
2269	 8.34455926146708E-04 
2270	 1.43188222206123E-03 
2271	 4.02929477273548E-03 
2272	 1.88689092840572E-03 
2273	-1.18706312465468E-02 
2274	-0.012973497852597 
2275	-6.99244016713644E-03 
2276	-5.20809277414713E-03 
2277	 2.1616447149723E-03 
2278	 6.28725348295026E-03 
2279	 7.45293802211942E-03 
2280	 7.59171880749289E-03 
2281	 7.58299482708518E-03 
2282	 4.68714311311962E-03 
2283	 3.77301270764117E-03 
2284	-3.88870259920388E-03 
2285	-4.38340157341011E-03 
2286	-8.89692068316103E-04 
2287	-6.29019632540985E-03 
2288	-6.79956896663665E-03 
2289	-2.4442288279018E-03 
2290	-2.71865344496942E-03 
2291	-3.1140577454559E-03 
2292	 2.69735431507967E-03 
2293	 6.76062800680437E-03 
2294	 4.86698529677968E-03 
2295	 4.74598080259838E-03 
2296	 5.10523664650941E-03 
2297	 3.79693808768842E-03 
2298	 2.36536337971602E-03 
2299	 2.4785104472363E-03 
2300	 3.7250873697788E-03 
2301	 3.42246231377917E-03 
2302	 1.90426502078517E-03 
2303	-2.40268156905255E-03 
2304	-6.6838918890734E-03 
2305	-1.52709009547991E-02 
2306	-1.72635922939359E-02 
2307	-8.72163187632322E-03 
2308	 5.48873101433895E-04 
2309	 1.37784668129761E-02 
2310	 1.64265389724043E-02 
2311	 1.74756075921862E-02 
2312	 1.13869224638659E-02 
2313	 2.14143978439771E-03 
2314	 8.83051141865121E-03 
2315	 3.49093117777353E-03 
2316	 4.54605591388232E-03 
2317	 1.21651988972052E-02 
2318	-4.58091836199155E-03 
2319	-4.76502577753372E-03 
2320	 6.33244506556082E-03 
2321	-1.79572626627882E-05 
2322	-6.32614817846642E-06 
2323	 4.13407499779656E-03 
2324	-2.49212241229081E-03 
2325	-1.49150979187654E-02 
2326	-1.31216412614713E-02 
2327	-1.75498756377125E-02 
2328	-2.93584246489503E-02 
2329	-1.79079143570148E-02 
2330	-3.80594371075502E-03 
2331	 6.25909817683477E-03 
2332	 3.57908510297923E-02 
2333	 7.23197615584731E-02 
2334	 0.075583615639047 
2335	 5.93040572447821E-02 
2336	 0.034939446492457 
2337	 6.01067533585447E-03 
2338	-1.42196901992019E-03 
2339	 1.75932199547538E-03 
2340	 1.78113648462252E-02 
2341	 1.47497706318416E-02 
2342	-7.85670816559229E-03 
2343	 3.2489245339697E-04 
2344	-1.45247293646292E-03 
2345	-9.95219135830632E-03 
2346	-2.05476624242617E-03 
2347	-1.48612245390195E-02 
2348	-2.89703800284411E-02 
2349	-3.29835054630827E-02 
2350	-0.041902344623469 
2351	-3.86820658261534E-02 
2352	-1.46637379826766E-03 
2353	 4.40744817435131E-02 
2354	 5.86970008162395E-02 
2355	 4.78890577696069E-02 
2356	 5.93842775184221E-03 
2357	-0.019028930853705 
2358	-3.7222264868872E-03 
2359	 4.28933349397033E-03 
2360	 5.29136849872397E-02 
2361	 6.11267331327275E-02 
2362	 7.05926806167485E-03 
2363	-1.30882900513056E-02 
2364	-3.20629381639404E-02 
2365	-2.89439224821801E-02 
2366	-4.28753548604286E-03 
2367	 1.17987555521998E-02 
2368	-2.3269978606714E-03 
2369	-0.02131181953865 
2370	-0.017954973889231 
2371	-2.35866300134983E-02 
2372	 1.19084602874231E-02 
2373	 3.86761087517347E-02 
2374	 4.31167503972896E-02 
2375	 0.046902348111271 
2376	 2.59808404732008E-02 
2377	 1.43327845786156E-02 
2378	-2.05191233636354E-03 
2379	 9.75515910394224E-03 
2380	-2.65876165550164E-02 
2381	-0.117230937932788 
2382	-0.127407837936715 
2383	-0.1557762995692 
2384	-0.128089302827735 
2385	-2.40634771055885E-02 
2386	-9.07442632275999E-03 
2387	-3.80289982156865E-02 
2388	-0.031300794268136 
2389	-5.69687445585666E-02 
2390	-0.089034402296441 
2391	-0.106649482239829 
2392	-0.169853551911489 
2393	-0.13491853377362 
2394	-0.035330795993196 
2395	 1.00762420488254E-03 
2396	 0.125673444898657 
2397	 0.185842347758884 
2398	 0.161951437331419 
2399	 0.200040967656767 
2400	 0.108716587643739 
2401	 2.94863038160728E-03 
2402	-1.11059059738131E-02 
2403	-0.135832744731403 
2404	-0.12862374378829 
2405	-5.39097426910643E-02 
2406	-0.126941925877706 
2407	-7.54508783094999E-02 
2408	 5.13594855602338E-03 
2409	-4.30976302277135E-02 
2410	-3.80491786607972E-02 
2411	 1.09139898990039E-02 
2412	-3.79145099055719E-04 
2413	-0.091368081369147 
2414	 0.018570990250428 
2415	 0.130328023327831 
2416	 8.91812248785701E-03 
2417	 0.236671330417349 
2418	 0.237990696894079 
2419	-0.22369155464286 
2420	-0.160210357232323 
2421	-7.04159560559301E-03 
2422	-2.11451787077638E-02 
2423	 0.080626845015124 
2424	 4.39517274183374E-02 
2425	-0.166767714685268 
2426	-0.176203833770896 
2427	-5.22997625443218E-02 
2428	 0.265091299277159 
2429	 0.343079392491026 
2430	 0.292368200989406 
2431	 0.264473793284196 
2432	 8.13077033632265E-02 
2433	 0.219076697497557 
2434	 0.564124956518084 
2435	 0.420213449135589 
2436	 0.305728245006723 
2437	 1.80822105363658E-02 
2438	-0.366487996648224 
2439	-0.202860221964114 
2440	-0.111260699051204 
2441	-3.94731029772624E-02 
2442	 0.116598748811056 
2443	 0.432287417337881 
2444	 0.92084002303704 
2445	 0.738709265512549 
2446	 0.582377965495567 
2447	 0.107526118603128 
2448	-3.78639175798233E-02 
2449	-2.16099386926028E-02 
2450	 2.70545712795645E-03 
2451	 3.25957026472465E-02 
2452	-5.58859762887575E-02 
2453	 7.11708115816679E-02 
2454	-0.633264775793926 
2455	-0.887313277697371 
2456	-0.366663970536 
2457	-0.382269871504262 
2458	-0.141304677894259 
2459	-0.114561985901798 
2460	-0.637733815461573 
2461	-0.687395357849064 
2462	-0.39514083777914 
2463	-0.321996959906308 
2464	-0.114342911117186 
2465	-0.031939174140833 
2466	-0.272812108135435 
2467	-0.301748426207494 
2468	-0.56615718678208 
2469	-1.04598806815947 
2470	-1.17234278331646 
2471	-2.17583760456204 
2472	-11.6171102740295 
2473	-2.76061711979664 
2474	-0.179317574053885 
2475	-0.195979109513975 
2476	-0.51311612047153 
2477	-3.12411494197725 
2478	 0.949642995366704 
2479	 0.71195100436019 
2480	 1.00082594328868 
2481	 1.82416056114636 
2482	-1.83406614383526 
2483	 6.24521060381295 
2484	 1.20368569202783 
2485	 1.63847180345575 
2486	 1.05736149790439 
2487	 0.313124127155062 
2488	 5.23257307754769 
2489	-2.32927606356247 
2490	-6.14459383602307E-02 
2491	-1.7800232179383 
2492	-1.41217001091079 
2493	 1.46454389898426 
2494	 2.11387939779528 
2495	 17.3403441963156 
2496	 34.0157032482822 
2497	-9.42390155103354 
2498	-1.36841376958554 
2499	-0.34049806308147 
2500	-1.45316537770035 
