Wavelength	rt0622close00008.asd
350	 2.07376994688896E-02 
351	 2.18904846074867E-02 
352	 2.19724390342619E-02 
353	 2.15701897451474E-02 
354	 2.14849308898896E-02 
355	 2.17414726014794E-02 
356	 2.24093280724057E-02 
357	 2.27310008170724E-02 
358	 2.22154542961223E-02 
359	 2.25382220350456E-02 
360	 2.26665142507393E-02 
361	 2.25811746612209E-02 
362	 2.29132224577193E-02 
363	 2.27730911475934E-02 
364	 2.26711887542534E-02 
365	 2.29872146636317E-02 
366	 2.36632740593168E-02 
367	 2.39055307234783E-02 
368	 2.38462366747743E-02 
369	 2.38334869527176E-02 
370	 0.023898550189426 
371	 2.44196209205256E-02 
372	 2.48817870108467E-02 
373	 0.024457440606935 
374	 0.024477967360055 
375	 2.49240138882511E-02 
376	 2.53869007260454E-02 
377	 2.51772540999682E-02 
378	 2.52397927621449E-02 
379	 2.57562689387297E-02 
380	 2.65201417433125E-02 
381	 2.68501659143114E-02 
382	 0.026700004339496 
383	 2.67287939921696E-02 
384	 2.76021688483644E-02 
385	 2.75297145648917E-02 
386	 2.71938909002095E-02 
387	 2.71498384763573E-02 
388	 2.75331603431157E-02 
389	 2.81705795782939E-02 
390	 2.86760613722973E-02 
391	 2.87675502636949E-02 
392	 2.83329567949829E-02 
393	 2.88011346966979E-02 
394	 2.95255633069598E-02 
395	 2.93840250551318E-02 
396	 2.92533527160116E-02 
397	 2.94575739477958E-02 
398	 2.98612475405891E-02 
399	 3.00091097441528E-02 
400	 3.03126919271225E-02 
401	 3.04657890867326E-02 
402	 3.03719962930266E-02 
403	 0.030611644010448 
404	 3.10633137344455E-02 
405	 3.13083685427222E-02 
406	 3.10508548822676E-02 
407	 3.13958278806236E-02 
408	 3.16031893017329E-02 
409	 3.15572958616134E-02 
410	 3.18394977086148E-02 
411	 3.21657225031514E-02 
412	 0.032283917820306 
413	 3.22392250146537E-02 
414	 3.27981276938934E-02 
415	 0.033157140214334 
416	 3.32705712202834E-02 
417	 3.34110412071841E-02 
418	 3.36731817688723E-02 
419	 3.40925247102781E-02 
420	 3.45004148737489E-02 
421	 3.45458358738414E-02 
422	 0.034835141089452 
423	 3.52051962132808E-02 
424	 3.54370132479758E-02 
425	 3.56003971207898E-02 
426	 3.60247154135158E-02 
427	 3.65173675770126E-02 
428	 3.67113782406332E-02 
429	 3.70370717530994E-02 
430	 3.74179223288864E-02 
431	 3.78010881914992E-02 
432	 3.82196506891039E-02 
433	 3.84758976358417E-02 
434	 3.87743073867417E-02 
435	 3.92692707251011E-02 
436	 0.039703581388588 
437	 4.01373848214439E-02 
438	 4.05405767421831E-02 
439	 4.08482113664852E-02 
440	 4.11273480433717E-02 
441	 4.14885714096423E-02 
442	 4.19208334544029E-02 
443	 4.22336340201615E-02 
444	 4.25284449510651E-02 
445	 4.28820312425403E-02 
446	 4.33122746940799E-02 
447	 4.36443899981088E-02 
448	 4.39853453684213E-02 
449	 4.42915141154083E-02 
450	 4.44339416883682E-02 
451	 4.47104636546647E-02 
452	 4.49667075888738E-02 
453	 4.50984808919338E-02 
454	 4.52225570879065E-02 
455	 0.045532018200523 
456	 4.58475359209591E-02 
457	 4.59474443583191E-02 
458	 4.62298809776855E-02 
459	 4.63743570964397E-02 
460	 0.046401475116983 
461	 4.66831529850976E-02 
462	 4.67390871260184E-02 
463	 4.68720239204349E-02 
464	 0.047275520147151 
465	 4.74301948245778E-02 
466	 4.74153476783767E-02 
467	 4.74940836338864E-02 
468	 4.79205823659491E-02 
469	 4.80635463947651E-02 
470	 4.81944208752342E-02 
471	 4.84013109777022E-02 
472	 4.84121130910875E-02 
473	 4.86925469783241E-02 
474	 4.90375380974623E-02 
475	 4.91968466104156E-02 
476	 4.94217981777371E-02 
477	 4.96961904608602E-02 
478	 4.99421680724313E-02 
479	 5.00795595796833E-02 
480	 5.05169599255334E-02 
481	 5.07881441400906E-02 
482	 5.07785405311389E-02 
483	 0.051344230312011 
484	 5.16701015411559E-02 
485	 5.18535961613244E-02 
486	 5.22500409567097E-02 
487	 5.26585993179127E-02 
488	 5.30390700406414E-02 
489	 0.053393552220588 
490	 5.37616003591091E-02 
491	 5.42157582562472E-02 
492	 5.46484732581692E-02 
493	 5.49824744531745E-02 
494	 0.055301945199741 
495	 5.58109616981421E-02 
496	 5.63604044060895E-02 
497	 5.66729023783401E-02 
498	 5.70748944776192E-02 
499	 5.76305923769725E-02 
500	 5.82474092336254E-02 
501	 0.058635559274617 
502	 5.91827808002951E-02 
503	 5.97945015301912E-02 
504	 6.02852688613833E-02 
505	 6.06876074589632E-02 
506	 6.11831203312724E-02 
507	 6.17363775471425E-02 
508	 0.062157721164245 
509	 6.27513292531131E-02 
510	 6.32716650272363E-02 
511	 6.36292669889152E-02 
512	 6.43219300954747E-02 
513	 6.49597428925267E-02 
514	 6.55577943605956E-02 
515	 6.62554004320078E-02 
516	 6.68091142148657E-02 
517	 6.74420152347704E-02 
518	 6.81673255699849E-02 
519	 6.86989034875714E-02 
520	 6.93692638663389E-02 
521	 7.01135354510243E-02 
522	 0.070804822677557 
523	 0.071393366808986 
524	 7.21834417920247E-02 
525	 7.30217706111478E-02 
526	 7.35004258506944E-02 
527	 7.43044042903995E-02 
528	 7.51274725355998E-02 
529	 7.57800303665036E-02 
530	 7.65957944796188E-02 
531	 7.73612716801986E-02 
532	 7.81027615193967E-02 
533	 7.89215970166862E-02 
534	 7.98600482847713E-02 
535	 8.06379973624127E-02 
536	 8.12534008396658E-02 
537	 8.20265076150196E-02 
538	 8.29127057037606E-02 
539	 8.38264617429038E-02 
540	 8.46806997340066E-02 
541	 8.54268658108186E-02 
542	 8.63170799404432E-02 
543	 8.72700118549095E-02 
544	 8.80282290006061E-02 
545	 8.88301941240726E-02 
546	 8.96653972996466E-02 
547	 9.04841050085732E-02 
548	 9.12141958530014E-02 
549	 9.21025585392805E-02 
550	 9.29965368386531E-02 
551	 9.36983592673148E-02 
552	 9.46465687278007E-02 
553	 9.54496247227025E-02 
554	 0.096095575359896 
555	 9.70354827764723E-02 
556	 9.78614823845838E-02 
557	 9.86327434132126E-02 
558	 9.94402401340498E-02 
559	 0.100120174729783 
560	 0.10088312172245 
561	 0.101705852183313 
562	 0.102427444553498 
563	 0.103055327807271 
564	 0.103735519881256 
565	 0.104496615831326 
566	 0.10511306181245 
567	 0.105570663601398 
568	 0.106077912311877 
569	 0.106809428846396 
570	 0.107211211430847 
571	 0.10760420094293 
572	 0.108102039169661 
573	 0.108537353714756 
574	 0.108976899325385 
575	 0.109375707531806 
576	 0.109694364387295 
577	 0.109990832978025 
578	 0.110270185466157 
579	 0.110578488148771 
580	 0.11095432595372 
581	 0.111135224442791 
582	 0.111228371849222 
583	 0.111347058627436 
584	 0.111543908553712 
585	 0.111523350161522 
586	 0.111455415922393 
587	 0.111567478803423 
588	 0.111266068171471 
589	 0.111126548978093 
590	 0.111248972094851 
591	 0.111142604372641 
592	 0.111005294972076 
593	 0.110774866951252 
594	 0.110404225206979 
595	 0.110024181864039 
596	 0.109515975605547 
597	 0.108990647513065 
598	 0.108634937806101 
599	 0.108010864717311 
600	 0.107372455523032 
601	 0.10696953354184 
602	 0.106919640114301 
603	 0.106757463090784 
604	 0.106599846353399 
605	 0.106686809981801 
606	 0.106813316060327 
607	 0.106898416133656 
608	 0.106957160887799 
609	 0.107090883418874 
610	 0.107104386079396 
611	 0.107067132241017 
612	 0.107089606895528 
613	 0.107251078292074 
614	 0.107239105791598 
615	 0.107176877709428 
616	 0.107388880489552 
617	 0.10757246087123 
618	 0.10761171403787 
619	 0.107537224548111 
620	 0.107571593520415 
621	 0.107555354790225 
622	 0.107596470066522 
623	 0.107781080900199 
624	 0.107682272738503 
625	 0.107599916771859 
626	 0.10764463771737 
627	 0.10770814632798 
628	 0.107567957604683 
629	 0.107478997547154 
630	 0.10762002917794 
631	 0.107731360788296 
632	 0.107882673224511 
633	 0.107940428604485 
634	 0.107766922855567 
635	 0.10791043082161 
636	 0.108054355438552 
637	 0.108027846225704 
638	 0.107985409944549 
639	 0.107933139805663 
640	 0.107896533457855 
641	 0.107880495778799 
642	 0.107800723388334 
643	 0.107759548065022 
644	 0.107772940412774 
645	 0.107775525355778 
646	 0.107635842138694 
647	 0.107473369408543 
648	 0.107398653087554 
649	 0.107373443362503 
650	 0.107343810576529 
651	 0.107205408857493 
652	 0.106904826883755 
653	 0.106806942763138 
654	 0.106444210567495 
655	 0.105771232534722 
656	 0.105483000417292 
657	 0.105086411108491 
658	 0.104733129848566 
659	 0.104567466221009 
660	 0.104352334872046 
661	 0.10420418936683 
662	 0.104126605272059 
663	 0.104039321489563 
664	 0.103725054797058 
665	 0.103585127037805 
666	 0.103721454689287 
667	 0.10356724115166 
668	 0.103478348604796 
669	 0.103555860965733 
670	 0.103737285108989 
671	 0.103576490780939 
672	 0.103433427026269 
673	 0.103459016032686 
674	 0.103562869864768 
675	 0.103611708560519 
676	 0.10364146314797 
677	 0.103696182530766 
678	 0.103737292595254 
679	 0.103832485932104 
680	 0.103987483986337 
681	 0.104165842453731 
682	 0.104291434904314 
683	 0.104299661844295 
684	 0.104254647068939 
685	 0.104395526405311 
686	 0.104346408157232 
687	 0.104057215493085 
688	 0.10375653368716 
689	 0.10396931661018 
690	 0.103873357035588 
691	 0.103471820227363 
692	 0.103239357227029 
693	 0.103085521752842 
694	 0.102553555891333 
695	 0.101755839878225 
696	 0.101660971353772 
697	 0.101152361468782 
698	 0.100268632256667 
699	 9.94315138352365E-02 
700	 9.88063045425164E-02 
701	 9.80631908604069E-02 
702	 9.71912909536546E-02 
703	 9.63958242726556E-02 
704	 9.53394927001566E-02 
705	 9.44375129419434E-02 
706	 9.37883329486046E-02 
707	 9.24564650224456E-02 
708	 9.12930386873529E-02 
709	 9.01051954521099E-02 
710	 8.84807400988734E-02 
711	 8.70012402919487E-02 
712	 8.55085194087336E-02 
713	 8.38697928844768E-02 
714	 8.19827113106169E-02 
715	 8.00397451902749E-02 
716	 7.79269034752941E-02 
717	 7.57051719508427E-02 
718	 7.34633647348679E-02 
719	 7.14012740004115E-02 
720	 6.97187478393018E-02 
721	 6.80827004219335E-02 
722	 6.61130271445914E-02 
723	 6.41251616009385E-02 
724	 6.23328498097803E-02 
725	 5.99415671036365E-02 
726	 5.77213806112851E-02 
727	 5.55205192731321E-02 
728	 5.30555013885919E-02 
729	 5.01459011499767E-02 
730	 4.74176101107974E-02 
731	 4.50218373712571E-02 
732	 4.27300286206103E-02 
733	 4.09916341298934E-02 
734	 3.94550944458514E-02 
735	 3.79856659476088E-02 
736	 3.67503679453855E-02 
737	 3.60085962301776E-02 
738	 3.55716860648937E-02 
739	 3.51799183151214E-02 
740	 3.46478896263845E-02 
741	 3.43450798624443E-02 
742	 3.42771062419439E-02 
743	 0.034241508673439 
744	 3.41415016972385E-02 
745	 3.39775756456773E-02 
746	 0.033838867680679 
747	 3.39076169859778E-02 
748	 3.39442056296907E-02 
749	 3.39212322395081E-02 
750	 3.38740357867695E-02 
751	 3.38468664522812E-02 
752	 0.033804868376564 
753	 3.37606287624244E-02 
754	 3.37612225849327E-02 
755	 3.39197086951794E-02 
756	 3.39548308517433E-02 
757	 3.37899131657528E-02 
758	 3.36581644799767E-02 
759	 3.41326791871616E-02 
760	 3.45047577645372E-02 
761	 3.37316793626884E-02 
762	 3.46896368341698E-02 
763	 3.45204984967789E-02 
764	 3.40722544692067E-02 
765	 0.034670738793553 
766	 3.47506426579593E-02 
767	 3.45695667517305E-02 
768	 0.034521570553192 
769	 3.50914808986207E-02 
770	 3.53454751565602E-02 
771	 3.53624593250954E-02 
772	 0.035425431113346 
773	 3.57758605256535E-02 
774	 3.61282010057098E-02 
775	 3.64678428454098E-02 
776	 3.68634558481816E-02 
777	 3.71068544698581E-02 
778	 3.72409474888296E-02 
779	 3.75210879611085E-02 
780	 3.83214113865849E-02 
781	 3.85650698360347E-02 
782	 3.86581621397454E-02 
783	 3.90518019416528E-02 
784	 3.96827502382619E-02 
785	 4.00710191662768E-02 
786	 4.04254194039419E-02 
787	 4.10635597087651E-02 
788	 4.13735478298762E-02 
789	 4.17142017261277E-02 
790	 4.22622454682734E-02 
791	 4.29464367880341E-02 
792	 4.30734064279224E-02 
793	 4.36608059538565E-02 
794	 4.48359317932058E-02 
795	 4.48762366513633E-02 
796	 4.51392848800236E-02 
797	 4.55749701478853E-02 
798	 4.59189792077443E-02 
799	 4.65341071150541E-02 
800	 4.71926532255257E-02 
801	 4.75388098166445E-02 
802	 4.73572452123958E-02 
803	 0.047741855316553 
804	 4.81394007701103E-02 
805	 4.83365591628738E-02 
806	 4.86310235090587E-02 
807	 4.84285749356099E-02 
808	 4.83043421773624E-02 
809	 4.85364888127134E-02 
810	 4.79427212826151E-02 
811	 4.77555974455407E-02 
812	 4.77760830159251E-02 
813	 4.72774092211414E-02 
814	 4.65225298985576E-02 
815	 4.62892369655628E-02 
816	 4.63134290586294E-02 
817	 4.55737476361056E-02 
818	 4.47497181494695E-02 
819	 4.40608283741931E-02 
820	 4.34863257622363E-02 
821	 4.28609445677003E-02 
822	 4.14210427923181E-02 
823	 3.96695922022568E-02 
824	 3.82407829692848E-02 
825	 3.69897066921726E-02 
826	 3.54380724009926E-02 
827	 0.033543448247056 
828	 3.16016704691155E-02 
829	 2.97549583235151E-02 
830	 2.83614078511794E-02 
831	 2.72765132909108E-02 
832	 0.026076963486379 
833	 2.48703417428763E-02 
834	 2.42534702503576E-02 
835	 2.41299604586507E-02 
836	 2.35284297716122E-02 
837	 2.30015292573192E-02 
838	 2.26196726102598E-02 
839	 2.23124017887652E-02 
840	 2.19050076777564E-02 
841	 2.15252694697793E-02 
842	 2.12832027188434E-02 
843	 2.12060826998244E-02 
844	 2.10126420248685E-02 
845	 2.06705358459881E-02 
846	 2.03016021943203E-02 
847	 2.01209703412035E-02 
848	 2.02767823745845E-02 
849	 1.99860936630019E-02 
850	 1.92678653469837E-02 
851	 1.92288013835671E-02 
852	 1.92955828900286E-02 
853	 1.92758918260373E-02 
854	 1.89851924136074E-02 
855	 1.80694056957516E-02 
856	 1.82093892195449E-02 
857	 1.86915666109043E-02 
858	 0.018455347797491 
859	 1.77092947154322E-02 
860	 1.74721776848975E-02 
861	 1.77081613429789E-02 
862	 1.77751839487134E-02 
863	 1.71925448816603E-02 
864	 1.70361679799439E-02 
865	 1.71514046801461E-02 
866	 1.63752175767354E-02 
867	 1.64103026298339E-02 
868	 0.01634320853811 
869	 0.015876574374934 
870	 1.59352063658007E-02 
871	 1.56938729499647E-02 
872	 1.52830020124402E-02 
873	 1.50044748836489E-02 
874	 1.51043706332009E-02 
875	 1.45781579960051E-02 
876	 1.40976300493325E-02 
877	 1.43497894916512E-02 
878	 1.40639616420977E-02 
879	 1.37882792531968E-02 
880	 1.36605123114539E-02 
881	 1.35391748856308E-02 
882	 1.29444784944868E-02 
883	 1.25325759975924E-02 
884	 1.28125069137284E-02 
885	 0.013805393249905 
886	 1.32310776624154E-02 
887	 1.24045873787909E-02 
888	 1.21560574185644E-02 
889	 1.22271880145463E-02 
890	 1.22253900249442E-02 
891	 1.21410142594117E-02 
892	 0.011993298526192 
893	 1.17065655820305E-02 
894	 1.11897923600533E-02 
895	 1.12400727086394E-02 
896	 1.21143781253506E-02 
897	 1.14501919357758E-02 
898	 1.16936149070742E-02 
899	 1.22138910254037E-02 
900	 1.17319193719467E-02 
901	 1.09118102957512E-02 
902	 1.03628453186569E-02 
903	 0.010264961033952 
904	 1.05576755829311E-02 
905	 1.12878165834942E-02 
906	 9.98948320564028E-03 
907	 8.17122567254548E-03 
908	 9.6223357936797E-03 
909	 9.75307964250266E-03 
910	 9.53933389875849E-03 
911	 9.32463291237797E-03 
912	 8.54793407632129E-03 
913	 8.02034116663641E-03 
914	 9.13988217138022E-03 
915	 1.07439034295645E-02 
916	 9.41906456633988E-03 
917	 8.85432938106907E-03 
918	 8.9385138029305E-03 
919	 8.92424672394723E-03 
920	 8.11359683262515E-03 
921	 8.56991523455575E-03 
922	 9.20977968632106E-03 
923	 8.83981806501838E-03 
924	 7.30959535910308E-03 
925	 7.95495359359971E-03 
926	 8.70075682478904E-03 
927	 7.20510849403831E-03 
928	 7.75701034273683E-03 
929	 7.32735708728907E-03 
930	 7.4126304720556E-03 
931	 1.06712101335175E-02 
932	 6.96427707157726E-03 
933	 4.89951639768161E-03 
934	 9.66285007070198E-03 
935	 1.69370022925054E-02 
936	 0.010196331464183 
937	 6.89331752139077E-03 
938	 6.22189803465338E-03 
939	 3.77610221248875E-03 
940	 8.51931184057199E-03 
941	 6.89811251608852E-03 
942	 2.47757102029161E-03 
943	 5.94249299243942E-03 
944	 1.09181180132717E-02 
945	 5.37270706060661E-03 
946	-2.48208593881843E-03 
947	 2.80141833213463E-03 
948	 3.69859271554706E-03 
949	 9.51666839945968E-03 
950	 1.36237227458833E-02 
951	 4.57919048245492E-03 
952	 5.23430630106125E-03 
953	 5.50149819751939E-03 
954	 3.31141456086786E-03 
955	 4.03417589315757E-03 
956	 1.34755719892932E-02 
957	 1.19307860919412E-02 
958	 3.83021080932528E-03 
959	 7.48514078661233E-03 
960	 0.010973812079598 
961	 9.74240492686445E-03 
962	 5.69075259648128E-03 
963	 4.5185856699122E-03 
964	 9.18486047933624E-03 
965	 8.3028520267629E-03 
966	 3.85777138665796E-03 
967	 5.91782390473742E-03 
968	 6.44183963420468E-03 
969	 7.24032301477225E-03 
970	 8.32751135769555E-03 
971	 8.00137749364466E-03 
972	 1.01104297889707E-02 
973	 9.28965057432631E-03 
974	 7.19624943375482E-03 
975	 1.11823517946802E-02 
976	 8.52326902273121E-03 
977	 7.10898128077622E-03 
978	 8.19990379826718E-03 
979	 6.33919727802517E-03 
980	 7.49251856303495E-03 
981	 8.66999132703474E-03 
982	 8.60663132415019E-03 
983	 8.03502841957721E-03 
984	 5.77880827553298E-03 
985	 5.94034846196755E-03 
986	 7.38534286544111E-03 
987	 5.78706063913372E-03 
988	 7.24961486277296E-03 
989	 6.72093967527292E-03 
990	 5.14188342134045E-03 
991	 7.24778904674228E-03 
992	 6.72980814521804E-03 
993	 5.41192873964448E-03 
994	 5.17800681509611E-03 
995	 6.79917779488532E-03 
996	 7.65512708416625E-03 
997	 9.23041282549939E-03 
998	 8.85186994957771E-03 
999	 3.98773136482966E-03 
1000	 7.20295248484263E-03 
1001	 9.13273013690051E-03 
1002	 9.19030335915959E-03 
1003	 9.69639870705161E-03 
1004	 1.07540116886396E-02 
1005	 1.10729572549212E-02 
1006	 1.14691158919522E-02 
1007	 1.15518884549657E-02 
1008	 1.05458171448554E-02 
1009	 9.29838092846639E-03 
1010	 8.71716847163455E-03 
1011	 7.22318656194764E-03 
1012	 6.0483349595116E-03 
1013	 6.07708004212163E-03 
1014	 6.23512794972283E-03 
1015	 7.03424359610142E-03 
1016	 7.49347440381661E-03 
1017	 0.008527076216318 
1018	 8.88694422910653E-03 
1019	 8.54706654667006E-03 
1020	 8.53830760697231E-03 
1021	 8.75898732996715E-03 
1022	 8.51603729012717E-03 
1023	 8.17904582863689E-03 
1024	 8.03769926168687E-03 
1025	 7.40191192685984E-03 
1026	 7.29404265526369E-03 
1027	 7.58079513292352E-03 
1028	 8.29863108177084E-03 
1029	 8.88769320168199E-03 
1030	 1.01058577038349E-02 
1031	 1.04420187869201E-02 
1032	 0.010307937806272 
1033	 1.02963339043925E-02 
1034	 1.00094539829349E-02 
1035	 9.83292264607699E-03 
1036	 9.57221559951285E-03 
1037	 9.48086492231978E-03 
1038	 9.26271394432497E-03 
1039	 9.28993033751379E-03 
1040	 0.010153635100972 
1041	 1.03655775779399E-02 
1042	 1.05184891674338E-02 
1043	 1.07792970140863E-02 
1044	 1.07517575588273E-02 
1045	 0.010375703730391 
1046	 0.009923206245104 
1047	 9.06759257773303E-03 
1048	 8.88342990787185E-03 
1049	 8.57042232662442E-03 
1050	 8.71815873733915E-03 
1051	 9.9031701045574E-03 
1052	 1.04157016655004E-02 
1053	 1.08602945136465E-02 
1054	 1.10951171907869E-02 
1055	 1.09609209231081E-02 
1056	 1.09045124513713E-02 
1057	 1.07886764157665E-02 
1058	 0.01048373847981 
1059	 1.03705277198745E-02 
1060	 1.05216886251469E-02 
1061	 0.010142483186333 
1062	 9.2138367273362E-03 
1063	 9.11255104255272E-03 
1064	 8.98088818215787E-03 
1065	 9.15190738791897E-03 
1066	 1.06462805543557E-02 
1067	 1.08600854684491E-02 
1068	 1.01507647166382E-02 
1069	 9.95035075856483E-03 
1070	 9.1636264743165E-03 
1071	 8.89762077377223E-03 
1072	 9.23273676771005E-03 
1073	 9.7186524636462E-03 
1074	 9.77389536927962E-03 
1075	 9.98982415187975E-03 
1076	 9.67062339910263E-03 
1077	 8.38762889794225E-03 
1078	 8.44022524051446E-03 
1079	 9.09291697217498E-03 
1080	 9.12140382311928E-03 
1081	 9.89042370026123E-03 
1082	 9.87956368458391E-03 
1083	 8.36416874645083E-03 
1084	 8.06565317782562E-03 
1085	 8.26677619042531E-03 
1086	 8.53435380598056E-03 
1087	 9.79593619034163E-03 
1088	 1.03208761566934E-02 
1089	 1.07104232570921E-02 
1090	 1.05417896482901E-02 
1091	 1.04905363223984E-02 
1092	 9.83163640470798E-03 
1093	 0.01002087375515 
1094	 1.08742798053501E-02 
1095	 1.09326893500451E-02 
1096	 1.08370086759091E-02 
1097	 1.07570318686633E-02 
1098	 1.01245865185803E-02 
1099	 9.76037160745677E-03 
1100	 9.96875785293861E-03 
1101	 9.92747953948414E-03 
1102	 9.20131017419328E-03 
1103	 8.94919918559298E-03 
1104	 9.21092572973011E-03 
1105	 8.98362613573427E-03 
1106	 8.70075536458913E-03 
1107	 1.00459253949318E-02 
1108	 1.14611487373414E-02 
1109	 1.09994396996033E-02 
1110	 1.08510576712267E-02 
1111	 9.84660512513863E-03 
1112	 9.96810586840706E-03 
1113	 1.09464948308959E-02 
1114	 0.010913395330696 
1115	 1.07311856846312E-02 
1116	 0.010446640100291 
1117	 8.11991590343717E-03 
1118	 7.03401501062403E-03 
1119	 8.97483326928642E-03 
1120	 9.43437212028987E-03 
1121	 8.12542076916209E-03 
1122	 7.16464460154218E-03 
1123	 1.59909729147085E-02 
1124	 8.0254723143079E-03 
1125	-4.72280184825853E-04 
1126	 5.60110269441174E-03 
1127	-3.36253222753993E-03 
1128	 1.80001175932948E-03 
1129	 6.32453133375013E-03 
1130	 1.46231849558972E-02 
1131	 1.58487044005828E-02 
1132	 1.76201079454884E-02 
1133	 1.67484417554793E-02 
1134	 1.02355364769535E-02 
1135	 1.24223814202914E-02 
1136	 1.96273789992231E-02 
1137	 1.95088812656967E-02 
1138	 1.88223091715376E-02 
1139	 2.13986219574975E-02 
1140	 0.016174786158666 
1141	 1.16404292189109E-02 
1142	 1.37685279822154E-02 
1143	 0.01290008386291 
1144	 1.42370977205328E-02 
1145	 1.83532772757003E-02 
1146	 1.62292586311897E-02 
1147	 1.48607700294003E-02 
1148	 1.45008769132948E-02 
1149	 9.69376862515865E-03 
1150	 8.44506775744284E-03 
1151	 1.09146544575565E-02 
1152	 1.04112463269842E-02 
1153	 9.30535429355985E-03 
1154	 9.54770666072347E-03 
1155	 9.92185735551266E-03 
1156	 9.16790251709068E-03 
1157	 0.010681560838608 
1158	 9.34110773757389E-03 
1159	 7.77621558604855E-03 
1160	 8.86974640249075E-03 
1161	 8.21227377482253E-03 
1162	 8.03452587887527E-03 
1163	 9.71841628757332E-03 
1164	 9.84372358566774E-03 
1165	 9.57200296203337E-03 
1166	 9.44371783945508E-03 
1167	 8.2795563468943E-03 
1168	 8.3248340634543E-03 
1169	 9.44707702788482E-03 
1170	 9.71896664353462E-03 
1171	 9.46008274716186E-03 
1172	 8.70970883814011E-03 
1173	 8.19189004671531E-03 
1174	 7.01014381602697E-03 
1175	 6.29115973667783E-03 
1176	 6.76456941636345E-03 
1177	 6.48746009521806E-03 
1178	 5.96422610107156E-03 
1179	 7.00254296698842E-03 
1180	 7.57416466956529E-03 
1181	 6.88315330278265E-03 
1182	 7.13618486095931E-03 
1183	 7.75444545600046E-03 
1184	 7.24747139025653E-03 
1185	 7.32277705393883E-03 
1186	 7.46908692786022E-03 
1187	 6.60065028146529E-03 
1188	 6.52238269556654E-03 
1189	 7.14889923626179E-03 
1190	 7.12949703611407E-03 
1191	 6.62294702669532E-03 
1192	 6.65240922673963E-03 
1193	 6.62458183370939E-03 
1194	 7.05666655381945E-03 
1195	 7.51513822527541E-03 
1196	 7.56943706734036E-03 
1197	 6.74969754605298E-03 
1198	 6.11417229480768E-03 
1199	 6.17597940964939E-03 
1200	 6.21867006438275E-03 
1201	 6.77715262500211E-03 
1202	 7.02712232461167E-03 
1203	 6.85371226399447E-03 
1204	 7.00497775391127E-03 
1205	 6.69725441173026E-03 
1206	 6.45293370159396E-03 
1207	 6.93940695223352E-03 
1208	 7.06532858407654E-03 
1209	 6.98555756955082E-03 
1210	 7.60215209918672E-03 
1211	 7.7955041054985E-03 
1212	 7.66629880609953E-03 
1213	 8.20780245648195E-03 
1214	 8.51888413070672E-03 
1215	 8.78288890725254E-03 
1216	 8.13920100439648E-03 
1217	 0.00771749690225 
1218	 8.51201137581849E-03 
1219	 8.86195527852163E-03 
1220	 7.93770587913653E-03 
1221	 7.67494929490005E-03 
1222	 7.51132349889538E-03 
1223	 6.70242085904792E-03 
1224	 6.9534539779374E-03 
1225	 7.38342939977647E-03 
1226	 6.64116955791577E-03 
1227	 6.16560514879373E-03 
1228	 6.7141887068332E-03 
1229	 6.99224617577975E-03 
1230	 6.67343477046535E-03 
1231	 6.51579548245322E-03 
1232	 6.36736717919096E-03 
1233	 6.28729371343002E-03 
1234	 6.29848059268653E-03 
1235	 6.49544099896725E-03 
1236	 6.96498004124013E-03 
1237	 7.12606128661288E-03 
1238	 7.26426912646976E-03 
1239	 7.32946739090569E-03 
1240	 7.10738055614768E-03 
1241	 6.86727125100232E-03 
1242	 6.88209042802819E-03 
1243	 6.78509759328009E-03 
1244	 6.74200296027562E-03 
1245	 6.6422534040498E-03 
1246	 6.55947565727076E-03 
1247	 6.98323652282477E-03 
1248	 7.44633648334724E-03 
1249	 7.4275910175245E-03 
1250	 7.20182912284091E-03 
1251	 7.06630639407511E-03 
1252	 7.03430355394206E-03 
1253	 0.006966937743536 
1254	 6.66301403821743E-03 
1255	 6.49179228710485E-03 
1256	 6.55842800733563E-03 
1257	 6.9620912773593E-03 
1258	 7.12818981452686E-03 
1259	 7.47845874209632E-03 
1260	 7.52479403324212E-03 
1261	 7.24985440881675E-03 
1262	 7.2500067114099E-03 
1263	 7.36510210413108E-03 
1264	 7.16815014583259E-03 
1265	 6.90717566636796E-03 
1266	 7.04117387885195E-03 
1267	 6.9683919434753E-03 
1268	 6.74869501470779E-03 
1269	 7.12775090460024E-03 
1270	 7.08661912690247E-03 
1271	 6.71539649983295E-03 
1272	 6.7694738770406E-03 
1273	 6.51914876642703E-03 
1274	 6.1261640110681E-03 
1275	 6.24831827893907E-03 
1276	 6.71258421178522E-03 
1277	 7.20680533702543E-03 
1278	 7.28027544344816E-03 
1279	 7.09403434915722E-03 
1280	 6.92877769930889E-03 
1281	 6.76143905489231E-03 
1282	 6.44217664220675E-03 
1283	 6.42671397289414E-03 
1284	 6.61926867064304E-03 
1285	 6.64783306142787E-03 
1286	 6.93905363107157E-03 
1287	 7.01764592159937E-03 
1288	 6.72346044078595E-03 
1289	 6.63943131220706E-03 
1290	 6.61659040118999E-03 
1291	 6.4016773995708E-03 
1292	 6.67219080817093E-03 
1293	 6.75736378316736E-03 
1294	 6.30035788228053E-03 
1295	 6.30096075811008E-03 
1296	 6.4976925939119E-03 
1297	 6.78483133238424E-03 
1298	 6.87981015644934E-03 
1299	 6.58450815078177E-03 
1300	 6.20403741423917E-03 
1301	 5.52061991975794E-03 
1302	 5.31993071141016E-03 
1303	 6.24129723512616E-03 
1304	 7.31862495319177E-03 
1305	 7.2961985493175E-03 
1306	 7.25240864176779E-03 
1307	 7.09862293001826E-03 
1308	 7.20469978439985E-03 
1309	 7.04325070235328E-03 
1310	 6.59758219187046E-03 
1311	 6.15384159780391E-03 
1312	 6.15135488808034E-03 
1313	 5.71761768808403E-03 
1314	 5.39957731353333E-03 
1315	 6.08212382811489E-03 
1316	 6.17103948872863E-03 
1317	 4.79686329132505E-03 
1318	 4.91561419464438E-03 
1319	 6.99634448868036E-03 
1320	 7.48892709501568E-03 
1321	 7.4360649812482E-03 
1322	 7.69343601807805E-03 
1323	 7.01232842809046E-03 
1324	 6.49863163590959E-03 
1325	 5.87100926996809E-03 
1326	 4.86087898071207E-03 
1327	 5.55399324417995E-03 
1328	 5.8889040419172E-03 
1329	 5.09748251554302E-03 
1330	 5.63106245308109E-03 
1331	 6.32042210047807E-03 
1332	 5.59982499656742E-03 
1333	 5.51909862417623E-03 
1334	 6.45449325169433E-03 
1335	 6.61964745863496E-03 
1336	 5.11489982044348E-03 
1337	 5.16723438454822E-03 
1338	 6.42741419635725E-03 
1339	 7.00280491742801E-03 
1340	 8.37792936669497E-03 
1341	 8.0389734833969E-03 
1342	 5.32108010366944E-03 
1343	 4.77601218411458E-03 
1344	 4.32990701539464E-03 
1345	 3.88069908036781E-03 
1346	 5.0925921277795E-03 
1347	 7.34345633752856E-03 
1348	 1.30001098547832E-02 
1349	 1.51494743670305E-02 
1350	 1.12444479983434E-02 
1351	 1.85354589818226E-02 
1352	 3.49710742274406E-02 
1353	 5.29677217145679E-02 
1354	 9.88930716727315E-02 
1355	 0.171482482819739 
1356	 0.174971645763382 
1357	 0.141875865136136 
1358	 0.231239153219537 
1359	 0.164532906379786 
1360	-0.102151051643007 
1361	-0.150730104699472 
1362	-0.310498610490821 
1363	-0.42382903626657 
1364	-0.182710287121721 
1365	 6.84529312508247E-02 
1366	 0.112810526109748 
1367	 0.753147252230105 
1368	 0.731059118726781 
1369	-8.30050938584932E-03 
1370	-1.00215309358359 
1371	-3.10738357106314 
1372	-2.01498828685639 
1373	 42.106690907617 
1374	 2.01142789117741 
1375	 0.579972722322634 
1376	 0.563419705054583 
1377	 0.457894347604 
1378	 0.420645857645088 
1379	 0.227137175981404 
1380	 0.266349135262376 
1381	 0.927572411194623 
1382	 1.05809467823831 
1383	 1.00814946911757E-02 
1384	 0.200215699746626 
1385	 0.407013596114481 
1386	 0.596937402957033 
1387	 1.64284236053306 
1388	 1.82162846991269 
1389	 1.40552973924902 
1390	 0.496647928226023 
1391	 0.183318008295613 
1392	 0.32930329595022 
1393	 0.348803513973915 
1394	 0.505461118540921 
1395	 0.141554099020766 
1396	-0.269104515132196 
1397	-0.429973418324317 
1398	-0.699382949875012 
1399	 3.33374422375972 
1400	-136.081151651125 
1401	 0.752001824734723 
1402	 0.290075439213267 
1403	 1.35583270227849 
1404	 1.72304871230999 
1405	 1.8202221515296 
1406	-25.4877627185411 
1407	 83.9632681291187 
1408	-2.21501470090737 
1409	-1.83838552797471 
1410	-0.523062035135329 
1411	-0.2447357558226 
1412	 0.563945221552768 
1413	 0.399163335587869 
1414	 0.122100999964976 
1415	 0.238516159588991 
1416	 0.266436294591763 
1417	 0.120264496272319 
1418	 0.059950519194374 
1419	 0.121898589802063 
1420	 8.08020456577374E-02 
1421	 2.71369919627878E-02 
1422	 7.83620910807085E-02 
1423	 9.33420936712577E-02 
1424	 3.34723869967634E-02 
1425	-3.3798606138153E-03 
1426	-1.47674839546632E-02 
1427	-6.66316428114408E-03 
1428	-2.06952776843675E-02 
1429	-2.72535802458455E-02 
1430	 8.79787604911824E-03 
1431	 2.67117832107082E-02 
1432	 1.52349093276559E-02 
1433	 2.39806338805158E-02 
1434	 7.31794567932833E-02 
1435	 8.04925020313868E-02 
1436	 7.46688737334241E-02 
1437	 3.91330947933815E-02 
1438	 1.78039247003803E-02 
1439	-1.04046204784923E-03 
1440	 4.75805103784997E-03 
1441	 0.040586706961002 
1442	 5.71940996153198E-02 
1443	 4.64815971673622E-02 
1444	 2.60220514417481E-02 
1445	 1.43288168072085E-02 
1446	 8.86592540758398E-03 
1447	 1.11772547320962E-02 
1448	 1.73384220690344E-02 
1449	 0.01483676115587 
1450	 1.33583257052573E-02 
1451	 6.34074341435269E-03 
1452	 4.28800110789284E-03 
1453	 1.84058191971211E-02 
1454	 2.02540840700734E-02 
1455	 2.39180284150577E-02 
1456	 2.19039045038047E-02 
1457	 1.51066598254563E-02 
1458	 9.77516623726248E-03 
1459	 7.02114816846177E-04 
1460	 3.02086090808263E-04 
1461	 3.76551232580465E-03 
1462	 2.86629867859519E-03 
1463	 6.49585002843519E-03 
1464	 7.5095695217147E-03 
1465	 1.38730018892528E-03 
1466	-6.75617296229919E-04 
1467	 2.70261901598037E-03 
1468	 1.27821604323599E-03 
1469	-5.24103482615952E-03 
1470	-6.24469839468617E-03 
1471	-6.44789080080554E-03 
1472	-5.75757616835993E-03 
1473	 3.96321842888274E-04 
1474	 2.03744082653203E-03 
1475	-1.59891507555487E-03 
1476	 2.24624689100747E-03 
1477	 1.19449081698771E-02 
1478	 0.012035889628635 
1479	 1.02755687679876E-02 
1480	 0.010910097242018 
1481	 6.23449258763677E-03 
1482	 5.35169769390741E-03 
1483	 1.16445389672728E-02 
1484	 1.08370524796625E-02 
1485	 5.63144197041614E-03 
1486	 3.17540338562591E-03 
1487	-8.80286608201602E-04 
1488	-1.56891140838782E-03 
1489	 4.1735178305954E-04 
1490	 1.01699143034713E-03 
1491	 1.68786743330348E-03 
1492	 2.31374877925458E-03 
1493	 2.9062803183464E-03 
1494	 3.04035022030038E-03 
1495	 2.78231927144285E-03 
1496	 3.38869984544815E-03 
1497	 4.93598864470712E-03 
1498	 4.60482730582637E-03 
1499	 3.77994718575299E-03 
1500	 3.23786581828776E-03 
1501	 7.28442491110539E-04 
1502	 1.48898072347381E-04 
1503	 1.54301579922274E-03 
1504	 1.98202373072648E-03 
1505	 2.80846182096728E-03 
1506	 2.8422053415106E-03 
1507	 2.72669247205725E-03 
1508	 2.62022589874044E-03 
1509	 2.33405046573675E-03 
1510	 3.17625853963326E-03 
1511	 3.53718188698297E-03 
1512	 3.11526406650979E-03 
1513	 3.55116921356157E-03 
1514	 3.48543226502082E-03 
1515	 2.63085080475922E-03 
1516	 2.60764256765581E-03 
1517	 2.64095223406067E-03 
1518	 2.20022243026411E-03 
1519	 2.49836022202166E-03 
1520	 3.02061254400977E-03 
1521	 3.28389814451004E-03 
1522	 3.53315326089979E-03 
1523	 3.09889922271909E-03 
1524	 2.38383527483734E-03 
1525	 2.63870174906854E-03 
1526	 2.89113739473316E-03 
1527	 3.03522675425999E-03 
1528	 3.48286919245948E-03 
1529	 2.91478493746351E-03 
1530	 2.44335715798321E-03 
1531	 2.88191927489604E-03 
1532	 3.41785860397748E-03 
1533	 3.43766361111033E-03 
1534	 3.0204063552021E-03 
1535	 3.33202528378574E-03 
1536	 3.78026382251147E-03 
1537	 3.88882641179631E-03 
1538	 4.39044639518071E-03 
1539	 4.29046040942949E-03 
1540	 3.57789475771189E-03 
1541	 3.64146092138516E-03 
1542	 3.77972707910356E-03 
1543	 3.61330450333594E-03 
1544	 3.55608903657685E-03 
1545	 3.54680237605773E-03 
1546	 3.74550782670111E-03 
1547	 3.71059275488485E-03 
1548	 3.65483226610697E-03 
1549	 3.57186502739281E-03 
1550	 3.45308286533203E-03 
1551	 3.52954067910214E-03 
1552	 3.42161683789951E-03 
1553	 3.91855873820254E-03 
1554	 4.27544724829032E-03 
1555	 4.00999155899441E-03 
1556	 4.22315726766133E-03 
1557	 4.24510654891187E-03 
1558	 4.2197918522214E-03 
1559	 4.59228588628051E-03 
1560	 4.55223890298727E-03 
1561	 4.29236241370909E-03 
1562	 4.13582787289592E-03 
1563	 4.25666864687157E-03 
1564	 4.30290514194357E-03 
1565	 3.49506697635968E-03 
1566	 3.22692095197008E-03 
1567	 3.52308834069286E-03 
1568	 3.27370028259117E-03 
1569	 3.39760909200129E-03 
1570	 3.48472722984712E-03 
1571	 3.31436417999207E-03 
1572	 3.52604302457264E-03 
1573	 4.12926127230411E-03 
1574	 4.63228351925352E-03 
1575	 4.0579853032075E-03 
1576	 3.80735329639598E-03 
1577	 4.62590434294364E-03 
1578	 4.58533503995675E-03 
1579	 4.29701610520875E-03 
1580	 4.77314207070215E-03 
1581	 4.32861790247183E-03 
1582	 3.66102615001609E-03 
1583	 4.0245479955184E-03 
1584	 3.78735605089208E-03 
1585	 3.08253211481877E-03 
1586	 2.86145923834673E-03 
1587	 3.28847261296208E-03 
1588	 4.00419312241001E-03 
1589	 3.46793600574053E-03 
1590	 3.12784386530169E-03 
1591	 3.96603627627218E-03 
1592	 3.63004264436611E-03 
1593	 3.34419106556748E-03 
1594	 4.43939186357899E-03 
1595	 4.41873282935599E-03 
1596	 3.48556398448826E-03 
1597	 3.54570336747761E-03 
1598	 3.70338709523782E-03 
1599	 3.70468553917521E-03 
1600	 3.83303105412325E-03 
1601	 3.16424821315532E-03 
1602	 2.6867942802981E-03 
1603	 2.59875241409627E-03 
1604	 2.35547653311664E-03 
1605	 2.74515953994559E-03 
1606	 2.97324265535513E-03 
1607	 2.52397068443276E-03 
1608	 2.31321587419118E-03 
1609	 2.79843987709791E-03 
1610	 2.94998121107291E-03 
1611	 2.16465032589754E-03 
1612	 1.76778460269927E-03 
1613	 1.98316223781831E-03 
1614	 2.12550035511878E-03 
1615	 2.78620747179144E-03 
1616	 3.35245228817321E-03 
1617	 2.77055331545731E-03 
1618	 2.87457213176489E-03 
1619	 3.53720709031835E-03 
1620	 2.90303070572465E-03 
1621	 2.22442673453319E-03 
1622	 2.1598362332922E-03 
1623	 1.87173007649149E-03 
1624	 1.87085356909074E-03 
1625	 2.2046541233515E-03 
1626	 1.60669992696421E-03 
1627	 7.64086272769705E-04 
1628	 9.69004106371306E-04 
1629	 1.85227569174318E-03 
1630	 2.54609982027651E-03 
1631	 3.07308261107194E-03 
1632	 3.47219055362737E-03 
1633	 3.06847742341583E-03 
1634	 2.98302798024129E-03 
1635	 3.38083518353467E-03 
1636	 3.27354548339913E-03 
1637	 3.66487068733815E-03 
1638	 3.63872806466142E-03 
1639	 2.98117289272788E-03 
1640	 3.52359153377401E-03 
1641	 3.5021145657266E-03 
1642	 2.63335711440024E-03 
1643	 2.96226056328287E-03 
1644	 3.40462652912363E-03 
1645	 2.75079425659669E-03 
1646	 2.71843628500205E-03 
1647	 3.72537830869782E-03 
1648	 3.35770958693412E-03 
1649	 2.72859257118713E-03 
1650	 3.91378247182847E-03 
1651	 4.03788397991968E-03 
1652	 2.92016144780898E-03 
1653	 3.61528747755763E-03 
1654	 3.45909744170267E-03 
1655	 2.01608121274766E-03 
1656	 1.82690690843683E-03 
1657	 2.61719823494188E-03 
1658	 3.15853028591719E-03 
1659	 4.3350421428225E-03 
1660	 4.50167047423589E-03 
1661	 3.49054084345709E-03 
1662	 3.50363507646139E-03 
1663	 4.08280453211197E-03 
1664	 3.80002683168859E-03 
1665	 3.47092092035579E-03 
1666	 3.39173182030915E-03 
1667	 2.40551388340788E-03 
1668	 0.00378596945699 
1669	 4.26960541580502E-03 
1670	 3.67340320085047E-03 
1671	 3.33215476967128E-03 
1672	 3.26163648791953E-03 
1673	 3.36496439547315E-03 
1674	 3.73049837618239E-03 
1675	 3.64888708919867E-03 
1676	 3.28060014294208E-03 
1677	 3.26001451358146E-03 
1678	 2.78264878896169E-03 
1679	 2.36812843095544E-03 
1680	 2.76829300549422E-03 
1681	 2.76727117895851E-03 
1682	 2.93229363055567E-03 
1683	 3.59269134998541E-03 
1684	 2.9662077335802E-03 
1685	 2.60516816234545E-03 
1686	 2.96429702002491E-03 
1687	 2.57008621785613E-03 
1688	 3.10967408335438E-03 
1689	 3.95260413088862E-03 
1690	 3.78273419724864E-03 
1691	 3.84194202935118E-03 
1692	 3.62458959203364E-03 
1693	 3.46883794319962E-03 
1694	 3.56359901881647E-03 
1695	 2.96772577951965E-03 
1696	 2.89470490673065E-03 
1697	 2.8555352330596E-03 
1698	 2.79486803860751E-03 
1699	 3.11401423588743E-03 
1700	 3.29313898191228E-03 
1701	 2.82928092550412E-03 
1702	 1.53072066772446E-03 
1703	 2.44610914372147E-03 
1704	 3.20765438238475E-03 
1705	 2.2662887095631E-03 
1706	 3.38185926264221E-03 
1707	 3.26513558363592E-03 
1708	 1.74612563767048E-03 
1709	 2.38155480043253E-03 
1710	 2.97920307820757E-03 
1711	 2.54144855770938E-03 
1712	 2.47822498250678E-03 
1713	 2.00930808449451E-03 
1714	 1.92712342793147E-03 
1715	 2.49681691885745E-03 
1716	 4.47411658283479E-03 
1717	 4.80687235139376E-03 
1718	 5.50825545206181E-03 
1719	 5.25581679529835E-03 
1720	 3.39439634852168E-03 
1721	 2.83284553486704E-03 
1722	 3.04682527766684E-03 
1723	 2.63131839428042E-03 
1724	 3.21188705779251E-03 
1725	 3.08447890249763E-03 
1726	 2.1141510212614E-03 
1727	 2.42182264902203E-03 
1728	 1.47927414941896E-03 
1729	 1.89277848292412E-03 
1730	 3.60947606981002E-03 
1731	 2.73962980445793E-03 
1732	 2.48842247568944E-03 
1733	 2.64866775033314E-03 
1734	 2.02832617852886E-03 
1735	 1.99507333213484E-03 
1736	 1.91471682765291E-03 
1737	 1.57107243752787E-03 
1738	 1.76954156467812E-03 
1739	 2.62213144120229E-03 
1740	 2.99728068196128E-03 
1741	 3.28881019131646E-03 
1742	 2.9846215402159E-03 
1743	 1.76182961846587E-03 
1744	 1.77864440740237E-03 
1745	 2.43045021072787E-03 
1746	 3.01990724242097E-03 
1747	 2.68411886895716E-03 
1748	 1.04582052889218E-03 
1749	 8.27277346217597E-04 
1750	 4.64690677569543E-04 
1751	 1.22135217810623E-03 
1752	 4.85214958995397E-03 
1753	 4.9585676887406E-03 
1754	 3.09107680616046E-03 
1755	 2.40756982791776E-03 
1756	-5.32418093764719E-04 
1757	 3.40359482528247E-03 
1758	 5.52197653509268E-03 
1759	 3.30860201951369E-03 
1760	 4.49479518239248E-03 
1761	 3.50908933770036E-03 
1762	-6.49769535463647E-04 
1763	 9.83581111742813E-04 
1764	 1.83106857459905E-03 
1765	 1.39493597008977E-03 
1766	 4.10726512624453E-03 
1767	 3.22257179425242E-03 
1768	 1.82105698736869E-03 
1769	 8.51962442047829E-04 
1770	-2.3059361578193E-03 
1771	-2.33584751709348E-03 
1772	-2.35599053190066E-03 
1773	-2.4426083369333E-03 
1774	-1.47602629452387E-04 
1775	 1.58848860808613E-03 
1776	 2.33496037292373E-03 
1777	-2.09560948113781E-04 
1778	-1.10932585385066E-03 
1779	-4.70468988668034E-05 
1780	-1.07753814552588E-03 
1781	-4.02937026869276E-03 
1782	-3.54465338931148E-03 
1783	-1.27035495124287E-03 
1784	-6.25296284443196E-04 
1785	 6.89653237901325E-04 
1786	 9.7809964615243E-04 
1787	-1.02669835652177E-03 
1788	-1.82824303061775E-03 
1789	 5.07942385135169E-05 
1790	-1.87386693199792E-04 
1791	-1.49509326630855E-03 
1792	 3.69652599318742E-03 
1793	 6.49369027101523E-03 
1794	 0.00103321403715 
1795	-1.50040063121129E-03 
1796	 1.1041112472296E-03 
1797	-3.50851410925472E-03 
1798	 1.68562637843214E-03 
1799	 9.19949436053782E-03 
1800	 8.8241657215761E-03 
1801	 1.32840486806022E-03 
1802	-3.18420134681037E-02 
1803	-3.87998944979283E-02 
1804	-3.20563177552013E-02 
1805	-3.95031675990014E-02 
1806	 1.20704039288661E-02 
1807	 5.22611196186463E-02 
1808	 3.80626563336505E-02 
1809	 5.26935508814634E-02 
1810	 0.107753320368675 
1811	 0.081352982132136 
1812	-4.63305109380182E-02 
1813	-8.65577944037367E-02 
1814	-0.252397351408162 
1815	-5.87534979628433E-02 
1816	 0.71972932921888 
1817	 0.813743567042539 
1818	 1.20111187447811 
1819	 2.4855830624699 
1820	-16.9220326396118 
1821	 4.83387586114381 
1822	 6.79431977883795 
1823	-6.64241879465117 
1824	-9.41621099267328 
1825	 3.84017196727702 
1826	 1.47532573351018 
1827	 0.56403743826506 
1828	 0.461917641257367 
1829	 0.551868833861279 
1830	 1.90859018788033 
1831	 1.97618805346645E-02 
1832	 6.98017528704867E-02 
1833	 0.286384777718622 
1834	 0.358081715789072 
1835	 0.78749544538463 
1836	 1.21575623332954 
1837	 3.57914176650657 
1838	 7.15471937567535 
1839	 2.44334145151214 
1840	 1.53749818545415 
1841	 3.50182312515439E-02 
1842	-2.21611613260919E-02 
1843	-0.089532036952424 
1844	-0.333357120533052 
1845	-0.361044862254232 
1846	-0.101868099576831 
1847	 7.73913086236317E-02 
1848	 0.147243194420235 
1849	 0.322541217357087 
1850	 0.736434560812204 
1851	 1.37876341960658 
1852	 1.77726267277793 
1853	 8.50391625212462 
1854	 9.99812673285729 
1855	-2.59724799487057E-02 
1856	-0.155120449134775 
1857	 0.258302597074949 
1858	 0.458192659719796 
1859	 1.14655982889377 
1860	 2.0527110465837 
1861	 1.49254197823265 
1862	 0.891542903539316 
1863	 0.500307400813728 
1864	 0.301621927362098 
1865	 0.269899351526915 
1866	 0.321760660010022 
1867	 0.283456601354964 
1868	 0.395692546808789 
1869	 0.437566479059566 
1870	 0.344496303256639 
1871	 0.183382087045372 
1872	 6.72775334758961E-02 
1873	 8.86180737715791E-02 
1874	-0.152367318316281 
1875	-0.254970293105847 
1876	-0.103929886882435 
1877	 0.596666336469381 
1878	 1.47228718038965 
1879	 7.45056402064748 
1880	 40.0785380198639 
1881	-37.0683638098676 
1882	-8.15867091043084 
1883	-1.11043177801954 
1884	-0.482625449614908 
1885	-0.678879776846 
1886	-4.54881428645406E-02 
1887	-0.124060687331247 
1888	-6.03169992884781E-02 
1889	-0.153332911496023 
1890	-0.778812285539399 
1891	-1.69806357410396 
1892	-3.36479560844731 
1893	-6.41286868191051 
1894	 1.29868646535088 
1895	 2.1009579514823 
1896	 2.73592340005931 
1897	 1.62575802302376 
1898	 1.05081140223587 
1899	 0.222294222097124 
1900	 2.20523974825584E-02 
1901	-0.371829977522624 
1902	-0.344462261386776 
1903	 0.205037849942271 
1904	 0.572615941708009 
1905	 0.770544250680571 
1906	 0.838023790708991 
1907	 2.57956734847442 
1908	 7.23128785648986 
1909	 10.2951275944222 
1910	 13.4374122144165 
1911	 0.486799966298962 
1912	-0.240306648782774 
1913	-0.495661363645583 
1914	-4.2644886778866 
1915	-72.6383241481936 
1916	 4.92955071136524 
1917	 1.22703784501409 
1918	 0.895447973317082 
1919	 1.33509762485191 
1920	 1.82835122998961 
1921	-1.75945447095998 
1922	-1.84608933606553 
1923	-0.11949384383561 
1924	-1.92836765670429 
1925	-2.07844843941288 
1926	-2.58775503642518 
1927	 0.565362870587291 
1928	-7.10686509844327 
1929	 0.148435511126963 
1930	-3.34521064101583E-02 
1931	-2.68158784788553E-03 
1932	 0.158527149826941 
1933	 0.372674390621117 
1934	 0.776326439948382 
1935	 1.07286030659974 
1936	 0.878744540985387 
1937	 0.452552823367994 
1938	 0.248688143323576 
1939	 0.220246472137507 
1940	 0.172068403631426 
1941	 0.12251578497879 
1942	 0.188921532881482 
1943	 0.217635594738166 
1944	-3.17157864880865E-03 
1945	-0.206957306994485 
1946	-0.220743535556273 
1947	-0.196430377179608 
1948	-8.34639724449312E-02 
1949	 1.84532607712308E-02 
1950	 7.78226709714419E-02 
1951	 0.175205826287432 
1952	 0.193633678373031 
1953	 0.186403950717953 
1954	 0.115865618381124 
1955	 3.33478717313775E-02 
1956	 3.75336961441329E-03 
1957	 2.97365965430526E-02 
1958	 5.58111811387477E-02 
1959	 3.21918946509502E-02 
1960	 0.002557404954492 
1961	-2.88693381324408E-02 
1962	-5.45318496612748E-02 
1963	-4.57489236633027E-02 
1964	-2.77066881979271E-02 
1965	-2.05363204725772E-02 
1966	-1.57443281550321E-02 
1967	-1.17598046027103E-02 
1968	 3.11219630587306E-04 
1969	 5.88007866745486E-03 
1970	 7.64666531375976E-03 
1971	 2.00715346639603E-02 
1972	 2.43310182194177E-02 
1973	 3.07917164702514E-02 
1974	 4.65214829032901E-02 
1975	 4.64572091412806E-02 
1976	 4.16390553046477E-02 
1977	 0.033303681996179 
1978	 2.01807326726187E-02 
1979	 1.20480387525117E-02 
1980	 6.54624436448744E-03 
1981	 3.47842794959723E-03 
1982	 5.06928501281993E-03 
1983	 5.5439526066323E-03 
1984	 6.79941808023512E-03 
1985	 8.11587145171751E-03 
1986	 3.83166282523233E-03 
1987	 1.46046344968642E-03 
1988	 1.27251413212839E-03 
1989	 5.05531637452601E-03 
1990	 1.05098291208423E-02 
1991	 1.20825414713836E-02 
1992	 0.014193044433214 
1993	 1.29539804234051E-02 
1994	 1.20699959705629E-02 
1995	 8.2655559266476E-03 
1996	 1.07589034306569E-02 
1997	 0.017050369683812 
1998	 2.32249586535645E-02 
1999	 2.49478072681364E-02 
2000	 2.85895839315461E-02 
2001	 3.03985692203768E-02 
2002	 2.21143562991955E-02 
2003	 2.40156165503012E-02 
2004	 0.013122620200519 
2005	-5.95721486725806E-03 
2006	 4.24119565687419E-04 
2007	-8.79938503377565E-03 
2008	-5.92741976684909E-03 
2009	 2.93194370073585E-03 
2010	 1.00933851046412E-02 
2011	 9.47224706337174E-03 
2012	 1.53362264035194E-02 
2013	 0.024783826553834 
2014	 1.26328667687161E-02 
2015	 1.84946301590289E-02 
2016	 3.48255474064416E-02 
2017	 3.38589785255409E-02 
2018	 2.25476172943737E-02 
2019	 9.63806993201974E-03 
2020	-1.12498711402593E-03 
2021	-1.01948223201923E-02 
2022	-5.95872779059195E-03 
2023	 5.08654339886037E-03 
2024	 8.41030058205353E-03 
2025	 1.08919857972146E-02 
2026	 1.15998056644185E-02 
2027	 1.02607694265851E-02 
2028	 6.19697277388552E-03 
2029	 6.34378858115569E-03 
2030	 7.39664446385623E-03 
2031	 0.010473121910071 
2032	 1.15215239468951E-02 
2033	 9.60394609658695E-03 
2034	 6.82922405749664E-03 
2035	 4.93455267818972E-03 
2036	 4.26541726168439E-03 
2037	 3.91605708801617E-03 
2038	 6.53569416194501E-03 
2039	 7.97968815998867E-03 
2040	 9.53741395974162E-03 
2041	 1.10202982897998E-02 
2042	 1.24984163727486E-02 
2043	 1.24951163391628E-02 
2044	 1.20484688887876E-02 
2045	 1.02637683392461E-02 
2046	 7.83789780682809E-03 
2047	 8.4286864262447E-03 
2048	 1.25073693744363E-02 
2049	 1.44924622002418E-02 
2050	 1.35667846587575E-02 
2051	 1.57675175062447E-02 
2052	 1.34268061561036E-02 
2053	 1.06312277926982E-02 
2054	 1.27855367670667E-02 
2055	 1.29313757730506E-02 
2056	 0.014089745555065 
2057	 1.71292544037406E-02 
2058	 1.73022706681778E-02 
2059	 1.59890870290139E-02 
2060	 1.55395688427443E-02 
2061	 1.33749749342365E-02 
2062	 1.36816536481176E-02 
2063	 1.27431945199218E-02 
2064	 1.42302547580763E-02 
2065	 0.017915215124316 
2066	 1.55802149242262E-02 
2067	 1.11689104251431E-02 
2068	 8.51542283255438E-03 
2069	 6.75541390357011E-03 
2070	 6.39751093819786E-03 
2071	 5.51115472690021E-03 
2072	 9.68056187242086E-03 
2073	 1.24216248660619E-02 
2074	 1.24850028819121E-02 
2075	 1.30419271250825E-02 
2076	 0.017057859381302 
2077	 1.77073624465577E-02 
2078	 1.52734438937677E-02 
2079	 1.36710816812019E-02 
2080	 1.25546009059854E-02 
2081	 1.08713197962296E-02 
2082	 6.53098872389948E-03 
2083	 5.32829699210911E-03 
2084	 5.24774304393156E-03 
2085	 2.96986638156004E-03 
2086	 3.57498350851227E-03 
2087	 6.16368354842285E-03 
2088	 7.48082387212217E-03 
2089	 8.43475979565561E-03 
2090	 8.08621470848842E-03 
2091	 8.0640996451905E-03 
2092	 8.39987054339631E-03 
2093	 1.03518450284221E-02 
2094	 1.06873186072707E-02 
2095	 9.12287096496195E-03 
2096	 9.66142124553809E-03 
2097	 1.14841198152657E-02 
2098	 1.13424305907409E-02 
2099	 1.18436875572669E-02 
2100	 1.12764807645694E-02 
2101	 7.91222428375854E-03 
2102	 4.10583581429915E-03 
2103	 2.29388564197798E-03 
2104	 3.89958108179276E-03 
2105	 6.76692688474448E-03 
2106	 1.12237262801381E-02 
2107	 1.17820588059091E-02 
2108	 1.09782619168885E-02 
2109	 1.10008237079952E-02 
2110	 8.46595964340334E-03 
2111	 9.23642633363568E-03 
2112	 9.32153804496629E-03 
2113	 9.19668690517136E-03 
2114	 8.77653811818127E-03 
2115	 8.39324933780492E-03 
2116	 7.71285890263041E-03 
2117	 8.72061023276765E-03 
2118	 9.98281355745219E-03 
2119	 1.03098854623418E-02 
2120	 1.23085893278227E-02 
2121	 1.16461939506572E-02 
2122	 1.01925278220087E-02 
2123	 1.01546562232113E-02 
2124	 9.97630508627556E-03 
2125	 7.78020243311908E-03 
2126	 4.89922195853267E-03 
2127	 6.87925991016707E-03 
2128	 6.29982619229187E-03 
2129	 6.19023226214326E-03 
2130	 9.41555287412263E-03 
2131	 8.36060043415721E-03 
2132	 8.78425840131599E-03 
2133	 9.77268616754108E-03 
2134	 1.10368876526853E-02 
2135	 1.18291029752147E-02 
2136	 1.31880981842437E-02 
2137	 1.70724324931011E-02 
2138	 1.74912492473761E-02 
2139	 1.53271412596282E-02 
2140	 1.51654847275274E-02 
2141	 1.34496373269062E-02 
2142	 1.30782016368008E-02 
2143	 1.54228328322453E-02 
2144	 1.59385780277087E-02 
2145	 1.27609979262285E-02 
2146	 1.21366369661504E-02 
2147	 1.21860005700973E-02 
2148	 7.40582751169174E-03 
2149	 9.29922325182792E-03 
2150	 1.23745857166375E-02 
2151	 1.03651181257017E-02 
2152	 1.32869580030919E-02 
2153	 1.17996233087583E-02 
2154	 6.80600421482936E-03 
2155	 7.49562043231593E-03 
2156	 8.91355948261741E-03 
2157	 1.01023882899725E-02 
2158	 1.33952373012721E-02 
2159	 1.47886388125507E-02 
2160	 1.58754287272893E-02 
2161	 1.53373441923229E-02 
2162	 1.31018980545563E-02 
2163	 1.20334813856964E-02 
2164	 9.52330121771356E-03 
2165	 8.05273949453271E-03 
2166	 7.83625857980416E-03 
2167	 7.13384131581074E-03 
2168	 6.26327300968016E-03 
2169	 5.95903672925826E-03 
2170	 5.97870797731642E-03 
2171	 5.94418288927732E-03 
2172	 7.50786624831034E-03 
2173	 8.72610600143285E-03 
2174	 1.03708624319575E-02 
2175	 0.013616207582307 
2176	 1.17694147872009E-02 
2177	 8.45976540781868E-03 
2178	 8.51238937388615E-03 
2179	 7.79239731833668E-03 
2180	 9.49493902397366E-03 
2181	 1.24234687111712E-02 
2182	 1.23105371295857E-02 
2183	 1.16525044555432E-02 
2184	 7.99938393077373E-03 
2185	 8.1312337649764E-03 
2186	 9.29639129115906E-03 
2187	 1.19830907896769E-02 
2188	 1.03555680229153E-02 
2189	 8.09204567538647E-03 
2190	 7.34354199450749E-03 
2191	 2.74298802340302E-03 
2192	 3.47555203714754E-03 
2193	 1.06633495061342E-02 
2194	 1.42612161911177E-02 
2195	 1.87174837576033E-02 
2196	 1.96526223377895E-02 
2197	 1.72546443605437E-02 
2198	 1.69919835167953E-02 
2199	 1.48824086076123E-02 
2200	 1.51536657170819E-02 
2201	 1.46764206133508E-02 
2202	 1.18137095778694E-02 
2203	 6.84498080889663E-03 
2204	 2.67879897560953E-03 
2205	 2.42524729244552E-03 
2206	 3.19101480546673E-03 
2207	 6.75274938184312E-03 
2208	 1.00441598513301E-02 
2209	 1.17630037025323E-02 
2210	 0.013101305743596 
2211	 1.28496945591493E-02 
2212	 9.41753288433412E-03 
2213	 4.75572678108659E-03 
2214	 7.97964415202197E-03 
2215	 1.01988430040812E-02 
2216	 7.78832496665582E-03 
2217	 9.1761088044661E-03 
2218	 1.17264502944904E-02 
2219	 1.08454940705642E-02 
2220	 1.18674078088423E-02 
2221	 1.08435202930493E-02 
2222	 3.69111796947036E-03 
2223	 2.60155422791794E-03 
2224	 5.24331129683866E-03 
2225	 6.56082451937203E-03 
2226	 9.80030175860779E-03 
2227	 1.21698443330962E-02 
2228	 1.25678361047472E-02 
2229	 1.26839345915238E-02 
2230	 1.38085621104003E-02 
2231	 1.44984805587126E-02 
2232	 0.01527755723332 
2233	 1.57475376229606E-02 
2234	 1.65051410787661E-02 
2235	 1.43995398939149E-02 
2236	 1.48135035805258E-02 
2237	 1.76444219686061E-02 
2238	 2.02899983572565E-02 
2239	 0.023380024684694 
2240	 2.41274963197352E-02 
2241	 2.16262611851821E-02 
2242	 1.87928745056999E-02 
2243	 1.49701876205657E-02 
2244	 1.07165064037825E-02 
2245	 8.60317998772199E-03 
2246	 6.7850319646337E-03 
2247	 4.17837023198987E-03 
2248	 3.3842178258701E-03 
2249	 6.6428471129489E-03 
2250	 1.00059020795434E-02 
2251	 1.08021678525003E-02 
2252	 1.20955232304032E-02 
2253	 0.007886527864559 
2254	 3.86367198760721E-03 
2255	 7.09713361378288E-03 
2256	 7.19194469597844E-03 
2257	 4.31592071334624E-03 
2258	 4.32116690031598E-03 
2259	 4.57733893886759E-03 
2260	 6.23588715273732E-03 
2261	 1.42640382909595E-02 
2262	 1.65211282037876E-02 
2263	 1.46792890265826E-02 
2264	 0.014428036055423 
2265	 1.28611867208487E-02 
2266	 1.25240336768044E-02 
2267	 1.20949531276671E-02 
2268	 1.32760842727912E-02 
2269	 1.77182090399671E-02 
2270	 1.55446573625354E-02 
2271	 1.03592521265449E-02 
2272	 9.36514096624815E-03 
2273	 7.79064304123088E-03 
2274	 4.69155783083635E-03 
2275	 2.66017262532163E-03 
2276	 2.50890668394724E-03 
2277	-4.18931575055641E-03 
2278	-4.89110126721582E-03 
2279	 6.52655788331075E-03 
2280	 8.14084760492995E-03 
2281	 1.72153623879781E-03 
2282	 8.44094179345719E-03 
2283	 1.62264225721074E-02 
2284	 1.45322341332064E-02 
2285	 1.68861178658841E-02 
2286	 1.90490798885326E-02 
2287	 7.17571527426226E-03 
2288	 1.34138133909151E-03 
2289	 7.51477689342082E-03 
2290	 1.15126229233741E-02 
2291	 2.21604051985281E-02 
2292	 0.029607886236314 
2293	 3.04043080929586E-02 
2294	 2.65220964225967E-02 
2295	 1.43360262878063E-02 
2296	 1.19931474671972E-02 
2297	 4.05849340896756E-03 
2298	-1.23604320762548E-03 
2299	 8.3630581286538E-03 
2300	 9.36814209451641E-03 
2301	 1.57076912306423E-02 
2302	 1.56171170634319E-02 
2303	 6.94729227526976E-03 
2304	 1.35907702338368E-03 
2305	-2.10852758494342E-03 
2306	 1.11654259156764E-02 
2307	 0.024355735573683 
2308	 0.033846429328206 
2309	 3.99053614115582E-02 
2310	 2.99866776680648E-02 
2311	 1.76398417306083E-02 
2312	 9.48943297495695E-03 
2313	-3.01158426893384E-03 
2314	-7.27374562376862E-03 
2315	 3.2756203592682E-03 
2316	 4.89908678932575E-03 
2317	 5.95289012770658E-03 
2318	 1.80266721544136E-02 
2319	 1.86690970400917E-02 
2320	 1.96002618753298E-02 
2321	 3.90771134505254E-02 
2322	 4.89709489307174E-02 
2323	 4.51608307870032E-02 
2324	 4.53187182883747E-02 
2325	 2.40381391009465E-02 
2326	 8.20692967847708E-06 
2327	-5.49224701512051E-03 
2328	-6.08914700807977E-03 
2329	-2.10484983196249E-03 
2330	 5.00003340648488E-03 
2331	 2.87237905223891E-02 
2332	 3.47456123086515E-02 
2333	 2.46928194757087E-02 
2334	 2.79221474664079E-02 
2335	 1.32602033706681E-02 
2336	-7.8674933221027E-03 
2337	-5.33957351940857E-03 
2338	 1.57355997483331E-03 
2339	-4.18629927049445E-03 
2340	-5.98544014880131E-04 
2341	 2.72917181187555E-03 
2342	 7.26401692106224E-03 
2343	 2.34321736241947E-02 
2344	 3.69174521780343E-02 
2345	 4.39467127357761E-02 
2346	 2.97351445245497E-02 
2347	 1.54620834555284E-02 
2348	-4.2916120640703E-03 
2349	-9.52515846702205E-03 
2350	 2.26154867393408E-02 
2351	 5.32339704813078E-02 
2352	 7.41267396318638E-02 
2353	 6.14012665997546E-02 
2354	 3.35318038033743E-02 
2355	 0.010799032625677 
2356	-1.27931753662425E-02 
2357	 1.65155292708296E-03 
2358	 3.30947747510192E-02 
2359	 4.53248690695902E-02 
2360	 3.81039331952288E-02 
2361	 8.26184072289095E-05 
2362	-2.65665698175504E-02 
2363	-1.29260113667175E-02 
2364	-1.23290017374627E-02 
2365	-8.06824005430747E-04 
2366	 6.70188970314894E-03 
2367	-0.010863378590303 
2368	 7.27137255320099E-03 
2369	 1.83142542492219E-02 
2370	 2.67555836083006E-02 
2371	 4.26887763883013E-03 
2372	-2.45764190809527E-02 
2373	 3.10152511521548E-03 
2374	-1.06150454147724E-03 
2375	 6.72197606181273E-03 
2376	 1.75078743013678E-02 
2377	-4.26399948697358E-03 
2378	 5.25208840952446E-02 
2379	 7.33041965938474E-02 
2380	 1.32268529633439E-02 
2381	 1.84770673906786E-02 
2382	-5.77575648910266E-03 
2383	-1.97558269620982E-03 
2384	 9.96954520817716E-02 
2385	 0.15375589087511 
2386	 0.188306367399391 
2387	 0.21219937122274 
2388	 0.228717865711283 
2389	 0.237538471417661 
2390	 0.20902559153558 
2391	 0.17313467368727 
2392	 0.140435549274155 
2393	 0.125255948382961 
2394	 0.11872072982334 
2395	 0.121745280099925 
2396	 0.149110986389274 
2397	 0.120541651619682 
2398	 9.31762339909693E-02 
2399	 0.157103459418649 
2400	 0.176656593780338 
2401	 0.11816394269134 
2402	 0.104216298988188 
2403	 5.41979401136771E-02 
2404	 1.02716176396604E-02 
2405	 0.105123142271706 
2406	 0.267691160339577 
2407	 0.331139856945203 
2408	 0.270119577135828 
2409	 0.179043997685119 
2410	 7.52274958904399E-02 
2411	-7.95000009318415E-03 
2412	-9.83404579595437E-02 
2413	-0.206744880247842 
2414	-0.169296952044378 
2415	-0.223902497228102 
2416	-9.71371087245204E-02 
2417	 9.83551642009919E-02 
2418	-2.56013593373692E-02 
2419	-5.84902807745769E-02 
2420	 4.77175429696696E-02 
2421	-2.47400888736448E-02 
2422	 2.07998321490216E-02 
2423	 0.211944237788777 
2424	 0.337380358724678 
2425	 0.394271872398566 
2426	 0.406281733200975 
2427	 0.380257611757747 
2428	 0.195686825433944 
2429	 0.134973913045345 
2430	 9.92695709393934E-02 
2431	-4.23812839587448E-02 
2432	-5.29358218310074E-03 
2433	 6.78287614167531E-02 
2434	 0.162679171245478 
2435	 0.313469805156916 
2436	 0.460019434228196 
2437	 0.875654334153483 
2438	 1.00773680850508 
2439	 0.895413351658157 
2440	 0.874409745078248 
2441	 0.488757900840627 
2442	 0.151984455147242 
2443	 0.131022941597087 
2444	-5.76998478402999E-02 
2445	-0.277589210867978 
2446	-0.153964779672348 
2447	-0.226111618407701 
2448	-0.172150645629898 
2449	 0.252554634264948 
2450	 0.363354270000038 
2451	 0.133577957317831 
2452	 9.55621214967758E-02 
2453	 0.146836470370152 
2454	-0.363957800659488 
2455	-0.658170974407567 
2456	-1.27442145572291E-02 
2457	-0.132895010941837 
2458	-0.941527546252098 
2459	-0.407395673985774 
2460	 6.87889434180797E-02 
2461	-0.269393962505171 
2462	 0.154796135180413 
2463	 0.237699994146959 
2464	-3.48713626223841E-02 
2465	 0.240467964350856 
2466	 0.404951414609007 
2467	-0.105501628203331 
2468	-1.25909585064112E-02 
2469	-0.178215434808412 
2470	 9.47834571395588E-03 
2471	 1.05521363399023 
2472	 2.88451270579547 
2473	-1.40581178775039 
2474	-1.19261907719318 
2475	-0.410955855562101 
2476	 0.283988848026246 
2477	 0.293224015783474 
2478	 0.46529425884052 
2479	 1.06087715899951 
2480	 2.08352788233237 
2481	 3.05242720517723 
2482	-1.20020155329848 
2483	 1.46196006367083 
2484	-0.439923335418123 
2485	-1.15481838472573 
2486	 0.197343398237179 
2487	-0.210332336560976 
2488	 2.18853881169044 
2489	-3.95708721368501 
2490	-1.79944714024196 
2491	-0.203080449924092 
2492	-2.6234795477 
2493	-0.931532237440531 
2494	-1.38037891891655 
2495	-12.3085520938945 
2496	-30.3364638320637 
2497	 11.3635683043335 
2498	-1.02975656785848 
2499	 4.66501459058105 
2500	 5.46071899413614 
