Wavelength	rt0622clean00003.asd
350	 2.92340145244513E-02 
351	 2.87766181374499E-02 
352	 2.99079470806736E-02 
353	 0.030789090210935 
354	 3.04443075940725E-02 
355	 3.06141206307392E-02 
356	 3.06900134189623E-02 
357	 3.05917025112472E-02 
358	 3.04610189497603E-02 
359	 3.06970430264658E-02 
360	 3.13040483816517E-02 
361	 3.18493478052757E-02 
362	 3.17315755984594E-02 
363	 0.031615708804117 
364	 0.031497480856379 
365	 3.14461643213175E-02 
366	 3.17846630971128E-02 
367	 3.17746953482421E-02 
368	 0.031745510331717 
369	 0.032078620647459 
370	 3.22793559246717E-02 
371	 0.032427345161786 
372	 3.26083228327296E-02 
373	 3.28775400270545E-02 
374	 3.29802484175914E-02 
375	 3.30074654916527E-02 
376	 3.32998738039635E-02 
377	 3.44401276228566E-02 
378	 3.41026314393657E-02 
379	 3.40033638056286E-02 
380	 3.53624280081168E-02 
381	 3.46724399778638E-02 
382	 3.46397435434697E-02 
383	 3.52836047523893E-02 
384	 3.54437218944574E-02 
385	 3.57861905635422E-02 
386	 3.60937426248201E-02 
387	 3.62843904092595E-02 
388	 3.65100985962054E-02 
389	 3.73402080637153E-02 
390	 3.77577991198535E-02 
391	 0.037294017159218 
392	 3.75038303573943E-02 
393	 3.75135102687221E-02 
394	 3.76380997486178E-02 
395	 3.83412383381694E-02 
396	 3.85855583686885E-02 
397	 3.85923916726306E-02 
398	 3.87115314352216E-02 
399	 3.92654089511713E-02 
400	 3.92801541753249E-02 
401	 0.039389483398929 
402	 3.98454763532636E-02 
403	 3.94157212467987E-02 
404	 3.94525726879785E-02 
405	 3.99178432245788E-02 
406	 4.02591144501239E-02 
407	 4.02596658628635E-02 
408	 4.04139453975011E-02 
409	 4.07811956944364E-02 
410	 4.09594822431569E-02 
411	 4.08787992995597E-02 
412	 4.09166840145348E-02 
413	 4.12863307012394E-02 
414	 4.16589043740896E-02 
415	 4.18206041711582E-02 
416	 4.19107019762752E-02 
417	 4.21831071688361E-02 
418	 0.042558122558541 
419	 4.27253316635217E-02 
420	 4.27411466728157E-02 
421	 0.043055008213359 
422	 4.35052825579814E-02 
423	 4.38422594177266E-02 
424	 4.39639754149342E-02 
425	 4.41972877477702E-02 
426	 4.47089103943364E-02 
427	 4.51512467740346E-02 
428	 4.50978385132052E-02 
429	 4.55272102340158E-02 
430	 4.60878293805219E-02 
431	 4.65171531093101E-02 
432	 4.68189020234297E-02 
433	 4.71566867433248E-02 
434	 4.74729464841582E-02 
435	 4.77250636308946E-02 
436	 4.80600537094216E-02 
437	 4.85165579377876E-02 
438	 4.89928526735275E-02 
439	 4.93364489269841E-02 
440	 4.97201616298241E-02 
441	 5.01230177911049E-02 
442	 5.04991683395671E-02 
443	 5.07936840366688E-02 
444	 5.12366456763614E-02 
445	 5.17278001636238E-02 
446	 5.20867426037541E-02 
447	 5.21943906426612E-02 
448	 5.24309706336005E-02 
449	 5.28232745780597E-02 
450	 5.31310748519997E-02 
451	 5.33623334938556E-02 
452	 5.36760084104197E-02 
453	 5.40659457433014E-02 
454	 5.41219002704648E-02 
455	 5.43289444204137E-02 
456	 5.45811489776486E-02 
457	 5.46487051917182E-02 
458	 5.48602616697932E-02 
459	 5.51397445354444E-02 
460	 5.53808004246122E-02 
461	 5.54790802817676E-02 
462	 5.56521859055189E-02 
463	 5.58441848052477E-02 
464	 5.59710018436402E-02 
465	 5.60105937748622E-02 
466	 5.61709945546322E-02 
467	 5.64758742218129E-02 
468	 5.68203535290148E-02 
469	 5.69924891853837E-02 
470	 5.70319195755357E-02 
471	 5.71142178923259E-02 
472	 5.75526795803701E-02 
473	 5.77382367657254E-02 
474	 5.78420477132454E-02 
475	 5.80924123053374E-02 
476	 5.80888681094632E-02 
477	 5.83986993081757E-02 
478	 0.058882642248226 
479	 5.89803630310904E-02 
480	 5.92989803689096E-02 
481	 5.95938039761558E-02 
482	 5.97175042413094E-02 
483	 5.99336287542474E-02 
484	 6.03022056778122E-02 
485	 6.06914900036368E-02 
486	 6.09486584243657E-02 
487	 6.12803805891062E-02 
488	 6.16521681326767E-02 
489	 6.20413588251106E-02 
490	 6.24472764709975E-02 
491	 6.27297743859092E-02 
492	 6.31522133672646E-02 
493	 6.37973718651226E-02 
494	 0.064021042188773 
495	 6.44979491699276E-02 
496	 6.51332717410532E-02 
497	 6.54981261604696E-02 
498	 6.59134322953222E-02 
499	 6.64775420366539E-02 
500	 6.71032354455852E-02 
501	 6.74541895771199E-02 
502	 6.79281435269981E-02 
503	 6.85524254269298E-02 
504	 6.92175140815442E-02 
505	 6.97526452387504E-02 
506	 0.07023018140497 
507	 7.06960783387547E-02 
508	 0.071169980347338 
509	 7.16774126923779E-02 
510	 7.23234655188353E-02 
511	 7.30825075148772E-02 
512	 7.36024672775785E-02 
513	 7.41877760464679E-02 
514	 7.48494333997575E-02 
515	 7.54642077135975E-02 
516	 7.59237419122485E-02 
517	 7.66233545120907E-02 
518	 7.75847884035247E-02 
519	 7.83332552861814E-02 
520	 7.89423510757664E-02 
521	 7.95702838606676E-02 
522	 8.03304509437627E-02 
523	 8.10722254711751E-02 
524	 8.18882638883363E-02 
525	 8.27317575723194E-02 
526	 8.34808123879131E-02 
527	 8.43407485913371E-02 
528	 8.51035922569913E-02 
529	 8.57330328060446E-02 
530	 8.66591660971779E-02 
531	 8.75075908326719E-02 
532	 8.82984021102517E-02 
533	 8.91742338387133E-02 
534	 0.090117047490886 
535	 9.09840230960739E-02 
536	 9.18142673240082E-02 
537	 9.28492657020969E-02 
538	 9.37678030221709E-02 
539	 9.46815745667915E-02 
540	 9.57013024746837E-02 
541	 9.65752483714248E-02 
542	 9.75062811990022E-02 
543	 9.84763756748137E-02 
544	 9.93482449684181E-02 
545	 0.100273778479283 
546	 0.101171522796036 
547	 0.102019344815789 
548	 0.102973525309181 
549	 0.103890932466933 
550	 0.104716867732263 
551	 0.105468187072903 
552	 0.106339149359193 
553	 0.107322174420197 
554	 0.108283636058046 
555	 0.10896800572293 
556	 0.109702998997088 
557	 0.110572896369683 
558	 0.111544814379344 
559	 0.112473311978423 
560	 0.113260222088209 
561	 0.113987285591338 
562	 0.114833035474525 
563	 0.115621434222261 
564	 0.116314176655192 
565	 0.116957104270793 
566	 0.117745973926897 
567	 0.118265063401368 
568	 0.118635151643891 
569	 0.119143825335945 
570	 0.119757226586329 
571	 0.120293054647392 
572	 0.120660515244294 
573	 0.1208833466837 
574	 0.121161196309786 
575	 0.12140948115069 
576	 0.121567106174414 
577	 0.121894255688226 
578	 0.122193097473481 
579	 0.122315574319473 
580	 0.122205762771823 
581	 0.122331441357223 
582	 0.122395982635918 
583	 0.122258041054471 
584	 0.122247881585337 
585	 0.122031479747714 
586	 0.121727857553939 
587	 0.121554612445113 
588	 0.121263180299803 
589	 0.121066881673836 
590	 0.120947038890343 
591	 0.120610333726868 
592	 0.120275414919129 
593	 0.119870404194793 
594	 0.11933899449358 
595	 0.118845272033417 
596	 0.118108594402637 
597	 0.117189175615303 
598	 0.116325658119676 
599	 0.115341541953894 
600	 0.114526133426067 
601	 0.114031499490774 
602	 0.113690553686637 
603	 0.113439070802674 
604	 0.113313346183233 
605	 0.113342862937831 
606	 0.113309705620293 
607	 0.113258846770252 
608	 0.11330037828333 
609	 0.11357036322229 
610	 0.113373053679542 
611	 0.11326869620043 
612	 0.113642074812448 
613	 0.113556814715667 
614	 0.113428965623416 
615	 0.113403479929206 
616	 0.113463143303196 
617	 0.113492919222095 
618	 0.113502575794 
619	 0.113514713761358 
620	 0.113548589477613 
621	 0.113541067429287 
622	 0.113502092314818 
623	 0.113473483318964 
624	 0.113527715835633 
625	 0.113482148339608 
626	 0.113344434516263 
627	 0.113309499729426 
628	 0.113357316839573 
629	 0.113366814512904 
630	 0.113298946201448 
631	 0.113392087022439 
632	 0.113446466500848 
633	 0.113355598310422 
634	 0.113102613796513 
635	 0.112970098603256 
636	 0.11281778380571 
637	 0.112629388002969 
638	 0.112628741817383 
639	 0.112477046391071 
640	 0.112282375492896 
641	 0.112189746941434 
642	 0.111916219723157 
643	 0.11162296718408 
644	 0.111358725152818 
645	 0.111072151574199 
646	 0.110704395794803 
647	 0.11034278435626 
648	 0.110072412547463 
649	 0.10989401912514 
650	 0.109714861077428 
651	 0.109305280322799 
652	 0.108547015827695 
653	 0.108233128667128 
654	 0.107874391389046 
655	 0.107148453698204 
656	 0.10620724980131 
657	 0.105665054471015 
658	 0.105167774298112 
659	 0.104435952305174 
660	 0.104127234088159 
661	 0.10369419688842 
662	 0.103115866332576 
663	 0.102699379573121 
664	 0.102389486015839 
665	 0.102034637995121 
666	 0.101576226984842 
667	 0.10113815503131 
668	 0.100890026147441 
669	 0.10079518054646 
670	 0.100713945250875 
671	 0.100415487858631 
672	 0.100238980503175 
673	 0.100268273121854 
674	 0.100321141522489 
675	 0.100332449106396 
676	 0.100369244622396 
677	 0.100504070237712 
678	 0.100775249260343 
679	 0.100848484091847 
680	 0.100990687775698 
681	 0.101622633613824 
682	 0.102136791742593 
683	 0.1024691360393 
684	 0.102753248522571 
685	 0.103366939613974 
686	 0.103995692497034 
687	 0.104513128550606 
688	 0.104917787810134 
689	 0.105495024678603 
690	 0.105837824403476 
691	 0.105749310906429 
692	 0.105240599589534 
693	 0.105383522386519 
694	 0.105476528273853 
695	 0.10511829727506 
696	 0.104798392762705 
697	 0.104342929407965 
698	 0.103626785365963 
699	 0.102709063520257 
700	 0.102325255604853 
701	 0.101622121538202 
702	 0.100569342364125 
703	 9.97739999452391E-02 
704	 9.88266882927477E-02 
705	 9.76788053687691E-02 
706	 9.64591547448974E-02 
707	 9.55156909340274E-02 
708	 9.41560522198541E-02 
709	 9.25540933030173E-02 
710	 9.11051223233207E-02 
711	 8.94241494991773E-02 
712	 8.76407369760923E-02 
713	 8.57710179446435E-02 
714	 8.36395209053804E-02 
715	 8.15835302505534E-02 
716	 7.95132176992933E-02 
717	 7.74911091351472E-02 
718	 7.55905116189874E-02 
719	 7.36233043251357E-02 
720	 0.071997764915845 
721	 7.07216490705387E-02 
722	 6.92201260388926E-02 
723	 6.73797657772796E-02 
724	 6.55099322542039E-02 
725	 6.38626638093747E-02 
726	 0.062189370521207 
727	 6.05332265228098E-02 
728	 5.89610233336367E-02 
729	 5.73354433876914E-02 
730	 5.56766135290456E-02 
731	 0.054320087515254 
732	 5.34466066702154E-02 
733	 5.23988566768043E-02 
734	 5.14946242844092E-02 
735	 5.08549480347776E-02 
736	 0.050248958038677 
737	 4.98691829139042E-02 
738	 4.97993198430505E-02 
739	 4.99287896105557E-02 
740	 4.96377363566889E-02 
741	 4.94391913842885E-02 
742	 4.94598507239407E-02 
743	 4.95816513502101E-02 
744	 4.95727584713243E-02 
745	 4.95433031033751E-02 
746	 4.95877131428218E-02 
747	 4.97279845986119E-02 
748	 4.95987269402634E-02 
749	 4.94858447673364E-02 
750	 4.96197514566856E-02 
751	 4.94496494350724E-02 
752	 4.94170477292656E-02 
753	 4.95334537542275E-02 
754	 4.95806205054341E-02 
755	 0.049643779080334 
756	 4.94348634759123E-02 
757	 4.90148603661062E-02 
758	 4.90165145415167E-02 
759	 4.89998113322744E-02 
760	 4.86598676907217E-02 
761	 4.82502507186319E-02 
762	 0.048439994934124 
763	 4.87229344352854E-02 
764	 4.89517514480062E-02 
765	 4.91531070876151E-02 
766	 4.93111059667461E-02 
767	 4.95515284532644E-02 
768	 4.98240020240912E-02 
769	 4.99097603883301E-02 
770	 4.99662350882727E-02 
771	 5.00107067487366E-02 
772	 5.00621698830079E-02 
773	 5.02252041718311E-02 
774	 5.03230106840885E-02 
775	 5.04850696160789E-02 
776	 0.050841344791361 
777	 5.06377245466109E-02 
778	 5.07041882683792E-02 
779	 5.11391506816206E-02 
780	 5.12334884744257E-02 
781	 5.16157139211216E-02 
782	 5.18552524184863E-02 
783	 5.17032015576739E-02 
784	 0.051727276824335 
785	 5.18113146597735E-02 
786	 5.20478654339541E-02 
787	 5.24624004081139E-02 
788	 5.24673022287265E-02 
789	 5.23810219654904E-02 
790	 5.25814211495955E-02 
791	 5.33277131098625E-02 
792	 5.37433473197774E-02 
793	 5.39531628528656E-02 
794	 5.40840331964033E-02 
795	 0.053994942270098 
796	 5.43154230817391E-02 
797	 5.47787557842038E-02 
798	 5.49685846767197E-02 
799	 5.48178952604781E-02 
800	 5.49639806603965E-02 
801	 5.54509796429464E-02 
802	 5.58868159068619E-02 
803	 0.055691613473805 
804	 5.55854288060074E-02 
805	 5.59049850614425E-02 
806	 0.056406760232448 
807	 5.60558307287895E-02 
808	 5.56034994698486E-02 
809	 5.56397002008224E-02 
810	 5.53121702712305E-02 
811	 0.054873939529702 
812	 5.45996552610998E-02 
813	 5.46884763002472E-02 
814	 5.45765032393518E-02 
815	 5.38312595530259E-02 
816	 5.30155482466846E-02 
817	 0.053192625827245 
818	 5.28855999652487E-02 
819	 5.26430280801501E-02 
820	 5.25655921232156E-02 
821	 5.19734781447805E-02 
822	 5.10843096133227E-02 
823	 5.04189097041915E-02 
824	 5.00875030786163E-02 
825	 4.90459862652227E-02 
826	 4.84882522239135E-02 
827	 0.048175841665942 
828	 4.74514276473005E-02 
829	 4.66510907791191E-02 
830	 4.57645296066909E-02 
831	 0.045145633646651 
832	 4.52616621972056E-02 
833	 4.48416599634217E-02 
834	 0.044757645950066 
835	 4.50154078651845E-02 
836	 4.42553402547717E-02 
837	 4.43935843708828E-02 
838	 4.44775081282611E-02 
839	 4.38541805997814E-02 
840	 4.42930660838887E-02 
841	 4.42917403439741E-02 
842	 4.39543430389166E-02 
843	 4.38451770086008E-02 
844	 4.37077064174909E-02 
845	 4.35087403939417E-02 
846	 0.043323387515956 
847	 4.32678217618944E-02 
848	 4.31227236346393E-02 
849	 4.31795496753872E-02 
850	 4.34562555510801E-02 
851	 4.35496185492035E-02 
852	 4.28575885562229E-02 
853	 4.26687152178787E-02 
854	 4.34234496345677E-02 
855	 0.042965087776327 
856	 4.25817495901591E-02 
857	 4.25830750052256E-02 
858	 0.042825973806227 
859	 4.26328515625599E-02 
860	 0.04208499366263 
861	 4.18644143004693E-02 
862	 4.25626681613704E-02 
863	 4.24066416673014E-02 
864	 4.21143902532698E-02 
865	 4.21734071212815E-02 
866	 4.26054225842217E-02 
867	 4.28086812068929E-02 
868	 0.042499505942244 
869	 4.19250673598191E-02 
870	 4.18787468205716E-02 
871	 4.17144511431422E-02 
872	 4.17548820076613E-02 
873	 4.20730428144631E-02 
874	 4.17240618899903E-02 
875	 4.18655969703834E-02 
876	 4.19788348029961E-02 
877	 4.14425755041221E-02 
878	 4.11819170083637E-02 
879	 4.14547171679063E-02 
880	 4.17171154428001E-02 
881	 4.12341138906289E-02 
882	 4.04953550747862E-02 
883	 0.040560242825317 
884	 4.08981696648882E-02 
885	 0.040109164527845 
886	 4.04547148890938E-02 
887	 4.04873092794251E-02 
888	 4.00534917794199E-02 
889	 4.07465535891337E-02 
890	 4.04537538849074E-02 
891	 3.99161112138884E-02 
892	 3.98354810891094E-02 
893	 3.98436748954294E-02 
894	 3.94194009574146E-02 
895	 3.90364312233578E-02 
896	 3.91468739936059E-02 
897	 3.89896642256666E-02 
898	 3.86121670280088E-02 
899	 3.87950905291921E-02 
900	 3.96737148971015E-02 
901	 3.85510606182142E-02 
902	 3.82746659270315E-02 
903	 3.84765009619691E-02 
904	 3.79565144637292E-02 
905	 3.79911030985491E-02 
906	 3.84257896415193E-02 
907	 0.038812536658455 
908	 3.85053204526681E-02 
909	 3.71153383551463E-02 
910	 3.70900331891143E-02 
911	 3.75220130001148E-02 
912	 3.51055077676953E-02 
913	 3.57926623722563E-02 
914	 0.037034919191837 
915	 3.70398211775586E-02 
916	 3.64155482264125E-02 
917	 3.68170147145851E-02 
918	 3.71717737266398E-02 
919	 3.69840798659925E-02 
920	 0.036995684526777 
921	 3.64329794658464E-02 
922	 3.54967061725057E-02 
923	 3.52280385697826E-02 
924	 3.80924006247492E-02 
925	 3.81528831724592E-02 
926	 3.63599857000433E-02 
927	 3.54654092429049E-02 
928	 3.57645669384068E-02 
929	 3.68970671037846E-02 
930	 3.71976322231853E-02 
931	 3.51779452192393E-02 
932	 3.79353784457201E-02 
933	 0.034754552624029 
934	 3.13370736399121E-02 
935	 3.71661381057718E-02 
936	 3.61028861407411E-02 
937	 3.26989007082314E-02 
938	 2.90258568040286E-02 
939	 2.66747407430141E-02 
940	 3.01022193793139E-02 
941	 3.12595851472736E-02 
942	 0.033390357556305 
943	 4.13111425425656E-02 
944	 3.24171067506282E-02 
945	 3.26452620254949E-02 
946	 3.93268589281379E-02 
947	 3.48773644610053E-02 
948	 3.46426580080512E-02 
949	 3.28649229262592E-02 
950	 2.77522661222115E-02 
951	 2.23704787662435E-02 
952	 0.027895730972245 
953	 3.11491362214951E-02 
954	 3.00890876819564E-02 
955	 3.07764758525257E-02 
956	 2.88441314953403E-02 
957	 0.028122213620389 
958	 2.71047545988681E-02 
959	 2.25186199501582E-02 
960	 2.81734156354102E-02 
961	 3.03006721006605E-02 
962	 2.78431108904754E-02 
963	 2.94616161836037E-02 
964	 3.46555851287623E-02 
965	 3.28043662034361E-02 
966	 2.68061521466868E-02 
967	 2.80477715534676E-02 
968	 3.26865828076302E-02 
969	 3.29712742041172E-02 
970	 0.029160649681805 
971	 2.84247440693611E-02 
972	 0.034153116488217 
973	 3.36953297526142E-02 
974	 2.84041158591755E-02 
975	 3.22702426228075E-02 
976	 2.96122775722711E-02 
977	 2.92129681427751E-02 
978	 3.18072517117672E-02 
979	 3.02322395018983E-02 
980	 3.09689466051305E-02 
981	 3.24953875383381E-02 
982	 0.033215413604055 
983	 0.032261348224858 
984	 2.88939821526056E-02 
985	 2.81294144686408E-02 
986	 3.02559083126296E-02 
987	 3.15031406738133E-02 
988	 3.12829245623942E-02 
989	 0.029997392933632 
990	 0.029293344596053 
991	 3.10085510382994E-02 
992	 3.37811730468556E-02 
993	 3.15418124455804E-02 
994	 2.81643759365343E-02 
995	 3.15292199254139E-02 
996	 2.77168321422703E-02 
997	 2.72434155225953E-02 
998	 3.03468633237016E-02 
999	 3.07787992145665E-02 
1000	 3.16300900354518E-02 
1001	 3.38734381083112E-02 
1002	 0.034005603798732 
1003	 3.38746172815689E-02 
1004	 3.30406683336951E-02 
1005	 3.27399502526846E-02 
1006	 3.24115182734573E-02 
1007	 3.27900252043892E-02 
1008	 3.32927561116507E-02 
1009	 3.32357906275719E-02 
1010	 3.37215690022808E-02 
1011	 3.43739576940513E-02 
1012	 3.47332993057239E-02 
1013	 0.034862915327793 
1014	 3.48501624542713E-02 
1015	 3.42784351360193E-02 
1016	 0.034226789454182 
1017	 3.44063453326411E-02 
1018	 3.44237299113777E-02 
1019	 3.46042957143815E-02 
1020	 3.46387603807164E-02 
1021	 3.43474843071842E-02 
1022	 3.42762943515344E-02 
1023	 3.47333926231786E-02 
1024	 3.49610796821572E-02 
1025	 3.51861425739576E-02 
1026	 3.56956136572233E-02 
1027	 3.56005035563416E-02 
1028	 3.47989113627196E-02 
1029	 3.48300882126263E-02 
1030	 3.50414881532921E-02 
1031	 3.50436312898587E-02 
1032	 3.54591507015139E-02 
1033	 3.56052078485791E-02 
1034	 3.53283374459781E-02 
1035	 3.52595718333181E-02 
1036	 3.51705744150512E-02 
1037	 3.53329704766126E-02 
1038	 3.54704342879846E-02 
1039	 3.60011883975612E-02 
1040	 3.62353536205232E-02 
1041	 3.68148930482976E-02 
1042	 3.68797715299295E-02 
1043	 3.64888065076193E-02 
1044	 3.63336426497709E-02 
1045	 3.61902234018253E-02 
1046	 3.58650590087761E-02 
1047	 3.51759909001703E-02 
1048	 3.51835814684075E-02 
1049	 3.53376943706782E-02 
1050	 3.56595194158918E-02 
1051	 3.69299518938589E-02 
1052	 3.73746326348132E-02 
1053	 3.75080268799326E-02 
1054	 3.74655143325754E-02 
1055	 3.66350658462923E-02 
1056	 3.63475382420234E-02 
1057	 3.62114608949856E-02 
1058	 3.62004520477742E-02 
1059	 3.60793153923815E-02 
1060	 3.62319327121457E-02 
1061	 3.61966376423258E-02 
1062	 3.57600352102608E-02 
1063	 3.58280211921683E-02 
1064	 0.03626581587472 
1065	 3.65182543987698E-02 
1066	 3.71369253086218E-02 
1067	 3.72324588732191E-02 
1068	 3.70939306246001E-02 
1069	 3.67892626442344E-02 
1070	 0.035442426874429 
1071	 0.035168663812753 
1072	 3.53222467602247E-02 
1073	 3.58810144538558E-02 
1074	 3.59755357355818E-02 
1075	 3.67185878105314E-02 
1076	 3.67242335465072E-02 
1077	 3.57544785975225E-02 
1078	 3.55580036432478E-02 
1079	 0.035721307429054 
1080	 0.035610150881411 
1081	 3.56937514328321E-02 
1082	 3.55162581319272E-02 
1083	 3.48225371846616E-02 
1084	 3.46337795486829E-02 
1085	 3.47323964445197E-02 
1086	 3.45554417510173E-02 
1087	 3.42721524778651E-02 
1088	 3.44002293643379E-02 
1089	 3.49844622793929E-02 
1090	 3.47978758460767E-02 
1091	 3.47850658407431E-02 
1092	 0.035263575893449 
1093	 3.51025554254292E-02 
1094	 3.42449309120525E-02 
1095	 3.37508943967662E-02 
1096	 3.30695141231461E-02 
1097	 0.032783108097218 
1098	 0.032702667720682 
1099	 3.25465601562426E-02 
1100	 3.28999616634788E-02 
1101	 3.27209746549992E-02 
1102	 3.18399667487114E-02 
1103	 3.16723671914982E-02 
1104	 3.21630467538854E-02 
1105	 3.16802173724254E-02 
1106	 3.18573492131646E-02 
1107	 3.13630853763475E-02 
1108	 3.00358837308875E-02 
1109	 3.01896552376191E-02 
1110	 3.03761563538088E-02 
1111	 3.21461369509042E-02 
1112	 3.21883150710266E-02 
1113	 3.07437836135147E-02 
1114	 3.06781574696459E-02 
1115	 3.05668703719405E-02 
1116	 3.03695832155403E-02 
1117	 3.28393572631002E-02 
1118	 3.30100625941351E-02 
1119	 2.71337048510544E-02 
1120	 2.51579671006457E-02 
1121	 2.28292926586565E-02 
1122	 2.93059080997311E-02 
1123	 2.95946259107167E-02 
1124	 3.16412100172015E-02 
1125	 3.93696726610117E-02 
1126	 3.24059378208724E-02 
1127	 2.68966855226615E-02 
1128	 2.91070086895351E-02 
1129	 2.63072969371409E-02 
1130	 0.014557464385133 
1131	 1.54155333160225E-02 
1132	 2.33019693163887E-02 
1133	 2.45114599241283E-02 
1134	 2.74704154500964E-02 
1135	 2.66390981769958E-02 
1136	 0.020557270644444 
1137	 2.08961910452457E-02 
1138	 2.37345282038486E-02 
1139	 2.39439531857449E-02 
1140	 2.59426653261799E-02 
1141	 0.027255447429862 
1142	 2.71922007966965E-02 
1143	 2.86317628110955E-02 
1144	 2.78091321654553E-02 
1145	 2.39823189091263E-02 
1146	 2.29091670253562E-02 
1147	 2.17094472208016E-02 
1148	 2.01073337429734E-02 
1149	 2.10585452214666E-02 
1150	 2.17948227882231E-02 
1151	 2.10517589230861E-02 
1152	 0.021224308083923 
1153	 2.38453878168299E-02 
1154	 2.36383341781236E-02 
1155	 0.021955782721084 
1156	 0.020909507557365 
1157	 2.07124026886206E-02 
1158	 2.03874353458437E-02 
1159	 2.09463854060448E-02 
1160	 2.16035413814283E-02 
1161	 2.26428171266454E-02 
1162	 2.30499309430234E-02 
1163	 0.023454389376765 
1164	 2.41846590675065E-02 
1165	 0.023376316122744 
1166	 2.31289557554076E-02 
1167	 0.024143993757811 
1168	 2.42347737619361E-02 
1169	 2.40425198118143E-02 
1170	 2.45964739668084E-02 
1171	 2.45038788606305E-02 
1172	 2.30569883388751E-02 
1173	 2.30265307529978E-02 
1174	 2.37828479109193E-02 
1175	 2.40776036181655E-02 
1176	 2.38943568225498E-02 
1177	 2.42967678613834E-02 
1178	 2.39637655617827E-02 
1179	 2.30617130355106E-02 
1180	 2.29245610068324E-02 
1181	 2.32619027948252E-02 
1182	 2.29436144372361E-02 
1183	 2.25384354721207E-02 
1184	 2.28573931586847E-02 
1185	 2.27790743228574E-02 
1186	 2.29966418685145E-02 
1187	 2.40897983706362E-02 
1188	 2.37985680049878E-02 
1189	 2.28066104923304E-02 
1190	 0.023039403778406 
1191	 0.023566471776 
1192	 2.34887340313412E-02 
1193	 2.35937177120239E-02 
1194	 2.37488568119969E-02 
1195	 2.35154829083035E-02 
1196	 2.31993193773022E-02 
1197	 2.33425535065524E-02 
1198	 2.39871686912627E-02 
1199	 2.42953012107528E-02 
1200	 2.38564206592882E-02 
1201	 2.36559352642815E-02 
1202	 2.39830493847123E-02 
1203	 2.40930832273673E-02 
1204	 2.36190058889646E-02 
1205	 2.32764711343003E-02 
1206	 2.37446279524059E-02 
1207	 2.40041610072495E-02 
1208	 2.37434321401014E-02 
1209	 2.35299519372213E-02 
1210	 2.32703968465414E-02 
1211	 0.023173420598531 
1212	 2.34795918474026E-02 
1213	 2.39866673239956E-02 
1214	 2.42629273250117E-02 
1215	 2.42932427670298E-02 
1216	 2.40744562676758E-02 
1217	 2.40035350000007E-02 
1218	 2.38773403905647E-02 
1219	 2.38243232823449E-02 
1220	 2.36029905697009E-02 
1221	 2.34719918860132E-02 
1222	 2.39872434711999E-02 
1223	 2.41874858440739E-02 
1224	 2.41008372234767E-02 
1225	 2.42693970353122E-02 
1226	 2.42948104723039E-02 
1227	 2.41818049079662E-02 
1228	 2.42419486141349E-02 
1229	 2.43154789680246E-02 
1230	 2.41919684289307E-02 
1231	 0.024016746100059 
1232	 2.40614875180485E-02 
1233	 2.42678006677664E-02 
1234	 2.41243392302554E-02 
1235	 2.41715482713577E-02 
1236	 2.44443982002508E-02 
1237	 2.45819596041914E-02 
1238	 2.45379129729887E-02 
1239	 0.024911832045826 
1240	 2.55390937966271E-02 
1241	 0.025154424130138 
1242	 2.48730599663234E-02 
1243	 2.51503009531543E-02 
1244	 2.47906864690833E-02 
1245	 2.44520113057652E-02 
1246	 2.48532799313006E-02 
1247	 2.48603202362772E-02 
1248	 2.43748050002646E-02 
1249	 2.45347988257742E-02 
1250	 2.50521915921672E-02 
1251	 2.46796618381441E-02 
1252	 2.43931595701233E-02 
1253	 2.51514106172875E-02 
1254	 2.55160677945196E-02 
1255	 2.53620401616663E-02 
1256	 2.51064800322098E-02 
1257	 2.45482442989372E-02 
1258	 2.43235889204124E-02 
1259	 2.40121410600639E-02 
1260	 2.38394356468383E-02 
1261	 2.40883787978882E-02 
1262	 2.42112698223897E-02 
1263	 2.42759646706376E-02 
1264	 0.023799674974773 
1265	 2.36930064485606E-02 
1266	 2.38571617360194E-02 
1267	 2.34088806401645E-02 
1268	 2.33415943097399E-02 
1269	 2.37021196781989E-02 
1270	 0.023915409217313 
1271	 2.40375012890005E-02 
1272	 2.42888107774193E-02 
1273	 2.46850357929525E-02 
1274	 2.49614193388773E-02 
1275	 2.45254238859098E-02 
1276	 2.40363526436291E-02 
1277	 2.43937915159703E-02 
1278	 2.45841366550622E-02 
1279	 2.44527058290953E-02 
1280	 2.43448261523567E-02 
1281	 2.43042511276098E-02 
1282	 2.35003169419741E-02 
1283	 2.33490256573649E-02 
1284	 2.43460437732307E-02 
1285	 2.43916903842279E-02 
1286	 2.34731258862985E-02 
1287	 2.34434240579754E-02 
1288	 2.38071557962109E-02 
1289	 2.36604649533539E-02 
1290	 2.34273125333927E-02 
1291	 0.02393758119096 
1292	 0.024279008133256 
1293	 2.35782621526634E-02 
1294	 2.31130993307463E-02 
1295	 2.34627257432501E-02 
1296	 2.33383716937766E-02 
1297	 0.022938197073979 
1298	 2.36731673196878E-02 
1299	 2.38426964099637E-02 
1300	 2.30285310168476E-02 
1301	 2.30019622427127E-02 
1302	 2.26263201388468E-02 
1303	 2.20036925425367E-02 
1304	 2.21991313128519E-02 
1305	 2.21456899309856E-02 
1306	 2.22604369566578E-02 
1307	 2.32629925774607E-02 
1308	 2.30546540458153E-02 
1309	 2.15283399178204E-02 
1310	 2.14396565412812E-02 
1311	 2.19268564279899E-02 
1312	 2.14793353464248E-02 
1313	 2.09854104179352E-02 
1314	 2.12371422316431E-02 
1315	 2.13801709861274E-02 
1316	 2.07444577221461E-02 
1317	 2.05648350086134E-02 
1318	 2.07210548498899E-02 
1319	 1.97716364175768E-02 
1320	 1.92181764518312E-02 
1321	 1.96137863190939E-02 
1322	 2.04517942341426E-02 
1323	 1.98975704922445E-02 
1324	 1.87665980100045E-02 
1325	 1.94733856441783E-02 
1326	 2.00232263203848E-02 
1327	 1.89588164945339E-02 
1328	 1.87260652320814E-02 
1329	 1.84609415220321E-02 
1330	 1.69351020258885E-02 
1331	 1.71154524696945E-02 
1332	 0.019163532840584 
1333	 0.017927998663681 
1334	 1.50093342207663E-02 
1335	 1.56247429873271E-02 
1336	 0.018772234526812 
1337	 0.01823353221466 
1338	 1.75219581925151E-02 
1339	 0.018635368850138 
1340	 1.74918364135354E-02 
1341	 1.67931931908882E-02 
1342	 2.14046555435397E-02 
1343	 2.28737173658042E-02 
1344	 1.83115277596618E-02 
1345	 1.61993120850284E-02 
1346	 1.43381274277889E-02 
1347	 1.25137285186154E-02 
1348	 1.26734707456584E-02 
1349	 0.011199081919818 
1350	 1.33876625836355E-02 
1351	 1.15595012993938E-02 
1352	-1.34713722618476E-02 
1353	-2.93844289151233E-02 
1354	-2.22197443563599E-02 
1355	-3.24757416316907E-02 
1356	-5.18463994514445E-02 
1357	-1.59841613082056E-02 
1358	-0.103438379062937 
1359	-0.224423392775958 
1360	-0.11201264496848 
1361	-1.10434856500283E-02 
1362	-2.50019003298149E-03 
1363	 1.99816561508504E-02 
1364	 8.45438795589877E-02 
1365	 0.04138974338072 
1366	 4.74115803489893E-02 
1367	 0.198897182978759 
1368	 0.219661886012547 
1369	 9.30355251420506E-02 
1370	 0.217932686516845 
1371	 0.476942786847538 
1372	 0.293078271570398 
1373	 8.40624999713506E-02 
1374	 0.074021328689523 
1375	-0.269873929694348 
1376	-0.38565554667519 
1377	-7.04556591400513E-02 
1378	-6.9422993367163E-03 
1379	-0.3045872457305 
1380	-0.253376840598542 
1381	 0.456667245039794 
1382	 0.568959477099993 
1383	 2.12659670630815E-02 
1384	 0.388811588528652 
1385	-8.89641679524633 
1386	-6.11306776331793 
1387	-5.00949540086357 
1388	-3.14363037644438 
1389	 16.8774969168322 
1390	 0.998907145781982 
1391	 0.176329035025081 
1392	 0.912011035949482 
1393	 3.68718989318075 
1394	 0.858815894508398 
1395	 1.34294855226162 
1396	-0.3840723643722 
1397	-0.309451154689575 
1398	-0.634998036050957 
1399	 1.34836147464493 
1400	-0.756768168977912 
1401	-0.420400171316857 
1402	-1.23600491989388 
1403	-0.533020524370422 
1404	 0.11088588190779 
1405	-1.21291873816736E-02 
1406	-0.778140617705742 
1407	-1.17225327761688 
1408	-5.32255904885895 
1409	-1.47420508318558 
1410	-6.10935961651728E-02 
1411	 1.21040904135481E-02 
1412	 9.72565323814265E-02 
1413	 0.157071178905462 
1414	 0.115979464456918 
1415	 6.46554760499414E-02 
1416	 6.46591865853354E-03 
1417	 4.27819909915649E-02 
1418	 0.114931094401337 
1419	 6.72610675711811E-02 
1420	 6.45892060323501E-03 
1421	 1.45907626908057E-02 
1422	-7.99424306474109E-03 
1423	-2.40428684180785E-02 
1424	 1.14869100899708E-02 
1425	 2.63857117192462E-02 
1426	 1.17412567662038E-02 
1427	 1.8708931760329E-03 
1428	 9.11738848207813E-03 
1429	 1.22538578055263E-02 
1430	-1.72027840174205E-03 
1431	-9.66948350080454E-03 
1432	-1.63704112276273E-02 
1433	-1.04536613140118E-02 
1434	 1.98476835082459E-02 
1435	 2.28183090386643E-02 
1436	 1.42880969770561E-02 
1437	 1.08546162382284E-02 
1438	 0.018903630910697 
1439	-6.24700061813109E-03 
1440	-1.95380080139513E-02 
1441	 2.65369019746409E-03 
1442	 1.27352364211693E-02 
1443	 1.19484474902072E-02 
1444	 1.08431206083792E-02 
1445	-2.90025437108011E-03 
1446	-7.92423676058019E-03 
1447	-4.38355628269624E-03 
1448	-3.25939797541628E-03 
1449	 4.39328457378999E-04 
1450	-8.06739201203841E-04 
1451	-3.58513419298633E-03 
1452	-2.81862679621845E-03 
1453	-1.39124644337795E-04 
1454	 1.10075777772918E-03 
1455	-5.53433459336628E-04 
1456	-1.33840741129156E-03 
1457	-2.16704409477609E-04 
1458	 4.88152381470307E-04 
1459	-8.27212503809909E-04 
1460	 1.11589055038042E-03 
1461	 7.55519414324571E-03 
1462	 6.9072888924167E-03 
1463	 1.38508030619527E-03 
1464	 2.50559651787339E-03 
1465	 5.5405026805992E-03 
1466	 3.2641410047519E-03 
1467	 1.43008054192472E-03 
1468	 2.86209086249748E-03 
1469	-1.97622538536942E-04 
1470	-2.46734232612493E-03 
1471	 1.49280960432343E-03 
1472	 5.41665100319093E-03 
1473	 5.7275898976736E-03 
1474	 5.4747032298017E-03 
1475	 9.89983957280887E-03 
1476	 1.15887969751479E-02 
1477	 7.76751472925964E-03 
1478	 6.62608630460943E-03 
1479	 8.19584836831636E-03 
1480	 8.79114442013882E-03 
1481	 7.93365673039876E-03 
1482	 8.17930219918416E-03 
1483	 1.16585164053601E-02 
1484	 1.01828959539249E-02 
1485	 3.79874579477024E-03 
1486	 3.51489717879792E-03 
1487	 4.97632866753175E-03 
1488	 4.90029961660209E-03 
1489	 6.35015064717766E-03 
1490	 7.74999288719219E-03 
1491	 8.78684825740919E-03 
1492	 8.06164584585439E-03 
1493	 6.45432872134054E-03 
1494	 7.00587176858734E-03 
1495	 7.81139497665386E-03 
1496	 7.36731055646621E-03 
1497	 7.62911497309769E-03 
1498	 7.9540555499794E-03 
1499	 6.84420089093377E-03 
1500	 6.45677563571599E-03 
1501	 7.48428578597158E-03 
1502	 7.92089165345721E-03 
1503	 7.40563020555073E-03 
1504	 7.43495840775547E-03 
1505	 8.10468591334972E-03 
1506	 8.57739918265765E-03 
1507	 7.83669845744394E-03 
1508	 7.37718552820758E-03 
1509	 7.7372936492683E-03 
1510	 8.02543878263212E-03 
1511	 8.59069011916062E-03 
1512	 8.98801324136217E-03 
1513	 8.53974781292571E-03 
1514	 7.91814316434783E-03 
1515	 8.54283173293134E-03 
1516	 8.90619136647401E-03 
1517	 7.36322067305168E-03 
1518	 6.87974316769821E-03 
1519	 7.00421660053306E-03 
1520	 6.46440334685531E-03 
1521	 6.99639826683156E-03 
1522	 8.10034374644269E-03 
1523	 8.35173636748602E-03 
1524	 8.07005867520773E-03 
1525	 8.4134406676624E-03 
1526	 8.76377115022318E-03 
1527	 8.64901828941842E-03 
1528	 8.94359601638993E-03 
1529	 9.1903709384308E-03 
1530	 9.14095741366676E-03 
1531	 9.29627851824937E-03 
1532	 9.48028200385121E-03 
1533	 1.00818993461128E-02 
1534	 1.00315879946636E-02 
1535	 9.19275877005799E-03 
1536	 9.22080198817147E-03 
1537	 9.2847584738398E-03 
1538	 9.33867442187938E-03 
1539	 9.37755201544219E-03 
1540	 8.95825338257328E-03 
1541	 8.51103417390265E-03 
1542	 8.13616724881673E-03 
1543	 8.69623771032983E-03 
1544	 9.18342446174299E-03 
1545	 9.26774796802633E-03 
1546	 1.00931716574032E-02 
1547	 1.02258560430404E-02 
1548	 9.85954582150069E-03 
1549	 1.00089670500487E-02 
1550	 9.59952954367694E-03 
1551	 9.29555287274609E-03 
1552	 9.89624420718436E-03 
1553	 9.9119434289476E-03 
1554	 9.48471549845362E-03 
1555	 9.67180786310949E-03 
1556	 9.7091819413715E-03 
1557	 9.8248568951319E-03 
1558	 1.03101336971086E-02 
1559	 1.03562426241219E-02 
1560	 1.01289715314158E-02 
1561	 0.01039925750765 
1562	 1.11294458383969E-02 
1563	 1.11689742358536E-02 
1564	 1.07604302316073E-02 
1565	 1.04649937800466E-02 
1566	 9.66725689779885E-03 
1567	 9.15496832060973E-03 
1568	 9.29691821198113E-03 
1569	 9.03973220057951E-03 
1570	 9.00308180634962E-03 
1571	 9.46131940811573E-03 
1572	 9.94323311134024E-03 
1573	 1.09034001683449E-02 
1574	 1.11039420824235E-02 
1575	 9.93888526479795E-03 
1576	 9.54562095551136E-03 
1577	 1.03932669843442E-02 
1578	 0.010720563432943 
1579	 0.010682454756735 
1580	 1.09475379786694E-02 
1581	 1.08264573605579E-02 
1582	 1.07250034321987E-02 
1583	 1.10223923214814E-02 
1584	 0.011156934507004 
1585	 1.08326195709137E-02 
1586	 1.04352776991072E-02 
1587	 1.08539986459242E-02 
1588	 1.13928561822629E-02 
1589	 1.11902876763442E-02 
1590	 1.11572260962684E-02 
1591	 1.15840455660278E-02 
1592	 1.20736893102949E-02 
1593	 1.23187907231302E-02 
1594	 0.011723821963769 
1595	 1.10147567467908E-02 
1596	 1.12687754997293E-02 
1597	 1.18354775069208E-02 
1598	 1.19241825812943E-02 
1599	 1.14385311826606E-02 
1600	 1.08401581687572E-02 
1601	 1.05441072839439E-02 
1602	 1.09924482104988E-02 
1603	 1.20384775686545E-02 
1604	 1.20276544468951E-02 
1605	 1.14827502188456E-02 
1606	 1.16769412134736E-02 
1607	 1.16371189306981E-02 
1608	 1.17094001476951E-02 
1609	 1.23461080144548E-02 
1610	 1.25063357560536E-02 
1611	 1.22502624106696E-02 
1612	 1.21735596789197E-02 
1613	 1.21736254458443E-02 
1614	 1.20945676261434E-02 
1615	 1.19941087845912E-02 
1616	 1.16948230667725E-02 
1617	 1.13121825292616E-02 
1618	 1.10807042079974E-02 
1619	 1.12751558952023E-02 
1620	 1.17107127569315E-02 
1621	 1.14973745911422E-02 
1622	 1.15842319934058E-02 
1623	 1.19799659004338E-02 
1624	 1.19009330540696E-02 
1625	 1.21671848054228E-02 
1626	 1.19699090080423E-02 
1627	 1.16110835717852E-02 
1628	 1.18799404488627E-02 
1629	 1.20355960000182E-02 
1630	 0.012259352862991 
1631	 1.21118461437358E-02 
1632	 1.12002956662765E-02 
1633	 1.05334674693874E-02 
1634	 0.010560266954191 
1635	 1.07791660168303E-02 
1636	 1.12008301736425E-02 
1637	 1.15760204869221E-02 
1638	 1.17193325414178E-02 
1639	 1.18248396117084E-02 
1640	 1.15906267333683E-02 
1641	 1.13823068691418E-02 
1642	 1.14354248088177E-02 
1643	 1.11776147032251E-02 
1644	 1.09769416350089E-02 
1645	 0.011443234212017 
1646	 1.16468535829782E-02 
1647	 1.13679478293239E-02 
1648	 1.14929173234448E-02 
1649	 1.19273383548627E-02 
1650	 1.21613151463917E-02 
1651	 1.22725943018741E-02 
1652	 1.22961262127602E-02 
1653	 1.23565013512627E-02 
1654	 1.24173749384291E-02 
1655	 1.25679407815794E-02 
1656	 0.012601625612621 
1657	 1.24669177468082E-02 
1658	 1.23662912702565E-02 
1659	 1.20862841152623E-02 
1660	 1.19177275306033E-02 
1661	 1.20653224737035E-02 
1662	 1.18035937331311E-02 
1663	 1.11362058990596E-02 
1664	 1.12987905229788E-02 
1665	 1.18450577892886E-02 
1666	 1.17546604684585E-02 
1667	 1.17635770509938E-02 
1668	 1.08862226375692E-02 
1669	 1.08657461134481E-02 
1670	 1.16241504745647E-02 
1671	 1.17311456598346E-02 
1672	 1.23081396310522E-02 
1673	 0.01270674093422 
1674	 1.18601189177009E-02 
1675	 1.14499354179925E-02 
1676	 1.16252167999487E-02 
1677	 1.19311849199019E-02 
1678	 1.20784532314052E-02 
1679	 1.14375461531992E-02 
1680	 1.12824219506479E-02 
1681	 1.17703987825026E-02 
1682	 1.15384759168742E-02 
1683	 1.17615757215745E-02 
1684	 1.25871367809473E-02 
1685	 1.19117283929125E-02 
1686	 1.09634843613081E-02 
1687	 1.12089272792568E-02 
1688	 1.14457948617186E-02 
1689	 1.19040991224999E-02 
1690	 1.30543806356829E-02 
1691	 1.35180508076145E-02 
1692	 1.30001241223601E-02 
1693	 1.25402579838427E-02 
1694	 1.23271670626379E-02 
1695	 1.20131414962183E-02 
1696	 1.20944535603594E-02 
1697	 1.22866111975228E-02 
1698	 1.17046864356573E-02 
1699	 1.15971063612235E-02 
1700	 1.15908950532785E-02 
1701	 1.12156007541845E-02 
1702	 1.16430165066367E-02 
1703	 1.19833431488492E-02 
1704	 1.23429028871758E-02 
1705	 1.29915390318398E-02 
1706	 1.24681729885386E-02 
1707	 1.16739962359466E-02 
1708	 1.21714315643176E-02 
1709	 1.22987674297019E-02 
1710	 1.14052120479064E-02 
1711	 1.13641181066949E-02 
1712	 1.21111673209565E-02 
1713	 1.18228433378032E-02 
1714	 1.13213799208154E-02 
1715	 1.14201281698205E-02 
1716	 0.010876107925212 
1717	 1.07828312297431E-02 
1718	 1.26920266570379E-02 
1719	 1.29075356268444E-02 
1720	 1.22090866666515E-02 
1721	 1.31045075880969E-02 
1722	 1.27182391008851E-02 
1723	 0.011959635121903 
1724	 1.23067088446503E-02 
1725	 1.21433322257392E-02 
1726	 1.27961493417726E-02 
1727	 0.012746671881054 
1728	 1.05900312965265E-02 
1729	 9.73276627988134E-03 
1730	 9.91970356161062E-03 
1731	 1.06975393679829E-02 
1732	 1.20679601096736E-02 
1733	 1.19150007257033E-02 
1734	 1.08828117721507E-02 
1735	 9.34205027387371E-03 
1736	 9.07489923173907E-03 
1737	 1.11532530243439E-02 
1738	 1.22311719867893E-02 
1739	 1.24435055125217E-02 
1740	 1.30989402475507E-02 
1741	 1.15579789087929E-02 
1742	 9.68821232180806E-03 
1743	 1.01766804212076E-02 
1744	 1.03441830894393E-02 
1745	 1.03795526899857E-02 
1746	 1.01663989875121E-02 
1747	 1.01427066830093E-02 
1748	 9.96988164347279E-03 
1749	 1.00141899393335E-02 
1750	 1.10457090126726E-02 
1751	 1.10824307624584E-02 
1752	 1.02409375465879E-02 
1753	 1.04555711112657E-02 
1754	 1.06522771515623E-02 
1755	 1.01007568447512E-02 
1756	 0.010163782325617 
1757	 9.16985915794748E-03 
1758	 8.57371703904044E-03 
1759	 0.011136487328827 
1760	 1.18232225617421E-02 
1761	 9.07287295098335E-03 
1762	 8.20917132117471E-03 
1763	 7.90439187928735E-03 
1764	 7.53548271386901E-03 
1765	 1.09011649923762E-02 
1766	 0.012792250959896 
1767	 9.55439472409137E-03 
1768	 7.8606886709828E-03 
1769	 7.72734182912976E-03 
1770	 6.7521491616803E-03 
1771	 8.82316072464377E-03 
1772	 9.1119338461655E-03 
1773	 8.8129233249596E-03 
1774	 1.27609563522901E-02 
1775	 1.37310984670891E-02 
1776	 0.014174056091422 
1777	 1.17036854594251E-02 
1778	 1.02028139387464E-02 
1779	 9.09496406530965E-03 
1780	 9.38240845356794E-03 
1781	 1.15182196364571E-02 
1782	 1.18643878819109E-02 
1783	 1.33002312371645E-02 
1784	 1.23943330166825E-02 
1785	 7.60382531010721E-03 
1786	 6.44169203279783E-03 
1787	 4.99644364881137E-03 
1788	 4.7477233232801E-03 
1789	 8.21949612029578E-03 
1790	 1.33451626436558E-02 
1791	 1.59634288230289E-02 
1792	 1.24481087777696E-02 
1793	 6.9837334410167E-03 
1794	 2.74381874938087E-03 
1795	-2.55544605956018E-03 
1796	 4.40451302754016E-03 
1797	 1.57740024236266E-02 
1798	 1.50306497385934E-02 
1799	 2.52307056910857E-02 
1800	 4.18043116118207E-02 
1801	 4.65170075312016E-02 
1802	 2.30439011068052E-02 
1803	 0.022687779743462 
1804	 3.27944110847986E-02 
1805	 4.08521696656878E-02 
1806	 0.110838928358115 
1807	 0.13305640217792 
1808	 5.76003009557609E-02 
1809	 2.70491337092774E-02 
1810	-5.79101354429988E-02 
1811	-4.58118204263385E-02 
1812	 0.171094717035315 
1813	 0.215387745485504 
1814	 0.297805341635986 
1815	 0.270356403288874 
1816	-0.191493201459819 
1817	-0.121032471439347 
1818	-0.368574528046689 
1819	-0.691441931511485 
1820	 0.213373862070161 
1821	 1.41057386885089 
1822	 1.37215400751617 
1823	-0.417241840989218 
1824	-0.976550290934128 
1825	-0.970230623101664 
1826	-1.01193431890934 
1827	-4.44908953592776 
1828	-2.6774560110966 
1829	-1.39142721631551E-02 
1830	 0.188333540126153 
1831	 0.644079756463127 
1832	 0.611882047806557 
1833	-0.169746520502987 
1834	-2.28844802198476 
1835	 7.77700504785282E-02 
1836	 3.32230727410341 
1837	 8.33480343663075E-02 
1838	 0.152438805767497 
1839	 0.438043240008688 
1840	 0.539204325699191 
1841	 0.807006257936756 
1842	 0.633116021069467 
1843	 0.67763233218468 
1844	 0.469959500894924 
1845	 0.485918919589559 
1846	 0.455626401223466 
1847	 0.948912069341034 
1848	 2.64018080269788 
1849	 2.82389905792695 
1850	 2.94756370250164 
1851	 2.07646260202741 
1852	-10.3750157528942 
1853	-0.144892890902783 
1854	 3.90152774271004E-02 
1855	-0.53211064499551 
1856	-0.447060055067264 
1857	 0.413179417990737 
1858	 0.559094164599288 
1859	-0.265420016293191 
1860	-0.733639027221284 
1861	-1.00350461844543 
1862	-5.1088073191434 
1863	 0.445309826102242 
1864	-1.18782180382703 
1865	-1.79245921934613 
1866	-2.98012599205472 
1867	-2.42900354752363 
1868	-2.05332981637448 
1869	-52.908103893063 
1870	 2.5690545459449 
1871	 2.21810619369371 
1872	 2.89066184626187 
1873	 5.92162295004979 
1874	-110.393935510734 
1875	-3.51724455436167 
1876	-2.61456709468616 
1877	-59.3300064967462 
1878	 7.27000554441773 
1879	 1.29789425600564 
1880	 0.923504726348135 
1881	 0.40442748372159 
1882	-0.604097966763759 
1883	 1.74436675374513 
1884	 0.73478661439594 
1885	 0.266426974482388 
1886	 0.234821826133006 
1887	-22.0273767082381 
1888	 3.54841388871325 
1889	 2.91175727213032 
1890	 1.59476722964728 
1891	 1.296326905695 
1892	-2.17701632953312 
1893	 2.04301147456468 
1894	-1.6095820827334 
1895	-5.05005065841265 
1896	 102.252204510968 
1897	-0.421947781086854 
1898	-18.2616700257657 
1899	 10.1328021019877 
1900	 25.0339767801951 
1901	 5.48041747484391 
1902	 13.6258682116072 
1903	-3.80116724053686 
1904	-1.39215912229394 
1905	-1.606045733305 
1906	-2.52289191682226 
1907	-2.31772493913136 
1908	-2.64473253216968 
1909	-3.12465767133865 
1910	-0.746380475998428 
1911	 0.709102849544972 
1912	 2.11056000244557 
1913	 2.9638462806515 
1914	-9.93130157593479E-02 
1915	 0.622480687224635 
1916	 4.46869161257462 
1917	-4.17631316191482 
1918	-3.53405846273378 
1919	-3.43885545550642 
1920	-72.6868437629275 
1921	 4.41212289210666 
1922	 4.63237761675366 
1923	-12.1607357086309 
1924	-4.26125898635131 
1925	-0.467175979994366 
1926	-2.03151440107221E-02 
1927	 0.384809166311565 
1928	 3.69640100493606 
1929	-0.204230268373263 
1930	 0.579928816536591 
1931	 1.47055525534259 
1932	 2.99654978702558 
1933	-8.25891138746557 
1934	-0.306665173415664 
1935	-0.199377747215639 
1936	-7.95274143484662E-02 
1937	 1.56073244627796E-02 
1938	 3.93355652782399E-02 
1939	 1.218821179455E-04 
1940	-0.125636154488877 
1941	-0.149573209700192 
1942	-0.148373232731285 
1943	-0.215518840138972 
1944	-0.176512294271179 
1945	-0.166143810922969 
1946	-0.227880172263396 
1947	-0.231237718284944 
1948	-0.249832429811656 
1949	-0.295949350234573 
1950	-0.202860697687421 
1951	-0.127405459005021 
1952	-8.10161766797419E-02 
1953	-3.32818036041404E-02 
1954	 5.05569787437415E-02 
1955	 1.39410505823015E-02 
1956	-1.95807769234421E-02 
1957	 5.70047708458304E-03 
1958	-1.66190645346406E-02 
1959	-4.28701244807477E-02 
1960	-4.14818385185463E-02 
1961	-2.20980795032865E-02 
1962	-0.013703222806216 
1963	-3.67355899777741E-03 
1964	 1.01594337279391E-02 
1965	 1.21936128620633E-02 
1966	 1.08109813866499E-02 
1967	 4.61069720880538E-03 
1968	 5.1958507875699E-03 
1969	 2.20720384859677E-03 
1970	-4.91583144349401E-03 
1971	-4.26052125481745E-03 
1972	-5.95482398072943E-03 
1973	 5.05577486127308E-04 
1974	 1.15897364492284E-02 
1975	 8.32655471561818E-03 
1976	 6.55846541670041E-03 
1977	 7.74907518992363E-03 
1978	 4.93106046987443E-03 
1979	 3.60278153054517E-03 
1980	 6.49201442145974E-03 
1981	 7.21893765580189E-03 
1982	 2.36055118925148E-03 
1983	 1.74959517028321E-03 
1984	 2.37519400340158E-03 
1985	 2.28115938409738E-03 
1986	 2.50913534556429E-03 
1987	 2.1733017954132E-03 
1988	 1.20987800523439E-03 
1989	-1.2139084382472E-04 
1990	 2.17300816918559E-03 
1991	 5.44563702082445E-03 
1992	 4.96268095524143E-03 
1993	 6.99080801284771E-03 
1994	 7.90852931832154E-03 
1995	 9.37767849873877E-03 
1996	 2.35775495811169E-03 
1997	 1.0398287628088E-03 
1998	 3.23323163893431E-03 
1999	-4.24656615641307E-03 
2000	-4.56419626249529E-03 
2001	-4.02666366157617E-03 
2002	-1.53326643449847E-02 
2003	-1.50432154667756E-02 
2004	-1.60463267265381E-02 
2005	-1.82115736724622E-02 
2006	-4.58352124393145E-03 
2007	 8.46505180835428E-03 
2008	 2.12771740699004E-02 
2009	 0.025156235566693 
2010	 1.82127130262572E-02 
2011	 1.25484298821748E-02 
2012	 1.84938753248139E-03 
2013	-7.46838244933791E-03 
2014	-9.19386198162049E-03 
2015	-3.45216124104586E-03 
2016	-4.52615671737623E-03 
2017	-7.7240119998827E-03 
2018	-1.08340652660146E-02 
2019	-1.50865166305058E-02 
2020	-0.017842572279338 
2021	-1.72855734012143E-02 
2022	-1.44614604921619E-02 
2023	-1.50012079142176E-02 
2024	-0.012529910345615 
2025	-6.12830614675968E-03 
2026	-2.94586636962476E-03 
2027	-7.40091998789835E-04 
2028	 1.81213910866185E-03 
2029	 3.50151915865918E-03 
2030	 3.48173321220269E-03 
2031	 5.68086947707648E-03 
2032	 6.67185203185947E-03 
2033	 7.10649064479791E-03 
2034	 8.2853937283992E-03 
2035	 5.86814164844863E-03 
2036	 3.57689962712646E-03 
2037	 5.50712270522665E-03 
2038	 4.9149393614835E-03 
2039	 4.28685082351704E-03 
2040	 5.47997671633692E-03 
2041	 6.12333521210655E-03 
2042	 4.2481376759819E-03 
2043	 4.61337702183831E-03 
2044	 7.21646756207177E-03 
2045	 8.61462293727746E-03 
2046	 8.25504352097884E-03 
2047	 7.06958165323476E-03 
2048	 6.52535426531784E-03 
2049	 4.51881561186069E-03 
2050	 5.55164457193341E-03 
2051	 5.4884872611602E-03 
2052	 7.08187869362096E-04 
2053	 1.39980832238879E-03 
2054	 4.63581377641917E-04 
2055	 1.11529585671215E-04 
2056	 2.73600352311173E-03 
2057	 1.02170814208268E-02 
2058	 0.012493203730814 
2059	 1.56099101902546E-02 
2060	 1.53402170925906E-02 
2061	 1.05049768631266E-02 
2062	 9.46773131800097E-03 
2063	 9.2546406085522E-03 
2064	 7.72781400149661E-03 
2065	 2.99101225394475E-03 
2066	 9.82583258744131E-04 
2067	 2.09137047746194E-03 
2068	 5.51441146467528E-04 
2069	 3.26624554881396E-03 
2070	 6.35780072003551E-03 
2071	 4.7035274783343E-03 
2072	 4.62788853734307E-03 
2073	 4.1914349579822E-03 
2074	 5.16822020906798E-03 
2075	 4.59693508178432E-03 
2076	 1.77041211212367E-03 
2077	 9.66000835820246E-04 
2078	 2.28446578919934E-05 
2079	 7.1434004079435E-04 
2080	 2.85090893817466E-03 
2081	 5.63260486912556E-03 
2082	 6.79685185297831E-03 
2083	 7.52441699082203E-03 
2084	 6.86368047573362E-03 
2085	 4.57756879658205E-03 
2086	 3.23343693918569E-03 
2087	 3.96327959673975E-03 
2088	 3.70677381968205E-03 
2089	 2.26051626770306E-03 
2090	 2.52364204563381E-03 
2091	 2.23271200422508E-03 
2092	 1.80270563942544E-03 
2093	 1.89687257843014E-03 
2094	 2.13170816634815E-03 
2095	 9.04967689376975E-04 
2096	 1.78911348894683E-03 
2097	 5.49039212765893E-03 
2098	 5.4983107694651E-03 
2099	 3.72842819727248E-03 
2100	 4.68531156309249E-03 
2101	 4.09922089632923E-03 
2102	 2.66730950896856E-03 
2103	 3.21361709868852E-03 
2104	 3.05653444454759E-03 
2105	 1.92037179356002E-03 
2106	 1.29587805037325E-03 
2107	 2.33487954916008E-03 
2108	 2.84666302480291E-03 
2109	 1.22197127061392E-03 
2110	-1.97897739293297E-04 
2111	 3.33757048218307E-04 
2112	 1.60009860405064E-03 
2113	 3.30747803901693E-03 
2114	 8.14464150577492E-03 
2115	 1.01475572710218E-02 
2116	 1.13542639036565E-02 
2117	 1.14894073186562E-02 
2118	 8.74550339330864E-03 
2119	 7.06254772981204E-03 
2120	 4.87629953167947E-03 
2121	 3.5579318497056E-03 
2122	 3.72447919341712E-03 
2123	 8.05267653355189E-03 
2124	 9.35304973232903E-03 
2125	 7.49926940183356E-03 
2126	 6.30295083316614E-03 
2127	 3.53604455216151E-03 
2128	 1.85594478784849E-03 
2129	 3.42791898821761E-03 
2130	 3.1620678532839E-03 
2131	 1.80408561812193E-03 
2132	 5.88044222165439E-04 
2133	 2.63743132493129E-04 
2134	 2.54565657684879E-04 
2135	 3.75293043091317E-05 
2136	 9.95531778057905E-04 
2137	 3.56814676240463E-03 
2138	 4.19428215444177E-03 
2139	 4.1102041647404E-03 
2140	 5.87755800837487E-03 
2141	 8.85211566506347E-03 
2142	 9.87177335990194E-03 
2143	 1.17855424404019E-02 
2144	 1.15516582648421E-02 
2145	 9.87715656547161E-03 
2146	 8.16294277593017E-03 
2147	 6.65524074638372E-03 
2148	 6.33277165459884E-03 
2149	 4.11842825385542E-03 
2150	 9.09031962355329E-04 
2151	-1.35832779809465E-04 
2152	-1.9458401932605E-03 
2153	-1.25983292526596E-03 
2154	 1.16304425631566E-03 
2155	 2.82454716890797E-03 
2156	 0.004318406337783 
2157	 4.86870979161271E-03 
2158	 4.44797057396841E-03 
2159	 2.99355749770758E-03 
2160	 5.7720115070346E-04 
2161	-1.23968481471653E-03 
2162	-5.35161424036877E-03 
2163	-5.91818732975236E-03 
2164	-5.49503950418128E-03 
2165	-3.55268942912511E-03 
2166	 2.4025849129018E-03 
2167	 5.61504516562609E-03 
2168	 1.19768239655822E-02 
2169	 1.26588300759009E-02 
2170	 9.09385325112633E-03 
2171	 4.14308052450447E-03 
2172	-4.30664631256542E-04 
2173	-4.08277536270373E-03 
2174	-2.02665076679125E-03 
2175	 2.98585272201634E-03 
2176	 4.44394939604485E-03 
2177	 5.07171722838302E-03 
2178	 4.48470092602767E-03 
2179	 1.00318456181247E-03 
2180	 3.70039267459735E-03 
2181	 6.27093707970546E-03 
2182	 5.19066389889579E-03 
2183	 7.73772198182157E-03 
2184	 5.79155512831662E-03 
2185	 3.64681954408397E-03 
2186	 3.44008924851579E-03 
2187	 6.82672824944872E-03 
2188	 4.69108680016741E-03 
2189	-1.68821256505576E-03 
2190	-3.00704861484479E-03 
2191	-5.23000568306324E-03 
2192	-3.74380485534381E-03 
2193	 7.12484658470293E-03 
2194	 9.6584070140352E-03 
2195	 6.78483266763947E-03 
2196	 6.58929996228869E-03 
2197	 3.54940855894357E-03 
2198	 1.66165789090803E-03 
2199	 1.15692684331252E-03 
2200	 4.49427298055749E-03 
2201	 6.53433614573472E-04 
2202	-2.04625063255947E-03 
2203	-4.69751696968548E-04 
2204	-4.59047076648811E-04 
2205	 3.33476743996963E-03 
2206	 5.65420273722308E-03 
2207	 2.23376693863984E-03 
2208	-2.12634927609969E-03 
2209	-7.10593598697233E-04 
2210	 1.73327278455441E-03 
2211	 3.53580205867444E-03 
2212	 7.74009412343461E-03 
2213	 6.50910102227603E-03 
2214	 4.72421835547461E-03 
2215	 3.23630865653059E-03 
2216	 1.02255634544191E-03 
2217	 1.83744560430571E-03 
2218	 3.40803361746086E-03 
2219	 3.97172767282577E-03 
2220	 8.91101071973703E-03 
2221	 8.18014092933601E-03 
2222	 2.44637186591635E-03 
2223	-4.04219043474946E-04 
2224	-4.20462514872129E-03 
2225	-6.73791442415469E-03 
2226	-9.01970564873224E-03 
2227	-9.3348985404968E-03 
2228	-0.009689388490231 
2229	-8.94095258246307E-03 
2230	-1.99515265719834E-03 
2231	-1.00286120046326E-03 
2232	-5.35362885845925E-03 
2233	-3.71385336309219E-03 
2234	-8.31769055438385E-04 
2235	-4.1761913629558E-04 
2236	 4.02415217576623E-03 
2237	 6.83782673268809E-03 
2238	 9.98123681179708E-03 
2239	 7.37051984997955E-03 
2240	 2.00129995481523E-03 
2241	 3.15739848646374E-03 
2242	 4.15203726947248E-03 
2243	 4.46712811144994E-03 
2244	 3.59318178684004E-03 
2245	 6.83135725046053E-04 
2246	-3.41592971124097E-03 
2247	-3.19263739687848E-03 
2248	 1.35922394865745E-03 
2249	 6.70200068130733E-03 
2250	 1.14755135792223E-02 
2251	 0.011267313657771 
2252	 1.03886350646112E-02 
2253	 1.05213766970514E-02 
2254	 7.30183509355719E-03 
2255	 2.94883433369685E-03 
2256	 1.72107847629043E-03 
2257	 4.25730717035827E-04 
2258	 1.8076784533661E-03 
2259	 4.31542999088335E-03 
2260	 5.11804013851784E-03 
2261	 6.04370722093892E-03 
2262	 6.18414087456025E-03 
2263	 3.2522060447524E-03 
2264	 1.57565548228092E-03 
2265	-1.23562231651353E-03 
2266	-3.95891260366338E-04 
2267	 5.36915474489317E-03 
2268	 8.36678717067199E-03 
2269	 1.27411240496664E-02 
2270	 0.01201549969212 
2271	 5.57977686644511E-03 
2272	 4.00099342913053E-03 
2273	 3.22541068296299E-03 
2274	 1.52245916858649E-03 
2275	 5.76096674928388E-05 
2276	-7.43945758601098E-04 
2277	-1.81775966682542E-03 
2278	-1.00088159105298E-03 
2279	 3.00219746943042E-03 
2280	 4.15342775396218E-03 
2281	 5.84190442913088E-03 
2282	 1.72786736021366E-03 
2283	-1.2158604551634E-03 
2284	-1.6744460319656E-03 
2285	-5.21211254507246E-03 
2286	-5.1272214993517E-03 
2287	-7.40501587037688E-03 
2288	-1.01920301212586E-02 
2289	-1.41973984291605E-02 
2290	-2.04125379423504E-02 
2291	-1.92708038448654E-02 
2292	-1.67580162112076E-02 
2293	-1.30757522372368E-02 
2294	-6.97418651835688E-03 
2295	-4.69944434935587E-03 
2296	-8.1004291918033E-04 
2297	 7.39310781746834E-03 
2298	 6.96883152107599E-03 
2299	-3.22781043216712E-03 
2300	-9.31709216749083E-03 
2301	-1.38416640272329E-02 
2302	-1.62002507887063E-02 
2303	-9.2199347311111E-03 
2304	-8.61600764855977E-03 
2305	-1.27562120442257E-02 
2306	-8.75905592271633E-03 
2307	-5.33319269604603E-03 
2308	-5.72987035003079E-03 
2309	-3.04976071435589E-03 
2310	 4.41341956442969E-03 
2311	 1.21247516598804E-02 
2312	 1.81284595554583E-02 
2313	 2.41033506986057E-02 
2314	 2.60675080604793E-02 
2315	 1.73522459586791E-02 
2316	 1.77375265229798E-02 
2317	 2.00471514436491E-02 
2318	 6.11725847377183E-03 
2319	 7.74847979727426E-04 
2320	-2.23728933676161E-03 
2321	-4.18811782482243E-03 
2322	-5.38079757348567E-03 
2323	-1.06748799710099E-02 
2324	-6.8104554230588E-03 
2325	-1.54632138067201E-03 
2326	-3.74453080826233E-03 
2327	-7.12799918300173E-03 
2328	-1.65798236686797E-03 
2329	-8.90166004480997E-03 
2330	-1.35530236073825E-02 
2331	-6.53393860203577E-03 
2332	-0.01155032951661 
2333	-6.00813167388221E-03 
2334	-6.76936835479028E-03 
2335	-2.05964107414619E-02 
2336	-2.67833407979426E-02 
2337	-3.81188477150888E-02 
2338	-4.46579892774049E-02 
2339	-4.00382185630865E-02 
2340	-4.67217620862174E-02 
2341	-4.97824613660301E-02 
2342	-3.35847808323047E-02 
2343	-2.49459721233358E-02 
2344	-2.18017929673266E-02 
2345	-2.28163554869945E-02 
2346	-1.51592059008173E-02 
2347	 9.00373730407471E-04 
2348	-5.96393728704179E-03 
2349	-1.63137254521085E-02 
2350	-2.70820320579931E-02 
2351	-4.04392325167413E-02 
2352	-3.30401004576898E-02 
2353	-1.69336682668691E-02 
2354	-1.10770651039441E-02 
2355	-9.13614942665667E-03 
2356	 5.82456105929187E-03 
2357	 1.88777809453134E-03 
2358	-2.03927897792704E-02 
2359	-0.035627589523801 
2360	-6.18277802124292E-02 
2361	-7.45221524193188E-02 
2362	-6.31879823215849E-02 
2363	-4.16086820208644E-02 
2364	-2.54184523200144E-02 
2365	 3.16303649890799E-03 
2366	 4.55043185636029E-02 
2367	 5.67795464938759E-02 
2368	 5.36489858334594E-02 
2369	 5.66120075523335E-02 
2370	 4.65590699536959E-02 
2371	 1.98792871080745E-02 
2372	-6.17418471138274E-03 
2373	-0.022532011445213 
2374	-4.25831116476354E-02 
2375	-1.86259231095137E-02 
2376	 2.58982820814024E-02 
2377	 0.024926163817567 
2378	 0.054452735797656 
2379	 5.00413067315032E-02 
2380	 3.02640387554062E-02 
2381	 4.61498562391809E-02 
2382	 8.19115237234324E-03 
2383	-8.61800846934287E-03 
2384	-2.97651608456857E-02 
2385	 2.23648349852092E-02 
2386	 0.129109094287229 
2387	 7.88123298982278E-02 
2388	 2.46199558057087E-02 
2389	-4.78998965740954E-02 
2390	-0.143150540267594 
2391	-0.103962579314803 
2392	-3.36513713020869E-02 
2393	-1.36797841547965E-02 
2394	-0.101057768361058 
2395	-0.163581491695473 
2396	-0.15363414973649 
2397	-0.128762680538316 
2398	-7.70549346675633E-02 
2399	-0.134761608944604 
2400	-0.221664534038217 
2401	-0.237951499551202 
2402	-0.257077772723214 
2403	-0.193076572402876 
2404	-0.145813423783491 
2405	-0.261265621469219 
2406	-0.310203814497115 
2407	-0.355724205058504 
2408	-0.407648760316149 
2409	-0.37164772613147 
2410	-0.419147950393938 
2411	-0.558109280600329 
2412	-0.679280630975393 
2413	-0.675034253156942 
2414	-0.721874584831112 
2415	-0.594109154127481 
2416	-0.323055786328671 
2417	-0.266688885500766 
2418	-0.264770171498644 
2419	-0.268323387252796 
2420	-0.284557084419034 
2421	-0.462268188587247 
2422	-0.384537816359094 
2423	-0.167772972468428 
2424	-0.226036331132052 
2425	-0.161783004914933 
2426	-7.76686098293795E-02 
2427	-7.99429920574734E-02 
2428	-0.123467267328708 
2429	-0.176292582535224 
2430	-7.87467784035342E-02 
2431	 2.43929766455803E-02 
2432	 0.107886870349154 
2433	-2.42482737628535E-03 
2434	-0.08170307939881 
2435	-0.328804691902908 
2436	-0.624031501108102 
2437	-0.472871475440408 
2438	-0.511955867464995 
2439	-0.590411426651473 
2440	-3.71396190195661E-02 
2441	 0.209568877821572 
2442	 0.319562250917058 
2443	 0.555564443057591 
2444	 0.15937129128616 
2445	-0.944279107954231 
2446	-1.64609179222798 
2447	-2.89467692825476 
2448	-2.02711499746937 
2449	-0.321973986189865 
2450	-1.38005810410388E-02 
2451	 0.24536004701841 
2452	-0.409636261040234 
2453	-0.494448109561444 
2454	-0.315779918860955 
2455	-0.795604731499714 
2456	-1.16617322258724 
2457	-0.62003864643398 
2458	-0.806422221535998 
2459	-1.91611384953857 
2460	-2.60938371666029 
2461	-3.56589837513638 
2462	 21.3135871889717 
2463	 7.66296689120124 
2464	-0.293260584392881 
2465	 0.662235465879199 
2466	 2.13755172747787 
2467	 1.93904890896804 
2468	 1.52993985962972 
2469	 0.629099992687394 
2470	-0.323016418507875 
2471	-0.297237799891934 
2472	-0.231772134943002 
2473	-0.325936827785919 
2474	-0.279693884341278 
2475	 0.370564174862136 
2476	 0.522643107051789 
2477	 3.21165007273873 
2478	-1.0456079659346 
2479	 2.9397576713753 
2480	 30.080377761968 
2481	-6.61923538606435 
2482	-2.69728850117933 
2483	-0.867825309211137 
2484	-0.506681944194303 
2485	-0.521594983637349 
2486	-0.181555978225192 
2487	 3.42907634788546E-02 
2488	 0.397772482949103 
2489	 0.545447118101326 
2490	 0.646882409121079 
2491	 0.17239711274662 
2492	-0.243734012838619 
2493	-0.32047178599227 
2494	-0.360701055882028 
2495	-0.759113369853795 
2496	-0.968765330654927 
2497	-3.33026883720475 
2498	-25.4641814305593 
2499	-1.52104867386181 
2500	-0.932539274647369 
