Wavelength	rt0622clean00005.asd
350	 2.58754885142185E-02 
351	 2.64465159600019E-02 
352	 2.65914380840264E-02 
353	 2.69623312356468E-02 
354	 2.76995163591651E-02 
355	 2.69727699258824E-02 
356	 2.75064750151285E-02 
357	 2.77750341997224E-02 
358	 0.02626859432019 
359	 2.75093078732262E-02 
360	 2.81581239186234E-02 
361	 2.78037529350916E-02 
362	 2.81172984718706E-02 
363	 2.84276685534793E-02 
364	 2.83371426394762E-02 
365	 2.79798825363411E-02 
366	 2.82293205998314E-02 
367	 0.028389721822043 
368	 2.85334933571486E-02 
369	 2.88585482867311E-02 
370	 2.93599151839274E-02 
371	 2.91594464261738E-02 
372	 0.028897347831185 
373	 2.98020794397147E-02 
374	 2.96974688002075E-02 
375	 2.98194690197192E-02 
376	 3.06688790455439E-02 
377	 3.12566921510925E-02 
378	 3.06460693695102E-02 
379	 3.05314228438159E-02 
380	 3.19841172801809E-02 
381	 3.21566412387281E-02 
382	 3.22517157930541E-02 
383	 3.24033831153186E-02 
384	 0.032349028855018 
385	 3.27478890817659E-02 
386	 3.30248153959327E-02 
387	 3.29967569988048E-02 
388	 3.30433737742454E-02 
389	 3.37692736121707E-02 
390	 3.42904606374759E-02 
391	 3.41240151903279E-02 
392	 3.44267917641646E-02 
393	 3.48390306331253E-02 
394	 3.51936580753842E-02 
395	 3.54245270664923E-02 
396	 3.56351055531644E-02 
397	 0.035755132701766 
398	 3.59010259766447E-02 
399	 3.63187157365954E-02 
400	 3.64346161542767E-02 
401	 3.65494375144683E-02 
402	 3.67767967813246E-02 
403	 3.64170308523662E-02 
404	 3.66414030576321E-02 
405	 3.71760269675474E-02 
406	 0.037295194680029 
407	 3.70825156500183E-02 
408	 3.72317184658106E-02 
409	 3.77878442305477E-02 
410	 3.81370715207153E-02 
411	 3.80456841514178E-02 
412	 3.80916589419477E-02 
413	 0.038544277512415 
414	 3.85476320384425E-02 
415	 3.88120564439044E-02 
416	 0.039188421502294 
417	 3.92903824932094E-02 
418	 3.95667333748047E-02 
419	 3.98595409801273E-02 
420	 4.01039492967108E-02 
421	 4.03776707514416E-02 
422	 4.04861410762702E-02 
423	 4.06619076247296E-02 
424	 4.10649587547186E-02 
425	 0.041430210849183 
426	 4.16515331905412E-02 
427	 4.18658840013762E-02 
428	 4.22715567239978E-02 
429	 4.25233900790332E-02 
430	 4.27954594528596E-02 
431	 4.32269707422939E-02 
432	 4.38538530773134E-02 
433	 4.41580584071754E-02 
434	 4.42892311153383E-02 
435	 0.044527399693137 
436	 4.50751081966101E-02 
437	 0.045452551273592 
438	 4.56992164687472E-02 
439	 4.61146187666319E-02 
440	 4.65188359010736E-02 
441	 4.69316629658331E-02 
442	 4.73488087990173E-02 
443	 4.77049969194827E-02 
444	 4.79540739247701E-02 
445	 4.82601983305235E-02 
446	 4.87340567562646E-02 
447	 4.90664044161204E-02 
448	 0.049314486302157 
449	 4.95376985353888E-02 
450	 4.97940629845986E-02 
451	 5.01289037876897E-02 
452	 5.04843359346758E-02 
453	 5.07680343989383E-02 
454	 5.08255156361216E-02 
455	 5.10647725295813E-02 
456	 5.13564784040599E-02 
457	 5.14601809321698E-02 
458	 5.17169022798051E-02 
459	 5.18791278411161E-02 
460	 5.19475240534658E-02 
461	 0.052186963109956 
462	 5.24206862756985E-02 
463	 0.052592280217599 
464	 5.26953601509107E-02 
465	 5.27759723436489E-02 
466	 5.29406268942442E-02 
467	 5.32119968060796E-02 
468	 0.053531922480415 
469	 0.053663274357159 
470	 5.37485479026414E-02 
471	 5.39374037971244E-02 
472	 5.43354115134733E-02 
473	 5.45332145029623E-02 
474	 5.46560074758705E-02 
475	 5.48696403317846E-02 
476	 5.48776500705029E-02 
477	 5.52948215846637E-02 
478	 5.58425776075625E-02 
479	 5.57424413878874E-02 
480	 5.60064538525739E-02 
481	 5.62621590359485E-02 
482	 0.056318790834859 
483	 5.67461751546842E-02 
484	 5.70561078443083E-02 
485	 5.73025449288184E-02 
486	 5.77034533625179E-02 
487	 5.82471731971192E-02 
488	 5.85005227881584E-02 
489	 5.85843755864384E-02 
490	 5.91262973433861E-02 
491	 5.94013379496693E-02 
492	 0.059710115137251 
493	 6.02988645796428E-02 
494	 6.07313932307056E-02 
495	 6.11339302059432E-02 
496	 6.15402427763717E-02 
497	 6.19478625649534E-02 
498	 6.23798901360361E-02 
499	 6.28347864735881E-02 
500	 6.33358037974558E-02 
501	 6.39559969753694E-02 
502	 6.43548858261936E-02 
503	 6.47341093232347E-02 
504	 6.53483167985496E-02 
505	 0.066006601112944 
506	 6.64097730531667E-02 
507	 6.67036982549636E-02 
508	 6.73452289701302E-02 
509	 6.78580099964546E-02 
510	 6.83369223197582E-02 
511	 6.88903832147677E-02 
512	 6.94519249143155E-02 
513	 6.99847919849454E-02 
514	 7.05188199292683E-02 
515	 7.11033786718401E-02 
516	 7.16983548920986E-02 
517	 0.072316901770581 
518	 7.29665148186935E-02 
519	 7.36459407428416E-02 
520	 7.43817929022236E-02 
521	 7.49946772981423E-02 
522	 7.54412705699876E-02 
523	 7.62940339812799E-02 
524	 7.70617099617983E-02 
525	 7.76553661233535E-02 
526	 0.078296365582496 
527	 7.91457409134135E-02 
528	 7.98788549696454E-02 
529	 8.04019325589379E-02 
530	 8.12205697473907E-02 
531	 8.20029690313612E-02 
532	 8.27174007541459E-02 
533	 8.34408524701423E-02 
534	 8.42537238122864E-02 
535	 8.50094571517954E-02 
536	 8.57214254187617E-02 
537	 8.65910770867296E-02 
538	 8.74484910609549E-02 
539	 0.088276305904012 
540	 8.90819196895854E-02 
541	 8.98233458214958E-02 
542	 0.090617607413829 
543	 9.14569722447954E-02 
544	 9.22596471782455E-02 
545	 9.30415179440875E-02 
546	 9.38085991946027E-02 
547	 9.45580276747932E-02 
548	 9.52622987773444E-02 
549	 9.60576655758135E-02 
550	 9.68760039140395E-02 
551	 9.76013932751121E-02 
552	 9.82944093629471E-02 
553	 9.90824460197305E-02 
554	 9.99347980721597E-02 
555	 0.100638715852224 
556	 0.101284682269828 
557	 0.102009213475506 
558	 0.102851096932683 
559	 0.103513483174797 
560	 0.104211815562992 
561	 0.104959951364199 
562	 0.105650129627595 
563	 0.106259432183194 
564	 0.106916051666849 
565	 0.10765246669247 
566	 0.108297352641058 
567	 0.108683383814168 
568	 0.10895460555578 
569	 0.109361405625062 
570	 0.109956888850886 
571	 0.110428384056625 
572	 0.110668032899733 
573	 0.110816492402062 
574	 0.111075001403576 
575	 0.111296759298818 
576	 0.111364481818363 
577	 0.111555364802024 
578	 0.111706679558789 
579	 0.111748338487203 
580	 0.111698299104 
581	 0.111831710688117 
582	 0.111857103909871 
583	 0.111639428140667 
584	 0.111447599848968 
585	 0.111266246386558 
586	 0.111050301369314 
587	 0.110738441843435 
588	 0.110317744865853 
589	 0.110069445762754 
590	 0.109939726049069 
591	 0.10950520286151 
592	 0.109094521777493 
593	 0.108503066931724 
594	 0.10766619144151 
595	 0.107269623936338 
596	 0.106480249485859 
597	 0.105349009252108 
598	 0.104394028242468 
599	 0.103262455823991 
600	 0.102336745451338 
601	 0.101783888590365 
602	 0.101260596922846 
603	 0.100899228309821 
604	 0.100741832369393 
605	 0.10076566127002 
606	 0.100748122998565 
607	 0.10072049763951 
608	 0.100721996155008 
609	 0.100780244727836 
610	 0.100711550234875 
611	 0.100727361690888 
612	 0.100927963668793 
613	 0.100840465225886 
614	 0.10070394372552 
615	 0.100649145851977 
616	 0.100729955598295 
617	 0.100859309249163 
618	 0.100881287493906 
619	 0.100790674659241 
620	 0.100829945929292 
621	 0.100776177265922 
622	 0.100706036651294 
623	 0.100734420986227 
624	 0.100672983057711 
625	 0.100609871503713 
626	 0.100556351844157 
627	 0.100450130311324 
628	 0.100478198456312 
629	 0.100485080596515 
630	 0.100372243886908 
631	 0.100375305070778 
632	 0.100294572185164 
633	 0.100173250520277 
634	 0.100141264573712 
635	 0.100048271897186 
636	 9.99089451637937E-02 
637	 9.97538598558301E-02 
638	 9.96109383919329E-02 
639	 9.94362532067578E-02 
640	 9.92994986672729E-02 
641	 9.92191409434648E-02 
642	 9.88499437730788E-02 
643	 9.86421535082016E-02 
644	 9.85415028741793E-02 
645	 0.098100572950888 
646	 9.77668711715766E-02 
647	 9.75896196746609E-02 
648	 9.74457603834887E-02 
649	 9.69752582500245E-02 
650	 0.096555333095518 
651	 9.62280405602226E-02 
652	 9.59016304607507E-02 
653	 9.54507651514405E-02 
654	 0.094773379547798 
655	 9.39559265400162E-02 
656	 9.34352189978703E-02 
657	 9.26860129810768E-02 
658	 9.19697506410988E-02 
659	 9.15351053428389E-02 
660	 0.091231162169803 
661	 9.07471722755928E-02 
662	 9.01919814299719E-02 
663	 0.08991509970988 
664	 8.96637687779744E-02 
665	 8.92878686689933E-02 
666	 8.88345820062101E-02 
667	 8.86845645883789E-02 
668	 8.85662439322508E-02 
669	 8.84426994315785E-02 
670	 8.83191311371886E-02 
671	 8.80195936253253E-02 
672	 8.77878868712686E-02 
673	 8.76781915675225E-02 
674	 8.75584097093362E-02 
675	 8.76120759291806E-02 
676	 8.77877363224782E-02 
677	 8.79337136686732E-02 
678	 8.77223077493778E-02 
679	 0.087727303244052 
680	 8.79790310063527E-02 
681	 8.82491697383389E-02 
682	 8.84704248706651E-02 
683	 8.88057593412225E-02 
684	 8.92036224319295E-02 
685	 8.93180005446893E-02 
686	 8.94456303136383E-02 
687	 8.95697903067877E-02 
688	 8.96450500266181E-02 
689	 8.98933533402759E-02 
690	 9.00634095102699E-02 
691	 0.089899555766568 
692	 8.92061135260803E-02 
693	 8.87830615462687E-02 
694	 8.84310629196248E-02 
695	 0.087954986304638 
696	 8.73815660007226E-02 
697	 8.67694117009939E-02 
698	 8.58845365094059E-02 
699	 8.46557920339993E-02 
700	 8.40080838547919E-02 
701	 8.32052229686567E-02 
702	 8.20859493329455E-02 
703	 8.09666120447084E-02 
704	 7.96530193562564E-02 
705	 7.81895405746911E-02 
706	 0.076748223151743 
707	 7.56246700682689E-02 
708	 7.42306672321835E-02 
709	 7.25673573789278E-02 
710	 7.08262374969017E-02 
711	 6.88358681129247E-02 
712	 6.68424611832776E-02 
713	 6.49114695651474E-02 
714	 0.062846289350565 
715	 6.07908852714847E-02 
716	 5.85685623016283E-02 
717	 5.62126239789543E-02 
718	 5.39446794835147E-02 
719	 5.17882075316707E-02 
720	 5.00172485297389E-02 
721	 0.04845424745814 
722	 4.70187768346127E-02 
723	 4.51205241990118E-02 
724	 4.29477328627262E-02 
725	 4.12542500186267E-02 
726	 3.95825818334367E-02 
727	 3.78756325816312E-02 
728	 0.036093674019701 
729	 3.38638567703079E-02 
730	 3.18644629164011E-02 
731	 0.030349173574519 
732	 2.91423203175252E-02 
733	 2.79848414638388E-02 
734	 0.027078087958305 
735	 2.64320188891865E-02 
736	 2.57389930513678E-02 
737	 2.52534245490631E-02 
738	 2.50471191102292E-02 
739	 2.50279951260506E-02 
740	 2.47371314130049E-02 
741	 2.45051301877194E-02 
742	 2.44182705264226E-02 
743	 2.44185949036491E-02 
744	 2.44699742800397E-02 
745	 0.024470117338317 
746	 2.43915253215054E-02 
747	 2.43102669384706E-02 
748	 0.024432212483932 
749	 2.44496206457553E-02 
750	 0.024161516345998 
751	 2.41555817909351E-02 
752	 2.41785758570613E-02 
753	 2.41681394471173E-02 
754	 2.41733241641951E-02 
755	 2.42573250137929E-02 
756	 2.42141035545573E-02 
757	 2.40536005377066E-02 
758	 2.41646207727336E-02 
759	 2.41906724404547E-02 
760	 2.40254732913097E-02 
761	 2.38742015164772E-02 
762	 2.36425005613054E-02 
763	 2.38344350285456E-02 
764	 2.41293727539411E-02 
765	 2.41172216453222E-02 
766	 2.39950430364721E-02 
767	 2.41038279421388E-02 
768	 2.43926986576115E-02 
769	 2.44728743774244E-02 
770	 2.45515026090571E-02 
771	 2.46168449979155E-02 
772	 2.46728732511506E-02 
773	 2.48933211032125E-02 
774	 2.49590545596309E-02 
775	 2.49611442435875E-02 
776	 2.51102367574733E-02 
777	 2.51028455892645E-02 
778	 2.53039397895921E-02 
779	 2.56636059326821E-02 
780	 2.57071844702143E-02 
781	 2.58753401094352E-02 
782	 2.61367785579603E-02 
783	 0.026350654442107 
784	 2.63092519248424E-02 
785	 2.63750734728872E-02 
786	 2.66890743826541E-02 
787	 2.71768182001536E-02 
788	 2.72005942569049E-02 
789	 2.71332138112541E-02 
790	 2.72863828225889E-02 
791	 2.78083665186697E-02 
792	 2.83307740482511E-02 
793	 0.02869981722602 
794	 2.88855485397028E-02 
795	 2.89709195852831E-02 
796	 2.92432893797834E-02 
797	 2.95737160692825E-02 
798	 0.029774383592685 
799	 2.98536915725432E-02 
800	 0.030071202239773 
801	 3.03854391562654E-02 
802	 3.05911072309623E-02 
803	 3.07447185451478E-02 
804	 0.030776421078442 
805	 3.08111897044115E-02 
806	 3.11498667635559E-02 
807	 3.09819987798355E-02 
808	 3.07637055913853E-02 
809	 3.08602002461129E-02 
810	 3.07075118577156E-02 
811	 3.04355800933172E-02 
812	 3.01889973167414E-02 
813	 3.00889697856231E-02 
814	 2.99243139385402E-02 
815	 2.91200770731977E-02 
816	 2.84031717529707E-02 
817	 2.90918701605259E-02 
818	 2.86911746367248E-02 
819	 2.80073998346396E-02 
820	 2.75538059369454E-02 
821	 2.71189965768893E-02 
822	 2.62721159584703E-02 
823	 2.55076785724834E-02 
824	 2.51061992628133E-02 
825	 0.024237562553876 
826	 0.023499080980679 
827	 2.29957457525508E-02 
828	 2.25747996322733E-02 
829	 2.15755776781687E-02 
830	 2.06389510492623E-02 
831	 2.01119156503918E-02 
832	 1.99975150364512E-02 
833	 1.96630237261357E-02 
834	 1.94769750535105E-02 
835	 1.94289454114817E-02 
836	 1.88994450096829E-02 
837	 1.88929813039654E-02 
838	 1.89155957182599E-02 
839	 1.85964427479503E-02 
840	 1.87663016315835E-02 
841	 1.85606618409887E-02 
842	 1.82779150836577E-02 
843	 1.83983739906455E-02 
844	 1.81310727238334E-02 
845	 0.017798554031599 
846	 1.76969138167142E-02 
847	 1.79632100535227E-02 
848	 1.77899334020969E-02 
849	 1.76118332569215E-02 
850	 1.77646793253263E-02 
851	 1.82099083835848E-02 
852	 0.017748369810389 
853	 1.75568524753791E-02 
854	 1.80812451170962E-02 
855	 1.71229675992786E-02 
856	 1.72001935518638E-02 
857	 1.76449787670091E-02 
858	 1.73648353885817E-02 
859	 1.70528303720043E-02 
860	 1.69879281338602E-02 
861	 0.017080872896375 
862	 1.70632106238556E-02 
863	 1.69694368793836E-02 
864	 1.68457177455534E-02 
865	 1.68804424471869E-02 
866	 1.72810250155645E-02 
867	 1.73155303626797E-02 
868	 1.69253504203287E-02 
869	 1.64897233125467E-02 
870	 0.016745056568368 
871	 1.64805415433597E-02 
872	 1.63674901921132E-02 
873	 0.016801197902581 
874	 1.66302877564033E-02 
875	 1.68563839373635E-02 
876	 1.68322942631852E-02 
877	 1.59846984169934E-02 
878	 1.57862497919097E-02 
879	 1.61536655343076E-02 
880	 1.64089586216008E-02 
881	 1.58742526228441E-02 
882	 0.015479446597402 
883	 1.58990922799891E-02 
884	 0.016321504052864 
885	 1.52453384736294E-02 
886	 1.50786237033486E-02 
887	 1.54124045207135E-02 
888	 1.57798033243955E-02 
889	 1.60118474516114E-02 
890	 1.55820342178302E-02 
891	 1.53055855402849E-02 
892	 1.56356664845524E-02 
893	 1.58428740917775E-02 
894	 1.51343486856452E-02 
895	 1.49252409231664E-02 
896	 1.62291995182256E-02 
897	 1.64475646351308E-02 
898	 1.51076256171804E-02 
899	 1.37973045325515E-02 
900	 1.41745257809177E-02 
901	 1.54065405991709E-02 
902	 1.48025360473765E-02 
903	 1.34056432861856E-02 
904	 1.33611485128601E-02 
905	 1.45772801405156E-02 
906	 1.48032511578081E-02 
907	 1.44759729577613E-02 
908	 1.55692187422431E-02 
909	 1.46542763963767E-02 
910	 1.42016286668039E-02 
911	 1.40668991569356E-02 
912	 1.18939117395214E-02 
913	 1.27326369249541E-02 
914	 1.30818698802529E-02 
915	 1.19757770661909E-02 
916	 1.23578300745015E-02 
917	 1.28239878965531E-02 
918	 1.33246170117093E-02 
919	 1.38144676053627E-02 
920	 1.40045225345614E-02 
921	 1.26529446710052E-02 
922	 1.21663729769644E-02 
923	 1.36485835446654E-02 
924	 1.39724014886107E-02 
925	 1.47503053445368E-02 
926	 1.47678853484904E-02 
927	 1.31988350017055E-02 
928	 1.41483644614156E-02 
929	 1.53782837868284E-02 
930	 1.48293010403959E-02 
931	 1.14593977287093E-02 
932	 1.22996047705845E-02 
933	 1.34471787700522E-02 
934	 0.013070453821209 
935	 0.011151189817441 
936	 5.61317471320041E-03 
937	 1.01871736927829E-02 
938	 1.49284080007822E-02 
939	 8.83230890326639E-03 
940	 3.41604575314637E-03 
941	 3.55831156712789E-03 
942	 9.59593052265119E-03 
943	 1.72475737205085E-02 
944	 1.28410325269615E-02 
945	 1.10698899379413E-02 
946	 1.48673060201521E-02 
947	 0.017483980558119 
948	 1.23733040788036E-02 
949	 1.05164370864086E-02 
950	 8.74283348769755E-03 
951	-4.71639272742364E-04 
952	 9.47847617527458E-03 
953	 1.51715236442524E-02 
954	 1.24661106751778E-02 
955	 1.23797077874401E-02 
956	 1.31913603659799E-02 
957	 1.01669692537926E-02 
958	 0.008369925359241 
959	 1.52112119245395E-02 
960	 6.17786777117428E-03 
961	 4.08792129336017E-03 
962	 1.11540381234753E-02 
963	 1.35621904978463E-02 
964	 1.46643127372028E-02 
965	 1.07631239312307E-02 
966	 6.11690557252139E-03 
967	 9.17502820608722E-03 
968	 1.34597032362172E-02 
969	 1.42433272989251E-02 
970	 1.06446342266409E-02 
971	 5.77946778618247E-03 
972	 9.06345103197906E-03 
973	 9.29405443160462E-03 
974	 6.94208399260094E-03 
975	 1.34523204792594E-02 
976	 1.37288550852778E-02 
977	 1.08301610075642E-02 
978	 9.20963955020795E-03 
979	 1.12188131171314E-02 
980	 1.14272916884566E-02 
981	 1.24098380171802E-02 
982	 1.35531616195709E-02 
983	 1.17341810533679E-02 
984	 9.11794859749757E-03 
985	 9.33821260204946E-03 
986	 1.13501206989723E-02 
987	 1.07996787960409E-02 
988	 7.82470211162642E-03 
989	 8.56128082098931E-03 
990	 1.16459069402515E-02 
991	 1.09214656251308E-02 
992	 1.18074668310214E-02 
993	 9.90260890028806E-03 
994	 8.71788133155372E-03 
995	 1.42358562532517E-02 
996	 1.03608045147475E-02 
997	 8.58742721112833E-03 
998	 9.30410020686229E-03 
999	 6.73939999228046E-03 
1000	 9.79737411103936E-03 
1001	 1.07049453035181E-02 
1002	 1.10834479176298E-02 
1003	 1.11080562696162E-02 
1004	 1.13466716302135E-02 
1005	 1.12580481904376E-02 
1006	 1.05241542053034E-02 
1007	 1.07426552652129E-02 
1008	 0.011028918004104 
1009	 1.14132003694436E-02 
1010	 1.24195479403513E-02 
1011	 1.29943528876888E-02 
1012	 1.30346866231076E-02 
1013	 1.30252311601792E-02 
1014	 1.31350728733864E-02 
1015	 1.31188888723248E-02 
1016	 0.013007673038063 
1017	 1.30907325737028E-02 
1018	 1.30454363441669E-02 
1019	 1.23212928767741E-02 
1020	 1.21576335644563E-02 
1021	 1.26474604269415E-02 
1022	 1.25900972185657E-02 
1023	 1.18386725366357E-02 
1024	 0.012448264254854 
1025	 1.30303656392576E-02 
1026	 1.35541480275684E-02 
1027	 1.40529241052053E-02 
1028	 1.52224320903546E-02 
1029	 0.015330057070172 
1030	 1.49178284456518E-02 
1031	 1.42721208901823E-02 
1032	 1.26980920875777E-02 
1033	 1.22235147395429E-02 
1034	 1.17796121156825E-02 
1035	 0.01167188375134 
1036	 1.26519979081816E-02 
1037	 1.30024973615147E-02 
1038	 1.34252081503386E-02 
1039	 1.32521773913787E-02 
1040	 1.26468815513494E-02 
1041	 1.21893522241681E-02 
1042	 1.18873772740115E-02 
1043	 0.011283226117478 
1044	 1.13152884005135E-02 
1045	 1.19081534721892E-02 
1046	 1.21050083290322E-02 
1047	 1.24793064713135E-02 
1048	 1.25956847156152E-02 
1049	 1.24943782846962E-02 
1050	 1.25012443903929E-02 
1051	 1.24500176030686E-02 
1052	 1.23642632887593E-02 
1053	 1.22357478615089E-02 
1054	 1.21528827266467E-02 
1055	 1.18946944480665E-02 
1056	 1.19114441766489E-02 
1057	 1.20691813672157E-02 
1058	 1.24734041105213E-02 
1059	 1.25845776815093E-02 
1060	 1.29246464763169E-02 
1061	 1.27645741477725E-02 
1062	 1.20993122556149E-02 
1063	 1.17594868901742E-02 
1064	 1.09881979533727E-02 
1065	 1.09992216276211E-02 
1066	 1.17582698115878E-02 
1067	 1.20111543673654E-02 
1068	 1.27742882509145E-02 
1069	 1.28784834623655E-02 
1070	 1.19816346554663E-02 
1071	 1.17016974933511E-02 
1072	 1.13304066364818E-02 
1073	 1.12949605765417E-02 
1074	 1.13583531950203E-02 
1075	 1.17429827209177E-02 
1076	 1.20777488373056E-02 
1077	 1.27535884991709E-02 
1078	 1.28144487176037E-02 
1079	 1.27391673845739E-02 
1080	 1.26496288690601E-02 
1081	 1.17963829319926E-02 
1082	 1.17006962703965E-02 
1083	 1.23262279428989E-02 
1084	 0.012437293701607 
1085	 0.012611032902911 
1086	 1.25875712855557E-02 
1087	 1.22119445644439E-02 
1088	 1.19519650591559E-02 
1089	 1.14787003451252E-02 
1090	 1.10820556385935E-02 
1091	 1.16086916946599E-02 
1092	 1.29413404677159E-02 
1093	 1.29548896990084E-02 
1094	 0.013420305716086 
1095	 1.31164137273555E-02 
1096	 1.07793831025149E-02 
1097	 1.02411897335428E-02 
1098	 1.08395161339315E-02 
1099	 1.09148836163876E-02 
1100	 1.11823606105918E-02 
1101	 1.15304750174157E-02 
1102	 1.19741858477982E-02 
1103	 1.19546767341124E-02 
1104	 1.13712726262004E-02 
1105	 1.21550360685394E-02 
1106	 0.012085121631586 
1107	 1.16784388772034E-02 
1108	 1.21120798062568E-02 
1109	 1.16549435838453E-02 
1110	 1.20161085093111E-02 
1111	 1.32040600932054E-02 
1112	 1.32792271450721E-02 
1113	 1.27485937922883E-02 
1114	 1.33716421963711E-02 
1115	 1.31322466158235E-02 
1116	 1.32735420678488E-02 
1117	 1.81328551655869E-02 
1118	 1.87679156655164E-02 
1119	 1.10923700927726E-02 
1120	 9.22839680937637E-03 
1121	 8.3172181022509E-03 
1122	 9.16704330770763E-03 
1123	 1.47599906780025E-02 
1124	 1.86955500357198E-02 
1125	 2.23329315512553E-02 
1126	 2.06044541306954E-02 
1127	 1.47403434026795E-02 
1128	 1.89701034893605E-02 
1129	 1.93038451167426E-02 
1130	 1.54062239951611E-02 
1131	 1.33923842347395E-02 
1132	 1.45315585006389E-02 
1133	 1.35563785620503E-02 
1134	 1.02912916922003E-02 
1135	 1.11641748535762E-02 
1136	 1.38412282684129E-02 
1137	 0.013618130017743 
1138	 1.40869303890694E-02 
1139	 1.33598451371566E-02 
1140	 9.53315986185051E-03 
1141	 0.0100164260677 
1142	 1.13562839221573E-02 
1143	 1.03348706330092E-02 
1144	 9.83931438172458E-03 
1145	 1.15582742157991E-02 
1146	 0.010186048670091 
1147	 7.54389616458327E-03 
1148	 8.97139117221807E-03 
1149	 8.51399890783821E-03 
1150	 8.64207488843588E-03 
1151	 1.07324851180917E-02 
1152	 1.18107837969695E-02 
1153	 1.17941094064113E-02 
1154	 1.17622551993578E-02 
1155	 1.22252487075128E-02 
1156	 1.13647885141042E-02 
1157	 1.03082507453811E-02 
1158	 1.09411659836849E-02 
1159	 1.05722800418989E-02 
1160	 1.05195549468804E-02 
1161	 1.18844777755046E-02 
1162	 1.19659045464809E-02 
1163	 1.05878841075289E-02 
1164	 9.73709765684265E-03 
1165	 9.93889926569746E-03 
1166	 9.50723360043239E-03 
1167	 9.15333697524179E-03 
1168	 9.7998024450139E-03 
1169	 9.73820266442559E-03 
1170	 9.77537381366276E-03 
1171	 9.86372831343312E-03 
1172	 1.06303149759068E-02 
1173	 1.07187860433126E-02 
1174	 0.010462959455283 
1175	 9.88821052493741E-03 
1176	 9.57530304350208E-03 
1177	 1.03070664664879E-02 
1178	 1.08852110636346E-02 
1179	 1.06444552097838E-02 
1180	 1.03724148906533E-02 
1181	 1.02267121296316E-02 
1182	 1.00290225208121E-02 
1183	 0.010310743625014 
1184	 1.06627778718685E-02 
1185	 1.03962293351711E-02 
1186	 9.9623242801325E-03 
1187	 9.30682295759031E-03 
1188	 9.09772721337418E-03 
1189	 9.92790546292398E-03 
1190	 1.03195376857433E-02 
1191	 1.04351752556992E-02 
1192	 1.07358601359678E-02 
1193	 1.13136114300068E-02 
1194	 1.06901164203848E-02 
1195	 1.00021767010438E-02 
1196	 9.9694480847011E-03 
1197	 0.009149315350338 
1198	 9.09042117908779E-03 
1199	 1.03946076578075E-02 
1200	 0.010791537715741 
1201	 1.05596149987101E-02 
1202	 1.02710369005026E-02 
1203	 9.55208173283981E-03 
1204	 9.45839457779232E-03 
1205	 9.96350020074108E-03 
1206	 0.01030748566811 
1207	 1.01410090047123E-02 
1208	 9.84175842297341E-03 
1209	 1.00886640526745E-02 
1210	 1.06822576281163E-02 
1211	 1.08875431120909E-02 
1212	 1.01189051641097E-02 
1213	 9.65087365226019E-03 
1214	 9.83132320291233E-03 
1215	 0.010228962687361 
1216	 1.07108859763028E-02 
1217	 1.11596201976601E-02 
1218	 1.09728719853082E-02 
1219	 1.04914302794439E-02 
1220	 1.00078244023382E-02 
1221	 1.00733094001478E-02 
1222	 1.05837102743865E-02 
1223	 1.05609671627619E-02 
1224	 1.03204562631201E-02 
1225	 1.03488014686308E-02 
1226	 1.04688157975206E-02 
1227	 1.04360705082391E-02 
1228	 1.03996045964135E-02 
1229	 1.02494845015589E-02 
1230	 1.00617711643508E-02 
1231	 0.010252430644474 
1232	 0.010537190487562 
1233	 1.05658640662552E-02 
1234	 1.03906890814465E-02 
1235	 1.03501398535601E-02 
1236	 1.00930088375053E-02 
1237	 1.00123521262804E-02 
1238	 1.01196688143754E-02 
1239	 1.01594228082475E-02 
1240	 1.01960289950591E-02 
1241	 1.02180219785172E-02 
1242	 1.00788266504234E-02 
1243	 1.02968190142624E-02 
1244	 1.05460123914837E-02 
1245	 1.04161493664734E-02 
1246	 1.05610238242919E-02 
1247	 0.010866380745196 
1248	 1.05389186181173E-02 
1249	 1.01159704129201E-02 
1250	 1.02813180755539E-02 
1251	 1.02039222436397E-02 
1252	 1.00060079466835E-02 
1253	 1.05025688571594E-02 
1254	 1.04922270169134E-02 
1255	 9.75339771278983E-03 
1256	 9.5623347098563E-03 
1257	 9.88776153414566E-03 
1258	 9.85688435450798E-03 
1259	 9.58741666231963E-03 
1260	 9.68736191369324E-03 
1261	 1.01663805871657E-02 
1262	 1.02043398852842E-02 
1263	 9.93500210208152E-03 
1264	 1.02619036910479E-02 
1265	 1.06646622041336E-02 
1266	 1.00308984468376E-02 
1267	 9.83012347141579E-03 
1268	 1.06695204775631E-02 
1269	 1.09789322940497E-02 
1270	 1.11447178171234E-02 
1271	 0.011717869906439 
1272	 1.13772464862118E-02 
1273	 1.07997453369764E-02 
1274	 1.08609378827233E-02 
1275	 1.06751835413335E-02 
1276	 1.04819654181253E-02 
1277	 1.05538627553609E-02 
1278	 1.02726246495753E-02 
1279	 1.03457185761979E-02 
1280	 1.06053527791597E-02 
1281	 1.04825751998458E-02 
1282	 9.89235667306018E-03 
1283	 1.01120222831182E-02 
1284	 1.08358624760156E-02 
1285	 1.07838587945228E-02 
1286	 1.07453587818281E-02 
1287	 1.08081364988589E-02 
1288	 1.01865640685742E-02 
1289	 9.84407453779346E-03 
1290	 9.81621950927673E-03 
1291	 1.01264859692167E-02 
1292	 1.03003954843842E-02 
1293	 1.06378737286598E-02 
1294	 1.08646279549649E-02 
1295	 1.08766379599389E-02 
1296	 1.05586497225782E-02 
1297	 9.85292214555105E-03 
1298	 9.98184627855076E-03 
1299	 1.05347721476076E-02 
1300	 1.01775838312071E-02 
1301	 9.96426195374249E-03 
1302	 1.00117927422266E-02 
1303	 9.71695479657754E-03 
1304	 9.68218794773567E-03 
1305	 9.81274278520012E-03 
1306	 9.87999178128784E-03 
1307	 9.64749324245592E-03 
1308	 9.44458317779781E-03 
1309	 9.43564815422332E-03 
1310	 9.49932076839804E-03 
1311	 9.32634207483153E-03 
1312	 9.54564369589265E-03 
1313	 1.06144656623945E-02 
1314	 1.05335079964437E-02 
1315	 9.36519464315089E-03 
1316	 9.21105281706855E-03 
1317	 9.02560819164501E-03 
1318	 9.0838890488071E-03 
1319	 1.02824157430963E-02 
1320	 0.010813659544399 
1321	 1.10095664622156E-02 
1322	 1.10288079792418E-02 
1323	 0.010195073580929 
1324	 9.55157332315045E-03 
1325	 1.00128916723316E-02 
1326	 1.01076975423871E-02 
1327	 9.36117619391785E-03 
1328	 9.18000439644236E-03 
1329	 1.05323984917633E-02 
1330	 1.06499850429569E-02 
1331	 9.51891638721601E-03 
1332	 9.95227085493848E-03 
1333	 9.28399395448531E-03 
1334	 9.16813486880708E-03 
1335	 8.77856242592171E-03 
1336	 1.08973477800601E-02 
1337	 0.01065673027348 
1338	 7.10443138494329E-03 
1339	 6.37608273125841E-03 
1340	 8.01977365222685E-03 
1341	 8.72217415402802E-03 
1342	 9.25056904294308E-03 
1343	 9.85318444055494E-03 
1344	 0.011274111411421 
1345	 1.13911372435094E-02 
1346	 1.08409457242677E-02 
1347	 1.01055085825761E-02 
1348	 2.88222081381474E-03 
1349	 2.05330355922992E-03 
1350	 1.38643929087053E-02 
1351	 2.15130989705753E-02 
1352	 3.92582805390235E-02 
1353	 6.16471809395732E-02 
1354	 6.98672524122417E-02 
1355	 8.07706744834687E-02 
1356	 0.140255697437274 
1357	 0.159911767406247 
1358	 6.30733436791767E-02 
1359	-1.16125788724253E-02 
1360	 0.119663434795681 
1361	 0.126378609956034 
1362	-6.98737079817132E-02 
1363	-3.66111551370449E-02 
1364	 3.9295795550758E-03 
1365	 0.229632524445836 
1366	 0.55748437934046 
1367	 0.762814288278192 
1368	 0.987701501908976 
1369	 0.74380850231575 
1370	 0.468931839927316 
1371	 0.119051632686315 
1372	 7.92102839157806E-02 
1373	-0.15746730429395 
1374	-0.284015764925441 
1375	 0.178719444077391 
1376	 0.240360632432773 
1377	-0.496820466641284 
1378	-0.601579871414457 
1379	-0.118355279337406 
1380	-0.022420727153777 
1381	 0.543445623947168 
1382	 0.805502893625013 
1383	 0.447238118108668 
1384	 0.61708188332842 
1385	-4.16661894234519 
1386	-3.24589704036947 
1387	-3.52442286104998 
1388	-2.09900215697577 
1389	 19.0652815900629 
1390	 1.51189929127989 
1391	 0.253351843752045 
1392	 0.369561676446219 
1393	 2.3669345363098 
1394	 0.669798298727411 
1395	 0.522483786534897 
1396	-0.390293449749783 
1397	-0.672081875932877 
1398	-1.47902789935915 
1399	-1.82546500910297 
1400	 1.85848387414402 
1401	 0.753874262764199 
1402	 0.58255820047885 
1403	 1.17923044741898 
1404	 1.58478954190875 
1405	 1.18958937516094 
1406	 1.15104260029342E-02 
1407	-0.040044397224595 
1408	-0.811640205725923 
1409	-0.237290331315336 
1410	 0.323425184842084 
1411	 0.272232803179363 
1412	 2.64922815805528E-02 
1413	-2.72993969485596E-02 
1414	-0.118102490587769 
1415	-4.44667980686301E-02 
1416	 0.189020395600816 
1417	 0.170415527764741 
1418	 9.24591272166651E-02 
1419	 7.01919610994916E-02 
1420	-1.27972519176974E-02 
1421	-1.34063306636369E-03 
1422	 8.98197462290439E-02 
1423	 9.93850643543202E-02 
1424	 9.08260639938182E-02 
1425	 8.00446393379882E-02 
1426	 4.61700209698703E-02 
1427	 3.61898192586663E-02 
1428	 3.36899004109402E-02 
1429	 3.36182713600962E-02 
1430	 4.14456321501463E-02 
1431	 3.95766479338642E-02 
1432	 4.26174568145525E-02 
1433	 3.63919977982205E-02 
1434	-7.82040138186278E-04 
1435	-8.07723736066325E-03 
1436	 4.61154216863466E-03 
1437	 1.47293120104703E-02 
1438	 4.05066997912561E-03 
1439	 1.84525175219207E-02 
1440	 3.56882767892961E-02 
1441	 2.08861099114446E-02 
1442	 7.33742338021708E-03 
1443	 1.06948881402355E-02 
1444	 1.84876070902304E-02 
1445	 1.11481208544724E-02 
1446	-2.04080441458602E-04 
1447	 4.96714228359218E-03 
1448	 1.05855789015352E-02 
1449	 1.27822132561738E-02 
1450	 1.51475658790163E-02 
1451	 1.59425560719569E-02 
1452	 0.014171883525353 
1453	 9.21485284529923E-03 
1454	 8.18046607011996E-03 
1455	 0.011415073134357 
1456	 1.25807396967791E-02 
1457	 1.23390764730162E-02 
1458	 1.28907949839712E-02 
1459	 1.55587832478005E-02 
1460	 1.51935261429423E-02 
1461	 1.18859222442666E-02 
1462	 1.16664057118447E-02 
1463	 1.22289345230546E-02 
1464	 1.21517161591564E-02 
1465	 1.48827422536419E-02 
1466	 1.34421480515757E-02 
1467	 5.91482512704217E-03 
1468	 5.95983929271113E-03 
1469	 9.88041187331736E-03 
1470	 8.20018814811332E-03 
1471	 7.73062982770617E-03 
1472	 8.39701687338069E-03 
1473	 4.55783697544394E-03 
1474	 4.56833624014742E-03 
1475	 1.02069894163556E-02 
1476	 1.14510287979614E-02 
1477	 1.03520481046043E-02 
1478	 9.8574701692212E-03 
1479	 9.19914789206433E-03 
1480	 8.80704616058677E-03 
1481	 7.27405445908767E-03 
1482	 7.94449081238572E-03 
1483	 1.15703414903349E-02 
1484	 0.011036049916086 
1485	 8.86294299614647E-03 
1486	 7.8451614011715E-03 
1487	 5.23359708530599E-03 
1488	 4.57417640164861E-03 
1489	 5.28614093088467E-03 
1490	 5.86756712514895E-03 
1491	 7.04538511136348E-03 
1492	 7.21409069652875E-03 
1493	 7.54184659041599E-03 
1494	 7.54538588309372E-03 
1495	 6.38920107672907E-03 
1496	 6.19338233935814E-03 
1497	 6.57267683698907E-03 
1498	 6.56024811354039E-03 
1499	 6.76881144964918E-03 
1500	 6.77845128595132E-03 
1501	 6.55234163347827E-03 
1502	 6.24518108959154E-03 
1503	 5.56025165942633E-03 
1504	 5.53384722987192E-03 
1505	 5.98891155354972E-03 
1506	 5.88539053254483E-03 
1507	 6.00481323135869E-03 
1508	 6.28459049584179E-03 
1509	 5.80321124685845E-03 
1510	 5.56895393372482E-03 
1511	 5.86302748343681E-03 
1512	 5.68601859249972E-03 
1513	 5.08343258188522E-03 
1514	 5.10518531217998E-03 
1515	 6.55526543115463E-03 
1516	 7.59269222644679E-03 
1517	 6.85631615701483E-03 
1518	 6.47694559660027E-03 
1519	 6.46072738174329E-03 
1520	 5.8811442367506E-03 
1521	 6.54125991936567E-03 
1522	 7.86130526205837E-03 
1523	 7.65329606486247E-03 
1524	 6.84643018058276E-03 
1525	 7.17455073668755E-03 
1526	 8.00684129841315E-03 
1527	 8.06566547838055E-03 
1528	 7.80270104565608E-03 
1529	 7.82515779296308E-03 
1530	 7.43604394695058E-03 
1531	 6.92824973890502E-03 
1532	 7.44233926426139E-03 
1533	 8.20717879263679E-03 
1534	 8.24812828826755E-03 
1535	 7.86420319516255E-03 
1536	 7.9064362697387E-03 
1537	 8.09954708761857E-03 
1538	 7.61426395714479E-03 
1539	 7.77633593685112E-03 
1540	 8.18364927729037E-03 
1541	 7.57627480936267E-03 
1542	 7.19259889836976E-03 
1543	 7.02627354846772E-03 
1544	 7.23324969004069E-03 
1545	 7.75375801212401E-03 
1546	 7.59262768848882E-03 
1547	 8.01406803324524E-03 
1548	 8.61169792144525E-03 
1549	 8.0115656714696E-03 
1550	 7.72971031515006E-03 
1551	 8.16985129898769E-03 
1552	 7.97269926418543E-03 
1553	 7.71270580897435E-03 
1554	 8.2357098010306E-03 
1555	 8.78481382956832E-03 
1556	 8.8102199371053E-03 
1557	 8.98388125325666E-03 
1558	 8.9988433575869E-03 
1559	 8.22853211901046E-03 
1560	 7.82417333758993E-03 
1561	 7.43392551436094E-03 
1562	 7.44971485244613E-03 
1563	 8.30680065916081E-03 
1564	 8.23763074322013E-03 
1565	 7.68409738431702E-03 
1566	 7.51494362862562E-03 
1567	 7.2062701197796E-03 
1568	 7.04171378769405E-03 
1569	 7.68070657117219E-03 
1570	 7.98284130821013E-03 
1571	 7.73691132454887E-03 
1572	 8.0789179105961E-03 
1573	 8.35612816592295E-03 
1574	 8.31336595451591E-03 
1575	 8.30089382145003E-03 
1576	 8.20331280936747E-03 
1577	 8.22429272682581E-03 
1578	 8.66154182209768E-03 
1579	 9.18141668607008E-03 
1580	 8.9855862724344E-03 
1581	 8.03320818846574E-03 
1582	 7.58250401729193E-03 
1583	 7.93636427559081E-03 
1584	 8.00388059163658E-03 
1585	 8.32472987712401E-03 
1586	 8.61800234650517E-03 
1587	 7.82514502092455E-03 
1588	 7.37926446931686E-03 
1589	 8.21313382987232E-03 
1590	 0.008804702785433 
1591	 8.71830793780631E-03 
1592	 9.00880236602264E-03 
1593	 8.53144461422377E-03 
1594	 7.40315111529857E-03 
1595	 7.56938312555858E-03 
1596	 7.73499987042084E-03 
1597	 7.44679240631357E-03 
1598	 8.08649135870591E-03 
1599	 8.70066187592489E-03 
1600	 8.71275274740757E-03 
1601	 8.47109060637541E-03 
1602	 8.31199341714231E-03 
1603	 8.27145917772527E-03 
1604	 8.0175147527527E-03 
1605	 8.19612640363109E-03 
1606	 8.35592706029203E-03 
1607	 8.24937826740101E-03 
1608	 0.008007437682199 
1609	 7.24818995875459E-03 
1610	 7.35436416966566E-03 
1611	 7.92688983407871E-03 
1612	 7.56853864545377E-03 
1613	 7.6022653761103E-03 
1614	 7.79269600404405E-03 
1615	 7.48147258805499E-03 
1616	 8.25038674879302E-03 
1617	 9.09356425307502E-03 
1618	 8.5633927024812E-03 
1619	 7.95505490047137E-03 
1620	 0.007801106215966 
1621	 7.72045542618092E-03 
1622	 7.84756734437507E-03 
1623	 8.26438475346211E-03 
1624	 8.28099949797174E-03 
1625	 7.83994038692817E-03 
1626	 7.99539210414514E-03 
1627	 8.33303561129936E-03 
1628	 8.13992603747134E-03 
1629	 8.52007814039173E-03 
1630	 9.18025609500635E-03 
1631	 8.71485310525642E-03 
1632	 8.49834765002574E-03 
1633	 8.74795517402384E-03 
1634	 8.22227934449196E-03 
1635	 7.75782445241477E-03 
1636	 7.74399571217304E-03 
1637	 8.19314362081123E-03 
1638	 8.65330614616943E-03 
1639	 8.81289025128368E-03 
1640	 8.70833937763242E-03 
1641	 8.18508583876959E-03 
1642	 7.90534006215095E-03 
1643	 8.27848372654922E-03 
1644	 8.63745651267266E-03 
1645	 8.15827878081666E-03 
1646	 7.92912084558532E-03 
1647	 8.4954094732786E-03 
1648	 8.51803464384351E-03 
1649	 8.29560743123561E-03 
1650	 8.31091824828636E-03 
1651	 8.30807767742741E-03 
1652	 8.77467862079716E-03 
1653	 9.25816523941491E-03 
1654	 9.12905003979027E-03 
1655	 7.93565268849765E-03 
1656	 7.79490564322602E-03 
1657	 8.18332397555411E-03 
1658	 8.20384581275511E-03 
1659	 8.57164923779701E-03 
1660	 8.71194279860891E-03 
1661	 8.44030644731302E-03 
1662	 8.65438153019661E-03 
1663	 9.32622270257169E-03 
1664	 8.99644407246664E-03 
1665	 7.91351512344662E-03 
1666	 8.20142971398292E-03 
1667	 8.98779557441905E-03 
1668	 8.62105914715615E-03 
1669	 9.21216611211759E-03 
1670	 9.17709638408046E-03 
1671	 8.04339948188398E-03 
1672	 8.33320968107724E-03 
1673	 8.67800687499846E-03 
1674	 7.60240951511137E-03 
1675	 7.67649652893155E-03 
1676	 8.71553404538465E-03 
1677	 8.44855659077306E-03 
1678	 8.24561199533276E-03 
1679	 8.92352938463998E-03 
1680	 8.55672702308097E-03 
1681	 7.99830637371228E-03 
1682	 8.82278337110061E-03 
1683	 9.00462002196981E-03 
1684	 8.07748735922946E-03 
1685	 8.07162128948512E-03 
1686	 8.10087870337232E-03 
1687	 7.84839418799208E-03 
1688	 8.47569851624872E-03 
1689	 8.44838127123275E-03 
1690	 8.18580440510099E-03 
1691	 8.38978297437369E-03 
1692	 8.27202347890379E-03 
1693	 8.59878340672836E-03 
1694	 8.66946454870217E-03 
1695	 8.54154267347069E-03 
1696	 8.36616780278508E-03 
1697	 8.0230075127325E-03 
1698	 8.65501535094909E-03 
1699	 8.72370143788116E-03 
1700	 8.23887265303964E-03 
1701	 8.69105017868137E-03 
1702	 8.31834547112541E-03 
1703	 7.64836047606053E-03 
1704	 8.16514036128123E-03 
1705	 8.40081027051539E-03 
1706	 8.10163752501526E-03 
1707	 7.70957896917046E-03 
1708	 7.62219630052856E-03 
1709	 8.07423602928729E-03 
1710	 8.40524568556737E-03 
1711	 8.53955804226606E-03 
1712	 8.47159790699476E-03 
1713	 7.98124754479737E-03 
1714	 7.82528443267258E-03 
1715	 9.28861632804742E-03 
1716	 8.64329778630355E-03 
1717	 6.62563445011861E-03 
1718	 7.16356073459086E-03 
1719	 7.01867918055644E-03 
1720	 6.28674224647932E-03 
1721	 7.91992445055346E-03 
1722	 8.27091614831806E-03 
1723	 6.78052346537539E-03 
1724	 6.5431940004764E-03 
1725	 6.72360657731944E-03 
1726	 6.49703284590958E-03 
1727	 6.53852966687801E-03 
1728	 6.94292610641437E-03 
1729	 7.20003430495674E-03 
1730	 6.92973100872508E-03 
1731	 6.97534055758537E-03 
1732	 7.42967798548775E-03 
1733	 6.76698697552158E-03 
1734	 6.5716451239727E-03 
1735	 7.82237506456376E-03 
1736	 7.92910939470534E-03 
1737	 8.13255287941703E-03 
1738	 8.77197477311291E-03 
1739	 7.66093068839341E-03 
1740	 6.18213587123011E-03 
1741	 6.42243440166809E-03 
1742	 7.97375553155569E-03 
1743	 7.88736294115044E-03 
1744	 6.69593520865879E-03 
1745	 6.30688065417026E-03 
1746	 5.1399000961893E-03 
1747	 4.95699257952162E-03 
1748	 7.1550429328894E-03 
1749	 7.42212212687443E-03 
1750	 6.09098265832362E-03 
1751	 6.2509019954469E-03 
1752	 7.33501949817528E-03 
1753	 7.24588480916413E-03 
1754	 6.4560113477084E-03 
1755	 6.59089679544759E-03 
1756	 6.47431407381728E-03 
1757	 7.02745231078716E-03 
1758	 7.78388644191286E-03 
1759	 7.88603006452148E-03 
1760	 8.13944592833547E-03 
1761	 6.81398097143042E-03 
1762	 6.18366031122274E-03 
1763	 6.80585085273828E-03 
1764	 5.29425933441323E-03 
1765	 6.86981320780311E-03 
1766	 9.81672893622375E-03 
1767	 6.70911587630808E-03 
1768	 5.60560908486143E-03 
1769	 6.79536571231994E-03 
1770	 4.74622066645547E-03 
1771	 6.83709615378889E-03 
1772	 9.58962548259727E-03 
1773	 8.57938389188647E-03 
1774	 8.54925238162646E-03 
1775	 5.78020280031942E-03 
1776	 5.38556282930518E-03 
1777	 6.79566706375919E-03 
1778	 6.27769799806079E-03 
1779	 6.46050313176058E-03 
1780	 6.92790541866321E-03 
1781	 4.77275603957556E-03 
1782	 3.86192558596237E-03 
1783	 6.16797531841112E-03 
1784	 6.23986702858798E-03 
1785	 3.53023055968479E-03 
1786	 3.25438295531277E-03 
1787	 3.94074514726126E-03 
1788	 4.33476162120241E-03 
1789	 8.10766508304299E-03 
1790	 5.47040093726119E-03 
1791	-2.85524385816209E-04 
1792	 1.5805856784171E-05 
1793	-3.54690400532403E-03 
1794	-1.14022736780547E-03 
1795	 1.73695782642105E-02 
1796	 2.74438695577089E-02 
1797	 2.03738102128066E-02 
1798	-1.32792200121515E-03 
1799	-3.25632183959219E-02 
1800	-3.63488470883506E-02 
1801	-0.036492957364346 
1802	 2.55030548045181E-02 
1803	 5.42268346782734E-02 
1804	 3.00726280997534E-02 
1805	 3.38456249152056E-02 
1806	 3.13538667955698E-02 
1807	 2.38382620823162E-02 
1808	 5.17280909306186E-02 
1809	 6.56324650299932E-02 
1810	 5.59541548179183E-03 
1811	-2.50538751072264E-02 
1812	-5.72372854849121E-03 
1813	-5.66273176121176E-02 
1814	-0.113602309938696 
1815	-0.218926216579441 
1816	-0.483160199322866 
1817	-0.116556114432324 
1818	-0.593010344251483 
1819	-1.09757372006316 
1820	-0.559313310757684 
1821	-3.55159114274913 
1822	-3.63282648898762 
1823	-0.171351837446271 
1824	 0.294224845505382 
1825	 0.629421657977851 
1826	 0.555468320911274 
1827	-6.03342406564968 
1828	-11.1605369865566 
1829	-1.30305599341674 
1830	-1.44765330051017 
1831	 1.1487329927362 
1832	 1.30989782252984 
1833	 2.59483393206466 
1834	 7.02802424591464 
1835	-2.12364399286042 
1836	 21.3902067115199 
1837	 1.19208931096751 
1838	 1.04745572230543 
1839	 0.490163039808214 
1840	 0.156980155093818 
1841	 0.753286673043366 
1842	-9.57017882690538E-02 
1843	-8.07851765621051E-02 
1844	 0.818167975907775 
1845	 0.912469286778096 
1846	 0.743310129584374 
1847	 0.746359208978536 
1848	 1.32606516757623 
1849	 0.032474891707765 
1850	-0.476285814702094 
1851	-0.582032483443773 
1852	 12.5673615087756 
1853	 0.860563778335389 
1854	 0.64783791771009 
1855	 0.355040762935448 
1856	 0.127093427289888 
1857	-0.745694618809577 
1858	-1.52739863087842 
1859	-0.450719194804049 
1860	-0.716224577719064 
1861	-0.661912893049434 
1862	-3.1900963336611 
1863	 1.27578589689484 
1864	 1.5077485002236 
1865	 1.59400858986518 
1866	 1.74804312472837 
1867	 3.20058815903299 
1868	-5.51223070026526 
1869	-60.2285531856113 
1870	 1.72792218111605 
1871	 1.59487027020769 
1872	 1.92764755730759 
1873	 2.46182905263049 
1874	-57.5197222748872 
1875	-3.9629495964753 
1876	-3.15651219846762 
1877	-43.3070407624354 
1878	 5.71370999674921 
1879	 0.505589321088748 
1880	 0.258437045955817 
1881	 0.27871224846714 
1882	 1.03333446119785 
1883	-6.76248960635679E-02 
1884	 0.173101965762122 
1885	-8.19553292567609E-02 
1886	-0.22548544791706 
1887	 68.9349562721051 
1888	 15.4433857091254 
1889	 9.38073140496081 
1890	 4.66340696753725 
1891	 3.4886133182628 
1892	-2.80507158127985 
1893	 2.24378844974875 
1894	-1.71462100001168 
1895	-6.31944617175315 
1896	 248.556028927408 
1897	 7.17689206817746 
1898	 21.7405352306117 
1899	-0.966127491276913 
1900	 10.462187322152 
1901	 12.888740935954 
1902	 32.6064364156856 
1903	-7.28708914488002 
1904	-1.78824088221081 
1905	-1.15004431338792 
1906	-1.32828113599821 
1907	-1.45697341685768 
1908	-2.09873978138264 
1909	-2.5933155628296 
1910	-1.81865171279333 
1911	-3.0368665483876 
1912	-5.04233017608796 
1913	-6.27216904679061 
1914	 1.76543857265589 
1915	 1.06618335695267 
1916	 3.18329521664063 
1917	-4.01772927108442 
1918	-2.22963121136891 
1919	-1.17385818412399 
1920	 11.5684058966628 
1921	-10.674358659594 
1922	 1.68104895065559 
1923	 2.85730554517909 
1924	 2.42822906016117 
1925	 1.2539715667956 
1926	 1.20166573585241 
1927	 0.182623673643355 
1928	-1.57934359272813 
1929	 4.10547019502367E-02 
1930	 0.41668704190834 
1931	 1.22051817633122 
1932	 0.305018458440072 
1933	 7.77702574236397 
1934	-1.1780512246299 
1935	-0.256429259161444 
1936	-0.211193988105087 
1937	-3.30170048876637E-02 
1938	 2.17729975080978E-02 
1939	 2.32311159574236E-02 
1940	-9.91765638141191E-03 
1941	-7.51027811692691E-02 
1942	-0.122125407354395 
1943	-0.117288047513023 
1944	-0.102478614741185 
1945	-3.56799822090371E-02 
1946	 4.15221548085338E-02 
1947	-3.27677669905331E-02 
1948	-0.106015438254451 
1949	-0.112542385267643 
1950	-0.1080456643923 
1951	 7.09657079991815E-03 
1952	 3.05059290041511E-02 
1953	 4.30573107043224E-02 
1954	-0.015932210302841 
1955	-7.92971087397061E-02 
1956	-0.110166301740562 
1957	-0.104855954698405 
1958	-0.114128213486951 
1959	-7.73615826694701E-02 
1960	-3.79465712683399E-02 
1961	-0.039458426484698 
1962	-2.30064058466679E-02 
1963	 3.73498919889682E-04 
1964	-1.76704694155536E-02 
1965	-2.19492879484815E-02 
1966	-1.64805120025508E-02 
1967	-1.7728611866802E-03 
1968	-1.07336482426263E-02 
1969	-1.10429790123461E-02 
1970	-7.55161508090467E-03 
1971	-7.72398776018416E-03 
1972	-1.1802450838042E-03 
1973	 1.04493571996686E-03 
1974	 2.73105415593851E-03 
1975	-2.41420393839417E-03 
1976	-8.66595790852034E-03 
1977	-3.91935990707873E-03 
1978	 5.40690226531062E-04 
1979	 3.27885194612545E-03 
1980	 6.43095681690702E-03 
1981	 1.05526736113636E-02 
1982	 0.010281350567646 
1983	 6.98909444098223E-03 
1984	 5.06518176171619E-03 
1985	 2.69697670746847E-03 
1986	-1.5416814547896E-03 
1987	-2.23976843489553E-03 
1988	-7.00923344344652E-04 
1989	-1.12895841117529E-03 
1990	-4.27847982180868E-04 
1991	-5.41130603854014E-05 
1992	 5.90459430530178E-04 
1993	 2.22545990831915E-03 
1994	 2.42884614515999E-03 
1995	 3.41269695650675E-03 
1996	 3.93692960281721E-03 
1997	-2.61337475293253E-03 
1998	-7.34576452693003E-03 
1999	-9.86614621469549E-03 
2000	-1.56101295539108E-02 
2001	-6.68399353028847E-03 
2002	-5.7680513778461E-04 
2003	-7.6523677787908E-03 
2004	-1.13470566118694E-03 
2005	 2.56927081983634E-03 
2006	-9.48819006747409E-03 
2007	-1.17132030517007E-02 
2008	-5.15772534186194E-03 
2009	-1.94895897942071E-03 
2010	 1.48199464223776E-03 
2011	 2.5203681325782E-03 
2012	 0.003487598579519 
2013	 2.02737121323699E-03 
2014	 4.66266631708045E-03 
2015	 4.27245356464332E-03 
2016	 1.11329843462736E-02 
2017	 1.78637270446337E-02 
2018	 9.21019425481214E-03 
2019	-5.28769300019174E-05 
2020	-2.90399121761422E-03 
2021	-5.96123097120236E-03 
2022	-9.05383432773058E-03 
2023	-8.23802144778848E-03 
2024	-5.53032091691701E-03 
2025	-8.07551788118863E-04 
2026	 5.95173856241171E-04 
2027	 2.35306375382088E-03 
2028	 4.77425462582701E-03 
2029	 5.08028293643725E-03 
2030	 1.26134218993977E-03 
2031	 8.7782808698922E-04 
2032	 2.59672204930842E-03 
2033	-7.31698908677312E-05 
2034	-1.35270489138071E-03 
2035	-1.09311124222995E-03 
2036	-4.25222544253443E-03 
2037	-0.004490825851395 
2038	-2.58461377987319E-03 
2039	-1.92914280968732E-03 
2040	-1.55513491809235E-03 
2041	-2.59678447445406E-04 
2042	 1.36130765291957E-03 
2043	 2.86077547945407E-03 
2044	 5.66258382822591E-03 
2045	 5.66089033908905E-03 
2046	 5.14625594753177E-03 
2047	 4.50820348547041E-03 
2048	 7.86512289613445E-04 
2049	-1.09493080829649E-03 
2050	 1.35909695131626E-03 
2051	 1.55403082127384E-03 
2052	 9.69178787689623E-04 
2053	 2.57834410006846E-03 
2054	 8.26038558164306E-04 
2055	-2.30292121602578E-03 
2056	-2.6154800585262E-03 
2057	-1.55162996408995E-04 
2058	 1.06713592882913E-03 
2059	 4.20911920601915E-03 
2060	 4.10574222726086E-03 
2061	 1.91494142750322E-03 
2062	 3.65747689694486E-04 
2063	-2.11247251182117E-04 
2064	 8.95333788422421E-04 
2065	 9.08089119530725E-04 
2066	-1.10672316818293E-03 
2067	-4.43765387363512E-03 
2068	-8.15931344768783E-03 
2069	-8.3011208094978E-03 
2070	-6.18696702932035E-03 
2071	-5.05110000289578E-03 
2072	-4.40109877217332E-03 
2073	-3.7780095643371E-03 
2074	-3.31476147893143E-03 
2075	-0.001966464811975 
2076	-2.23191363700187E-04 
2077	-3.25817854431608E-04 
2078	-7.34135892564429E-04 
2079	-9.05273602817874E-04 
2080	-2.92039363577245E-03 
2081	-2.6733214725632E-03 
2082	-2.07475181551987E-04 
2083	 7.72670176243728E-04 
2084	 1.48952049657095E-03 
2085	 3.59742480332308E-03 
2086	 3.21464027114928E-03 
2087	 1.90777596134929E-03 
2088	 9.82540223026112E-04 
2089	-1.79874458437863E-03 
2090	-2.52833991199023E-03 
2091	-1.22529717197605E-03 
2092	-4.11214004461945E-04 
2093	 1.5235901945118E-03 
2094	 1.89296948003237E-03 
2095	 2.05474082006927E-03 
2096	 1.65040550627614E-03 
2097	-4.57611628716654E-04 
2098	-8.14753885671153E-04 
2099	-1.41772491363563E-04 
2100	-1.06022075332101E-03 
2101	 1.36206133585768E-04 
2102	 1.40593387804673E-03 
2103	 2.94335452416765E-03 
2104	 5.74270072237161E-03 
2105	 4.97283947789645E-03 
2106	 3.01825324296777E-03 
2107	 1.74925618237435E-03 
2108	-1.85355888663945E-03 
2109	-2.07180539805852E-03 
2110	 8.76981753063914E-04 
2111	-1.44399290614956E-04 
2112	-2.80840414037362E-03 
2113	-0.002048089329257 
2114	-7.5268482913406E-05 
2115	-6.33706048207909E-05 
2116	 2.67467770480244E-03 
2117	 4.03756349578072E-03 
2118	 1.62379658668724E-03 
2119	 8.52649725657941E-04 
2120	 1.78293147545068E-03 
2121	 1.22448282764484E-03 
2122	 5.19084737118807E-04 
2123	 1.33285377814026E-03 
2124	 1.79798110108601E-03 
2125	 2.09396241264007E-03 
2126	 3.14567959437033E-03 
2127	 3.98238325254543E-03 
2128	 3.23976449845794E-03 
2129	 4.9635576294868E-03 
2130	 8.57215380459318E-03 
2131	 8.36138338949426E-03 
2132	 9.31169714728968E-03 
2133	 1.04174776260579E-02 
2134	 8.35822508502037E-03 
2135	 1.38808286227725E-03 
2136	 5.3765248138869E-04 
2137	 7.53011451374398E-04 
2138	-1.00024966222147E-04 
2139	 1.70543817997919E-03 
2140	 1.98955136946683E-03 
2141	 2.06300561356466E-04 
2142	-5.07050110894935E-04 
2143	-2.76192526719001E-04 
2144	 9.22980717631346E-05 
2145	 4.13036719032676E-04 
2146	 2.31529163755509E-03 
2147	 3.2135296707064E-03 
2148	 4.15537384196386E-03 
2149	 2.75221512013377E-03 
2150	-6.2320782893958E-04 
2151	 1.23675367103062E-03 
2152	 3.29361117739283E-03 
2153	 3.25091984110921E-03 
2154	 3.78847595737733E-03 
2155	 4.04187738967404E-03 
2156	 3.20739606750094E-03 
2157	 2.94725169370901E-03 
2158	 4.24920793536681E-03 
2159	 5.37628072507886E-03 
2160	 6.56806860193724E-03 
2161	 6.77852074602128E-03 
2162	 7.14627678665057E-03 
2163	 7.40764126015368E-03 
2164	 5.6021813543727E-03 
2165	 4.38280573856883E-03 
2166	 5.36093877569379E-03 
2167	 4.23540549643909E-03 
2168	-2.48967273188531E-04 
2169	-8.62435057387202E-04 
2170	 6.75366198621398E-04 
2171	 6.19059081065375E-04 
2172	-6.1350720910821E-04 
2173	 2.68601486518595E-04 
2174	-6.06702196318497E-04 
2175	-2.20195248351646E-03 
2176	-1.52482439278594E-03 
2177	-2.1588438472663E-03 
2178	-3.69741080551602E-03 
2179	-3.44811827383609E-03 
2180	-5.65041106696829E-04 
2181	 1.92714168106499E-03 
2182	 2.48182200320176E-03 
2183	 2.40921194097822E-03 
2184	-3.02809674496135E-04 
2185	-3.75251469237547E-03 
2186	-5.07915477184031E-03 
2187	-6.38382580013958E-03 
2188	-5.49869295692921E-03 
2189	-8.08964935991149E-04 
2190	 1.21666209970226E-03 
2191	 3.17770370881583E-03 
2192	 3.74298735434912E-03 
2193	 2.35819910452788E-03 
2194	 3.06250926933191E-03 
2195	 4.26552614965416E-03 
2196	 5.00030589614551E-03 
2197	 7.25678923977203E-03 
2198	 6.62449203950128E-03 
2199	 8.88323637402411E-04 
2200	 2.85387708275932E-03 
2201	 7.77561634049407E-03 
2202	 7.85050599022584E-03 
2203	 7.76252444967185E-03 
2204	 4.05430416133852E-03 
2205	-4.74790517123051E-03 
2206	-7.61403434155927E-03 
2207	-5.48895756850214E-03 
2208	-2.51191593475916E-03 
2209	 2.31023660917189E-03 
2210	 3.15818151985107E-03 
2211	 1.72020432277497E-03 
2212	 2.62521292638691E-03 
2213	 2.48671021646836E-03 
2214	 1.9133286126135E-03 
2215	 4.38783733930102E-04 
2216	-2.13568472096655E-03 
2217	-3.80489699798698E-03 
2218	-0.006406724604638 
2219	-7.49472179805806E-03 
2220	-7.46299023227086E-03 
2221	-7.6253667538066E-03 
2222	-6.16374311556502E-03 
2223	-6.53302210034351E-03 
2224	-9.50522714896862E-03 
2225	-9.03082659779653E-03 
2226	-6.18163862093481E-03 
2227	-7.3989127899189E-03 
2228	-8.45631853327665E-03 
2229	-7.90856903966629E-03 
2230	-1.21552959744501E-02 
2231	-1.12301612434884E-02 
2232	-2.07305826033771E-03 
2233	 2.5991494230608E-04 
2234	 4.05994967556493E-04 
2235	 6.51329956039977E-05 
2236	 7.09046481968724E-04 
2237	-1.45385772545065E-03 
2238	-4.06767731225106E-04 
2239	 2.61466886491246E-03 
2240	 2.72760174738656E-03 
2241	 3.94725621829612E-03 
2242	 6.47365554319157E-03 
2243	 7.51878539219323E-03 
2244	 6.85547317086823E-03 
2245	 3.84725679674524E-03 
2246	 1.0945783145921E-03 
2247	-2.6477741694277E-03 
2248	-8.90645415445321E-03 
2249	-1.17929779562383E-02 
2250	-1.55336863368679E-02 
2251	-0.015957477303288 
2252	-1.09539274930768E-02 
2253	-8.82258140571248E-03 
2254	-3.58409367732954E-03 
2255	 3.45757310001958E-04 
2256	-5.68275315989456E-03 
2257	-0.007771882121234 
2258	-4.46321606062254E-03 
2259	-6.0910502268776E-03 
2260	-5.27833472183501E-03 
2261	 4.58252465677817E-03 
2262	 4.59736830186508E-03 
2263	-4.92155044405355E-03 
2264	-5.92732779419338E-03 
2265	-6.65220400922928E-03 
2266	-4.53182855727613E-03 
2267	 4.41305013708833E-03 
2268	 7.58802253106643E-03 
2269	 1.22077359445309E-02 
2270	 1.12596799037316E-02 
2271	 1.31293783367962E-03 
2272	-1.05547386517541E-03 
2273	-2.50347300755022E-03 
2274	-4.43486775941315E-03 
2275	-3.4433072017413E-03 
2276	-7.95606526123762E-04 
2277	 2.42404566354495E-03 
2278	 4.77228498963026E-03 
2279	 0.011059206750184 
2280	 1.00665875755868E-02 
2281	 3.76330719089308E-03 
2282	-1.69949183896713E-03 
2283	-9.20462954272557E-03 
2284	-8.85955542098831E-03 
2285	-4.5646034011349E-03 
2286	-4.66786376454089E-04 
2287	-3.7188877155208E-03 
2288	-3.68745839990268E-03 
2289	 2.05892711857121E-03 
2290	-1.27605407865503E-03 
2291	-3.18563766194039E-03 
2292	-1.45455472513116E-03 
2293	-5.45066749634663E-03 
2294	-8.0819974383846E-03 
2295	-1.07351165040607E-02 
2296	-1.52911982252524E-02 
2297	-0.015172521053926 
2298	-1.88971060895621E-02 
2299	-1.81745220742712E-02 
2300	-5.23373608886067E-03 
2301	 2.20919311949791E-03 
2302	 6.09772232418046E-03 
2303	 1.22321281775212E-02 
2304	 8.1340945705552E-03 
2305	-3.32272910091183E-03 
2306	-8.51606585945742E-03 
2307	-9.18627323744615E-03 
2308	-8.86973542010545E-03 
2309	-4.51695657427632E-03 
2310	-2.5865312692681E-03 
2311	-6.98688125552556E-04 
2312	 6.48607263420576E-03 
2313	 1.55255500845676E-02 
2314	 1.89363302290358E-02 
2315	 1.15661416730318E-02 
2316	-1.40249434758523E-03 
2317	-2.25251755291535E-02 
2318	-2.64714950724703E-02 
2319	-2.04799611522102E-02 
2320	-2.50858764704738E-02 
2321	-1.35488055976985E-02 
2322	-1.68713510850003E-02 
2323	-1.92206841047767E-02 
2324	-4.86698219457496E-03 
2325	-4.17479240007564E-03 
2326	 3.77694595203419E-03 
2327	 3.6248958543926E-03 
2328	-7.23361401703587E-03 
2329	-5.60627450488752E-03 
2330	-4.48516636004345E-03 
2331	-9.40421901505781E-03 
2332	-1.73720125088439E-02 
2333	-2.53960867217657E-02 
2334	-3.58405545265143E-02 
2335	-3.41738168736787E-02 
2336	-1.54380027881293E-02 
2337	-9.37383465574826E-03 
2338	 6.22687718713253E-03 
2339	 1.90214151641186E-02 
2340	 7.59659126318188E-03 
2341	 1.07049225580206E-02 
2342	 9.62983016860038E-03 
2343	 2.35495100365541E-03 
2344	 1.23435632669351E-03 
2345	 5.71112441640918E-03 
2346	 5.11807087387534E-04 
2347	-2.45263943230334E-02 
2348	-1.63806982871564E-02 
2349	 9.1963534059644E-03 
2350	 8.00828887639463E-03 
2351	 2.32099455202675E-02 
2352	 3.35008945207643E-02 
2353	 1.72290316298003E-02 
2354	 3.00888982661212E-02 
2355	 3.24883430949229E-02 
2356	 1.99990659341688E-02 
2357	 1.72210169788233E-02 
2358	-8.33555274466806E-03 
2359	-2.62452322560273E-02 
2360	-9.89816632108545E-03 
2361	-7.49014972420871E-03 
2362	-2.91864286876885E-02 
2363	-3.02249608661437E-02 
2364	-2.96367549864565E-02 
2365	-2.53198051865013E-02 
2366	-7.96214340916368E-03 
2367	 1.73585280034444E-03 
2368	 1.84627493815003E-02 
2369	-2.49343062667608E-03 
2370	-3.01642483658689E-02 
2371	-7.15737674565984E-02 
2372	-0.138788463592903 
2373	-0.129259407773297 
2374	-0.113631832057466 
2375	-9.26155722693836E-02 
2376	-3.60238765089877E-02 
2377	-5.03635828808744E-02 
2378	-0.102194064917142 
2379	-9.15604040465404E-02 
2380	-5.72019986251599E-02 
2381	-6.76957852245614E-02 
2382	-4.95007784800967E-02 
2383	-5.91093664490576E-02 
2384	-9.91007117537913E-02 
2385	-5.34454711692843E-02 
2386	-3.89310353575047E-02 
2387	-1.74040018822082E-02 
2388	 1.12460422818947E-02 
2389	-1.78098159650123E-02 
2390	-1.35035812473457E-02 
2391	 2.61978024400636E-03 
2392	 5.2415145802777E-03 
2393	-6.39363707940008E-02 
2394	-0.169480530270591 
2395	-0.21952945774214 
2396	-0.246355966181906 
2397	-0.217600664280856 
2398	-0.14808962397772 
2399	-0.114521649333405 
2400	-0.134118134241968 
2401	-0.171598301085189 
2402	-0.211524346923218 
2403	-0.230977488688918 
2404	-0.289766958594516 
2405	-0.371610082291549 
2406	-0.312902458662487 
2407	-0.260606261775354 
2408	-0.29316101554614 
2409	-0.315372961636167 
2410	-0.288759945084636 
2411	-0.362192164026562 
2412	-0.453553072702549 
2413	-0.16452765833117 
2414	-8.10669254982985E-04 
2415	-0.18855143088864 
2416	-0.157519742686666 
2417	-0.117214350383992 
2418	-0.311854481073495 
2419	-0.170949533594555 
2420	-0.136629858139648 
2421	-0.442339997819437 
2422	-0.364909407241919 
2423	-0.285172317786626 
2424	-0.142646966595067 
2425	 0.109517964757711 
2426	 9.37098292945977E-02 
2427	 0.037770828198983 
2428	-1.31842831287663E-03 
2429	-0.120351816014036 
2430	-0.249077489011077 
2431	-0.215087281173316 
2432	-0.115412487873129 
2433	-0.134153703124842 
2434	-0.270327730973078 
2435	-0.580834289143552 
2436	-0.852801458318558 
2437	-1.20134543473806 
2438	-1.7790624640425 
2439	-1.546107501878 
2440	-1.14480332983687 
2441	-1.10113133344677 
2442	-1.23513038212984 
2443	-1.18336608230461 
2444	-1.35822747942991 
2445	-2.92992465679925 
2446	-2.87263986528645 
2447	-5.49272778018875 
2448	-4.6538885685362 
2449	-1.29857047017927 
2450	-0.914749402679941 
2451	-0.701114641048112 
2452	-0.509388240370082 
2453	-0.73382625599602 
2454	-0.913601768924145 
2455	-1.16444428465634 
2456	-1.59804917393808 
2457	-0.539502966360945 
2458	-0.200083109509911 
2459	-0.55963463671355 
2460	-0.684640578401842 
2461	-2.16547408189439 
2462	 11.5982524651931 
2463	 4.7905385072601 
2464	-0.799765294620423 
2465	-0.222537650663348 
2466	-0.650391669166408 
2467	 0.160721823354758 
2468	 0.227963918852928 
2469	-1.25339919728796 
2470	-0.937317014443855 
2471	-0.998781250408252 
2472	-1.73837432199881 
2473	-1.25336066917863 
2474	-1.26524308011225 
2475	-2.8598352974542 
2476	-3.28086548193662 
2477	-8.57308671850861 
2478	 3.03873231836376 
2479	 4.09579500463869 
2480	 35.4331358389436 
2481	-5.83218699794767 
2482	-2.3783169939951 
2483	-1.07638823621056 
2484	-0.840240049905828 
2485	-0.917305375521187 
2486	-0.970619374958855 
2487	-1.80508203585783 
2488	-2.00421412619644 
2489	-1.44730260645349 
2490	-1.23652422410193 
2491	-0.26745821344396 
2492	 0.511202797877827 
2493	 0.753491766858725 
2494	 0.789091646082008 
2495	 0.817322271752744 
2496	-0.532879358648904 
2497	-1.84913125633539 
2498	-15.029539267118 
2499	-0.600896882508411 
2500	-0.259123347654953 
