Wavelength	rt0622clean00002.asd
350	 2.29487362022925E-02 
351	 2.26987206287185E-02 
352	 2.30974423677108E-02 
353	 2.34673118682615E-02 
354	 2.32796795438004E-02 
355	 2.27443495395902E-02 
356	 2.36350949235109E-02 
357	 2.45163249235638E-02 
358	 2.38040754958186E-02 
359	 2.38779100168356E-02 
360	 2.43563398659668E-02 
361	 0.024809715989743 
362	 2.49014809641794E-02 
363	 2.49306845388783E-02 
364	 2.52079473454462E-02 
365	 2.55997470421763E-02 
366	 2.53266136870753E-02 
367	 2.48003118189943E-02 
368	 2.47251278583346E-02 
369	 2.54336416396916E-02 
370	 2.57555168813766E-02 
371	 2.60247211893995E-02 
372	 2.63332301053065E-02 
373	 2.66213580647941E-02 
374	 2.67748857705124E-02 
375	 0.02713154051687 
376	 2.76672420799385E-02 
377	 0.027822162999092 
378	 2.80074274168263E-02 
379	 2.82645901019958E-02 
380	 2.86164620023543E-02 
381	 2.93762071520358E-02 
382	 2.96375412094836E-02 
383	 2.95559702542972E-02 
384	 0.029723755468034 
385	 2.96035407979944E-02 
386	 0.029761364427724 
387	 3.03024771157034E-02 
388	 3.07436651965283E-02 
389	 3.14972772837137E-02 
390	 3.16545971331805E-02 
391	 3.09575861341456E-02 
392	 3.12161528585609E-02 
393	 3.15517778643492E-02 
394	 3.19384980173385E-02 
395	 3.25191253756404E-02 
396	 0.032636310125677 
397	 3.28343479899707E-02 
398	 3.31159635555662E-02 
399	 3.30125376446542E-02 
400	 0.033419743328219 
401	 3.36971834594192E-02 
402	 0.033464378320308 
403	 3.33748298423774E-02 
404	 3.35954140211389E-02 
405	 3.40801347526516E-02 
406	 3.45705902606354E-02 
407	 3.42439176445535E-02 
408	 3.42787549102936E-02 
409	 3.48177565822314E-02 
410	 3.49110147142389E-02 
411	 3.50109818239485E-02 
412	 3.52100532455186E-02 
413	 3.55128006057355E-02 
414	 3.59048179193612E-02 
415	 3.60408919253627E-02 
416	 0.036059754818157 
417	 0.036262280864155 
418	 3.65308349719811E-02 
419	 3.69329180907709E-02 
420	 3.73743811367988E-02 
421	 0.037592534505885 
422	 3.77341669803747E-02 
423	 3.79299087928073E-02 
424	 0.038264309830115 
425	 3.87267915723899E-02 
426	 3.91126240516973E-02 
427	 3.94325332168046E-02 
428	 3.98074100545251E-02 
429	 4.02701944389861E-02 
430	 4.07781577749021E-02 
431	 4.12013810974859E-02 
432	 0.041330539904106 
433	 4.16209060100833E-02 
434	 4.19315876717683E-02 
435	 4.21651960134031E-02 
436	 0.04281701504248 
437	 4.32409386338183E-02 
438	 4.35124850554444E-02 
439	 4.40515143008382E-02 
440	 4.45225888422594E-02 
441	 4.48211673186647E-02 
442	 4.50259711426931E-02 
443	 4.54407044289907E-02 
444	 4.59017798082521E-02 
445	 4.63415646325121E-02 
446	 4.67149667280002E-02 
447	 4.69693238313446E-02 
448	 4.72202875748364E-02 
449	 4.75028932934143E-02 
450	 4.77858541659063E-02 
451	 4.80146508418247E-02 
452	 4.83603274462315E-02 
453	 4.88252377601848E-02 
454	 4.89989895007059E-02 
455	 4.91761725775213E-02 
456	 4.93789043381214E-02 
457	 4.95401248952541E-02 
458	 4.96342762576601E-02 
459	 4.98583141221039E-02 
460	 5.01823886209096E-02 
461	 5.03481971541063E-02 
462	 5.05123823717873E-02 
463	 5.06679709604168E-02 
464	 5.07840409487572E-02 
465	 5.08185047225991E-02 
466	 0.051073910333738 
467	 5.14354394753979E-02 
468	 5.16103410193843E-02 
469	 0.051726670293357 
470	 5.19653882318709E-02 
471	 0.052301072398982 
472	 5.24306341021494E-02 
473	 5.25282308202746E-02 
474	 5.27521144800623E-02 
475	 5.31149523378301E-02 
476	 5.30801168451262E-02 
477	 5.34922466044076E-02 
478	 0.054108609273845 
479	 0.054041075005393 
480	 5.41760803007067E-02 
481	 0.054476590493835 
482	 5.48275327891044E-02 
483	 5.52205911384687E-02 
484	 5.55738782688363E-02 
485	 5.59126781196913E-02 
486	 0.056290174887764 
487	 5.66406840201722E-02 
488	 5.70442619417112E-02 
489	 5.74621981448892E-02 
490	 5.77472326447615E-02 
491	 5.80106462540163E-02 
492	 0.058535415578079 
493	 5.93244210853367E-02 
494	 5.95158574655477E-02 
495	 6.00185295220971E-02 
496	 6.07101645137709E-02 
497	 6.10360052561923E-02 
498	 6.15859608122126E-02 
499	 0.062157894513536 
500	 6.26676600236081E-02 
501	 0.063339909524909 
502	 6.38887633430848E-02 
503	 6.44395892999909E-02 
504	 6.51389833798726E-02 
505	 6.57210494597048E-02 
506	 6.61912657723493E-02 
507	 6.67098172871983E-02 
508	 0.067514413920225 
509	 6.81789201472591E-02 
510	 0.068812167775686 
511	 6.95094750507634E-02 
512	 7.01234824088092E-02 
513	 7.07616503581983E-02 
514	 7.14965055049555E-02 
515	 7.23394196145744E-02 
516	 7.30332315285121E-02 
517	 7.37250440757596E-02 
518	 7.45106047876243E-02 
519	 7.53756115121293E-02 
520	 7.62687298247365E-02 
521	 7.70800536977125E-02 
522	 7.77730143431828E-02 
523	 7.85454194602846E-02 
524	 7.94605517000588E-02 
525	 8.03885636258247E-02 
526	 8.11107074723155E-02 
527	 8.20367014814758E-02 
528	 8.30020530700999E-02 
529	 8.38653325808821E-02 
530	 8.46863148108859E-02 
531	 8.55693263777539E-02 
532	 8.65815050993762E-02 
533	 8.77134726024374E-02 
534	 8.87075601715961E-02 
535	 8.95134924574372E-02 
536	 9.03071887622216E-02 
537	 9.14820554773479E-02 
538	 9.25108180333075E-02 
539	 9.35031097522612E-02 
540	 9.46134982611681E-02 
541	 9.56265863973326E-02 
542	 9.65637789822969E-02 
543	 9.75314945442083E-02 
544	 9.86634008433576E-02 
545	 9.97705450250089E-02 
546	 0.100733858612507 
547	 0.101575841428875 
548	 0.102570198105943 
549	 0.103481250359256 
550	 0.104396624291465 
551	 0.105453424146095 
552	 0.106386691152553 
553	 0.107338147174389 
554	 0.108306069336368 
555	 0.10910242109905 
556	 0.110077104117179 
557	 0.111090704750794 
558	 0.111974941618141 
559	 0.112925120943362 
560	 0.113778661427138 
561	 0.114579919397557 
562	 0.115481957794311 
563	 0.116241812491068 
564	 0.117025214396861 
565	 0.117894564451209 
566	 0.118623165481946 
567	 0.119156529910355 
568	 0.119620381272869 
569	 0.120188738778626 
570	 0.120835957887935 
571	 0.12134492407757 
572	 0.121713962166478 
573	 0.122174050709346 
574	 0.12236388388791 
575	 0.122521840347357 
576	 0.122864462948204 
577	 0.123083753597269 
578	 0.123301703486817 
579	 0.123463059012203 
580	 0.123449514190756 
581	 0.123634052553622 
582	 0.123737575350598 
583	 0.123589564809835 
584	 0.123343783521172 
585	 0.123205083534191 
586	 0.1230611666051 
587	 0.122725109388273 
588	 0.122410020418047 
589	 0.122182343057452 
590	 0.121947166473165 
591	 0.12145663669698 
592	 0.121090837450785 
593	 0.120706977006334 
594	 0.120148160870935 
595	 0.119539897608227 
596	 0.118727850023245 
597	 0.117776993860943 
598	 0.116877358829088 
599	 0.11604512829411 
600	 0.115212560712418 
601	 0.114464918943841 
602	 0.114181867228862 
603	 0.113812959025441 
604	 0.113543142756882 
605	 0.113658483798759 
606	 0.113659935474168 
607	 0.113659495785278 
608	 0.11369340911047 
609	 0.113687704926833 
610	 0.113456827700863 
611	 0.113400572539791 
612	 0.113738863372935 
613	 0.113840910028986 
614	 0.113671347313569 
615	 0.113477083278779 
616	 0.113615840342768 
617	 0.113678478631296 
618	 0.113723311910646 
619	 0.11375243080811 
620	 0.113585161595556 
621	 0.113386324601093 
622	 0.113374216827039 
623	 0.113643508817204 
624	 0.113658630894938 
625	 0.113514724686441 
626	 0.113320602728407 
627	 0.113176861008689 
628	 0.113196623169013 
629	 0.113289408939324 
630	 0.113325750857848 
631	 0.113178566805449 
632	 0.11311811831571 
633	 0.11313060826695 
634	 0.113057246005069 
635	 0.112790166406471 
636	 0.112654239990399 
637	 0.112672858263916 
638	 0.112382637625855 
639	 0.112205561451746 
640	 0.112050275483913 
641	 0.111745848261262 
642	 0.111413239221199 
643	 0.111078551961532 
644	 0.110818711940444 
645	 0.11072202773052 
646	 0.11024418565561 
647	 0.109812356552886 
648	 0.109695123201889 
649	 0.109340075512702 
650	 0.108909334346103 
651	 0.108408809304929 
652	 0.107861277637729 
653	 0.107584767092691 
654	 0.107118539420169 
655	 0.106329992002377 
656	 0.105716159347205 
657	 0.104999445866179 
658	 0.10439343433638 
659	 0.103998909707844 
660	 0.103363754154991 
661	 0.102780432723234 
662	 0.102307951668598 
663	 0.101873271683091 
664	 0.101529376130112 
665	 0.101167680741076 
666	 0.100792424486525 
667	 0.100669564669474 
668	 0.100287355178537 
669	 9.98965772835715E-02 
670	 9.98657567875861E-02 
671	 9.97981803613844E-02 
672	 9.95645109578343E-02 
673	 9.93080044907056E-02 
674	 9.93928033047708E-02 
675	 9.96231133437547E-02 
676	 9.98154153915348E-02 
677	 9.98882380429981E-02 
678	 9.99905073041363E-02 
679	 0.1001851189056 
680	 0.100506111890969 
681	 0.100954756308997 
682	 0.101485053676215 
683	 0.101992054093631 
684	 0.102502410274378 
685	 0.103287444514188 
686	 0.103917814161535 
687	 0.104481822431137 
688	 0.105116755637794 
689	 0.105576889708411 
690	 0.105968266262782 
691	 0.106118637118462 
692	 0.10577826893123 
693	 0.106042900755578 
694	 0.106148661406392 
695	 0.105723726520098 
696	 0.105409950282197 
697	 0.105074098990953 
698	 0.104582070547975 
699	 0.103857412863634 
700	 0.103043926931471 
701	 0.102403005222249 
702	 0.101812522979834 
703	 0.100856305489579 
704	 9.97497878119495E-02 
705	 9.85376548732642E-02 
706	 9.73177601879173E-02 
707	 9.62889810490823E-02 
708	 9.50202967292685E-02 
709	 0.093511084656563 
710	 9.19243709062757E-02 
711	 9.02997426482649E-02 
712	 8.84870616715156E-02 
713	 8.64917780721645E-02 
714	 8.44447210850179E-02 
715	 8.25148009157283E-02 
716	 8.04608895596902E-02 
717	 0.078245450370229 
718	 7.62520060357114E-02 
719	 7.42532604812638E-02 
720	 7.25665092931708E-02 
721	 7.11140629786879E-02 
722	 6.92562930636265E-02 
723	 6.71862144622833E-02 
724	 6.54622083674227E-02 
725	 6.42522773356429E-02 
726	 6.23420634632643E-02 
727	 6.03104157901034E-02 
728	 5.87514931972901E-02 
729	 5.69974637293442E-02 
730	 5.52436999558381E-02 
731	 5.36360320300982E-02 
732	 5.21821865339024E-02 
733	 0.051014417671546 
734	 5.00862662283382E-02 
735	 4.93688701372715E-02 
736	 4.88305089872497E-02 
737	 0.048475604872977 
738	 4.83393564244772E-02 
739	 4.83490389211049E-02 
740	 4.80903764775316E-02 
741	 0.047682637371122 
742	 4.74622820606938E-02 
743	 4.77393805958619E-02 
744	 4.77663834407453E-02 
745	 4.76488467950592E-02 
746	 4.75903315088211E-02 
747	 4.77981700802049E-02 
748	 4.77831607276724E-02 
749	 4.76155725127597E-02 
750	 4.74779943733495E-02 
751	 4.73764274101158E-02 
752	 4.74134913379389E-02 
753	 4.74816692816432E-02 
754	 4.74028314838882E-02 
755	 4.74530705658984E-02 
756	 4.75371770376759E-02 
757	 4.75243003249913E-02 
758	 0.047190051961915 
759	 4.69177645026813E-02 
760	 4.68379036513291E-02 
761	 4.68116329675507E-02 
762	 4.66286250862854E-02 
763	 4.67593323103113E-02 
764	 4.71662256128209E-02 
765	 4.75710082015862E-02 
766	 4.75105044054133E-02 
767	 4.74960261809303E-02 
768	 4.76567538794308E-02 
769	 4.77900409487888E-02 
770	 4.80147261520897E-02 
771	 4.81697443761455E-02 
772	 4.81658915450108E-02 
773	 4.82431127363857E-02 
774	 4.82959929916307E-02 
775	 4.84294811050742E-02 
776	 4.87329524095088E-02 
777	 4.86397854948504E-02 
778	 4.87621288384777E-02 
779	 4.91305117851876E-02 
780	 4.91517280549566E-02 
781	 4.94626467687204E-02 
782	 4.98494293958749E-02 
783	 5.00359671378347E-02 
784	 4.99417027243981E-02 
785	 4.98754600140345E-02 
786	 5.01067099204363E-02 
787	 5.06815665061154E-02 
788	 5.06858771617895E-02 
789	 5.06308157588042E-02 
790	 5.09114710338763E-02 
791	 0.051646610195214 
792	 5.19258601330202E-02 
793	 5.21793332123867E-02 
794	 5.25817963463396E-02 
795	 5.25577857409816E-02 
796	 5.27222619010007E-02 
797	 0.053134290515684 
798	 5.35813044950674E-02 
799	 5.34645509078574E-02 
800	 5.35098823864708E-02 
801	 5.38817844323977E-02 
802	 5.43351200116616E-02 
803	 5.44393090622573E-02 
804	 5.45252662127524E-02 
805	 5.47001398256285E-02 
806	 5.47493448321438E-02 
807	 5.45397590194702E-02 
808	 5.45297600335988E-02 
809	 0.054824371881413 
810	 5.42559140634088E-02 
811	 5.37920270231089E-02 
812	 5.35696079061659E-02 
813	 5.34018513252726E-02 
814	 5.33913015742965E-02 
815	 5.25271737877815E-02 
816	 5.15979437636447E-02 
817	 5.23753331579446E-02 
818	 5.20806411064156E-02 
819	 5.14099965784762E-02 
820	 5.09799905918704E-02 
821	 5.09159621153846E-02 
822	 4.96246358383263E-02 
823	 4.84856764999647E-02 
824	 0.048458406762123 
825	 4.77242440499129E-02 
826	 4.68120626969744E-02 
827	 4.60401312226917E-02 
828	 4.55804402418948E-02 
829	 4.46450549929892E-02 
830	 4.35506380690079E-02 
831	 4.28228595301409E-02 
832	 4.29384290421685E-02 
833	 4.27953875072268E-02 
834	 4.24994862058159E-02 
835	 4.22649124578375E-02 
836	 4.22263038331777E-02 
837	 4.18882205984467E-02 
838	 4.15942890253494E-02 
839	 4.16010453591203E-02 
840	 0.041474476350628 
841	 0.041359871823627 
842	 4.12869688633239E-02 
843	 4.12228729479636E-02 
844	 0.041023613674556 
845	 4.07869334921084E-02 
846	 4.06317812584106E-02 
847	 4.06368234279626E-02 
848	 4.04281124865662E-02 
849	 4.06509763305614E-02 
850	 4.11396993944414E-02 
851	 4.06454982283638E-02 
852	 3.98493629697664E-02 
853	 3.98720072510931E-02 
854	 4.07476139012874E-02 
855	 4.01224251204392E-02 
856	 3.98231103341443E-02 
857	 3.99375850721238E-02 
858	 4.00365801067138E-02 
859	 3.96853547017285E-02 
860	 3.94102971952494E-02 
861	 0.039343838344735 
862	 3.93654506840311E-02 
863	 3.92566943780851E-02 
864	 3.93667574455698E-02 
865	 3.95078363869512E-02 
866	 3.91150695606472E-02 
867	 3.93909114437254E-02 
868	 3.92274215124116E-02 
869	 3.85841525113072E-02 
870	 3.91086487303627E-02 
871	 3.92181656498655E-02 
872	 3.90012710032061E-02 
873	 3.88434720690015E-02 
874	 3.89615691454605E-02 
875	 3.90304414616956E-02 
876	 3.88768318992068E-02 
877	 3.85086474999183E-02 
878	 3.83195661979902E-02 
879	 3.83180905802068E-02 
880	 3.83799615206091E-02 
881	 3.83045504716761E-02 
882	 3.78794360201406E-02 
883	 3.78056380688717E-02 
884	 3.78137427234447E-02 
885	 3.70970902564929E-02 
886	 3.71147719308373E-02 
887	 3.75209309767694E-02 
888	 3.79419681589009E-02 
889	 3.82108739329886E-02 
890	 3.79427273895735E-02 
891	 3.73380762263426E-02 
892	 3.70319563641378E-02 
893	 3.82362038762393E-02 
894	 3.69890517171891E-02 
895	 3.57612291412012E-02 
896	 3.70034408545119E-02 
897	 3.60458839510518E-02 
898	 3.61040362021254E-02 
899	 3.63104935411984E-02 
900	 3.54129838102389E-02 
901	 3.60615765179704E-02 
902	 3.60420527606839E-02 
903	 3.55057966278334E-02 
904	 3.54074088038905E-02 
905	 3.57198257601751E-02 
906	 3.65931329902719E-02 
907	 3.74172200321418E-02 
908	 3.70232654108264E-02 
909	 3.47634343059198E-02 
910	 3.47226613896198E-02 
911	 3.57902696199361E-02 
912	 3.28392329636568E-02 
913	 3.28474259619594E-02 
914	 3.32521645108275E-02 
915	 3.31207081939823E-02 
916	 3.44422463982381E-02 
917	 3.43645259186107E-02 
918	 3.40191342631188E-02 
919	 3.41521159741105E-02 
920	 3.42335465657018E-02 
921	 3.32551629822453E-02 
922	 3.28139358924101E-02 
923	 3.37507496657673E-02 
924	 3.42297871386924E-02 
925	 3.51498425705956E-02 
926	 3.54952528256416E-02 
927	 3.41243898232247E-02 
928	 3.16732158432719E-02 
929	 3.33084807881047E-02 
930	 3.59683353673015E-02 
931	 3.26687423833905E-02 
932	 0.034318578483136 
933	 0.028965130421772 
934	 2.29014512591089E-02 
935	 2.75161663235468E-02 
936	 2.76934372451892E-02 
937	 3.27095552409239E-02 
938	 3.40016600613374E-02 
939	 2.51142849026719E-02 
940	 2.65738078927025E-02 
941	 3.18017354284053E-02 
942	 3.35955525412864E-02 
943	 2.76199742184289E-02 
944	 2.67247578450273E-02 
945	 3.72316687094647E-02 
946	 4.47868189621927E-02 
947	 3.25047198135952E-02 
948	 2.87324569864905E-02 
949	 2.59741501645246E-02 
950	 2.56235745275588E-02 
951	 3.22592501104306E-02 
952	 2.76042881312017E-02 
953	 3.01422282255942E-02 
954	 0.035926876445758 
955	 2.87240187749416E-02 
956	 2.59720228349634E-02 
957	 2.61160564336662E-02 
958	 2.66516354259072E-02 
959	 2.62570632113716E-02 
960	 2.88727360121922E-02 
961	 2.71421104375077E-02 
962	 0.025109918881901 
963	 3.18488890087549E-02 
964	 3.36520809422424E-02 
965	 2.69793854013863E-02 
966	 2.09742199067804E-02 
967	 2.87769948288721E-02 
968	 2.89732723729091E-02 
969	 2.70061745934112E-02 
970	 2.63739049964174E-02 
971	 2.67365766893058E-02 
972	 2.77066000967913E-02 
973	 2.66465330139182E-02 
974	 2.55854357350589E-02 
975	 2.96130448571345E-02 
976	 2.89863674137883E-02 
977	 2.72438352939776E-02 
978	 2.76347720280085E-02 
979	 3.04930298682577E-02 
980	 2.91857094021428E-02 
981	 2.80423043416024E-02 
982	 2.87607647484136E-02 
983	 2.96137112789344E-02 
984	 2.74209154791709E-02 
985	 2.65526694479776E-02 
986	 2.73075724471578E-02 
987	 2.66157765747709E-02 
988	 2.60590647418036E-02 
989	 2.57599551304891E-02 
990	 2.61958688111486E-02 
991	 2.78332558646247E-02 
992	 2.96746480406175E-02 
993	 2.68478153740887E-02 
994	 0.025223446079302 
995	 3.32800837716308E-02 
996	 2.80388113269724E-02 
997	 2.67201563744825E-02 
998	 2.93782816975081E-02 
999	 2.62206265355796E-02 
1000	 2.75707019392084E-02 
1001	 2.42454103365106E-02 
1002	 2.44245778204018E-02 
1003	 2.46266091837215E-02 
1004	 2.49465597902419E-02 
1005	 2.49918356386696E-02 
1006	 2.47865087683877E-02 
1007	 2.47718604312862E-02 
1008	 0.024950339873716 
1009	 2.51781808226874E-02 
1010	 2.55504252854607E-02 
1011	 2.57814227413306E-02 
1012	 0.025834082481803 
1013	 2.58689700521359E-02 
1014	 0.025781713699521 
1015	 2.53440017937029E-02 
1016	 2.52286495169499E-02 
1017	 2.50440315815895E-02 
1018	 2.53212752389876E-02 
1019	 2.61092809636631E-02 
1020	 2.66119717339476E-02 
1021	 2.74555145188294E-02 
1022	 0.02781996629784 
1023	 2.78767296198421E-02 
1024	 2.77122299869641E-02 
1025	 2.77504458154196E-02 
1026	 2.71305684991363E-02 
1027	 2.68935139003282E-02 
1028	 2.65393172739894E-02 
1029	 2.66887170289882E-02 
1030	 2.72758299641063E-02 
1031	 2.75930881998921E-02 
1032	 2.83353393942424E-02 
1033	 2.83106464111966E-02 
1034	 2.75407299708634E-02 
1035	 2.72099982393889E-02 
1036	 2.62193830506773E-02 
1037	 0.026267474793945 
1038	 2.73450044190139E-02 
1039	 2.81265866930065E-02 
1040	 2.83429043838165E-02 
1041	 2.90148473623259E-02 
1042	 2.89308348860094E-02 
1043	 2.76828628487441E-02 
1044	 2.75704823321806E-02 
1045	 2.77998899712714E-02 
1046	 2.80682885501714E-02 
1047	 2.90632234437035E-02 
1048	 2.90341435787672E-02 
1049	 2.84116641878564E-02 
1050	 2.81474819177111E-02 
1051	 2.71245077605565E-02 
1052	 2.69636733538896E-02 
1053	 2.77462192951919E-02 
1054	 2.81814185969346E-02 
1055	 2.91805468782483E-02 
1056	 2.94326701873714E-02 
1057	 2.93142452793868E-02 
1058	 2.86034418252829E-02 
1059	 2.84825950408793E-02 
1060	 2.78489477633384E-02 
1061	 2.81310531702174E-02 
1062	 2.96080496146705E-02 
1063	 2.98761079853428E-02 
1064	 2.99563570653921E-02 
1065	 2.99046223770981E-02 
1066	 2.91425869691619E-02 
1067	 0.028703642445978 
1068	 2.81814435026591E-02 
1069	 2.80391600666694E-02 
1070	 2.80952119806428E-02 
1071	 2.81259266231222E-02 
1072	 2.81856152698058E-02 
1073	 2.90152660680226E-02 
1074	 2.89977284910388E-02 
1075	 2.84273531877616E-02 
1076	 2.85949419828651E-02 
1077	 2.89520835863617E-02 
1078	 2.89897925726585E-02 
1079	 2.94593821020769E-02 
1080	 2.93835606866002E-02 
1081	 2.83391631649875E-02 
1082	 0.028212433315515 
1083	 2.85689285894171E-02 
1084	 2.86759106366846E-02 
1085	 0.029392367375375 
1086	 0.029433429699346 
1087	 0.02856622574907 
1088	 2.82672243870576E-02 
1089	 2.82745598992858E-02 
1090	 2.78285252593128E-02 
1091	 2.73455178905698E-02 
1092	 2.68531798655172E-02 
1093	 2.69568955584701E-02 
1094	 2.69864182274321E-02 
1095	 2.71576881770236E-02 
1096	 2.83688866418155E-02 
1097	 2.87177551393979E-02 
1098	 2.84188377167628E-02 
1099	 0.028312318331616 
1100	 2.80697319563028E-02 
1101	 2.77911285420429E-02 
1102	 2.76575925774712E-02 
1103	 2.69594503914343E-02 
1104	 2.47615559942083E-02 
1105	 2.47602762426781E-02 
1106	 2.56676752238695E-02 
1107	 2.55839485950169E-02 
1108	 2.78117948533269E-02 
1109	 2.73360806868679E-02 
1110	 2.63495115189056E-02 
1111	 2.24516452298602E-02 
1112	 2.16473416118433E-02 
1113	 2.16133653689595E-02 
1114	 2.22002063448499E-02 
1115	 2.59664524250361E-02 
1116	 2.65911805337585E-02 
1117	 2.46556271544467E-02 
1118	 2.38998931683804E-02 
1119	 2.31836911857455E-02 
1120	 2.18744014316633E-02 
1121	 2.12157497405504E-02 
1122	 1.67125235259609E-02 
1123	 1.52589537383854E-02 
1124	 1.46502731944953E-02 
1125	 1.98877161345257E-02 
1126	 2.88580218949832E-02 
1127	 2.83494590239906E-02 
1128	 2.35086814437045E-02 
1129	 2.04061895742353E-02 
1130	 1.27928181479071E-02 
1131	 1.19394346154708E-02 
1132	 1.38715620620902E-02 
1133	 1.41210484768514E-02 
1134	 1.70231252185212E-02 
1135	 1.80675007459799E-02 
1136	 1.68739852926354E-02 
1137	 1.76255205642957E-02 
1138	 2.09716370769829E-02 
1139	 1.90497271391352E-02 
1140	 1.53215149071859E-02 
1141	 1.71644313247978E-02 
1142	 1.68946195887879E-02 
1143	 1.69074493157557E-02 
1144	 2.01239677895627E-02 
1145	 1.80028313282812E-02 
1146	 1.69006542449893E-02 
1147	 1.67129801202463E-02 
1148	 1.23303577481514E-02 
1149	 0.013712329173903 
1150	 1.42252331475628E-02 
1151	 1.33666690216797E-02 
1152	 1.37749479667423E-02 
1153	 0.016349474169775 
1154	 1.72681502116507E-02 
1155	 1.75093152505271E-02 
1156	 1.82321833350813E-02 
1157	 0.019891187608365 
1158	 0.019854535372041 
1159	 1.85438294377006E-02 
1160	 1.86312758143357E-02 
1161	 1.86106812898277E-02 
1162	 0.017635392839334 
1163	 1.79642821501942E-02 
1164	 1.93102259075337E-02 
1165	 1.93793145643089E-02 
1166	 1.86345861913195E-02 
1167	 1.85629936423402E-02 
1168	 1.86245471563672E-02 
1169	 1.84179312952413E-02 
1170	 1.82967717021776E-02 
1171	 1.82716158193637E-02 
1172	 1.81718244779162E-02 
1173	 1.79103320336578E-02 
1174	 0.017373175538254 
1175	 1.76770918134999E-02 
1176	 1.81271295391534E-02 
1177	 1.85214865220152E-02 
1178	 1.94568010854296E-02 
1179	 2.00329450355904E-02 
1180	 1.96816203522571E-02 
1181	 1.89592951675071E-02 
1182	 1.87575174445097E-02 
1183	 1.89640845477332E-02 
1184	 1.89773489745863E-02 
1185	 1.86350902799741E-02 
1186	 1.80529072820178E-02 
1187	 1.82406713053479E-02 
1188	 1.86432810274267E-02 
1189	 1.88171466403752E-02 
1190	 1.94497799858605E-02 
1191	 1.91742260535611E-02 
1192	 1.88222820987984E-02 
1193	 1.80825261218787E-02 
1194	 1.84325562355996E-02 
1195	 1.85116746964076E-02 
1196	 1.84741070659329E-02 
1197	 1.89589016747636E-02 
1198	 1.94708412115007E-02 
1199	 1.94209806865912E-02 
1200	 1.89203416648292E-02 
1201	 1.87378988304098E-02 
1202	 1.89310036882865E-02 
1203	 1.88919316128126E-02 
1204	 1.88670828041833E-02 
1205	 1.94398169934272E-02 
1206	 0.019370939112929 
1207	 1.84206083965126E-02 
1208	 1.89197296583731E-02 
1209	 1.99488300842289E-02 
1210	 1.95124506272003E-02 
1211	 1.92424134830175E-02 
1212	 1.92951840958294E-02 
1213	 1.84471966977832E-02 
1214	 1.81863490282624E-02 
1215	 0.018409708707025 
1216	 0.019546220600331 
1217	 1.96575879123892E-02 
1218	 1.92152693994361E-02 
1219	 1.92388420233379E-02 
1220	 1.94055791811268E-02 
1221	 1.95890232925274E-02 
1222	 2.01336754802065E-02 
1223	 2.01408228551261E-02 
1224	 0.019663523905284 
1225	 1.97476098029855E-02 
1226	 0.019937739778425 
1227	 1.99400027169914E-02 
1228	 1.98710482566705E-02 
1229	 1.96189734767924E-02 
1230	 1.93959233352487E-02 
1231	 1.94224695084866E-02 
1232	 1.95795439137701E-02 
1233	 1.98049891741468E-02 
1234	 2.00262813486899E-02 
1235	 2.02289950283927E-02 
1236	 2.06837863358082E-02 
1237	 2.08525210926108E-02 
1238	 2.08522124310322E-02 
1239	 2.07198880237454E-02 
1240	 2.08468767942829E-02 
1241	 2.08871176051777E-02 
1242	 2.05003958509508E-02 
1243	 2.06258679566251E-02 
1244	 2.09955047115979E-02 
1245	 2.03974002692192E-02 
1246	 2.00647528056314E-02 
1247	 2.03044222975842E-02 
1248	 2.02028887816482E-02 
1249	 2.03402933477512E-02 
1250	 2.04605536119991E-02 
1251	 2.03087337966793E-02 
1252	 2.01266398854406E-02 
1253	 1.97659138713625E-02 
1254	 1.99070476709187E-02 
1255	 2.02268954026556E-02 
1256	 2.02545103262529E-02 
1257	 1.98632960945276E-02 
1258	 1.98712308226309E-02 
1259	 2.00142349434966E-02 
1260	 1.99595593385425E-02 
1261	 2.00568781753529E-02 
1262	 2.00457037158229E-02 
1263	 0.019892674896947 
1264	 1.96834295393948E-02 
1265	 1.95260811734935E-02 
1266	 1.93166670788047E-02 
1267	 1.92355387316149E-02 
1268	 1.89563132201994E-02 
1269	 1.92971746161997E-02 
1270	 1.98187624498712E-02 
1271	 1.95444535101795E-02 
1272	 1.93469903626663E-02 
1273	 1.91681866219897E-02 
1274	 1.90666732015911E-02 
1275	 1.94880698773296E-02 
1276	 1.96234181469992E-02 
1277	 0.019729056195361 
1278	 1.98702704137289E-02 
1279	 1.94230616106037E-02 
1280	 1.97176262885035E-02 
1281	 1.97167937049691E-02 
1282	 1.91785903040329E-02 
1283	 1.91515734307333E-02 
1284	 1.97014209249448E-02 
1285	 1.97771670086303E-02 
1286	 2.00529473903907E-02 
1287	 2.01418502547059E-02 
1288	 1.96059597742096E-02 
1289	 1.92306633473704E-02 
1290	 1.87640715320289E-02 
1291	 1.88802557663052E-02 
1292	 1.88274138647487E-02 
1293	 1.86747356097832E-02 
1294	 1.87346815100759E-02 
1295	 1.87825818001005E-02 
1296	 1.88602118349057E-02 
1297	 1.91442116933669E-02 
1298	 1.90183435016783E-02 
1299	 1.82812734815784E-02 
1300	 1.75987778525008E-02 
1301	 1.74115135516146E-02 
1302	 1.80310653591012E-02 
1303	 1.87379760276459E-02 
1304	 0.018512729824392 
1305	 1.82771046263908E-02 
1306	 1.81592293548236E-02 
1307	 1.76334861963657E-02 
1308	 1.72835447570879E-02 
1309	 1.74246092097524E-02 
1310	 1.72896688076152E-02 
1311	 1.64643100907486E-02 
1312	 1.61251582878611E-02 
1313	 1.62119697935984E-02 
1314	 1.62695900286462E-02 
1315	 1.68484313494217E-02 
1316	 1.69558188392029E-02 
1317	 1.65033672703509E-02 
1318	 1.65519718707638E-02 
1319	 1.66905909446745E-02 
1320	 0.016724398734363 
1321	 1.76376405465497E-02 
1322	 1.76133181352619E-02 
1323	 1.60037447274117E-02 
1324	 1.46378643261668E-02 
1325	 1.48737512585771E-02 
1326	 1.46373097029577E-02 
1327	 1.35342341346179E-02 
1328	 1.32323159067713E-02 
1329	 1.25893143775825E-02 
1330	 1.12351169279428E-02 
1331	 1.23423914733519E-02 
1332	 1.42328299117233E-02 
1333	 1.29647837959243E-02 
1334	 1.24933131562943E-02 
1335	 1.26503700591624E-02 
1336	 1.30527024601666E-02 
1337	 1.27038556322734E-02 
1338	 1.32982255962545E-02 
1339	 0.01319643842513 
1340	 1.17093468931674E-02 
1341	 1.12524748935932E-02 
1342	 1.12091269642747E-02 
1343	 1.03768135493281E-02 
1344	 9.73871718965205E-03 
1345	 8.08206406247041E-03 
1346	 3.68747533748786E-03 
1347	 9.24283691246489E-04 
1348	-2.74153961685047E-03 
1349	-7.72833749829181E-03 
1350	-8.17241618764685E-03 
1351	-9.33863634320291E-03 
1352	-1.01026729852751E-02 
1353	-1.90332472269132E-02 
1354	-2.92241386571957E-02 
1355	-7.66640984982368E-02 
1356	-0.103759347998865 
1357	-9.83874807734648E-02 
1358	-0.307192363457914 
1359	-0.580818498762182 
1360	-0.425423694885235 
1361	-0.653599777307659 
1362	-1.00699396226836 
1363	-0.41104461106517 
1364	-0.13614820765446 
1365	-0.161407808625863 
1366	-0.359329592507981 
1367	-0.504944085922919 
1368	-0.595699479212907 
1369	-1.62526820094438 
1370	-1.77489762541148 
1371	-0.497339980198467 
1372	-0.356927850823085 
1373	-0.792285817178553 
1374	-0.839953198356565 
1375	-0.747322714086347 
1376	-0.875692304035244 
1377	-1.76904185750538 
1378	-1.58280788515371 
1379	-0.681714045678894 
1380	-0.71659444691166 
1381	-0.88447844933456 
1382	-0.820019413582726 
1383	-1.18018140594373 
1384	-2.11130542164658 
1385	 6.88621316383721 
1386	 5.04853095298196 
1387	 8.65465929467546 
1388	 4.54103212746077 
1389	-27.3633063145863 
1390	-2.67945943025763 
1391	-1.05801037320108 
1392	-1.87630151626272 
1393	-4.24488038131803 
1394	-1.30638407828651 
1395	-2.39743417518135 
1396	 0.567995834403576 
1397	 1.10923790748393 
1398	 6.64717174903098 
1399	 5.52733068836819 
1400	-3.07913339227697 
1401	-2.24830823773535 
1402	-2.41112543483882 
1403	-1.1415220353111 
1404	-0.961553553881354 
1405	-1.31227579783663 
1406	-2.37642744621269 
1407	-1.94038435798888 
1408	-3.33258749372697 
1409	-1.02811289151073 
1410	 0.13393919610316 
1411	 0.143164923712575 
1412	-0.283901700510035 
1413	-0.277775811917954 
1414	-0.141385573095724 
1415	-0.127882453738197 
1416	-0.082281716268686 
1417	-5.70240098031673E-02 
1418	-8.20429497866549E-02 
1419	-0.105111044640646 
1420	-0.129592443041471 
1421	-0.113913804011419 
1422	-9.57864028568258E-02 
1423	-8.60873423690263E-02 
1424	-6.19663824853345E-02 
1425	-4.42090224585682E-02 
1426	-3.68633118394112E-02 
1427	-3.37330079929872E-02 
1428	-2.91694706014931E-02 
1429	-1.60431650604354E-02 
1430	 6.19808920273482E-03 
1431	 4.71171803111258E-03 
1432	-1.34748786773829E-02 
1433	-1.08706162598239E-02 
1434	 2.23912081267666E-03 
1435	-9.62735775025868E-03 
1436	-2.90106845130038E-02 
1437	-2.38749023117959E-02 
1438	-2.84124328897193E-02 
1439	-0.055315885993647 
1440	-4.25538879010938E-02 
1441	-2.28247699279164E-02 
1442	-2.72325059028002E-02 
1443	-3.88848915160151E-02 
1444	-4.37018368099378E-02 
1445	-2.32745999209913E-02 
1446	-1.47661778513393E-02 
1447	-2.34249646938003E-02 
1448	-1.57079825389024E-02 
1449	-1.29721081987943E-02 
1450	-9.80112520981284E-03 
1451	 9.97392045614032E-04 
1452	-2.5483744411843E-03 
1453	-8.11376245084899E-03 
1454	-6.3420915889847E-03 
1455	-3.64437209532734E-03 
1456	-2.58211304939226E-03 
1457	 2.09499242545589E-03 
1458	 3.36508285400389E-03 
1459	 1.52327604786788E-06 
1460	 9.18930562508946E-04 
1461	 6.36329400352857E-03 
1462	 6.27730260696711E-03 
1463	 3.11315139330065E-03 
1464	 2.90332839153563E-03 
1465	 2.3954465190096E-03 
1466	 4.63487336042772E-04 
1467	-1.61795209706795E-03 
1468	-1.44651446625973E-03 
1469	-2.74826321545728E-03 
1470	-3.76025509457679E-03 
1471	-8.75656784097194E-04 
1472	 1.96707598968731E-03 
1473	 2.28191714695009E-03 
1474	 4.34899260751801E-03 
1475	 0.011137161456597 
1476	 1.15083573450171E-02 
1477	 7.26249720306499E-03 
1478	 6.62865213117271E-03 
1479	 5.85248850054127E-03 
1480	 5.71450971739119E-03 
1481	 7.99831663985298E-03 
1482	 7.80332323872058E-03 
1483	 3.82953215678689E-03 
1484	 4.51244573969559E-03 
1485	 9.4131156799802E-03 
1486	 9.09641898746988E-03 
1487	 7.37971990572707E-03 
1488	 7.39631804158422E-03 
1489	 0.005118292480607 
1490	 4.36137317958906E-03 
1491	 6.39194589417519E-03 
1492	 7.03180534868695E-03 
1493	 6.41048149126141E-03 
1494	 6.23884871380721E-03 
1495	 6.5259102847127E-03 
1496	 6.61558814047769E-03 
1497	 6.49355131490691E-03 
1498	 6.51734772158998E-03 
1499	 6.58589533535042E-03 
1500	 6.62783707323291E-03 
1501	 6.76307932694799E-03 
1502	 6.66479765768352E-03 
1503	 6.29843211333428E-03 
1504	 6.30637095468364E-03 
1505	 6.66420951379478E-03 
1506	 6.53964872104146E-03 
1507	 5.53160440844216E-03 
1508	 5.47089677638321E-03 
1509	 5.85773662732813E-03 
1510	 5.85716170507547E-03 
1511	 6.41706906861579E-03 
1512	 6.74884415184622E-03 
1513	 6.42850496586374E-03 
1514	 6.20181646694021E-03 
1515	 6.39374939249526E-03 
1516	 6.25858365248196E-03 
1517	 5.77592098812021E-03 
1518	 5.96948005297353E-03 
1519	 6.81248028382618E-03 
1520	 7.23611188099954E-03 
1521	 6.42704606171293E-03 
1522	 5.77979391365064E-03 
1523	 6.01226639688052E-03 
1524	 5.88762532197998E-03 
1525	 5.89624184906756E-03 
1526	 6.46455320261966E-03 
1527	 6.68049573472654E-03 
1528	 6.59218369733778E-03 
1529	 6.68486303212185E-03 
1530	 6.69708718935146E-03 
1531	 6.64025973526414E-03 
1532	 6.84447556121571E-03 
1533	 7.08205726182515E-03 
1534	 7.21203427948859E-03 
1535	 7.08050070509061E-03 
1536	 6.90663736156989E-03 
1537	 6.91870602091857E-03 
1538	 6.76443091737779E-03 
1539	 6.72200924083635E-03 
1540	 6.91552769489082E-03 
1541	 7.05254471406114E-03 
1542	 7.64981366902826E-03 
1543	 8.19009510362892E-03 
1544	 7.45285710734338E-03 
1545	 6.83079991079947E-03 
1546	 7.16435077003384E-03 
1547	 7.51255723450289E-03 
1548	 7.88242886160485E-03 
1549	 7.94839957360601E-03 
1550	 7.4907828981899E-03 
1551	 7.56641547749058E-03 
1552	 8.21816484769827E-03 
1553	 8.02638713020308E-03 
1554	 7.9636288756747E-03 
1555	 8.63683446946265E-03 
1556	 8.22408338986103E-03 
1557	 7.94953022021636E-03 
1558	 8.70881128490606E-03 
1559	 8.71685217296531E-03 
1560	 8.43852168684734E-03 
1561	 8.58383746376844E-03 
1562	 8.50387118447909E-03 
1563	 8.26598598909393E-03 
1564	 8.04179369035487E-03 
1565	 8.05581519122365E-03 
1566	 8.09634260550062E-03 
1567	 7.75460554325046E-03 
1568	 7.61229099232325E-03 
1569	 7.81784077447678E-03 
1570	 7.77920376377416E-03 
1571	 7.73370820813636E-03 
1572	 7.94721856341362E-03 
1573	 7.9976542692831E-03 
1574	 8.24787709891492E-03 
1575	 8.56902941310899E-03 
1576	 8.35766875948792E-03 
1577	 8.23107781470453E-03 
1578	 8.48600224692983E-03 
1579	 8.81626983490173E-03 
1580	 9.05052258262238E-03 
1581	 9.35849240658562E-03 
1582	 9.29777016704507E-03 
1583	 9.13030264967125E-03 
1584	 9.47746345825428E-03 
1585	 9.19886456848236E-03 
1586	 8.7910452585454E-03 
1587	 9.30653368960225E-03 
1588	 9.66410133503057E-03 
1589	 8.95054177942777E-03 
1590	 8.55122667044716E-03 
1591	 8.73656621880334E-03 
1592	 8.42649379336964E-03 
1593	 8.5963578365504E-03 
1594	 0.0089901964079 
1595	 9.12802368764126E-03 
1596	 8.91453930785258E-03 
1597	 8.36798080140502E-03 
1598	 8.79195933343045E-03 
1599	 9.12701923170334E-03 
1600	 8.51615113289428E-03 
1601	 8.59172771192442E-03 
1602	 9.29435870879515E-03 
1603	 9.23049430165265E-03 
1604	 8.89395855194952E-03 
1605	 9.14001240989393E-03 
1606	 9.32454364736643E-03 
1607	 9.08756998787358E-03 
1608	 9.08741051249064E-03 
1609	 9.5643348513922E-03 
1610	 9.52409486881775E-03 
1611	 9.0206681134636E-03 
1612	 9.32108613140781E-03 
1613	 9.81905449025377E-03 
1614	 9.67269808853317E-03 
1615	 9.54337364679165E-03 
1616	 9.60011686084261E-03 
1617	 9.27042437040252E-03 
1618	 8.89733883996301E-03 
1619	 9.25105811648119E-03 
1620	 9.59016841402558E-03 
1621	 9.4185415946582E-03 
1622	 9.36813610822535E-03 
1623	 9.05735060034683E-03 
1624	 8.69891230939731E-03 
1625	 9.06177139397793E-03 
1626	 9.09964972917939E-03 
1627	 8.71374820632342E-03 
1628	 8.9236918998053E-03 
1629	 8.94977350454714E-03 
1630	 8.36817576273394E-03 
1631	 8.63101617385867E-03 
1632	 9.69232417394328E-03 
1633	 9.64240949839445E-03 
1634	 9.41777442927531E-03 
1635	 1.00070069912945E-02 
1636	 9.6439435762923E-03 
1637	 9.07909373041606E-03 
1638	 9.37242393750104E-03 
1639	 9.58265206171013E-03 
1640	 9.63030313322926E-03 
1641	 9.79140942444221E-03 
1642	 9.8944041990078E-03 
1643	 9.49620138140767E-03 
1644	 9.14852717394956E-03 
1645	 9.54957831980647E-03 
1646	 1.02302431113137E-02 
1647	 0.010432162848541 
1648	 9.6058234645033E-03 
1649	 8.91613752462679E-03 
1650	 9.09808667708066E-03 
1651	 9.23733373788965E-03 
1652	 9.87427725766562E-03 
1653	 9.92802486706005E-03 
1654	 9.49302450673297E-03 
1655	 8.86088506607574E-03 
1656	 8.85424740806042E-03 
1657	 8.90319724918906E-03 
1658	 8.76907820202706E-03 
1659	 8.89268808470787E-03 
1660	 9.21539949984182E-03 
1661	 9.5172163881454E-03 
1662	 9.34012153623839E-03 
1663	 9.16664968838191E-03 
1664	 9.33367209025202E-03 
1665	 8.92399808211084E-03 
1666	 9.15457477774799E-03 
1667	 0.010625820343893 
1668	 1.07032145673437E-02 
1669	 1.03358658540452E-02 
1670	 9.61989900178088E-03 
1671	 9.92384946851139E-03 
1672	 1.14699370833277E-02 
1673	 1.13152130191359E-02 
1674	 1.03315072807665E-02 
1675	 1.03061129703264E-02 
1676	 9.0073372379013E-03 
1677	 8.33504993797649E-03 
1678	 9.53105786517044E-03 
1679	 9.47926853509765E-03 
1680	 9.25228128851783E-03 
1681	 1.02893553663416E-02 
1682	 1.04968697670736E-02 
1683	 9.8884104876099E-03 
1684	 9.92968905374922E-03 
1685	 9.91274872567596E-03 
1686	 9.83386635134267E-03 
1687	 1.04090353118749E-02 
1688	 1.05698729982992E-02 
1689	 9.87946592252481E-03 
1690	 9.96901495758383E-03 
1691	 1.02213591771405E-02 
1692	 9.53264782294624E-03 
1693	 9.57139033433867E-03 
1694	 1.00440524217619E-02 
1695	 9.93284657960567E-03 
1696	 1.01140287001728E-02 
1697	 1.00333211464842E-02 
1698	 9.02227171666046E-03 
1699	 8.85834628088986E-03 
1700	 1.06681580151372E-02 
1701	 1.21765912030538E-02 
1702	 1.16658007028906E-02 
1703	 1.06623093325748E-02 
1704	 8.99569880413826E-03 
1705	 8.06790176499005E-03 
1706	 9.49289892889664E-03 
1707	 1.02400870522192E-02 
1708	 1.00965536431882E-02 
1709	 9.7653164418213E-03 
1710	 8.81149039446723E-03 
1711	 8.88408198807022E-03 
1712	 9.08318664334033E-03 
1713	 8.61671093877279E-03 
1714	 8.89977454225073E-03 
1715	 9.53889180655283E-03 
1716	 9.02880662428079E-03 
1717	 8.87305039615849E-03 
1718	 8.76873796797039E-03 
1719	 8.3420974581149E-03 
1720	 8.82918336196454E-03 
1721	 9.50165863573444E-03 
1722	 8.59969201813621E-03 
1723	 7.30549340048535E-03 
1724	 8.22114170216674E-03 
1725	 9.61903361177289E-03 
1726	 9.43894168296937E-03 
1727	 0.010337286071877 
1728	 1.02870154529011E-02 
1729	 8.24436883766455E-03 
1730	 7.78952953655628E-03 
1731	 7.50504616565614E-03 
1732	 6.99923946924279E-03 
1733	 7.5254537674279E-03 
1734	 7.1168347555125E-03 
1735	 6.74248310128571E-03 
1736	 7.68983870300037E-03 
1737	 8.10998831928605E-03 
1738	 8.86982350195073E-03 
1739	 1.02362338810085E-02 
1740	 9.78954825832094E-03 
1741	 8.52140846165746E-03 
1742	 8.11393070149057E-03 
1743	 7.63302401758305E-03 
1744	 7.80521670830511E-03 
1745	 8.27552745008876E-03 
1746	 9.15915348398922E-03 
1747	 9.79856528993629E-03 
1748	 1.00854816874855E-02 
1749	 9.79821641418395E-03 
1750	 8.62126355058095E-03 
1751	 8.44171082440777E-03 
1752	 9.15688938632108E-03 
1753	 9.26343570631754E-03 
1754	 9.19808100425598E-03 
1755	 9.14907579340564E-03 
1756	 8.70652644363985E-03 
1757	 9.16516120072224E-03 
1758	 9.92809974535433E-03 
1759	 9.28469596139023E-03 
1760	 6.59290921293168E-03 
1761	 6.55291517255319E-03 
1762	 6.35474350250164E-03 
1763	 5.02226406634552E-03 
1764	 7.46048983997533E-03 
1765	 7.56451712843806E-03 
1766	 5.3895751532059E-03 
1767	 7.21843995532583E-03 
1768	 7.0103797687032E-03 
1769	 5.2134868126928E-03 
1770	 7.37302092382979E-03 
1771	 8.51559207693969E-03 
1772	 7.46689315981138E-03 
1773	 8.13028951286835E-03 
1774	 8.54586424648617E-03 
1775	 9.99915233550626E-03 
1776	 9.69264998716858E-03 
1777	 6.00691867034326E-03 
1778	 5.76857625831563E-03 
1779	 6.66428212791638E-03 
1780	 0.006777654252536 
1781	 0.012337397132715 
1782	 1.22847219532943E-02 
1783	 3.99619654502491E-03 
1784	 2.02609592790826E-03 
1785	 5.37874324164207E-04 
1786	 1.41435864647707E-03 
1787	 1.04669691273238E-02 
1788	 1.17236943920661E-02 
1789	 7.98275479660715E-03 
1790	 2.67341913132484E-03 
1791	-1.92350673842983E-04 
1792	-1.52824156870027E-03 
1793	 6.7508974877097E-03 
1794	 0.015860648149589 
1795	 1.21049827491871E-02 
1796	 7.5235023984095E-03 
1797	-9.5914540214816E-04 
1798	-0.011657251425164 
1799	-1.02591021919493E-02 
1800	-3.38080953314586E-04 
1801	 6.70815308050763E-03 
1802	 2.52693846217939E-02 
1803	 3.34523489437521E-02 
1804	 2.55107507111256E-02 
1805	 1.26333064081475E-02 
1806	-4.76006725116367E-02 
1807	-6.37394868753121E-02 
1808	-1.52781356465985E-02 
1809	-1.02776476257887E-02 
1810	 2.77158624632935E-02 
1811	 3.59874217980287E-02 
1812	-0.115725170365752 
1813	-9.80736016789613E-02 
1814	 0.198090293108522 
1815	 0.202248293052029 
1816	-1.80007716093035E-02 
1817	 6.7878118787533E-04 
1818	 0.18511347012161 
1819	 0.672542810443011 
1820	 0.696934813948563 
1821	-1.80149497786901 
1822	-3.24838959452339 
1823	-1.47054747197279 
1824	-1.70176271969603 
1825	-0.837933143619708 
1826	-0.436797776069255 
1827	-0.162794932911754 
1828	 1.59522185081646 
1829	 0.857246064691835 
1830	 0.888973294530811 
1831	 5.37799261973669E-02 
1832	 8.08982393272347E-02 
1833	 0.201472232137621 
1834	 1.49314710785247 
1835	-1.10518460267908 
1836	 19.3592811226778 
1837	 0.628716174024818 
1838	 0.675790508729719 
1839	 0.921021531887115 
1840	 0.554759438217948 
1841	 0.900266546846537 
1842	 1.83870323212659 
1843	 2.05475806280722 
1844	 1.13311713725794 
1845	 1.33356028700218 
1846	 2.39104197118804 
1847	 2.91437903996505 
1848	 4.06520146664648 
1849	 3.94882704547786 
1850	 3.54076329659262 
1851	 0.566670704542091 
1852	 0.16373841471868 
1853	-0.188685254251652 
1854	-7.87642241407855E-02 
1855	-0.578325429028358 
1856	-0.62377162686115 
1857	 0.179057391711487 
1858	 0.58238796681055 
1859	-0.104642538328916 
1860	-0.841148089520191 
1861	-1.30625643453261 
1862	-6.33433290326243 
1863	 0.538211375168135 
1864	 4.09573519516162E-02 
1865	 0.173109334608836 
1866	 2.36666433331874 
1867	 5.10060850516306 
1868	-9.131454091201 
1869	-91.009287623466 
1870	 1.74105295450018 
1871	 0.94688806087708 
1872	 1.03700801634102E-02 
1873	-0.709208926350307 
1874	 32.5826079208741 
1875	 2.22608123470846 
1876	 1.35661496424327 
1877	-12.6563796537276 
1878	 5.2405236588348 
1879	 3.22304172401957 
1880	 3.06450757777928 
1881	 2.52909154790531 
1882	 1.64903591406121 
1883	-0.724852623896271 
1884	 0.273551514652529 
1885	-8.14549156672381E-03 
1886	-0.660650138435921 
1887	 113.39419879391 
1888	 15.4573030353312 
1889	 8.48308426472964 
1890	 4.43059163891411 
1891	 4.27682139698384 
1892	-5.65127965236556 
1893	-14.1728059220487 
1894	 3.56049420002285 
1895	 7.40079517917224 
1896	-109.993497927477 
1897	-0.939288473761272 
1898	 1.89996479801883 
1899	-1.63445131443258 
1900	-1.37390762160337 
1901	 4.18207191739635 
1902	 10.3638628906875 
1903	-2.6710117845364 
1904	-0.808390621743832 
1905	-0.229953998696233 
1906	 0.544985521662994 
1907	 0.614079895882625 
1908	 0.28632394783452 
1909	-1.76842054659004E-02 
1910	-0.657215279498923 
1911	-0.96451719899523 
1912	 0.596544529737867 
1913	 1.78326107416789 
1914	-1.09508717188981 
1915	-0.665370785626167 
1916	 0.049436085528496 
1917	 2.29130444389855E-02 
1918	-0.812268208576919 
1919	-1.03407637203691 
1920	-20.8551904726506 
1921	 12.4659842813576 
1922	-6.28246673162522 
1923	 1.49130770314014 
1924	-0.80504598227569 
1925	-0.571237206923357 
1926	-0.906433874922841 
1927	-0.857591706980842 
1928	-3.42602542017347 
1929	 0.409448685464315 
1930	 0.527629536047072 
1931	 0.562016583139406 
1932	 1.99298316880738 
1933	-11.6419187101483 
1934	 2.36443023177764 
1935	 0.389233678938872 
1936	 0.429674923161382 
1937	 0.451736943935089 
1938	 0.278808788964901 
1939	 0.155706934569588 
1940	-6.72772117392622E-03 
1941	-0.15461255062535 
1942	-0.090365823477972 
1943	-6.22879083751163E-02 
1944	-1.35123761380763E-03 
1945	 4.39438135309129E-02 
1946	-9.14197502667796E-02 
1947	-0.141219315238393 
1948	-0.075574301363577 
1949	-5.88466373535097E-03 
1950	 4.58014193212462E-02 
1951	 4.49346248644413E-03 
1952	-2.73163132810038E-03 
1953	-2.71836544884353E-02 
1954	-9.09613781332091E-02 
1955	-0.128790058476291 
1956	-0.050624909522143 
1957	-4.25437000016379E-02 
1958	-5.47367082371507E-02 
1959	-4.39501561803896E-03 
1960	 8.33240433956684E-03 
1961	-1.07541210710296E-02 
1962	 9.41606948462288E-03 
1963	 2.68101492904139E-02 
1964	 2.00644210052873E-02 
1965	 2.99074867458703E-02 
1966	 3.24382045512324E-02 
1967	 3.12773006281611E-02 
1968	 2.87888229249984E-02 
1969	 3.08447365816201E-02 
1970	 2.36805611761683E-02 
1971	 2.29987551451807E-02 
1972	 1.55227085844872E-02 
1973	 7.99372202849388E-03 
1974	 1.04417953406228E-02 
1975	 6.05139766218638E-03 
1976	 2.11585714444314E-03 
1977	 2.94214688721408E-03 
1978	 4.95174098289912E-03 
1979	 3.58452988710221E-03 
1980	 2.24193545010135E-03 
1981	 5.96571020858608E-04 
1982	-1.14159599262731E-03 
1983	-5.87705643195168E-03 
1984	-8.13163847237766E-03 
1985	-6.14946073232681E-03 
1986	-3.22576803338314E-03 
1987	 2.5393222656002E-04 
1988	 2.27198620066623E-03 
1989	 2.77335202873278E-03 
1990	 3.46779471003493E-03 
1991	 1.92374203621502E-05 
1992	-1.38248095154552E-03 
1993	 2.17357608439488E-03 
1994	 2.31710936440797E-03 
1995	-5.96875545175496E-04 
1996	-1.01717765960504E-06 
1997	 2.80950410559424E-03 
1998	 1.69557719486439E-03 
1999	 5.82427604871204E-03 
2000	 8.15945399827339E-03 
2001	 1.11997475225575E-03 
2002	-4.46704063477239E-03 
2003	-5.4539568400863E-04 
2004	 3.47858218195665E-05 
2005	 2.21093955172435E-03 
2006	 1.24961039911566E-02 
2007	 9.92050295789826E-03 
2008	 6.50608985287602E-03 
2009	 4.33400801390833E-03 
2010	 1.93096103887027E-03 
2011	-3.6472689455624E-03 
2012	-9.44964429613325E-03 
2013	-1.45972584608918E-02 
2014	-2.65727080214959E-02 
2015	-0.028442084760324 
2016	-2.30815610432977E-02 
2017	-1.57225480184715E-02 
2018	-6.36980379321573E-03 
2019	-8.85442072639772E-04 
2020	 4.22752851068311E-03 
2021	 5.05401482813566E-03 
2022	 2.23639049054986E-03 
2023	 1.63780533401867E-03 
2024	 1.81603243297758E-03 
2025	 4.45290553919198E-04 
2026	 5.40780776478897E-04 
2027	 2.68589662942661E-03 
2028	 3.78622680161625E-03 
2029	 4.54264655559141E-03 
2030	 3.18968327392516E-03 
2031	 7.27212957816438E-04 
2032	 2.17420695153239E-03 
2033	-1.16744919344298E-04 
2034	-2.87306593580274E-03 
2035	 7.46577615467766E-04 
2036	 3.0627177899438E-03 
2037	 4.6379445144803E-03 
2038	 7.03540907254211E-03 
2039	 6.79058839905194E-03 
2040	 1.41437946298125E-03 
2041	-6.10386321514028E-04 
2042	-1.84155127790337E-03 
2043	-2.93453645044644E-03 
2044	-3.48150887459484E-03 
2045	-3.8206590773122E-03 
2046	-3.3024791950722E-03 
2047	-4.36715655949229E-04 
2048	 3.03016143497037E-03 
2049	 3.21542250597816E-03 
2050	 3.82098261211309E-03 
2051	 2.81970016241666E-03 
2052	-3.72893654250662E-04 
2053	 3.80462438411371E-04 
2054	-2.10879765919836E-03 
2055	-5.68388178004932E-03 
2056	-5.70403808169059E-03 
2057	-3.63252218838331E-03 
2058	-1.6465135397302E-03 
2059	 4.9379802945864E-03 
2060	 5.62465329621115E-03 
2061	 4.06846889609099E-03 
2062	 9.27585710985706E-04 
2063	-4.22909150995798E-03 
2064	-5.40623209713936E-03 
2065	-6.97796187200878E-03 
2066	-5.8037763059483E-03 
2067	-3.01174631858092E-03 
2068	-9.1297505043823E-04 
2069	 3.85573850442968E-03 
2070	 6.36743805074004E-03 
2071	 6.4215435108764E-03 
2072	 7.23891785878525E-03 
2073	 6.49969758419431E-03 
2074	 3.52494230907004E-03 
2075	 1.17594927822834E-03 
2076	-1.68978986077168E-03 
2077	-2.97048826846144E-03 
2078	-4.60780165855116E-03 
2079	-4.33901812290231E-03 
2080	-1.4466624679356E-03 
2081	-9.33824526944028E-04 
2082	-9.15410713234846E-04 
2083	 4.00558562970358E-04 
2084	 4.55024551382035E-04 
2085	-7.02405950809896E-04 
2086	-1.59455119242468E-03 
2087	-1.92279101184564E-03 
2088	-1.85911431561929E-03 
2089	-1.05980850401726E-03 
2090	-3.09150865859203E-04 
2091	-3.82151573464571E-04 
2092	 1.02755552863985E-03 
2093	 4.44196438402707E-03 
2094	 4.79072951989114E-03 
2095	 4.1748445958322E-03 
2096	 4.94534594393942E-03 
2097	 4.2257048691622E-03 
2098	 3.02992614677509E-03 
2099	 2.78656824656208E-03 
2100	 2.84475137433473E-03 
2101	 7.83043052213662E-04 
2102	-8.10190825602966E-04 
2103	-1.41753610792499E-03 
2104	-1.40933197795897E-03 
2105	-1.84662244419275E-03 
2106	-2.14586709314302E-03 
2107	 1.39502027594923E-04 
2108	 2.29330222429099E-03 
2109	 2.2875823674375E-03 
2110	 1.96470523714583E-03 
2111	 1.85029195104224E-03 
2112	 1.28088746074734E-03 
2113	 1.43426241916592E-03 
2114	 3.48340797164867E-03 
2115	 4.38116165863155E-03 
2116	 5.38637671722654E-03 
2117	 4.81137130357348E-03 
2118	 2.25005758166182E-03 
2119	 1.51230349940835E-03 
2120	 6.70840760346132E-04 
2121	-3.77295026656336E-04 
2122	 4.71438009840498E-04 
2123	 8.79870549673711E-04 
2124	 2.26077329097954E-04 
2125	 4.46662826823257E-04 
2126	 1.57053650386235E-03 
2127	 3.67194889920414E-03 
2128	 4.34057884755837E-03 
2129	 4.39256168856933E-03 
2130	 0.003499483048204 
2131	 2.59772901023377E-03 
2132	 4.67473275694985E-03 
2133	 4.43649402611515E-03 
2134	 3.40260077501107E-03 
2135	 1.03414587855511E-03 
2136	 8.5068553559096E-04 
2137	 3.63037554658399E-04 
2138	 1.02383328280175E-03 
2139	 5.70227865376103E-03 
2140	 5.58575429386551E-03 
2141	 4.51116526098454E-04 
2142	-4.7004505347489E-04 
2143	-9.20706852904025E-04 
2144	-1.47602669171856E-03 
2145	 1.30086214946683E-03 
2146	 5.57571263723273E-03 
2147	 5.2041732889614E-03 
2148	 3.78473112092197E-03 
2149	 1.31541133355194E-03 
2150	 9.37977051208643E-04 
2151	 1.10565039327202E-03 
2152	 1.04271133509477E-03 
2153	 4.31764591550281E-03 
2154	 3.00925396538758E-03 
2155	 1.66939709178212E-03 
2156	 2.41072501028756E-03 
2157	 1.88342787785952E-03 
2158	 9.39551647581282E-04 
2159	-2.57874872109811E-05 
2160	-2.04539810994966E-03 
2161	-2.30396598499318E-03 
2162	-2.60538410268335E-03 
2163	-2.26042069426819E-03 
2164	-3.31941976346197E-04 
2165	 1.60351563979215E-03 
2166	 5.13347617428934E-03 
2167	 5.9763749780961E-03 
2168	 6.10531466735593E-03 
2169	 5.70350065855255E-03 
2170	 1.54784881369823E-03 
2171	 1.3753822710197E-03 
2172	 3.54019857481978E-03 
2173	 3.81831761629737E-03 
2174	 4.31822522900441E-03 
2175	 3.06621245303473E-03 
2176	 8.62661777880863E-04 
2177	-1.38612390125599E-03 
2178	-1.15689540319154E-03 
2179	 1.20637475369731E-03 
2180	 3.06159963855089E-03 
2181	 2.00309698269389E-03 
2182	 1.16224374618039E-03 
2183	 2.35213244219281E-03 
2184	 5.15168808224549E-04 
2185	 2.70989918784115E-03 
2186	 3.45687600504729E-03 
2187	 3.20022030839899E-03 
2188	 2.1101762037778E-03 
2189	 5.78891770898773E-04 
2190	-9.91067302479403E-04 
2191	-2.74228087083426E-03 
2192	-3.14910981850412E-03 
2193	-3.15026053251308E-03 
2194	-1.88129961019275E-03 
2195	 4.11520145292533E-04 
2196	 1.36225011336502E-03 
2197	 3.39292138756901E-03 
2198	 3.74376859240546E-03 
2199	 2.09696521106464E-03 
2200	 1.90247199302379E-03 
2201	 3.26394422048697E-03 
2202	 1.96822475156989E-03 
2203	 3.70096255071228E-04 
2204	 3.49929884389746E-03 
2205	 5.63995089047286E-03 
2206	 8.53568708591576E-03 
2207	 1.04702442247566E-02 
2208	 1.09111560112849E-02 
2209	 0.011915966982775 
2210	 9.47109538503679E-03 
2211	 1.13097424854374E-02 
2212	 1.29486603117193E-02 
2213	 6.51157608861116E-03 
2214	 2.49203565437932E-03 
2215	-3.48038105352285E-04 
2216	-3.7716394103434E-03 
2217	-4.64085857352116E-03 
2218	-1.0493019353903E-03 
2219	-2.73923410905541E-04 
2220	-3.64015157760595E-04 
2221	 1.77926775058268E-03 
2222	 6.39458362830548E-03 
2223	 7.92791376929892E-03 
2224	 9.18259492748577E-03 
2225	 8.13396107455329E-03 
2226	 8.61632388393447E-04 
2227	 1.00516817368438E-03 
2228	 6.62656979184087E-03 
2229	 7.47444766462879E-03 
2230	 1.22840819892232E-02 
2231	 1.18874422315313E-02 
2232	-2.50426057452505E-04 
2233	-1.71553858586859E-03 
2234	 1.98180223640732E-03 
2235	 3.81300798439999E-03 
2236	 6.40054431611589E-03 
2237	 1.13480529239232E-02 
2238	 1.13175747207833E-02 
2239	 9.60456262016385E-03 
2240	 1.43299384699188E-02 
2241	 0.016805468847379 
2242	 1.21741864168073E-02 
2243	 7.85729537219102E-03 
2244	 1.72932231098832E-03 
2245	-2.84290965733421E-03 
2246	-2.22321844521171E-03 
2247	-2.39222333860583E-03 
2248	-1.6305371883604E-03 
2249	-2.65085708695483E-03 
2250	-2.58012436725558E-03 
2251	 7.32485659521191E-04 
2252	 3.67004488743783E-03 
2253	 8.37825189470378E-03 
2254	 5.57901109395259E-03 
2255	-1.66470529633938E-03 
2256	-6.03669321327384E-03 
2257	-8.20228350326988E-03 
2258	-6.68889181946408E-03 
2259	-5.90943128490572E-03 
2260	-8.60191266565071E-03 
2261	-1.98875951252056E-02 
2262	-2.28600687884136E-02 
2263	-2.26460801208039E-02 
2264	-2.12495042546026E-02 
2265	-1.27038821275251E-02 
2266	-7.2288001363416E-03 
2267	-6.56087563546737E-03 
2268	-2.51582046952124E-03 
2269	 6.25537420427462E-03 
2270	 7.0936475574671E-03 
2271	 7.2947376951289E-03 
2272	 4.90508441834897E-03 
2273	-5.10553395439444E-03 
2274	-1.05459671037171E-02 
2275	-1.81037563386833E-02 
2276	-1.94295512034612E-02 
2277	-1.46511459372966E-02 
2278	-1.37683975364361E-02 
2279	-8.15331226346384E-03 
2280	-6.59503925113595E-03 
2281	-9.33912591934115E-03 
2282	-1.40402537174661E-02 
2283	-0.010714859554773 
2284	-1.33364250563438E-02 
2285	-1.41205450449665E-02 
2286	-7.73901209227507E-03 
2287	-1.12271051140236E-02 
2288	-1.05726093743553E-02 
2289	-5.17981340295582E-03 
2290	-9.79591484151693E-03 
2291	-5.80475807871509E-03 
2292	-4.90233891517532E-03 
2293	-7.91346371127508E-03 
2294	 8.24863560646871E-04 
2295	 5.74718520643243E-03 
2296	 0.011107148500427 
2297	 1.49558134277572E-02 
2298	 8.53001496466659E-03 
2299	-6.47100911326628E-03 
2300	-1.90488335006878E-02 
2301	-1.88098458949902E-02 
2302	-1.77967833345514E-02 
2303	-0.013003208872571 
2304	-7.31507836072264E-03 
2305	-6.18391762652704E-03 
2306	-6.09898242813336E-04 
2307	 1.10363379257688E-03 
2308	 5.56655976490427E-03 
2309	 9.62710493772527E-03 
2310	-1.13205123257658E-03 
2311	-2.20167913211385E-03 
2312	-1.14505305642524E-03 
2313	-1.15979751022461E-02 
2314	-1.37535814906982E-02 
2315	-1.96977221296751E-02 
2316	-2.97199089463901E-02 
2317	-1.92968021502702E-02 
2318	-1.34437353792031E-03 
2319	 9.48850646509107E-03 
2320	 1.21105956926348E-02 
2321	-5.7302282353847E-03 
2322	-2.50613563561895E-02 
2323	-2.84379500037806E-02 
2324	-2.99808606073986E-02 
2325	-3.30077518596478E-02 
2326	-2.97525095844643E-02 
2327	-0.030857197952065 
2328	-3.42245641694006E-02 
2329	-2.40390639611979E-02 
2330	-0.020917989954665 
2331	-2.54273488852256E-02 
2332	-1.20259778140634E-02 
2333	 1.36311127499355E-03 
2334	-1.44218553491876E-04 
2335	 2.50469724914864E-03 
2336	 8.43798546074061E-03 
2337	 1.66265791858076E-02 
2338	 2.38290106991287E-02 
2339	 0.029837749336026 
2340	 0.034614002227448 
2341	 2.68460124223608E-02 
2342	 2.83294679520992E-02 
2343	 3.37596581536013E-02 
2344	 1.57988135934508E-02 
2345	-1.01246346358985E-02 
2346	-2.05552826029532E-02 
2347	-1.21784600788245E-02 
2348	 1.08849775377151E-02 
2349	 2.19420238010849E-02 
2350	 1.09104722168685E-02 
2351	-0.010599186813656 
2352	-3.99467599160409E-02 
2353	-5.13527108703845E-02 
2354	-2.52493155969456E-02 
2355	 1.69527005860925E-02 
2356	 2.97036969189294E-02 
2357	 3.03234069084122E-02 
2358	 1.93568164153079E-02 
2359	-1.66080232845312E-03 
2360	-8.03457666451829E-03 
2361	 2.46161993205583E-05 
2362	 4.33746329401313E-03 
2363	-0.010953665556301 
2364	-3.92713195998156E-02 
2365	-7.73480200312885E-02 
2366	-6.02706367359467E-02 
2367	-3.67892248818959E-02 
2368	-2.36908548817307E-02 
2369	 7.86478042314689E-03 
2370	-2.28490727527266E-02 
2371	-4.46326836374498E-02 
2372	-3.86544385672632E-02 
2373	-9.71075682739279E-03 
2374	 3.07270190803616E-03 
2375	-2.33748750684947E-02 
2376	 1.05031305671671E-02 
2377	-5.69954579548528E-03 
2378	 4.33008443744806E-03 
2379	 7.86730038949914E-02 
2380	 6.04524560947599E-02 
2381	-1.73648441268739E-03 
2382	-0.06594178846471 
2383	-0.161279062582488 
2384	-0.208682568307773 
2385	-0.207844907467559 
2386	-0.182421278410262 
2387	-9.87187224132096E-02 
2388	-9.96708797357999E-02 
2389	-0.180519120904614 
2390	-0.167435902264335 
2391	-0.160441948275966 
2392	-0.171296919454357 
2393	-1.51416685561132E-02 
2394	 7.80937033522121E-02 
2395	 2.60393066978613E-02 
2396	 0.04282961649331 
2397	 3.90627715981235E-02 
2398	-0.010921405866643 
2399	-7.29778026134778E-03 
2400	 1.11452027389561E-03 
2401	-3.44682926029259E-02 
2402	-8.47797023005683E-02 
2403	-8.91163399406348E-02 
2404	-0.110034046056805 
2405	-0.142411567702151 
2406	-9.10587291000367E-02 
2407	-7.78030279348668E-02 
2408	-0.093326295839837 
2409	-0.125245352227931 
2410	-7.89382494006069E-02 
2411	-9.70127797835762E-02 
2412	-0.19541833823937 
2413	-0.12671886092685 
2414	-0.246008894642329 
2415	-0.287883587773522 
2416	-0.138619317656328 
2417	-0.197305190777799 
2418	-0.346191897136618 
2419	-0.344157170369767 
2420	-0.265007056419313 
2421	-0.372025990949929 
2422	-0.330809063616143 
2423	-0.180771152942565 
2424	-0.209778898643891 
2425	-0.175762715100655 
2426	-0.125218702971577 
2427	-0.142093848350989 
2428	-0.283415668105919 
2429	-0.483452469234133 
2430	-0.429135325825234 
2431	-0.40873120480621 
2432	-0.63765702522485 
2433	-0.358902642267633 
2434	 0.052504299633943 
2435	 0.31321027005866 
2436	 0.597354227985478 
2437	 0.650230044241324 
2438	 0.237184619642244 
2439	-0.146630753937381 
2440	-0.166764600166246 
2441	-3.31300098762981E-02 
2442	 1.27327188629369E-03 
2443	-0.153421326862204 
2444	 5.58075055255003E-02 
2445	-0.457299159282254 
2446	-0.362078043361226 
2447	 1.99185225786053 
2448	 1.98880147319501 
2449	 0.964861823521678 
2450	 0.728436770436641 
2451	 0.176599036987341 
2452	-0.600053485188903 
2453	-1.59640565888782 
2454	-0.468968680575343 
2455	-0.885865345377245 
2456	-0.381381565002345 
2457	 0.581626197954921 
2458	 0.953949625024897 
2459	 1.32703801071731 
2460	 2.11573244891272 
2461	 4.2215970631416 
2462	-15.7960824205014 
2463	-6.16976008987065 
2464	 0.455127265349417 
2465	-0.993022087922281 
2466	-1.89940210507847 
2467	-1.80808571337904 
2468	-0.7391328650792 
2469	 0.568212477501565 
2470	 0.181538490920025 
2471	 0.353920867002569 
2472	 0.529662195789058 
2473	 0.461223583078759 
2474	 0.771983616267114 
2475	 2.09755560969098 
2476	 2.8500649284891 
2477	 6.92925042240361 
2478	-2.23239309473891 
2479	-1.10225706972901 
2480	-9.30390271165889 
2481	 0.946516537628702 
2482	-0.281667528522125 
2483	 7.47520278346435E-02 
2484	 0.375557011169911 
2485	 0.407765629580563 
2486	 0.499117145192701 
2487	 0.690274576839206 
2488	 0.364704450299597 
2489	 8.28830999135641E-02 
2490	 0.142639737596537 
2491	-0.140642631184835 
2492	-0.351790678167682 
2493	-0.124190326158068 
2494	 7.41072851814246E-02 
2495	 1.02103582232635 
2496	 0.967341453602536 
2497	 1.60976983768583 
2498	 13.2254819916376 
2499	 1.43600579916631 
2500	 0.818238373985529 
