Wavelength	rt062200001.asd
350	 2.20720385394713E-02 
351	 2.25214831216748E-02 
352	 2.25924110981488E-02 
353	 2.25563169386033E-02 
354	 2.27927401776845E-02 
355	 2.34273182696024E-02 
356	 2.41216832341165E-02 
357	 2.40564071991917E-02 
358	 2.29294613869144E-02 
359	 2.29230498364962E-02 
360	 0.023598168164271 
361	 2.44320135270076E-02 
362	 2.49198474086671E-02 
363	 2.46301537832007E-02 
364	 2.45186897751928E-02 
365	 2.48511379920786E-02 
366	 2.45956740526013E-02 
367	 2.47758095191724E-02 
368	 2.49302157972101E-02 
369	 2.46929601739873E-02 
370	 2.55170455915207E-02 
371	 2.57908081273244E-02 
372	 2.58203881312635E-02 
373	 2.67510959603878E-02 
374	 2.62470750121372E-02 
375	 2.58155187217224E-02 
376	 2.62442213404717E-02 
377	 2.67670347837477E-02 
378	 2.71744976814218E-02 
379	 2.78080114472469E-02 
380	 2.87059269283519E-02 
381	 2.84727026038442E-02 
382	 2.86263275428708E-02 
383	 2.89130741231577E-02 
384	 2.84617852522482E-02 
385	 2.86569921593414E-02 
386	 2.88539984382796E-02 
387	 2.88915878347775E-02 
388	 2.93119697335938E-02 
389	 2.98325930081057E-02 
390	 3.02897874839435E-02 
391	 3.04546103356925E-02 
392	 2.97338093070595E-02 
393	 2.97808270626301E-02 
394	 3.03655607674696E-02 
395	 3.06716305047122E-02 
396	 3.11543265490922E-02 
397	 3.12822544548591E-02 
398	 0.031138340427631 
399	 3.13271473097301E-02 
400	 0.031437766754536 
401	 3.16732473349819E-02 
402	 3.20004517321069E-02 
403	 3.15629996026768E-02 
404	 3.17101154989647E-02 
405	 3.22692980741143E-02 
406	 0.032534416025961 
407	 3.23692992767034E-02 
408	 3.24090487796654E-02 
409	 3.27437424742624E-02 
410	 3.28961543272843E-02 
411	 3.29398440167074E-02 
412	 3.30839884536567E-02 
413	 0.033413531350462 
414	 3.36898978369978E-02 
415	 3.37057396942814E-02 
416	 3.37320181982988E-02 
417	 3.40961928831009E-02 
418	 0.034107972988825 
419	 3.42493736110806E-02 
420	 3.46148712049707E-02 
421	 3.48095341574663E-02 
422	 3.51125837435036E-02 
423	 3.53273452097605E-02 
424	 3.53665031464907E-02 
425	 3.57009804730904E-02 
426	 3.61416438072845E-02 
427	 0.036485077174455 
428	 3.66023638506314E-02 
429	 0.036956872448489 
430	 3.73933831224456E-02 
431	 3.77275855624943E-02 
432	 3.78239511578477E-02 
433	 3.82561662749038E-02 
434	 3.86086553196003E-02 
435	 3.86153989782516E-02 
436	 3.91443774374633E-02 
437	 3.95887119954511E-02 
438	 0.039831173065252 
439	 4.00542427214148E-02 
440	 4.05096087004231E-02 
441	 4.08570183881945E-02 
442	 4.09986426637074E-02 
443	 4.12856653047783E-02 
444	 4.15878730753015E-02 
445	 4.19691580106288E-02 
446	 4.24214561480032E-02 
447	 4.24861570236335E-02 
448	 4.25257186437421E-02 
449	 4.26920572080283E-02 
450	 4.29538838452577E-02 
451	 0.043228491539439 
452	 4.35030376819743E-02 
453	 4.37401375218695E-02 
454	 4.38137932978589E-02 
455	 0.043932499844337 
456	 4.40610207220277E-02 
457	 4.41167157091535E-02 
458	 4.42696714915813E-02 
459	 4.44941790425801E-02 
460	 4.46995302139646E-02 
461	 4.47501217591406E-02 
462	 4.47800571887402E-02 
463	 4.48732933952754E-02 
464	 4.50331482460317E-02 
465	 4.50713889401218E-02 
466	 4.51463197239418E-02 
467	 4.53061197710278E-02 
468	 4.55173187440775E-02 
469	 0.045588115836216 
470	 4.57024812333505E-02 
471	 4.59045208203947E-02 
472	 4.60054975802379E-02 
473	 4.61181873414459E-02 
474	 0.046225177603514 
475	 0.046300853759802 
476	 4.63825511103301E-02 
477	 0.046654775954799 
478	 4.69818457196657E-02 
479	 4.70560966105865E-02 
480	 4.72891866774441E-02 
481	 4.74595024010837E-02 
482	 4.75102374385617E-02 
483	 4.79047106026182E-02 
484	 4.81745984046877E-02 
485	 4.82750127492397E-02 
486	 0.048360785605914 
487	 4.87037418484175E-02 
488	 0.049046087393372 
489	 4.92966156700713E-02 
490	 4.95584241244275E-02 
491	 4.98542829126659E-02 
492	 0.05025110135223 
493	 5.07163241108689E-02 
494	 5.09214897242629E-02 
495	 5.12949498352034E-02 
496	 5.17494353952134E-02 
497	 5.19955091064728E-02 
498	 5.24427634043108E-02 
499	 0.052919844417506 
500	 5.33389932205928E-02 
501	 5.38355248782517E-02 
502	 5.42831278271898E-02 
503	 5.46950448098533E-02 
504	 5.51358300608881E-02 
505	 5.57168257790101E-02 
506	 5.61267644289176E-02 
507	 5.64288774447656E-02 
508	 5.69702340878887E-02 
509	 5.75739286469184E-02 
510	 5.81341858012667E-02 
511	 5.86074241775404E-02 
512	 5.90558452954079E-02 
513	 5.96054952939535E-02 
514	 6.02018446824503E-02 
515	 6.07242028972164E-02 
516	 6.12836929782301E-02 
517	 6.18748004878987E-02 
518	 6.25320476934555E-02 
519	 6.33520172133863E-02 
520	 6.39656481837346E-02 
521	 6.45081157355282E-02 
522	 6.51782189472499E-02 
523	 6.59373033801332E-02 
524	 6.67499634457119E-02 
525	 6.75321029311347E-02 
526	 6.81997622837794E-02 
527	 6.90337864295652E-02 
528	 6.98327744286048E-02 
529	 7.05061608602316E-02 
530	 7.13140060633288E-02 
531	 7.21966834211747E-02 
532	 7.31280478212447E-02 
533	 0.074077404181111 
534	 7.50069686565737E-02 
535	 7.58915908127463E-02 
536	 7.67588532938517E-02 
537	 7.76865016330519E-02 
538	 7.87273804918389E-02 
539	 7.97746397282151E-02 
540	 8.07408802721796E-02 
541	 8.17462047076502E-02 
542	 8.27668746851978E-02 
543	 8.37275658335421E-02 
544	 8.45677294529121E-02 
545	 8.57277422838926E-02 
546	 8.67781972750382E-02 
547	 8.75224359264417E-02 
548	 8.84210109615658E-02 
549	 8.92965780577599E-02 
550	 9.01721626334365E-02 
551	 9.11038503657554E-02 
552	 0.091951862979846 
553	 0.092916760592267 
554	 9.39748348902644E-02 
555	 0.094831930382416 
556	 9.58181695376964E-02 
557	 9.68743497777817E-02 
558	 9.78726895329375E-02 
559	 0.098816373616307 
560	 9.97981243282122E-02 
561	 0.100764303616708 
562	 0.10160270974699 
563	 0.102556454362913 
564	 0.103495501053155 
565	 0.10432203973953 
566	 0.10510949301411 
567	 0.105692428345476 
568	 0.106179540861985 
569	 0.106746099601622 
570	 0.107290283075378 
571	 0.107843415755885 
572	 0.10837272794438 
573	 0.108775607459896 
574	 0.10927072049763 
575	 0.109772861882294 
576	 0.110184990981065 
577	 0.110620423414737 
578	 0.111077047931476 
579	 0.111447639450782 
580	 0.111620445427481 
581	 0.112104532314934 
582	 0.112594720707603 
583	 0.112909927432993 
584	 0.113282223579821 
585	 0.11356455105304 
586	 0.113811337916513 
587	 0.11409031070321 
588	 0.114074473566637 
589	 0.114187316288138 
590	 0.114506228339502 
591	 0.114700818454966 
592	 0.114888427486186 
593	 0.115042879280179 
594	 0.115151244304089 
595	 0.115345181346218 
596	 0.115389489827997 
597	 0.115348407457478 
598	 0.115432997822398 
599	 0.115479666627881 
600	 0.115541253400571 
601	 0.115663794553767 
602	 0.115846682528572 
603	 0.115955339615277 
604	 0.116089333588864 
605	 0.116357214962514 
606	 0.116488682174169 
607	 0.116641446068271 
608	 0.116830460872128 
609	 0.116907950290799 
610	 0.116948241098478 
611	 0.117067165742691 
612	 0.117298634333689 
613	 0.117424454605884 
614	 0.117474064180552 
615	 0.117533711075328 
616	 0.117706560559749 
617	 0.117900435636105 
618	 0.118020637330351 
619	 0.118072211763767 
620	 0.118215723926705 
621	 0.118274825044213 
622	 0.118360103007694 
623	 0.118594889987322 
624	 0.11871022831396 
625	 0.118757048875371 
626	 0.118778796307983 
627	 0.118802583317749 
628	 0.11890724450728 
629	 0.119092308486638 
630	 0.1193025732659 
631	 0.119384487307277 
632	 0.119520170609283 
633	 0.119591904704098 
634	 0.119412263394589 
635	 0.119421364381157 
636	 0.119442809808565 
637	 0.119408083430279 
638	 0.119493452670886 
639	 0.119406768155702 
640	 0.119314345379958 
641	 0.11937294431962 
642	 0.119115249053822 
643	 0.11887170185642 
644	 0.11872749521726 
645	 0.118550479333047 
646	 0.118236882416343 
647	 0.117988151563406 
648	 0.117924330724713 
649	 0.11783319090832 
650	 0.117720271051706 
651	 0.117531322110865 
652	 0.117269836651346 
653	 0.117369596054026 
654	 0.117309033967079 
655	 0.116917281464579 
656	 0.116655729184034 
657	 0.116424505710209 
658	 0.116192095402894 
659	 0.115918100202565 
660	 0.115520814774743 
661	 0.115144273954564 
662	 0.11478035630785 
663	 0.114348723347635 
664	 0.114006950200383 
665	 0.113641622527973 
666	 0.113237077860983 
667	 0.113024588770297 
668	 0.112806951834291 
669	 0.112655284569714 
670	 0.112639960888598 
671	 0.112361523243287 
672	 0.112241403701965 
673	 0.112339541977072 
674	 0.112356729354015 
675	 0.112434124679669 
676	 0.112773334214763 
677	 0.113371702990994 
678	 0.113669931843468 
679	 0.114171195084274 
680	 0.114829571710067 
681	 0.11542564320036 
682	 0.116389375282894 
683	 0.117453280429907 
684	 0.118451007588202 
685	 0.119525411526114 
686	 0.120798625777056 
687	 0.122249951567281 
688	 0.123668442569068 
689	 0.124882149437029 
690	 0.126000549033902 
691	 0.126893977114271 
692	 0.127387492159352 
693	 0.128601996989355 
694	 0.129809904556422 
695	 0.130523862685221 
696	 0.131187179251551 
697	 0.131846420126442 
698	 0.132317896619947 
699	 0.132431518321085 
700	 0.132821301382398 
701	 0.133162739640022 
702	 0.133309372348191 
703	 0.133321528312026 
704	 0.133379636053153 
705	 0.1332693127052 
706	 0.132970527339386 
707	 0.13305750308729 
708	 0.132735233860678 
709	 0.132207527378581 
710	 0.13186942512909 
711	 0.130949116151807 
712	 0.129861893049235 
713	 0.128869587527508 
714	 0.127956400154047 
715	 0.126448068685419 
716	 0.124612588933772 
717	 0.123048222007211 
718	 0.121475362937412 
719	 0.120365030067501 
720	 0.119680414516626 
721	 0.118949941308143 
722	 0.117715537798238 
723	 0.115976256152301 
724	 0.114158928209893 
725	 0.112733992646593 
726	 0.111229788433831 
727	 0.109575241902379 
728	 0.107805262266903 
729	 0.105927747932081 
730	 0.103828866250389 
731	 0.101908492353674 
732	 0.10048751149514 
733	 9.91040350152888E-02 
734	 9.78229629071818E-02 
735	 0.096784543917821 
736	 9.61526276717455E-02 
737	 9.55833366354747E-02 
738	 9.52073508545253E-02 
739	 9.51137279415788E-02 
740	 9.48893436033056E-02 
741	 9.47376818768872E-02 
742	 9.47694482350759E-02 
743	 9.49885236921348E-02 
744	 9.50221878184899E-02 
745	 9.50238537812405E-02 
746	 9.50810584476292E-02 
747	 9.51179712260166E-02 
748	 9.51713563894687E-02 
749	 0.095220456562557 
750	 9.52574180879372E-02 
751	 9.53742438057641E-02 
752	 9.53969443172394E-02 
753	 9.53860663187865E-02 
754	 9.55056736852583E-02 
755	 9.56249999112402E-02 
756	 9.55908589701412E-02 
757	 9.53537458914432E-02 
758	 9.49061452799814E-02 
759	 9.44822841959551E-02 
760	 9.39594791710019E-02 
761	 9.35528683446088E-02 
762	 9.42314002770499E-02 
763	 9.44481437928782E-02 
764	 0.094777101243451 
765	 9.59194742348349E-02 
766	 0.09624291704593 
767	 9.65830043045204E-02 
768	 9.70977898529318E-02 
769	 9.72966355438715E-02 
770	 9.76163496383655E-02 
771	 9.78752880591308E-02 
772	 9.79496468269854E-02 
773	 9.82035929385306E-02 
774	 9.83683020224548E-02 
775	 9.86764785874442E-02 
776	 9.93686319701492E-02 
777	 9.93548839257561E-02 
778	 9.95656540783813E-02 
779	 0.100230256255059 
780	 0.100731306197586 
781	 0.101005713120717 
782	 0.101336404878299 
783	 0.101803149031556 
784	 0.101840291173184 
785	 0.101997187528871 
786	 0.102405250055465 
787	 0.102967973304963 
788	 0.103304789385718 
789	 0.103615027567574 
790	 0.104046647661049 
791	 0.104664188108901 
792	 0.1054449652672 
793	 0.105977284554793 
794	 0.106168173318797 
795	 0.106480267938172 
796	 0.107040812757255 
797	 0.107597044334838 
798	 0.107876841307643 
799	 0.107822680531249 
800	 0.108205872076484 
801	 0.108870377699984 
802	 0.10917717822919 
803	 0.109390592913921 
804	 0.109715633322256 
805	 0.110096282613701 
806	 0.110208633719023 
807	 0.109908751597918 
808	 0.109648593265579 
809	 0.109616425746227 
810	 0.108935378416966 
811	 0.108477724742033 
812	 0.108184943139989 
813	 0.10766032786779 
814	 0.107120842708921 
815	 0.106259860478024 
816	 0.105668361208285 
817	 0.106238821878553 
818	 0.1056536056698 
819	 0.104919583697427 
820	 0.10445998853806 
821	 0.103624260268703 
822	 0.102189357784954 
823	 0.100772665557758 
824	 9.98030957032933E-02 
825	 9.86811463567488E-02 
826	 9.71991829406785E-02 
827	 9.53854228479948E-02 
828	 0.093517037302572 
829	 9.16233548593265E-02 
830	 9.01470237167397E-02 
831	 8.90588018581581E-02 
832	 0.088044295587212 
833	 0.087251799321982 
834	 8.69100169158234E-02 
835	 8.67263162829384E-02 
836	 8.58040080100676E-02 
837	 8.55502201963116E-02 
838	 8.53866045764991E-02 
839	 8.48015745667455E-02 
840	 8.45811286911025E-02 
841	 8.43817062497054E-02 
842	 8.40317339850193E-02 
843	 8.35515432852612E-02 
844	 0.083569304805555 
845	 8.33063176478943E-02 
846	 8.27849025762893E-02 
847	 8.25481702640011E-02 
848	 8.21730016494853E-02 
849	 8.19828357964057E-02 
850	 8.20307991964809E-02 
851	 8.19340483883918E-02 
852	 8.16497264698336E-02 
853	 8.13619450125173E-02 
854	 8.11846459348902E-02 
855	 8.09475948185359E-02 
856	 8.06502102849687E-02 
857	 8.04900548211342E-02 
858	 8.04726569624595E-02 
859	 7.96499142935147E-02 
860	 7.97268154805533E-02 
861	 0.080152160212026 
862	 7.95498085572048E-02 
863	 7.92934500763603E-02 
864	 7.91166594385953E-02 
865	 7.88556738751089E-02 
866	 7.85863383640612E-02 
867	 7.89871815435839E-02 
868	 7.86787897577856E-02 
869	 7.77215527101423E-02 
870	 7.82506439935398E-02 
871	 7.76442700231912E-02 
872	 7.71184632767929E-02 
873	 7.75399332233858E-02 
874	 7.71362759974275E-02 
875	 7.67251924667071E-02 
876	 7.63926377676824E-02 
877	 7.60317539641832E-02 
878	 0.075602944549517 
879	 7.54617375192909E-02 
880	 7.52470137049455E-02 
881	 7.44835832541852E-02 
882	 7.40250426077429E-02 
883	 7.41397420906725E-02 
884	 7.40656264554449E-02 
885	 7.27246449637185E-02 
886	 7.29559982782677E-02 
887	 7.28768014907297E-02 
888	 7.21447928418504E-02 
889	 0.072583107203172 
890	 7.20283363690354E-02 
891	 7.12994153555541E-02 
892	 7.12106081756388E-02 
893	 7.15301707230498E-02 
894	 7.02853380581136E-02 
895	 6.87670206183879E-02 
896	 6.88162145769258E-02 
897	 7.02492133224114E-02 
898	 6.91692866127794E-02 
899	 6.75464177767477E-02 
900	 6.82524807161227E-02 
901	 6.90246819453025E-02 
902	 6.80758066679134E-02 
903	 6.69450196209054E-02 
904	 6.75970300772106E-02 
905	 6.73053518679866E-02 
906	 0.067340672857159 
907	 6.74907052012138E-02 
908	 6.66089373497196E-02 
909	 6.60327777831174E-02 
910	 6.49487673912453E-02 
911	 6.33264096480687E-02 
912	 6.20700041122102E-02 
913	 6.21639169454203E-02 
914	 6.25100806071635E-02 
915	 0.062345901249252 
916	 6.18005739837575E-02 
917	 6.19370598313909E-02 
918	 6.24507960378426E-02 
919	 6.27358973878548E-02 
920	 6.21418197908385E-02 
921	 6.08632979586268E-02 
922	 6.04593932794149E-02 
923	 0.061761870270536 
924	 6.35956521607023E-02 
925	 0.061778819382761 
926	 0.059534178739483 
927	 6.01575426742485E-02 
928	 5.64177678416712E-02 
929	 5.81452054592339E-02 
930	 6.11516139093086E-02 
931	 5.48915503850221E-02 
932	 5.49351645705604E-02 
933	 5.67830237339921E-02 
934	 5.58128001496589E-02 
935	 5.08193570174063E-02 
936	 4.81660213949827E-02 
937	 4.99155724195344E-02 
938	 0.05154353790946 
939	 4.91668716470227E-02 
940	 4.74114304048028E-02 
941	 5.11080598568088E-02 
942	 0.055205892325608 
943	 5.15504387371521E-02 
944	 4.61333240576676E-02 
945	 0.049697426640179 
946	 0.054876502888535 
947	 4.86177293990099E-02 
948	 4.90103575719646E-02 
949	 4.92566786559385E-02 
950	 4.73755606708463E-02 
951	 4.58597239656635E-02 
952	 4.83624330506174E-02 
953	 4.99642821783468E-02 
954	 4.68720015868738E-02 
955	 0.040163320301625 
956	 5.10581159959919E-02 
957	 5.24331134920487E-02 
958	 0.043948623439667 
959	 4.42653989985973E-02 
960	 4.51279649533107E-02 
961	 4.43437571632198E-02 
962	 4.43416953995937E-02 
963	 4.87146370321523E-02 
964	 5.06531889063367E-02 
965	 4.68067902932148E-02 
966	 4.31920391977836E-02 
967	 4.90455362828308E-02 
968	 4.88732157377322E-02 
969	 4.48174555518366E-02 
970	 4.16019565569904E-02 
971	 4.39027871125295E-02 
972	 4.83946930689832E-02 
973	 4.81941228006139E-02 
974	 4.59633873511276E-02 
975	 5.13155531555503E-02 
976	 4.80449206210887E-02 
977	 4.65223724806989E-02 
978	 4.87963806521534E-02 
979	 4.79096554607731E-02 
980	 4.73477944061574E-02 
981	 4.80878036268294E-02 
982	 4.83559763845559E-02 
983	 4.55869521303886E-02 
984	 4.60068213520045E-02 
985	 4.81300476887255E-02 
986	 4.91045361186901E-02 
987	 4.69979701936647E-02 
988	 4.89642317032344E-02 
989	 4.81101479028112E-02 
990	 4.55646563433676E-02 
991	 4.79339249883622E-02 
992	 4.98571408172942E-02 
993	 4.59543299824921E-02 
994	 4.35795306005127E-02 
995	 5.30508538033755E-02 
996	 4.80322835286807E-02 
997	 4.62119698318411E-02 
998	 4.90589648892549E-02 
999	 0.047955513842793 
1000	 5.11747400305911E-02 
1001	 5.04006551146957E-02 
1002	 5.04607991460368E-02 
1003	 5.04191613555545E-02 
1004	 5.04119144793426E-02 
1005	 5.06128356296637E-02 
1006	 5.09223393536172E-02 
1007	 5.06923528893389E-02 
1008	 5.08688089281304E-02 
1009	 5.13652872993875E-02 
1010	 5.11052402346338E-02 
1011	 0.05148076335124 
1012	 5.22134177741145E-02 
1013	 5.22233122417741E-02 
1014	 5.25063706435282E-02 
1015	 5.30213989718382E-02 
1016	 5.32966933465366E-02 
1017	 5.36028783427043E-02 
1018	 5.35492725949532E-02 
1019	 5.30902424575336E-02 
1020	 5.28187969856235E-02 
1021	 5.22441517366905E-02 
1022	 5.19372909370943E-02 
1023	 5.18372096207244E-02 
1024	 5.24478362889419E-02 
1025	 5.30684114951507E-02 
1026	 5.28216525653501E-02 
1027	 5.31077088072973E-02 
1028	 5.35020267483754E-02 
1029	 5.36150887668441E-02 
1030	 5.38566901381607E-02 
1031	 5.41174746971045E-02 
1032	 5.39489395444183E-02 
1033	 5.42209017602577E-02 
1034	 5.48496085037801E-02 
1035	 5.52406538355837E-02 
1036	 5.58799885263535E-02 
1037	 5.61971292883564E-02 
1038	 5.62242122739974E-02 
1039	 5.62315714893649E-02 
1040	 5.67119909228204E-02 
1041	 5.69750093082673E-02 
1042	 5.71462585963073E-02 
1043	 0.05770986559018 
1044	 5.76036623683403E-02 
1045	 5.66959651853317E-02 
1046	 0.056524746482497 
1047	 5.62939818339586E-02 
1048	 5.64032726106165E-02 
1049	 5.72000798008874E-02 
1050	 5.74624071022448E-02 
1051	 5.78549042399149E-02 
1052	 5.78140723711056E-02 
1053	 5.66413228326397E-02 
1054	 5.66243865534796E-02 
1055	 0.057459684924595 
1056	 5.76607393658413E-02 
1057	 5.78806477341753E-02 
1058	 5.86276600458091E-02 
1059	 5.90280449538216E-02 
1060	 5.88760432422057E-02 
1061	 5.88637935587704E-02 
1062	 5.93509521964041E-02 
1063	 5.92042863389424E-02 
1064	 5.81570948783473E-02 
1065	 5.78335801641818E-02 
1066	 5.75042318489202E-02 
1067	 5.75577687494764E-02 
1068	 5.83611454258236E-02 
1069	 5.86206748442382E-02 
1070	 5.91012249879553E-02 
1071	 5.91552447877938E-02 
1072	 5.86754294739421E-02 
1073	 5.79147898282121E-02 
1074	 5.78688890892539E-02 
1075	 5.78158079279801E-02 
1076	 5.81588898833413E-02 
1077	 5.96717218942651E-02 
1078	 5.95571681136904E-02 
1079	 5.85724137445756E-02 
1080	 5.81413020665835E-02 
1081	 5.70361682203386E-02 
1082	 0.056455928741266 
1083	 5.65353194917919E-02 
1084	 5.64963492993562E-02 
1085	 5.61111941076881E-02 
1086	 5.60761946364246E-02 
1087	 5.68012016631606E-02 
1088	 5.69827927298727E-02 
1089	 5.69702023294621E-02 
1090	 5.70540430795252E-02 
1091	 5.69387974118952E-02 
1092	 5.65035584865492E-02 
1093	 5.60469217080051E-02 
1094	 5.53625183659577E-02 
1095	 5.52384747001357E-02 
1096	 5.52697250364951E-02 
1097	 5.49674868691927E-02 
1098	 5.49340668214139E-02 
1099	 5.48099453126927E-02 
1100	 5.41630499828802E-02 
1101	 5.39925902185444E-02 
1102	 0.054708506710777 
1103	 5.46398644433245E-02 
1104	 5.47190104390326E-02 
1105	 5.30563561089201E-02 
1106	 5.20507851816467E-02 
1107	 5.23660045849815E-02 
1108	 0.052345927221284 
1109	 5.38758855555912E-02 
1110	 5.40824771663073E-02 
1111	 0.053317879086024 
1112	 5.32353933400445E-02 
1113	 5.29111356442878E-02 
1114	 0.052314505719397 
1115	 5.20015053538093E-02 
1116	 0.051856261350514 
1117	 5.16427251493796E-02 
1118	 5.15800193373542E-02 
1119	 5.22268495976634E-02 
1120	 5.21190318401108E-02 
1121	 5.06590499512089E-02 
1122	 4.82154225631127E-02 
1123	 4.75142154405848E-02 
1124	 5.64477844521805E-02 
1125	 6.17256937491084E-02 
1126	 5.37145636123229E-02 
1127	 0.049383643539481 
1128	 4.61719657154225E-02 
1129	 0.04198264001813 
1130	 3.92056761311291E-02 
1131	 4.01035056601197E-02 
1132	 4.11357749709338E-02 
1133	 4.01999532426907E-02 
1134	 4.10954251418152E-02 
1135	 4.15409415664212E-02 
1136	 4.01011316914088E-02 
1137	 4.05518684724017E-02 
1138	 4.28156224536904E-02 
1139	 4.39549888040475E-02 
1140	 4.55964568271189E-02 
1141	 4.41743243799471E-02 
1142	 4.08550079400052E-02 
1143	 3.94741429518711E-02 
1144	 3.82443716743893E-02 
1145	 3.70374673444955E-02 
1146	 3.54317090742597E-02 
1147	 3.25441403022929E-02 
1148	 3.29259399713384E-02 
1149	 3.44578258852432E-02 
1150	 3.39990775045876E-02 
1151	 3.47734025735167E-02 
1152	 3.54556796978614E-02 
1153	 3.30686015003405E-02 
1154	 3.29963371253018E-02 
1155	 3.53782534541176E-02 
1156	 0.035656865221425 
1157	 3.20550826351114E-02 
1158	 3.19739493367211E-02 
1159	 3.21888498401328E-02 
1160	 3.20598213302003E-02 
1161	 3.46064533492702E-02 
1162	 3.57890029215392E-02 
1163	 3.46566528012378E-02 
1164	 3.38473711267264E-02 
1165	 3.29416157955263E-02 
1166	 3.27171135480196E-02 
1167	 3.36099407773119E-02 
1168	 3.39997761676776E-02 
1169	 3.38735948034913E-02 
1170	 3.34228776618709E-02 
1171	 3.34204479516317E-02 
1172	 3.34471049142973E-02 
1173	 3.36088845040901E-02 
1174	 3.43002083665181E-02 
1175	 3.42582797682556E-02 
1176	 3.41662551492872E-02 
1177	 3.36614662602692E-02 
1178	 3.28132836207734E-02 
1179	 3.26186918610661E-02 
1180	 0.033120789399252 
1181	 3.33272149636059E-02 
1182	 3.31947905033135E-02 
1183	 3.34689924634789E-02 
1184	 3.29179217769771E-02 
1185	 3.25593596789006E-02 
1186	 3.30987311425252E-02 
1187	 3.33244790781691E-02 
1188	 3.38423491845218E-02 
1189	 3.38220809175501E-02 
1190	 0.033487191254065 
1191	 3.33547075775028E-02 
1192	 3.33663150489839E-02 
1193	 3.34439696131659E-02 
1194	 3.39151303722725E-02 
1195	 3.38407599571607E-02 
1196	 3.33633620555788E-02 
1197	 3.31917076529962E-02 
1198	 3.27632330257397E-02 
1199	 3.23813278183413E-02 
1200	 3.29594288427055E-02 
1201	 3.33317605666377E-02 
1202	 3.28808970431155E-02 
1203	 3.28103404707263E-02 
1204	 3.30145176580474E-02 
1205	 3.30507876551734E-02 
1206	 3.29356989445676E-02 
1207	 3.25004912962504E-02 
1208	 3.21242163260852E-02 
1209	 3.23260073310648E-02 
1210	 3.28951734691377E-02 
1211	 3.32035485851134E-02 
1212	 3.32773471353792E-02 
1213	 3.33852443440937E-02 
1214	 3.35819818943652E-02 
1215	 0.033707607854999 
1216	 3.41851459890168E-02 
1217	 3.44850815151213E-02 
1218	 3.44302884183987E-02 
1219	 3.41885846307782E-02 
1220	 3.38921154225911E-02 
1221	 3.39619253864175E-02 
1222	 3.38479967975599E-02 
1223	 0.033698867735905 
1224	 3.42359476190266E-02 
1225	 0.034671942332774 
1226	 3.48048045752666E-02 
1227	 3.46329583714274E-02 
1228	 3.41654792194131E-02 
1229	 3.44632338285908E-02 
1230	 0.034869839867442 
1231	 3.45111828604141E-02 
1232	 3.41914038266602E-02 
1233	 3.39740844323021E-02 
1234	 3.37978109166208E-02 
1235	 3.37748448952536E-02 
1236	 3.46712341911483E-02 
1237	 0.035054452660418 
1238	 3.52106968965277E-02 
1239	 3.48565373778396E-02 
1240	 3.48952019428961E-02 
1241	 0.035038325420689 
1242	 3.47690772254196E-02 
1243	 3.45511833253258E-02 
1244	 3.44814918381664E-02 
1245	 3.44344378397566E-02 
1246	 3.44285905630192E-02 
1247	 3.45986161384595E-02 
1248	 0.035038142530727 
1249	 3.51283935413689E-02 
1250	 3.48551844627332E-02 
1251	 3.48569823426191E-02 
1252	 3.48722644643768E-02 
1253	 3.48603788348731E-02 
1254	 3.47603237492173E-02 
1255	 3.46532576181158E-02 
1256	 3.48085729360978E-02 
1257	 3.50647305183864E-02 
1258	 3.50552736302565E-02 
1259	 3.52035462465557E-02 
1260	 3.52939890010265E-02 
1261	 3.50026980972654E-02 
1262	 3.49011658956321E-02 
1263	 3.49370658960207E-02 
1264	 3.52652836272266E-02 
1265	 3.55960121527772E-02 
1266	 3.55642468264343E-02 
1267	 3.48961751945838E-02 
1268	 3.46267520225534E-02 
1269	 3.51567334970747E-02 
1270	 3.52105646366703E-02 
1271	 0.035340056363343 
1272	 3.54523338840461E-02 
1273	 3.47408243862444E-02 
1274	 3.42918447893012E-02 
1275	 3.45263562442985E-02 
1276	 3.53024240155962E-02 
1277	 3.58671635021589E-02 
1278	 3.54710224822636E-02 
1279	 0.034994071234605 
1280	 3.47471260592302E-02 
1281	 3.44985182400316E-02 
1282	 3.41179001861607E-02 
1283	 3.39937252149425E-02 
1284	 3.39982491381264E-02 
1285	 3.38025540568064E-02 
1286	 3.37869006483427E-02 
1287	 3.36387167225034E-02 
1288	 3.32087872747001E-02 
1289	 3.31033485569184E-02 
1290	 3.32695184173144E-02 
1291	 3.28802867430909E-02 
1292	 3.25837718873921E-02 
1293	 3.27571463938957E-02 
1294	 3.26861862088424E-02 
1295	 3.24144576967267E-02 
1296	 0.032482196063353 
1297	 3.26008297563495E-02 
1298	 3.25753502444178E-02 
1299	 3.25645866446868E-02 
1300	 3.25516852930427E-02 
1301	 3.25854558720316E-02 
1302	 0.032333774088371 
1303	 3.18034111365852E-02 
1304	 0.031504291097297 
1305	 3.12663419500842E-02 
1306	 3.06840979209301E-02 
1307	 0.030075148617401 
1308	 2.97971576921656E-02 
1309	 2.89287765053867E-02 
1310	 2.88633139816857E-02 
1311	 3.03952512686845E-02 
1312	 0.030603381858933 
1313	 3.00596618033652E-02 
1314	 3.00913626848167E-02 
1315	 2.97424245861542E-02 
1316	 2.94352868583255E-02 
1317	 2.98416864301069E-02 
1318	 2.97231553421066E-02 
1319	 2.91098952648572E-02 
1320	 2.86235845580166E-02 
1321	 2.79179834801621E-02 
1322	 2.73121146191243E-02 
1323	 2.74863272692928E-02 
1324	 2.73628976640551E-02 
1325	 0.026952997813394 
1326	 2.61202067155103E-02 
1327	 2.36781897790406E-02 
1328	 2.13142201425192E-02 
1329	 2.24844291816922E-02 
1330	 2.32896017673982E-02 
1331	 0.022464121465583 
1332	 2.54332124326798E-02 
1333	 2.66119190865001E-02 
1334	 2.29764976760759E-02 
1335	 2.21121023318094E-02 
1336	 2.28781841891047E-02 
1337	 2.22885414396284E-02 
1338	 2.04679076469079E-02 
1339	 0.020829228973902 
1340	 2.26795464495476E-02 
1341	 2.25309304724158E-02 
1342	 2.34462379149562E-02 
1343	 2.31419141087511E-02 
1344	 1.67784886482084E-02 
1345	 1.62455985959581E-02 
1346	 2.49523806267198E-02 
1347	 0.025781057240068 
1348	 2.18661053812366E-02 
1349	 2.35493066847524E-02 
1350	 1.25550121077494E-02 
1351	 6.54879950663186E-03 
1352	 4.38004237140911E-02 
1353	 7.22153652060118E-02 
1354	 8.03533430886132E-02 
1355	 8.80482256880765E-02 
1356	 0.116791476755412 
1357	 0.18954357818207 
1358	 0.176807874932073 
1359	 0.139806698047639 
1360	 0.14737409081326 
1361	-7.92602296555463E-02 
1362	-0.113311939693356 
1363	-2.54830408097141E-02 
1364	-6.74970357208491E-02 
1365	 0.146701856322202 
1366	 0.323659929803274 
1367	 0.367865174461879 
1368	 0.497526614964285 
1369	 0.268719618962469 
1370	 0.252827547967215 
1371	 0.536596914607637 
1372	 0.59026261305313 
1373	 0.487456042449522 
1374	 0.458753613132251 
1375	 0.533512305833509 
1376	 0.386214482307511 
1377	-0.649652978078833 
1378	-0.711614922462278 
1379	 0.011275630399888 
1380	 5.38016269301386E-02 
1381	 0.440247771166633 
1382	 1.03593141458242 
1383	 1.6796002241711 
1384	 2.16329723471764 
1385	-1.72454945825906 
1386	-0.402585350442421 
1387	 4.33283564767693 
1388	 3.47461336567367 
1389	 0.385413325218428 
1390	 0.762414371554048 
1391	 0.101337029022508 
1392	-0.266877115917014 
1393	 1.40062863745462 
1394	 0.586947351510373 
1395	 0.559043977348479 
1396	-0.776133552807241 
1397	-1.57377130446042 
1398	-3.08629665655745 
1399	 0.330374442612413 
1400	-0.40068557540977 
1401	-0.500963345730485 
1402	-0.898104399045998 
1403	-2.62072549775718E-02 
1404	 0.900323521838286 
1405	 1.0550131628521 
1406	 0.52953450025944 
1407	 0.652963683965118 
1408	 1.33707355901086 
1409	 0.478186199422586 
1410	 0.41186584118325 
1411	 0.331482925278513 
1412	 0.104069736743818 
1413	 0.090128347229664 
1414	 0.205752095637995 
1415	 0.165875796424271 
1416	 5.17685963785032E-02 
1417	 4.60663295795138E-02 
1418	 6.29106021359023E-02 
1419	 3.41694023513617E-02 
1420	 1.86070519313129E-02 
1421	 3.45497962609113E-02 
1422	 0.044942122638651 
1423	 2.35035264857348E-02 
1424	 5.3554917961143E-03 
1425	 1.47904245055524E-02 
1426	 2.59714791433612E-02 
1427	 1.27759907583221E-02 
1428	 2.06071095975571E-03 
1429	 7.06761574114613E-03 
1430	-1.21753784917863E-03 
1431	-6.4534148527728E-03 
1432	 1.42745344656428E-02 
1433	 1.93363831333639E-02 
1434	-8.36268950995397E-03 
1435	-9.78965503406645E-03 
1436	 1.74075710407549E-02 
1437	 0.021679516033813 
1438	-5.68909137591326E-03 
1439	-2.02584519246955E-02 
1440	-8.42355543376693E-03 
1441	-5.26407657936837E-03 
1442	-8.07005282431858E-03 
1443	 9.1368293288279E-03 
1444	 2.81342550817238E-02 
1445	 2.61320866731871E-02 
1446	 1.10648955127662E-02 
1447	 4.35778143356887E-03 
1448	-2.37663937264001E-03 
1449	-1.01629753128049E-02 
1450	-3.26146403653293E-03 
1451	 8.98292896436075E-03 
1452	 8.14753435763182E-03 
1453	 1.27948647947002E-03 
1454	 6.59397550260865E-04 
1455	 5.2531583965001E-03 
1456	 3.04774723829034E-03 
1457	-3.52191902446946E-03 
1458	-2.48760139882643E-03 
1459	-3.19402329260339E-04 
1460	 4.3790037627094E-04 
1461	 5.0749098337419E-03 
1462	 7.05718122514858E-03 
1463	 6.31713926660225E-03 
1464	 6.55112491732574E-03 
1465	 7.92032414941561E-03 
1466	 8.53710069572534E-03 
1467	 7.91479891768883E-03 
1468	 6.67341544800364E-03 
1469	 4.65940552046566E-03 
1470	 5.54359683352006E-03 
1471	 5.34771927917319E-03 
1472	 5.98436923287433E-03 
1473	 1.14467148640994E-02 
1474	 1.27132979009416E-02 
1475	 1.36597379994791E-02 
1476	 9.97997459495774E-03 
1477	 1.09674395199674E-03 
1478	-7.99099490975676E-04 
1479	-5.19954665652094E-03 
1480	-4.49013978817921E-03 
1481	 4.3963346100855E-03 
1482	 6.63837592022211E-03 
1483	 7.58431865094794E-03 
1484	 8.49725066860068E-03 
1485	 7.00591962527124E-03 
1486	 6.81807025827328E-03 
1487	 7.3014538952142E-03 
1488	 7.07280106686099E-03 
1489	 6.50272841784459E-03 
1490	 6.91767025044022E-03 
1491	 7.48616228451364E-03 
1492	 7.73532288921571E-03 
1493	 8.68537242304132E-03 
1494	 8.96602001408963E-03 
1495	 9.04036249387623E-03 
1496	 8.53234929112313E-03 
1497	 6.96301350585466E-03 
1498	 6.64173076774421E-03 
1499	 6.85271335973898E-03 
1500	 6.47936206703058E-03 
1501	 5.64738130626008E-03 
1502	 6.23284229132126E-03 
1503	 8.05113094526876E-03 
1504	 8.23637143792293E-03 
1505	 8.58596469056045E-03 
1506	 8.8322049133244E-03 
1507	 8.38381426126865E-03 
1508	 7.42105417820184E-03 
1509	 7.2916412600549E-03 
1510	 8.1115894686168E-03 
1511	 8.68520029871467E-03 
1512	 8.7494673001153E-03 
1513	 8.94029255146982E-03 
1514	 8.7464751261495E-03 
1515	 7.99606942117688E-03 
1516	 7.79608726744163E-03 
1517	 7.97753789428459E-03 
1518	 8.27353185893622E-03 
1519	 8.66136150186078E-03 
1520	 8.46395953162328E-03 
1521	 8.2162908697389E-03 
1522	 8.48158223435872E-03 
1523	 8.85649077568467E-03 
1524	 9.14687989744696E-03 
1525	 9.17178473906956E-03 
1526	 8.93570231526755E-03 
1527	 8.72871413067063E-03 
1528	 8.51362272834547E-03 
1529	 8.46376564286183E-03 
1530	 0.008938754387004 
1531	 9.7077269507028E-03 
1532	 1.02069930261336E-02 
1533	 1.02804065459228E-02 
1534	 1.01715092621695E-02 
1535	 9.81814352010032E-03 
1536	 9.48009749941823E-03 
1537	 9.28653260855842E-03 
1538	 9.53171068951342E-03 
1539	 1.01956444042072E-02 
1540	 9.96346205257237E-03 
1541	 9.47504370321205E-03 
1542	 9.72633860438486E-03 
1543	 9.97400209664032E-03 
1544	 1.01913538014698E-02 
1545	 1.05981910157744E-02 
1546	 1.09275871285163E-02 
1547	 1.11040474564107E-02 
1548	 1.12375520694473E-02 
1549	 1.17234834552789E-02 
1550	 1.21754371499858E-02 
1551	 1.19405574429615E-02 
1552	 0.011508780942642 
1553	 1.10059385924086E-02 
1554	 1.07465437354784E-02 
1555	 1.11245968504542E-02 
1556	 1.14206192872601E-02 
1557	 1.16988940626446E-02 
1558	 1.20832372175365E-02 
1559	 1.15672220529157E-02 
1560	 1.08649343325887E-02 
1561	 1.10664472794871E-02 
1562	 1.11454602580112E-02 
1563	 1.12364213283924E-02 
1564	 1.17787941135702E-02 
1565	 1.18150473081037E-02 
1566	 1.19098348393295E-02 
1567	 1.25565358644417E-02 
1568	 1.29704194950382E-02 
1569	 1.32677592992467E-02 
1570	 1.32813078011999E-02 
1571	 1.26993738068028E-02 
1572	 1.25278588212808E-02 
1573	 1.28988084048772E-02 
1574	 1.26174643505571E-02 
1575	 1.22955159928182E-02 
1576	 1.25832342099296E-02 
1577	 1.20538848363873E-02 
1578	 1.15971476182482E-02 
1579	 1.22854286649687E-02 
1580	 1.26258328023932E-02 
1581	 1.30317660136012E-02 
1582	 1.37927863695817E-02 
1583	 0.013478536503244 
1584	 1.27261545418207E-02 
1585	 0.012274089845866 
1586	 1.20775063827575E-02 
1587	 1.27161011547472E-02 
1588	 1.32077674927084E-02 
1589	 1.33912284794484E-02 
1590	 1.38681305627146E-02 
1591	 1.35800595576553E-02 
1592	 1.34215464880462E-02 
1593	 1.41599560823872E-02 
1594	 0.014454581690241 
1595	 1.45894793090467E-02 
1596	 1.49246332283398E-02 
1597	 1.47276716967958E-02 
1598	 1.44586650240138E-02 
1599	 1.45080849884179E-02 
1600	 1.45001652931671E-02 
1601	 1.44136844977195E-02 
1602	 1.43764962445307E-02 
1603	 1.42985440828574E-02 
1604	 1.42879019603112E-02 
1605	 1.42907413450561E-02 
1606	 1.40237616488597E-02 
1607	 1.38626322416805E-02 
1608	 1.39980009965571E-02 
1609	 1.42645699114833E-02 
1610	 1.39756824635841E-02 
1611	 1.37046778185883E-02 
1612	 1.43735462657349E-02 
1613	 1.49697693361471E-02 
1614	 1.52124677534664E-02 
1615	 1.55199476787383E-02 
1616	 1.57182072887855E-02 
1617	 1.52437479055894E-02 
1618	 1.46883212514061E-02 
1619	 1.51786460479987E-02 
1620	 1.54287622170217E-02 
1621	 1.48405295404207E-02 
1622	 1.51293284780321E-02 
1623	 0.015780451070648 
1624	 1.54349260589287E-02 
1625	 1.48834634404535E-02 
1626	 1.48692897773589E-02 
1627	 1.50447591980981E-02 
1628	 1.51848668952975E-02 
1629	 1.57839727651955E-02 
1630	 1.63470904655956E-02 
1631	 1.58298189878537E-02 
1632	 1.52746749822795E-02 
1633	 1.53550923872806E-02 
1634	 1.54140005281883E-02 
1635	 1.56759142780803E-02 
1636	 1.53990246210234E-02 
1637	 0.0143616064207 
1638	 1.48708036889074E-02 
1639	 1.62370820759823E-02 
1640	 1.59066056408891E-02 
1641	 1.53434185593753E-02 
1642	 1.55685812491222E-02 
1643	 1.53038220521572E-02 
1644	 1.53817268516405E-02 
1645	 1.64619885800236E-02 
1646	 1.64928021448126E-02 
1647	 1.54526594906844E-02 
1648	 1.53241760431309E-02 
1649	 1.52476374080907E-02 
1650	 1.51513447527324E-02 
1651	 1.57119909255573E-02 
1652	 1.56680771180109E-02 
1653	 1.61772540025478E-02 
1654	 1.62582160394084E-02 
1655	 1.56428190458092E-02 
1656	 0.015578406020715 
1657	 1.55489284113441E-02 
1658	 1.55784919340031E-02 
1659	 1.60688501863801E-02 
1660	 1.59784883238925E-02 
1661	 1.55702237953311E-02 
1662	 1.56578731721169E-02 
1663	 1.57540842909776E-02 
1664	 1.56949721360619E-02 
1665	 1.56244358971569E-02 
1666	 0.015495476632181 
1667	 1.52525220105428E-02 
1668	 1.49666314965865E-02 
1669	 1.53075056531669E-02 
1670	 1.54275295531358E-02 
1671	 1.51725763082733E-02 
1672	 1.55528633430306E-02 
1673	 1.59256851833235E-02 
1674	 1.57009189842569E-02 
1675	 1.53706554870479E-02 
1676	 1.55169251964721E-02 
1677	 1.55735780744424E-02 
1678	 1.54629740355479E-02 
1679	 1.59345804249537E-02 
1680	 1.60634397605363E-02 
1681	 1.55553222233563E-02 
1682	 1.56836243652321E-02 
1683	 1.58773868914794E-02 
1684	 1.55135262162988E-02 
1685	 1.56132804201849E-02 
1686	 1.57982849676132E-02 
1687	 1.56963800169668E-02 
1688	 0.015954128333457 
1689	 1.60922242733176E-02 
1690	 1.62574422764251E-02 
1691	 1.61741581429358E-02 
1692	 0.015995943670119 
1693	 1.70057553277934E-02 
1694	 1.73713951598818E-02 
1695	 1.61985559048027E-02 
1696	 1.54250426138293E-02 
1697	 1.55113155609955E-02 
1698	 1.56797211066169E-02 
1699	 1.61342148445071E-02 
1700	 1.71217092400866E-02 
1701	 0.016826720044026 
1702	 1.52446830921577E-02 
1703	 1.50498510963702E-02 
1704	 1.60277876530336E-02 
1705	 1.58504587274587E-02 
1706	 1.54217165588702E-02 
1707	 0.016052391362597 
1708	 1.61371464250943E-02 
1709	 1.51995381174907E-02 
1710	 1.51980714862351E-02 
1711	 1.56664917683485E-02 
1712	 1.42848858760193E-02 
1713	 1.44437520509728E-02 
1714	 1.45976424392225E-02 
1715	 0.0140572425163 
1716	 1.53944735426558E-02 
1717	 1.56394999235828E-02 
1718	 0.015609046517798 
1719	 1.65771169001078E-02 
1720	 1.61605229568991E-02 
1721	 0.015263778853315 
1722	 1.57395373991685E-02 
1723	 1.52410373767473E-02 
1724	 1.47615952900029E-02 
1725	 1.57131042336901E-02 
1726	 1.56595503551908E-02 
1727	 1.50989397401165E-02 
1728	 1.44526119659369E-02 
1729	 1.32119042696758E-02 
1730	 0.012680273492287 
1731	 1.29275730622655E-02 
1732	 1.34995790151243E-02 
1733	 1.38163702459623E-02 
1734	 1.40928597643292E-02 
1735	 1.41312317769916E-02 
1736	 1.39763388721183E-02 
1737	 1.48246914057959E-02 
1738	 1.55608305916468E-02 
1739	 1.55814431760846E-02 
1740	 1.46733992306947E-02 
1741	 1.33491836589139E-02 
1742	 0.0135827063009 
1743	 1.40305418512304E-02 
1744	 1.46086157622344E-02 
1745	 1.62267200985847E-02 
1746	 1.31676053189166E-02 
1747	 1.23264222954322E-02 
1748	 0.013668622465412 
1749	 1.34877640557387E-02 
1750	 1.30950570290451E-02 
1751	 1.32365779024279E-02 
1752	 1.18814239307545E-02 
1753	 1.18037001501518E-02 
1754	 1.42477824309149E-02 
1755	 1.48647915334146E-02 
1756	 1.47673917260546E-02 
1757	 1.41582607509739E-02 
1758	 1.32176523678405E-02 
1759	 1.36605981868252E-02 
1760	 1.37737312733994E-02 
1761	 1.34112561710549E-02 
1762	 1.33473083749067E-02 
1763	 1.28923003525325E-02 
1764	 1.25886052418053E-02 
1765	 1.36158107098372E-02 
1766	 1.33680846130651E-02 
1767	 1.06571927933759E-02 
1768	 1.04725628793391E-02 
1769	 1.17149650902593E-02 
1770	 1.18216471432684E-02 
1771	 1.44221718175621E-02 
1772	 1.56232610419762E-02 
1773	 1.12014658476754E-02 
1774	 1.09552503330611E-02 
1775	 1.27553142063676E-02 
1776	 1.12606011853605E-02 
1777	 9.98594466032326E-03 
1778	 9.61675355729624E-03 
1779	 6.87070788397126E-03 
1780	 6.44884816526844E-03 
1781	 1.03414012545357E-02 
1782	 1.12997678811339E-02 
1783	 8.89801866615571E-03 
1784	 8.63760585648255E-03 
1785	 1.06659849139515E-02 
1786	 1.16907495338863E-02 
1787	 1.36860342655066E-02 
1788	 1.18375160688633E-02 
1789	 5.82355871138835E-03 
1790	 3.89555435008228E-03 
1791	-1.71622322530037E-03 
1792	-6.04288255140303E-03 
1793	 4.17297583039762E-04 
1794	 1.87136704026505E-03 
1795	 1.39226699033736E-03 
1796	 1.43016999211254E-02 
1797	 1.56727981718807E-02 
1798	 6.01496282359291E-03 
1799	 0.016589723356559 
1800	 1.50591659740552E-02 
1801	 1.09052547504953E-02 
1802	 1.31795457346228E-02 
1803	 3.86170282633781E-03 
1804	-3.89789748099045E-02 
1805	-5.53051033565865E-02 
1806	-0.054109819737713 
1807	-3.56387918983781E-02 
1808	 6.12188897406252E-02 
1809	 0.138771724613071 
1810	 0.28390857927196 
1811	 0.285344068518252 
1812	 6.26413217020108E-02 
1813	-6.51811412694005E-02 
1814	-0.551580710007397 
1815	-0.547082523063901 
1816	 0.140852362296407 
1817	 0.592231550807181 
1818	 1.64368178550468 
1819	 1.51715548045333 
1820	 0.313355448011419 
1821	-0.82201892313199 
1822	-1.78522570544042 
1823	-0.611571861889743 
1824	 0.113659953049002 
1825	 1.10557110051695 
1826	 1.43870435165977 
1827	 17.2175205254658 
1828	 18.3967924400247 
1829	 0.337936742018488 
1830	-2.71542685493352E-02 
1831	 0.238275704655561 
1832	-6.45840902915903E-02 
1833	-1.59664892635782 
1834	-3.14866143552261 
1835	 0.2415796575582 
1836	-8.2767789598598 
1837	 5.34221749010188E-02 
1838	 7.09807307640858E-02 
1839	-0.524479944670276 
1840	-0.474826870285755 
1841	 3.40611966467054E-02 
1842	 0.921261586331972 
1843	 1.24522769685134 
1844	 0.939491399368873 
1845	 0.722372325425182 
1846	-0.582552163076678 
1847	-1.09245646358134 
1848	-1.50275016519056 
1849	-0.917047313842947 
1850	-0.286597885526571 
1851	-4.02075832493238E-02 
1852	 2.37812956831315 
1853	 0.590874317399844 
1854	 0.559153640191442 
1855	 0.410105867107284 
1856	 0.223348622891961 
1857	-0.3138412000692 
1858	-0.89832938893142 
1859	-0.718384232705965 
1860	-0.648542048402229 
1861	-0.361780426483944 
1862	-0.110344364147246 
1863	-0.654809240178569 
1864	-1.50279229711057 
1865	-1.96318003585466 
1866	-5.59912817791696 
1867	-7.68994728145472 
1868	 3.01158981869186 
1869	 20.7279565942938 
1870	-0.407440640532454 
1871	-0.630607652314181 
1872	-0.4891063957477 
1873	 1.06612722235095 
1874	-48.0392021169944 
1875	-4.44291135120795 
1876	-4.20267043061137 
1877	-29.2258065105818 
1878	 3.54849367047313 
1879	 1.67668486633289 
1880	 1.41833914954849 
1881	 1.21653725259088 
1882	 1.1097706685004 
1883	 0.237470555829214 
1884	 0.446852604542482 
1885	 0.408354665846334 
1886	-7.45412911511075E-04 
1887	 35.5459084744826 
1888	 2.27798516523885 
1889	 1.35289691434554 
1890	 0.456580123185307 
1891	 0.733441015687372 
1892	-2.69201202200896 
1893	-9.36507764737204 
1894	 2.55274737823824 
1895	 3.05276762442665 
1896	 26.1102353780519 
1897	-0.639648823436525 
1898	-6.62827212172254 
1899	 0.417614699529806 
1900	-0.715794115941263 
1901	-1.09024870185295 
1902	-2.06617293337529 
1903	 0.352391766402941 
1904	-7.57458896876968E-02 
1905	-0.31467250869964 
1906	 0.248680638767047 
1907	 1.02356736066769 
1908	 0.724741031415572 
1909	 0.222726873893565 
1910	-8.40638420887303E-02 
1911	-1.0697409169664 
1912	-3.41779957509222 
1913	-4.71019188240533 
1914	 1.18072184594509 
1915	 0.824155418728344 
1916	 2.22831458591729 
1917	-0.364975916213889 
1918	-0.777622757807355 
1919	-1.31617550623429 
1920	-30.0427548615919 
1921	 6.77378080113463 
1922	-0.825759776483828 
1923	 2.91234204023455 
1924	 3.58152993574632 
1925	 1.26454886849943 
1926	 1.19378297529407 
1927	 0.832707404846949 
1928	 9.58076580220264E-02 
1929	 1.11677173942429 
1930	 1.21989783183487 
1931	 2.66994886087375 
1932	 5.47301608615889 
1933	-10.6639105319013 
1934	-8.93932245635498E-02 
1935	-0.177613368551873 
1936	-0.238290803512516 
1937	-0.265363223449074 
1938	-0.143079509500473 
1939	-0.064245418291178 
1940	-4.68194000141717E-02 
1941	-6.90351388908478E-02 
1942	-4.92099816297513E-02 
1943	 3.08963553772592E-02 
1944	 1.73427811661627E-02 
1945	-1.65345976306383E-02 
1946	 7.34399765849929E-02 
1947	 0.141551787581361 
1948	 0.175040530913081 
1949	 0.185318764094401 
1950	 0.114325682405397 
1951	 9.04885974528923E-02 
1952	 0.068117894729029 
1953	 4.08167381926842E-02 
1954	 8.76427075630295E-03 
1955	 0.050021670457048 
1956	 5.92178146889169E-02 
1957	 0.050498270263679 
1958	 9.94791946532489E-02 
1959	 7.40329545378624E-02 
1960	 4.34296119811599E-02 
1961	 4.50926743967496E-02 
1962	 2.00099817282107E-02 
1963	 1.10436141268356E-02 
1964	 2.27518344294195E-02 
1965	 2.47569019307182E-02 
1966	 1.61015335511806E-02 
1967	 2.19551149793073E-03 
1968	-6.93638375862328E-04 
1969	-1.27512071713508E-03 
1970	-6.03839153289685E-03 
1971	 8.24456523855379E-04 
1972	 3.67424331978952E-03 
1973	-2.13475866620481E-03 
1974	-6.57983609094283E-03 
1975	-6.19989232237643E-03 
1976	-4.44630239742889E-03 
1977	-3.82394682859099E-03 
1978	-1.98333505763286E-03 
1979	-9.04780713654254E-04 
1980	-8.91011958204635E-04 
1981	-4.81640853906034E-04 
1982	-1.86937947316394E-03 
1983	-4.42272178051846E-03 
1984	-6.19959659548636E-03 
1985	-6.99405891627107E-03 
1986	-4.50190923108078E-03 
1987	-3.66347582592005E-03 
1988	-5.10945545043523E-03 
1989	-4.99109934665636E-03 
1990	-4.89909323713445E-03 
1991	-3.66447866061767E-03 
1992	 1.05678557422359E-03 
1993	 3.90446556239998E-03 
1994	 4.87325260498502E-03 
1995	 3.62335355350024E-03 
1996	 3.37642904038165E-03 
1997	 2.66342817690587E-03 
1998	 1.76290564525516E-03 
1999	-1.38900137648686E-03 
2000	-2.63906196117311E-03 
2001	-4.37506930813836E-03 
2002	-1.08204135622326E-02 
2003	-1.15320453836107E-02 
2004	-3.65415570690373E-03 
2005	 6.74090299685192E-03 
2006	 9.92116849320025E-03 
2007	 1.26039131940462E-02 
2008	 1.42444482079558E-02 
2009	 0.017271470406356 
2010	 2.41230772601334E-02 
2011	 2.59230835865194E-02 
2012	 3.00975429834113E-02 
2013	 2.01105049607691E-02 
2014	 1.27007724208835E-02 
2015	-2.79779832389127E-03 
2016	-1.17854402549518E-02 
2017	-2.71274779970882E-03 
2018	 2.47867372623778E-03 
2019	 4.44820999677254E-04 
2020	 2.85610285916763E-03 
2021	 7.73421271114258E-03 
2022	 7.19814968552549E-03 
2023	 5.84445291154647E-03 
2024	 5.52080325673958E-03 
2025	 3.5812308242252E-03 
2026	 1.93009448980982E-03 
2027	 3.26328523075686E-04 
2028	 1.50649817094097E-03 
2029	 4.73490826631407E-04 
2030	-3.60023725420462E-03 
2031	-6.89253728091405E-03 
2032	-6.96338298627505E-03 
2033	-2.97075633082692E-03 
2034	 1.84832164048235E-03 
2035	 3.40519842780024E-03 
2036	 4.77876926803199E-03 
2037	 4.79222761201355E-03 
2038	 2.74885006851075E-03 
2039	 2.51055541367724E-03 
2040	 4.54723937325249E-03 
2041	 5.63700675325057E-03 
2042	 6.85922303979512E-03 
2043	 7.2475695903048E-03 
2044	 7.53502477254736E-03 
2045	 8.21197434547247E-03 
2046	 6.99442005775136E-03 
2047	 5.92368220728768E-03 
2048	 6.13254846692511E-03 
2049	 1.97058630522536E-03 
2050	-1.87533892461804E-03 
2051	-2.47125569061009E-03 
2052	-1.88474542682847E-03 
2053	 3.43890233437376E-03 
2054	 8.86099715322107E-03 
2055	 9.76344973235636E-03 
2056	 1.12381392075392E-02 
2057	 9.95706697206131E-03 
2058	 1.02073880363991E-02 
2059	 1.27134545726949E-02 
2060	 1.30583852921622E-02 
2061	 1.19020036453289E-02 
2062	 1.06213124055657E-02 
2063	 1.16931235354738E-02 
2064	 1.10497746295565E-02 
2065	 9.95926587375024E-03 
2066	 1.07804538358767E-02 
2067	 1.09904411164479E-02 
2068	 8.81420692214368E-03 
2069	 7.63021878103493E-03 
2070	 7.81868790116761E-03 
2071	 7.33824452356373E-03 
2072	 6.58223753048191E-03 
2073	 6.45594201876419E-03 
2074	 8.56968864175758E-03 
2075	 8.42553348215505E-03 
2076	 6.40960648146224E-03 
2077	 5.63583234299282E-03 
2078	 4.28561492788202E-03 
2079	 3.70854349099564E-03 
2080	 3.11038116039232E-03 
2081	 5.17513074808173E-03 
2082	 0.006822194127707 
2083	 4.72257111371363E-03 
2084	 3.93436114792482E-03 
2085	 3.60838742378316E-03 
2086	 1.3281224375074E-03 
2087	 1.94133535558039E-03 
2088	 2.52536190010019E-03 
2089	 1.96161868062348E-03 
2090	 2.64391781939826E-03 
2091	 3.33055400440785E-03 
2092	 4.23123357379707E-03 
2093	 5.58926317853795E-03 
2094	 6.44606585362902E-03 
2095	 7.81903661825225E-03 
2096	 7.65887809619439E-03 
2097	 6.17113006903499E-03 
2098	 5.32441410806528E-03 
2099	 3.21883694576447E-03 
2100	 2.93321065299914E-03 
2101	 3.45025062217488E-03 
2102	 3.6716970761076E-03 
2103	 5.57326769874095E-03 
2104	 6.56892199342013E-03 
2105	 6.36121464706121E-03 
2106	 5.46282693123382E-03 
2107	 2.66977621902107E-03 
2108	 5.49417975514944E-04 
2109	 1.05936345684798E-04 
2110	 1.37487737420451E-03 
2111	 4.24405978270003E-03 
2112	 4.70208795895427E-03 
2113	 5.35100285674937E-03 
2114	 6.29564860178653E-03 
2115	 6.53787157084331E-03 
2116	 5.18410127000921E-03 
2117	 5.62724475587657E-03 
2118	 6.83120102402123E-03 
2119	 6.77382670906016E-03 
2120	 7.08103128763779E-03 
2121	 6.80701346718769E-03 
2122	 4.86558870238464E-03 
2123	 3.16401841895129E-03 
2124	 1.77453288901953E-03 
2125	 2.33074030943356E-03 
2126	 4.02647993857158E-03 
2127	 3.21649866980953E-03 
2128	 2.33891244010742E-03 
2129	 3.17925731140256E-03 
2130	 5.02551310591854E-03 
2131	 8.6546237130087E-03 
2132	 1.05969829636956E-02 
2133	 9.57404207968787E-03 
2134	 1.01921099341572E-02 
2135	 1.02799343947458E-02 
2136	 9.66556561717313E-03 
2137	 1.03993199090305E-02 
2138	 8.91041721466742E-03 
2139	 2.99358159898136E-03 
2140	 1.15362877500706E-03 
2141	 9.14459452717272E-04 
2142	 3.63290843591008E-04 
2143	 8.99454000714669E-04 
2144	 2.96385030074349E-03 
2145	 2.96832335774526E-03 
2146	 5.35615546368668E-03 
2147	 9.33794372038407E-03 
2148	 9.5715628984386E-03 
2149	 1.06871971144062E-02 
2150	 1.12699210099792E-02 
2151	 1.21660788418641E-02 
2152	 1.44848168785406E-02 
2153	 1.25921977859954E-02 
2154	 1.05177034342048E-02 
2155	 8.20370440269919E-03 
2156	 3.75682500747928E-03 
2157	 3.41472752237798E-03 
2158	 7.56370252509945E-03 
2159	 8.28892547704112E-03 
2160	 8.87599767888038E-03 
2161	 9.89103610223368E-03 
2162	 1.00848317168408E-02 
2163	 8.76524582864239E-03 
2164	 6.58011400481163E-03 
2165	 6.91912935902207E-03 
2166	 7.38679450004312E-03 
2167	 6.89868963157749E-03 
2168	 9.14619148738367E-03 
2169	 9.89677052609706E-03 
2170	 8.11074330279334E-03 
2171	 5.73014769093086E-03 
2172	 6.85481029177237E-03 
2173	 8.11375988703721E-03 
2174	 1.10161495235491E-02 
2175	 1.31151443684811E-02 
2176	 1.33308281062067E-02 
2177	 1.32256404735114E-02 
2178	 1.18617941404786E-02 
2179	 1.24789477999636E-02 
2180	 1.52806378463088E-02 
2181	 1.66408165158304E-02 
2182	 1.44936133019697E-02 
2183	 1.19181606177269E-02 
2184	 1.22332490716282E-02 
2185	 1.23947879699409E-02 
2186	 0.012455098296235 
2187	 1.58249680446712E-02 
2188	 1.60094599107438E-02 
2189	 1.29877352838069E-02 
2190	 1.20481883639734E-02 
2191	 1.18520411671182E-02 
2192	 1.17411878973374E-02 
2193	 1.17460591017772E-02 
2194	 1.11613590644317E-02 
2195	 1.10522776902512E-02 
2196	 9.73495975162334E-03 
2197	 5.90863761140129E-03 
2198	 4.72493071896656E-03 
2199	 3.32352777068675E-03 
2200	 5.2558384785399E-03 
2201	 8.59706164717323E-03 
2202	 1.08102185326823E-02 
2203	 1.09152171215119E-02 
2204	 8.95182829689879E-03 
2205	 8.36188199514613E-03 
2206	 7.57093088645995E-03 
2207	 6.08893638574563E-03 
2208	 6.43340075673796E-03 
2209	 8.83658621106103E-03 
2210	 1.06818323381286E-02 
2211	 1.04494064041583E-02 
2212	 1.16826722370603E-02 
2213	 7.7248731141933E-03 
2214	 1.75355854059638E-03 
2215	 4.33800121618008E-03 
2216	 6.97580193509743E-03 
2217	 8.69596284105031E-03 
2218	 1.35340216191265E-02 
2219	 1.51657708135064E-02 
2220	 1.29515929224906E-02 
2221	 1.38192564920445E-02 
2222	 1.58044179895169E-02 
2223	 1.75609540437206E-02 
2224	 2.21135702058637E-02 
2225	 2.13959835049822E-02 
2226	 1.66362975426533E-02 
2227	 1.36332547885155E-02 
2228	 7.74409624030135E-03 
2229	 5.32906789301551E-03 
2230	 0.005289818492069 
2231	 5.88464863753355E-03 
2232	 8.57468871948364E-03 
2233	 9.60106508879015E-03 
2234	 1.10945010925512E-02 
2235	 1.19197758753636E-02 
2236	 1.24255439216696E-02 
2237	 8.49944745011825E-03 
2238	 3.11368892928645E-03 
2239	 1.02781761034392E-03 
2240	 1.1398541880914E-03 
2241	 4.47307288955162E-03 
2242	 3.58224581234458E-03 
2243	 2.90862116387933E-03 
2244	 6.83418230226622E-03 
2245	 4.42866753668347E-03 
2246	 3.39223249579762E-03 
2247	 6.64246114280983E-03 
2248	 2.45375862116207E-03 
2249	 4.11796544852519E-05 
2250	 2.83158371617944E-03 
2251	 3.1353100285282E-03 
2252	 8.11524809719904E-03 
2253	 1.20130092143904E-02 
2254	 8.48224922988016E-03 
2255	 6.92885197263694E-03 
2256	 6.0202254452278E-03 
2257	-6.14894791700908E-04 
2258	-0.003646658413163 
2259	 5.52829761777972E-03 
2260	 7.82989307600303E-03 
2261	 5.27772298030609E-03 
2262	 0.006614037823569 
2263	 1.07548948422104E-02 
2264	 8.54735632516534E-03 
2265	 6.63887328864821E-03 
2266	 5.37953419384831E-03 
2267	-2.36400943187307E-03 
2268	-5.4288294824231E-03 
2269	-5.59422541711988E-03 
2270	-4.43223861312558E-03 
2271	 5.51239206060051E-04 
2272	 1.79388430869413E-03 
2273	-2.68421388949199E-04 
2274	 1.90845818050484E-03 
2275	 7.07515632317399E-03 
2276	 8.43201481146967E-03 
2277	 0.011222056540319 
2278	 1.34468556769499E-02 
2279	 1.27594144187412E-02 
2280	 9.31699072524683E-03 
2281	 3.06935598788585E-03 
2282	 4.26282539902788E-03 
2283	 1.86242370075992E-03 
2284	-6.44051452131718E-03 
2285	-3.04353275917868E-03 
2286	 2.11529839177253E-03 
2287	-1.31764583606503E-03 
2288	-2.87759499593651E-05 
2289	 4.20807511770205E-03 
2290	 7.25920582912985E-03 
2291	 1.23978621533854E-02 
2292	 1.28280745991645E-02 
2293	 7.12287723326768E-03 
2294	 1.78275726663955E-03 
2295	 1.28810905982112E-03 
2296	 5.2673666232585E-03 
2297	 7.45027666074634E-03 
2298	 2.7470316063391E-03 
2299	-2.80723301235783E-03 
2300	-5.60672248817165E-03 
2301	-4.80675339846576E-03 
2302	-1.22224711088578E-03 
2303	-3.58581973734399E-03 
2304	-5.47669392302347E-03 
2305	 9.50938170007621E-04 
2306	 9.21910243049169E-03 
2307	 1.34619922228175E-02 
2308	 1.85185778394778E-02 
2309	 1.98130696081553E-02 
2310	 2.09268744900399E-02 
2311	 2.92655744967391E-02 
2312	 2.08817058895034E-02 
2313	 1.27449375440092E-02 
2314	 9.13668408906616E-03 
2315	-7.81760010921045E-03 
2316	-6.67513135508721E-03 
2317	-7.47253630025583E-05 
2318	-1.13643979269303E-02 
2319	-1.24808986289897E-02 
2320	-0.012024595273931 
2321	-0.015861208405062 
2322	-4.97849502778819E-03 
2323	 4.88356442224316E-03 
2324	 1.90203919621044E-02 
2325	 2.70454179287856E-02 
2326	 1.77924728479157E-02 
2327	 1.47568661277243E-02 
2328	 2.34376515390964E-03 
2329	-5.3085566275428E-03 
2330	 2.13298204853121E-03 
2331	 1.30236464317809E-03 
2332	 5.53234440851621E-03 
2333	 1.54902487416402E-03 
2334	-9.34073348364242E-04 
2335	 1.03029144465333E-02 
2336	 4.56066667736267E-03 
2337	-8.17530357034835E-03 
2338	-3.18093223360433E-02 
2339	-5.80564300098011E-02 
2340	-6.22316564534813E-02 
2341	-4.87440234280984E-02 
2342	-3.77998684442566E-02 
2343	-5.58809813708449E-02 
2344	-7.02281758471168E-02 
2345	-0.069916445638104 
2346	-6.44619297397986E-02 
2347	-4.32984095875701E-02 
2348	-2.65684123220456E-02 
2349	-1.28607888873228E-02 
2350	 3.65631099688556E-03 
2351	 1.30352381089696E-02 
2352	 3.32961338536589E-02 
2353	 4.82207055329062E-02 
2354	 3.82499980216544E-02 
2355	 0.025006904632898 
2356	 6.11203263192859E-03 
2357	-4.23996698875171E-02 
2358	-7.97135099843334E-02 
2359	-8.17835870009605E-02 
2360	-8.06818432198609E-02 
2361	-5.81039183032001E-02 
2362	-3.32975766209972E-02 
2363	-3.96765575624954E-02 
2364	-4.12802182320626E-02 
2365	-4.70745923769119E-02 
2366	-5.76466930465049E-02 
2367	-0.040838527779993 
2368	-2.02530787796241E-02 
2369	-1.98039300786209E-02 
2370	 1.07347133542709E-03 
2371	 5.31806339537807E-02 
2372	 4.73626541155401E-02 
2373	 7.84065344055795E-03 
2374	 6.00980322355529E-03 
2375	 2.14210813877703E-03 
2376	-6.79483185442498E-03 
2377	-1.7217737604839E-03 
2378	-9.3177900979643E-03 
2379	-3.54852512007979E-02 
2380	-5.86408978901068E-02 
2381	-6.85499635236744E-02 
2382	-6.49020962059588E-02 
2383	-9.03393572774743E-02 
2384	-0.121679869416259 
2385	-8.46910633745362E-02 
2386	-4.42522895696149E-02 
2387	 1.11546105399178E-02 
2388	 9.40349638634899E-02 
2389	 0.135215974051986 
2390	 0.117821067691044 
2391	 7.83930166135479E-02 
2392	-0.006570343676319 
2393	-0.132566748315341 
2394	-0.179830153903642 
2395	-0.190878978310326 
2396	-0.178405370640157 
2397	-0.109933390837214 
2398	-6.50386794614668E-02 
2399	-1.15287703773859E-02 
2400	 2.26940080240686E-02 
2401	-3.67942880951781E-02 
2402	-9.23696130613165E-02 
2403	-0.17799877548225 
2404	-0.229092896783275 
2405	-0.132416615177003 
2406	-6.53744528558643E-02 
2407	-0.100910788683871 
2408	-0.144011663377466 
2409	-0.258333249499591 
2410	-0.496088856954779 
2411	-0.439259117303202 
2412	-0.35434268686357 
2413	-0.409772518441047 
2414	-0.301664945034512 
2415	-0.137701870967381 
2416	-8.82021254379354E-02 
2417	-6.20492934315854E-02 
2418	-0.103422452168151 
2419	-0.329366127837326 
2420	-0.542496603190255 
2421	-0.634253084854236 
2422	-0.325226532664951 
2423	 1.45726493286134E-02 
2424	-6.96444015604161E-02 
2425	-0.058883956121473 
2426	-4.16008680030659E-02 
2427	-0.189597620074846 
2428	-0.152653937757304 
2429	-0.017460124879832 
2430	-2.57275772718478E-02 
2431	 2.57194701162326E-02 
2432	 0.11402366130893 
2433	 0.128482464813559 
2434	 7.31780426508845E-02 
2435	 4.56945879705533E-03 
2436	-0.156849116276979 
2437	-0.333597532194943 
2438	-0.597731192711929 
2439	-0.718837066041995 
2440	-0.649547067746002 
2441	-0.637941228210532 
2442	-0.490460511180133 
2443	-7.98411855167794E-02 
2444	 0.729758142487766 
2445	 2.19183666085795 
2446	 1.41543610267859 
2447	 0.796328995258038 
2448	 1.15353500666331 
2449	 1.08021127230682 
2450	 0.789861861121583 
2451	 0.403295687422494 
2452	-0.470163305043376 
2453	-1.50723226575106 
2454	-0.650114858926021 
2455	-0.647758316032804 
2456	-0.588289425001779 
2457	-4.51506800386525E-02 
2458	-2.30957911107167E-02 
2459	-0.312165503246874 
2460	-0.507703320826885 
2461	-1.30029259107281 
2462	 0.304127797641346 
2463	-3.83631014413057 
2464	 1.90876202417897 
2465	 2.64204825995958 
2466	 2.18656975316107 
2467	 0.732044798244394 
2468	 1.29325356383056 
2469	 1.96361261920992 
2470	 0.720474189054483 
2471	 0.451136962645828 
2472	 0.821839475097194 
2473	 0.675297267882527 
2474	 0.684485115006071 
2475	 2.20798130981382 
2476	 2.83649131913584 
2477	 0.767949192657856 
2478	 0.231519686936158 
2479	-1.67878830059479 
2480	-8.39966697946529 
2481	 1.45554654273664 
2482	 1.31696166299816 
2483	 0.428612481436754 
2484	 0.111913204809927 
2485	 0.444195836443013 
2486	 0.321468843760354 
2487	 0.226471388766647 
2488	 0.455810962797634 
2489	 0.408109017401575 
2490	 0.37097096060055 
2491	 8.37648512214927E-02 
2492	-0.111059786891855 
2493	-5.94417911635157E-02 
2494	 0.25787378779938 
2495	 0.683996846658731 
2496	-0.206474603643356 
2497	-0.930727366892988 
2498	-4.56533155265896 
2499	-0.708739559572977 
2500	-0.225562652143103 
