Wavelength	rt0622far00004.asd
350	 4.27751344423676E-02 
351	 0.043343640762074 
352	 4.27856234825379E-02 
353	 4.22600962387485E-02 
354	 4.26204020547175E-02 
355	 4.31468326983206E-02 
356	 4.37150883208192E-02 
357	 4.38598363443901E-02 
358	 4.33801145652692E-02 
359	 0.043376219120047 
360	 4.35179024368276E-02 
361	 0.043760667289362 
362	 4.42093395864554E-02 
363	 4.40399542111978E-02 
364	 4.40408914549052E-02 
365	 4.45108373767773E-02 
366	 4.47137182807096E-02 
367	 4.50681390199444E-02 
368	 4.52242183709079E-02 
369	 4.49949961075096E-02 
370	 4.54338438162321E-02 
371	 4.59267358556551E-02 
372	 4.61438824214711E-02 
373	 4.59779007131172E-02 
374	 4.55042238244914E-02 
375	 4.54472606342841E-02 
376	 4.58620152839426E-02 
377	 4.58309964067363E-02 
378	 4.61735898124917E-02 
379	 4.65274451526245E-02 
380	 4.66106990686322E-02 
381	 4.73306430764165E-02 
382	 4.74333693305778E-02 
383	 4.74010747803219E-02 
384	 4.82326960247525E-02 
385	 4.81100157193558E-02 
386	 0.047956967484035 
387	 4.82376560103613E-02 
388	 4.86277748721126E-02 
389	 4.87565256600197E-02 
390	 4.89246792995143E-02 
391	 4.93425598005142E-02 
392	 4.96836765740258E-02 
393	 4.98371487422943E-02 
394	 4.97692296104881E-02 
395	 4.95679283718883E-02 
396	 4.95925133156061E-02 
397	 0.049992272004934 
398	 5.05839653445384E-02 
399	 5.09492280734102E-02 
400	 5.11094145440611E-02 
401	 0.051152135429097 
402	 5.11554430160652E-02 
403	 5.10874128186084E-02 
404	 5.15191626593967E-02 
405	 5.18259637010282E-02 
406	 5.13423535667596E-02 
407	 0.051960577813464 
408	 5.22945064815941E-02 
409	 5.20588607712305E-02 
410	 5.22193329592619E-02 
411	 5.27462043392129E-02 
412	 5.29798953986129E-02 
413	 5.27366458273153E-02 
414	 5.32699926673848E-02 
415	 0.053603140201383 
416	 5.36973811216958E-02 
417	 5.38946873415032E-02 
418	 5.43563275956821E-02 
419	 5.46924897287492E-02 
420	 5.48285917044882E-02 
421	 5.50641507759197E-02 
422	 5.52609238042098E-02 
423	 5.55686392073789E-02 
424	 0.056030510049821 
425	 5.62456856301258E-02 
426	 5.64780526340398E-02 
427	 5.68023877599959E-02 
428	 5.71843754648104E-02 
429	 0.057519100990444 
430	 5.79252828619519E-02 
431	 5.83644089961055E-02 
432	 5.85987449117265E-02 
433	 5.89114141685747E-02 
434	 5.93714817561746E-02 
435	 5.99161348735225E-02 
436	 6.02542322426997E-02 
437	 6.06242993768033E-02 
438	 6.10342007054647E-02 
439	 6.13744975772911E-02 
440	 6.17196427032104E-02 
441	 6.21293441861705E-02 
442	 6.25890721255217E-02 
443	 6.29832813807262E-02 
444	 6.33005196847132E-02 
445	 6.36749169471651E-02 
446	 0.064181262782103 
447	 6.45098216022823E-02 
448	 6.48366864727115E-02 
449	 6.51528762173172E-02 
450	 6.53350392087205E-02 
451	 6.57123006278046E-02 
452	 6.59789371810447E-02 
453	 6.60396725507706E-02 
454	 6.64221095263045E-02 
455	 6.67469646747256E-02 
456	 6.69315087626247E-02 
457	 6.70463873216555E-02 
458	 6.73933974283027E-02 
459	 6.75710405909327E-02 
460	 6.75865990796034E-02 
461	 6.78698894146043E-02 
462	 6.80226551447297E-02 
463	 6.81774191881328E-02 
464	 0.068465258452919 
465	 6.87396706162552E-02 
466	 0.068884246562164 
467	 6.90267848040697E-02 
468	 6.93604889676545E-02 
469	 6.95201182710686E-02 
470	 6.97105816500299E-02 
471	 6.99846903209656E-02 
472	 7.01222202674742E-02 
473	 7.03980177994311E-02 
474	 7.07583399400836E-02 
475	 7.10755454692757E-02 
476	 7.12835205763343E-02 
477	 7.15220483591072E-02 
478	 7.18028952153624E-02 
479	 7.20594630296378E-02 
480	 0.072425488124133 
481	 0.072780824043354 
482	 0.073074535362505 
483	 0.073471268368891 
484	 7.37384560733423E-02 
485	 7.39778837635552E-02 
486	 7.43700925216101E-02 
487	 7.47719807307269E-02 
488	 7.52956131793309E-02 
489	 7.58422106670967E-02 
490	 7.61283869522093E-02 
491	 0.076533094868679 
492	 7.70561143364765E-02 
493	 7.75728518733236E-02 
494	 7.78093175812551E-02 
495	 7.82967616123005E-02 
496	 0.078891840664303 
497	 7.91925176871029E-02 
498	 7.97877407012891E-02 
499	 8.04854291756371E-02 
500	 8.10899260967357E-02 
501	 8.15219598526825E-02 
502	 8.21624359276022E-02 
503	 8.28286183631003E-02 
504	 8.32948908971936E-02 
505	 8.38735015883069E-02 
506	 8.44406053948622E-02 
507	 8.49752572142861E-02 
508	 8.55410409315938E-02 
509	 8.60917494961866E-02 
510	 8.66204012534194E-02 
511	 8.71653677817087E-02 
512	 8.78866440295841E-02 
513	 8.84543500492485E-02 
514	 8.90110384499697E-02 
515	 8.98302756760894E-02 
516	 9.05192337669698E-02 
517	 9.12451933823589E-02 
518	 9.20601018161076E-02 
519	 0.092819050835644 
520	 9.35040644320154E-02 
521	 9.42769859905296E-02 
522	 9.52025808511089E-02 
523	 9.58278145301415E-02 
524	 9.65827972309122E-02 
525	 9.74693142365217E-02 
526	 9.82041731827936E-02 
527	 9.89938583410471E-02 
528	 9.98657305645831E-02 
529	 0.100763582132997 
530	 0.101508456223733 
531	 0.102359307884131 
532	 0.103244273115577 
533	 0.104030608444008 
534	 0.105054519939223 
535	 0.105940860193649 
536	 0.106626685960565 
537	 0.107438662020274 
538	 0.108391635533125 
539	 0.109373399731175 
540	 0.110271748809329 
541	 0.111094552623807 
542	 0.112056905013681 
543	 0.113052617615385 
544	 0.113816774143246 
545	 0.114652334999976 
546	 0.115619193025884 
547	 0.116625152616563 
548	 0.117348504276625 
549	 0.118105094356496 
550	 0.11894996960207 
551	 0.119843070130116 
552	 0.12076070964183 
553	 0.121639573994387 
554	 0.122457735263194 
555	 0.123238554860196 
556	 0.124204332856084 
557	 0.125187538469426 
558	 0.12598617847302 
559	 0.126632824189923 
560	 0.127469580663113 
561	 0.128354928652595 
562	 0.128906877190899 
563	 0.12965181710637 
564	 0.130403187057093 
565	 0.131013860637183 
566	 0.131595433739841 
567	 0.132143694009843 
568	 0.132694983401166 
569	 0.133276527806206 
570	 0.133827560092773 
571	 0.134246930008355 
572	 0.134565836401583 
573	 0.134949969341443 
574	 0.135220885822577 
575	 0.135495530196003 
576	 0.135832799716894 
577	 0.135889026160393 
578	 0.135939002110044 
579	 0.136046872527506 
580	 0.1361298460265 
581	 0.136071287542617 
582	 0.135912534180474 
583	 0.135692453858476 
584	 0.135394767901736 
585	 0.135176096582333 
586	 0.134964930073274 
587	 0.134615669289914 
588	 0.134152694433741 
589	 0.133678748676625 
590	 0.133245372634547 
591	 0.132794959658335 
592	 0.132275223606448 
593	 0.131581701312907 
594	 0.130666889572417 
595	 0.129620992595992 
596	 0.128482067619026 
597	 0.127255688174329 
598	 0.125946852727105 
599	 0.124684866132829 
600	 0.123462668457047 
601	 0.122408436562822 
602	 0.121931471650292 
603	 0.121459576599724 
604	 0.12105866214074 
605	 0.12093502802792 
606	 0.120854394577599 
607	 0.120836445431331 
608	 0.120860295179848 
609	 0.120851488464637 
610	 0.120718626139659 
611	 0.120654841975014 
612	 0.120743313977643 
613	 0.120538140313462 
614	 0.120538654651424 
615	 0.120625284954714 
616	 0.12040617715136 
617	 0.120454057751571 
618	 0.120506622309405 
619	 0.120383674388158 
620	 0.120166093036697 
621	 0.120152417658392 
622	 0.120256097323681 
623	 0.120262092498886 
624	 0.120059390359206 
625	 0.119925004149994 
626	 0.119946543471422 
627	 0.119999416043689 
628	 0.119763000825384 
629	 0.119553962180792 
630	 0.119615411790474 
631	 0.119694922315037 
632	 0.119629169727452 
633	 0.119466655128071 
634	 0.1193514268302 
635	 0.119186109690405 
636	 0.119121539824791 
637	 0.119090848436131 
638	 0.118679272547768 
639	 0.11858485621343 
640	 0.118697910011592 
641	 0.118672487627566 
642	 0.118241643087017 
643	 0.118118629238369 
644	 0.118251637498206 
645	 0.117980803677261 
646	 0.117871707350991 
647	 0.117683944681165 
648	 0.117282044908928 
649	 0.117099113082003 
650	 0.116860997200579 
651	 0.116503870561697 
652	 0.116054147557888 
653	 0.115509745054572 
654	 0.114863028425397 
655	 0.114031961394186 
656	 0.1129695311948 
657	 0.112224615434501 
658	 0.111606406400128 
659	 0.110899539930253 
660	 0.110366521184813 
661	 0.109933164472983 
662	 0.109573876400927 
663	 0.109292430492642 
664	 0.109017082251245 
665	 0.10878897890348 
666	 0.108610366897821 
667	 0.108391990314757 
668	 0.108194304181516 
669	 0.108072598870043 
670	 0.108022944845363 
671	 0.107766087922444 
672	 0.107474230390161 
673	 0.1073201702358 
674	 0.107426000882472 
675	 0.107342123501659 
676	 0.107172662034504 
677	 0.107109450252444 
678	 0.107295750558785 
679	 0.107459044741115 
680	 0.107517425723521 
681	 0.107499841792298 
682	 0.107504094800879 
683	 0.107489517902261 
684	 0.107519139935288 
685	 0.107834164886567 
686	 0.107964578576569 
687	 0.107799182226385 
688	 0.107471839060802 
689	 0.107215749520376 
690	 0.106836441132936 
691	 0.106329562779389 
692	 0.105808879312712 
693	 0.105506573776032 
694	 0.104690448681852 
695	 0.103345013243184 
696	 0.102580850465192 
697	 0.101706533909756 
698	 0.100660552348605 
699	 9.96033103426198E-02 
700	 9.84703413669253E-02 
701	 9.72655376373863E-02 
702	 9.59974442774095E-02 
703	 0.094620277426649 
704	 0.093047360346606 
705	 0.091545343670168 
706	 9.02013469263879E-02 
707	 8.84506742895777E-02 
708	 8.68474319758891E-02 
709	 0.085091283838088 
710	 8.28008279130162E-02 
711	 8.09378717491635E-02 
712	 7.89909585146474E-02 
713	 7.68053388014107E-02 
714	 7.46468748312562E-02 
715	 7.29764148410242E-02 
716	 0.071324111989208 
717	 6.92195660015043E-02 
718	 6.68887559608797E-02 
719	 6.41130043696822E-02 
720	 6.17024961962326E-02 
721	 5.98661867491826E-02 
722	 0.05811908351728 
723	 5.62159331524243E-02 
724	 5.43118497940702E-02 
725	 5.23737590782172E-02 
726	 5.03977417406672E-02 
727	 4.84032561805469E-02 
728	 0.046364412975202 
729	 4.40018114705449E-02 
730	 4.17631176200267E-02 
731	 3.98019645436007E-02 
732	 3.79903161810306E-02 
733	 3.66276390736136E-02 
734	 3.56626497602605E-02 
735	 3.49674830241728E-02 
736	 3.42843718741639E-02 
737	 3.37768458904864E-02 
738	 3.34044905575164E-02 
739	 3.30691544827841E-02 
740	 0.032591619117318 
741	 3.22277948950884E-02 
742	 3.20666106402582E-02 
743	 3.20671827147192E-02 
744	 3.20342460428729E-02 
745	 0.03194357666026 
746	 0.031810582947555 
747	 3.16727996822261E-02 
748	 3.16817467502152E-02 
749	 3.17427710875037E-02 
750	 3.17297310920115E-02 
751	 3.16535294911052E-02 
752	 3.15257833244717E-02 
753	 3.13812598147776E-02 
754	 3.12902148008193E-02 
755	 0.031477291002426 
756	 3.18125676303219E-02 
757	 3.21271760222524E-02 
758	 3.22326080702855E-02 
759	 0.032725562132397 
760	 3.35961801953265E-02 
761	 0.03385487195756 
762	 3.39891265610341E-02 
763	 3.35488412733048E-02 
764	 0.032954766831447 
765	 3.26430426210504E-02 
766	 3.21687814320571E-02 
767	 3.18305080039758E-02 
768	 3.17434294890849E-02 
769	 3.18717433101223E-02 
770	 0.031869605650202 
771	 3.17757400891143E-02 
772	 3.17366002568592E-02 
773	 3.19522826126691E-02 
774	 3.22177761962443E-02 
775	 3.24102751517474E-02 
776	 3.24730374401049E-02 
777	 3.24615072986877E-02 
778	 0.03258421742289 
779	 3.28845788281243E-02 
780	 3.32151332922311E-02 
781	 3.33007936844325E-02 
782	 3.33678985681399E-02 
783	 0.033609482929033 
784	 3.39276065402903E-02 
785	 3.42224776318033E-02 
786	 3.45357807955659E-02 
787	 3.49200205233382E-02 
788	 3.51764651945925E-02 
789	 3.54635058153516E-02 
790	 3.57461176957006E-02 
791	 3.58499152755459E-02 
792	 3.59012695682412E-02 
793	 3.61878320830681E-02 
794	 0.036755074890736 
795	 3.72300054067192E-02 
796	 3.73546491638197E-02 
797	 3.73557189496339E-02 
798	 3.75716509644723E-02 
799	 3.81731741340182E-02 
800	 3.86246697854171E-02 
801	 3.87820864035655E-02 
802	 3.87886467140809E-02 
803	 3.87974653526926E-02 
804	 0.038998260280479 
805	 3.92350011242481E-02 
806	 3.90322510729354E-02 
807	 3.91117776149899E-02 
808	 3.93098678610277E-02 
809	 3.93992141694619E-02 
810	 3.94587468777226E-02 
811	 3.97460845607298E-02 
812	 3.99070703341661E-02 
813	 3.94893156002361E-02 
814	 0.039448423500075 
815	 3.95837536520197E-02 
816	 3.94480179337639E-02 
817	 3.86579047933414E-02 
818	 3.80576432127978E-02 
819	 3.74505706924453E-02 
820	 3.69021891770785E-02 
821	 3.70165271242174E-02 
822	 3.63378336753466E-02 
823	 3.50554160662593E-02 
824	 3.38575147387384E-02 
825	 3.31171409585289E-02 
826	 3.23908596445185E-02 
827	 3.17116036619772E-02 
828	 3.11980274668811E-02 
829	 3.01227714379106E-02 
830	 2.94357220965156E-02 
831	 2.91533415613089E-02 
832	 2.86020573001817E-02 
833	 2.78133256360411E-02 
834	 2.74467022294252E-02 
835	 2.75841311652989E-02 
836	 0.027523583061513 
837	 2.72959484448072E-02 
838	 2.71735855733385E-02 
839	 2.72308202264238E-02 
840	 2.68714932992142E-02 
841	 2.65321884504809E-02 
842	 2.63670550268271E-02 
843	 2.63616608508721E-02 
844	 0.026262128360902 
845	 0.026054766027968 
846	 2.59273777928597E-02 
847	 2.61352485481063E-02 
848	 2.63606524775188E-02 
849	 0.026097024250316 
850	 2.55441799404864E-02 
851	 2.57408836588399E-02 
852	 2.59652060909586E-02 
853	 2.58681296059301E-02 
854	 0.025452180498999 
855	 2.52353994131118E-02 
856	 2.56203232844837E-02 
857	 2.59050829342292E-02 
858	 2.54588643942396E-02 
859	 2.49541151364826E-02 
860	 2.50886076381779E-02 
861	 2.54880426023334E-02 
862	 2.53699078698581E-02 
863	 2.52569620791943E-02 
864	 2.52703816675459E-02 
865	 2.52876446506746E-02 
866	 2.50369200093342E-02 
867	 2.48845926913743E-02 
868	 2.48706604394863E-02 
869	 2.49629127870451E-02 
870	 2.50987204084239E-02 
871	 2.48890127144536E-02 
872	 2.48245590721641E-02 
873	 2.50792256977562E-02 
874	 2.46605735752445E-02 
875	 2.47855216254445E-02 
876	 2.48563335316321E-02 
877	 2.42546494371595E-02 
878	 2.43997949829922E-02 
879	 2.45992510080585E-02 
880	 2.46372321573114E-02 
881	 2.45255298565321E-02 
882	 2.40565695125517E-02 
883	 2.40366021589302E-02 
884	 2.47224155326652E-02 
885	 2.56494434728593E-02 
886	 2.46531958486886E-02 
887	 2.37898069604723E-02 
888	 2.38791522817357E-02 
889	 2.38340070508554E-02 
890	 2.48219170462463E-02 
891	 0.025423070177402 
892	 2.49117238949199E-02 
893	 2.47782839865651E-02 
894	 2.51830675454991E-02 
895	 2.56513279589597E-02 
896	 2.57052170102094E-02 
897	 2.57672363444009E-02 
898	 2.62999702826776E-02 
899	 2.68916164155712E-02 
900	 2.68097696210469E-02 
901	 2.54129749832964E-02 
902	 2.51842411928824E-02 
903	 2.52905841565726E-02 
904	 2.44391274650868E-02 
905	 2.60519683331297E-02 
906	 0.025639784601005 
907	 2.43292655774099E-02 
908	 2.65801129784684E-02 
909	 2.59547295782293E-02 
910	 2.57370369069605E-02 
911	 0.026102576205513 
912	 2.42537729820872E-02 
913	 2.51014982808904E-02 
914	 2.62831378823832E-02 
915	 2.63982502712724E-02 
916	 2.63090132568409E-02 
917	 2.53950896259907E-02 
918	 2.49789623463773E-02 
919	 2.52196527239364E-02 
920	 2.45933174383742E-02 
921	 2.49617969118646E-02 
922	 2.52603854957652E-02 
923	 2.47944956511451E-02 
924	 2.48071401083503E-02 
925	 2.65265388818686E-02 
926	 2.74565506493896E-02 
927	 2.55694315839532E-02 
928	 0.025973412520384 
929	 2.61151352400946E-02 
930	 2.82533643424625E-02 
931	 3.46135580655302E-02 
932	 2.76461398693867E-02 
933	 2.14516515176074E-02 
934	 2.50009933440085E-02 
935	 3.42841533835692E-02 
936	 3.11724969688335E-02 
937	 0.029614227184989 
938	 2.93518068055197E-02 
939	 2.67821865804711E-02 
940	 0.025228679964558 
941	 2.87349680294718E-02 
942	 3.35364282185896E-02 
943	 0.032459058056049 
944	 2.82739690583428E-02 
945	 2.18787942245332E-02 
946	 1.83718288050149E-02 
947	 2.27123018288422E-02 
948	 2.99706467039499E-02 
949	 3.53651328711221E-02 
950	 3.56822687204277E-02 
951	 3.05906165023318E-02 
952	 0.027251514584404 
953	 2.35950194011531E-02 
954	 2.18219990445224E-02 
955	 2.59201381784665E-02 
956	 2.99883958830631E-02 
957	 2.93196459269779E-02 
958	 0.027747080177173 
959	 3.21931605742148E-02 
960	 3.26184979348457E-02 
961	 0.028492218711848 
962	 2.40732184918055E-02 
963	 2.47179095427749E-02 
964	 2.50776885893417E-02 
965	 2.55738976055354E-02 
966	 2.52886903482346E-02 
967	 2.30559490890221E-02 
968	 2.54953020919242E-02 
969	 2.66588624363202E-02 
970	 2.51604751211732E-02 
971	 2.45286221766471E-02 
972	 2.74856490796256E-02 
973	 2.90851851388354E-02 
974	 2.79733287520853E-02 
975	 2.69808375243952E-02 
976	 2.43554057072816E-02 
977	 2.32454980507286E-02 
978	 2.37981797840642E-02 
979	 2.35593295009461E-02 
980	 2.52225688180977E-02 
981	 2.48300423339666E-02 
982	 2.35533032531692E-02 
983	 2.55984149935514E-02 
984	 2.27630589873247E-02 
985	 2.12977699198912E-02 
986	 2.21271260629665E-02 
987	 2.17787678101912E-02 
988	 2.53583892304919E-02 
989	 2.50119023924177E-02 
990	 2.21555059860391E-02 
991	 2.41835290017747E-02 
992	 2.37710975371193E-02 
993	 2.09468549385399E-02 
994	 1.94730502726074E-02 
995	 2.32514121876444E-02 
996	 2.43522668824479E-02 
997	 2.43182857441212E-02 
998	 2.31820634177313E-02 
999	 2.07502181346816E-02 
1000	 0.022272697612554 
1001	 0.023055375742796 
1002	 2.31497579447886E-02 
1003	 2.29484966038375E-02 
1004	 2.24288050476538E-02 
1005	 2.24854546149904E-02 
1006	 0.02240190533022 
1007	 2.27148111618191E-02 
1008	 2.36804856262962E-02 
1009	 0.024983171603623 
1010	 2.63805251743533E-02 
1011	 2.66299714247002E-02 
1012	 2.64460395514662E-02 
1013	 2.65582744289116E-02 
1014	 2.65081154626961E-02 
1015	 0.026068239427405 
1016	 2.59405979392584E-02 
1017	 2.63277226243257E-02 
1018	 2.60099058355764E-02 
1019	 2.47715258409316E-02 
1020	 0.024447964700562 
1021	 2.42814829921713E-02 
1022	 2.42979713316592E-02 
1023	 2.45027526506543E-02 
1024	 2.51635758412903E-02 
1025	 2.53061975297526E-02 
1026	 2.44726382081544E-02 
1027	 2.42638957091289E-02 
1028	 2.40179036141848E-02 
1029	 2.42316435093415E-02 
1030	 2.47898516408616E-02 
1031	 2.51386420829929E-02 
1032	 2.63304324948441E-02 
1033	 2.59464288967196E-02 
1034	 2.40839241183831E-02 
1035	 2.35199104913448E-02 
1036	 2.26454367505218E-02 
1037	 2.20950401433536E-02 
1038	 2.25067224564189E-02 
1039	 2.26009391219481E-02 
1040	 2.30312010950614E-02 
1041	 2.35388734270858E-02 
1042	 2.38786951285256E-02 
1043	 2.49730663664683E-02 
1044	 2.49581848762586E-02 
1045	 2.36565660405515E-02 
1046	 2.36823069827969E-02 
1047	 2.42630749688042E-02 
1048	 2.42638700526335E-02 
1049	 0.024690514355971 
1050	 2.46826956828687E-02 
1051	 0.023672727958247 
1052	 2.33534144630901E-02 
1053	 2.33479034190281E-02 
1054	 2.34243525137392E-02 
1055	 2.38543331646172E-02 
1056	 2.41019409810811E-02 
1057	 2.43405914389862E-02 
1058	 2.48398488006191E-02 
1059	 2.47101890417133E-02 
1060	 2.40819271053745E-02 
1061	 2.38732317950449E-02 
1062	 2.32947037926161E-02 
1063	 2.33235125975323E-02 
1064	 2.40014615829373E-02 
1065	 2.42764114164341E-02 
1066	 2.47114611001882E-02 
1067	 2.49104241706226E-02 
1068	 2.49680448181572E-02 
1069	 2.48700262573195E-02 
1070	 2.44170723395908E-02 
1071	 2.42241238159971E-02 
1072	 2.39733526512544E-02 
1073	 2.38193257654549E-02 
1074	 2.37070196170045E-02 
1075	 2.38055706464166E-02 
1076	 2.38151007745147E-02 
1077	 2.36843843737363E-02 
1078	 2.38916614713331E-02 
1079	 2.43152115483493E-02 
1080	 2.47154875926639E-02 
1081	 0.025395456731208 
1082	 2.56989403855792E-02 
1083	 2.64391903268264E-02 
1084	 2.61321762521449E-02 
1085	 0.023990511101559 
1086	 2.37213320885018E-02 
1087	 2.41324120356381E-02 
1088	 0.024083001340039 
1089	 2.52353506138122E-02 
1090	 2.61726515897339E-02 
1091	 2.60372692091189E-02 
1092	 2.42388914817107E-02 
1093	 2.40949366157678E-02 
1094	 2.42160493688579E-02 
1095	 0.024553314072803 
1096	 0.025772316862417 
1097	 2.61524427997972E-02 
1098	 0.026384618988704 
1099	 2.63134170324391E-02 
1100	 0.025509220091858 
1101	 2.55180267379897E-02 
1102	 2.58413023729775E-02 
1103	 2.58029624312602E-02 
1104	 2.59246107264673E-02 
1105	 2.58964034440736E-02 
1106	 0.026690192053674 
1107	 2.77895442223958E-02 
1108	 2.97249880792628E-02 
1109	 3.16260921212338E-02 
1110	 0.031956706215403 
1111	 2.94731078888809E-02 
1112	 2.97674606904346E-02 
1113	 3.12946699564252E-02 
1114	 3.13061580616912E-02 
1115	 3.12354861604716E-02 
1116	 3.20461875115455E-02 
1117	 3.11758976217783E-02 
1118	 3.14985098778931E-02 
1119	 3.89700472579468E-02 
1120	 4.19216941676383E-02 
1121	 4.26321311559955E-02 
1122	 3.14020464661499E-02 
1123	 2.71543054785588E-02 
1124	 3.46362125034506E-02 
1125	 3.28198030875845E-02 
1126	 3.70473389808965E-02 
1127	 4.68903971853875E-02 
1128	 3.93042107684011E-02 
1129	 3.76212117774158E-02 
1130	 4.60487313848553E-02 
1131	 4.16858787264086E-02 
1132	 0.022694451959661 
1133	 2.22020481488731E-02 
1134	 2.86128799445697E-02 
1135	 2.91331026752926E-02 
1136	 3.34716566153196E-02 
1137	 3.59134958990851E-02 
1138	 3.59860853296746E-02 
1139	 3.27148113894174E-02 
1140	 3.06210826834721E-02 
1141	 3.51127116768664E-02 
1142	 3.51429265121059E-02 
1143	 3.24775909375188E-02 
1144	 3.58045360998673E-02 
1145	 0.035311281379967 
1146	 3.69578105904387E-02 
1147	 3.94836766659027E-02 
1148	 3.49449864777736E-02 
1149	 3.28176884705494E-02 
1150	 3.21872573069431E-02 
1151	 3.01059113536582E-02 
1152	 2.92106693010128E-02 
1153	 3.19070375319228E-02 
1154	 3.24561866189538E-02 
1155	 3.16692258559777E-02 
1156	 3.08696082554596E-02 
1157	 3.16643526816194E-02 
1158	 3.03709954374834E-02 
1159	 3.03020020748568E-02 
1160	 3.11425944352686E-02 
1161	 2.92288463937827E-02 
1162	 2.82006055339209E-02 
1163	 0.027724627952938 
1164	 2.61827440479945E-02 
1165	 2.67660869497997E-02 
1166	 2.80939307599651E-02 
1167	 2.76014673924289E-02 
1168	 2.63498177372605E-02 
1169	 2.55962542466311E-02 
1170	 2.51823270289399E-02 
1171	 2.50011987110399E-02 
1172	 2.55591943612412E-02 
1173	 2.60201067888257E-02 
1174	 2.69072076564792E-02 
1175	 2.65150364956451E-02 
1176	 2.62072307469341E-02 
1177	 2.63200475180609E-02 
1178	 2.60609052036785E-02 
1179	 2.58938514967224E-02 
1180	 2.58580283006696E-02 
1181	 2.54580565217396E-02 
1182	 2.57168367859794E-02 
1183	 2.66157087999675E-02 
1184	 2.66468300801866E-02 
1185	 2.60529641173147E-02 
1186	 2.56241244349845E-02 
1187	 2.52568011343393E-02 
1188	 0.025305053226366 
1189	 2.60414232028058E-02 
1190	 2.63936319953942E-02 
1191	 2.61254285009444E-02 
1192	 2.59775389108433E-02 
1193	 2.57960175656131E-02 
1194	 2.56692000734162E-02 
1195	 2.51966278894642E-02 
1196	 2.46107137370917E-02 
1197	 2.47434710382357E-02 
1198	 2.51579182229458E-02 
1199	 2.51895686673873E-02 
1200	 2.55212902038481E-02 
1201	 2.57958574777505E-02 
1202	 2.52491423588088E-02 
1203	 2.50968128483683E-02 
1204	 0.025746123782288 
1205	 2.55736796684909E-02 
1206	 2.48485688758817E-02 
1207	 2.47065846493714E-02 
1208	 2.47600514142666E-02 
1209	 2.42678187523465E-02 
1210	 2.44550015446344E-02 
1211	 2.51853489917691E-02 
1212	 2.49930931409726E-02 
1213	 0.025124763055176 
1214	 2.51285852935836E-02 
1215	 2.51642856183696E-02 
1216	 2.44873793190218E-02 
1217	 0.024464883162002 
1218	 2.48114056400487E-02 
1219	 2.45745589854218E-02 
1220	 2.43855908400485E-02 
1221	 2.44139975622675E-02 
1222	 2.40477703346563E-02 
1223	 0.024027583975846 
1224	 2.46462818198154E-02 
1225	 2.46963397172964E-02 
1226	 2.42237098539769E-02 
1227	 2.42056983811672E-02 
1228	 0.024397885003123 
1229	 2.46363298053041E-02 
1230	 2.44376948826156E-02 
1231	 2.38457464900784E-02 
1232	 2.34559402967511E-02 
1233	 2.29238295557454E-02 
1234	 2.28584800766349E-02 
1235	 2.29442209147442E-02 
1236	 2.35133683922714E-02 
1237	 2.35398319287978E-02 
1238	 2.34239187691535E-02 
1239	 2.33334473504633E-02 
1240	 2.34224741333069E-02 
1241	 2.32278703942138E-02 
1242	 0.023411816921497 
1243	 2.42076106962621E-02 
1244	 2.42520415824029E-02 
1245	 2.38350002258062E-02 
1246	 2.38856691745116E-02 
1247	 2.36171157153054E-02 
1248	 2.33048263573892E-02 
1249	 2.38468843471661E-02 
1250	 2.41802293824305E-02 
1251	 2.39803002299233E-02 
1252	 2.39850472758429E-02 
1253	 2.39019592818222E-02 
1254	 2.30885510119603E-02 
1255	 2.26253166721828E-02 
1256	 2.29625268373786E-02 
1257	 2.43430143103014E-02 
1258	 2.44591413316122E-02 
1259	 2.44372539280531E-02 
1260	 2.48872679854883E-02 
1261	 2.47395985022226E-02 
1262	 2.44738076356165E-02 
1263	 2.47161881173647E-02 
1264	 2.52975233854674E-02 
1265	 2.47309036154311E-02 
1266	 2.40051698205541E-02 
1267	 2.37010145174344E-02 
1268	 2.36668176037942E-02 
1269	 0.023981072427766 
1270	 2.39302808758567E-02 
1271	 2.40117453372595E-02 
1272	 2.47226136458692E-02 
1273	 2.47966616762754E-02 
1274	 2.46350954846142E-02 
1275	 2.46736716570136E-02 
1276	 2.44178046070367E-02 
1277	 2.41322053536523E-02 
1278	 2.40873000809031E-02 
1279	 2.39433865704184E-02 
1280	 2.38708338073878E-02 
1281	 2.38935806366567E-02 
1282	 2.35839185601387E-02 
1283	 2.34213088037651E-02 
1284	 2.36743408476444E-02 
1285	 2.38498529261343E-02 
1286	 2.37717209575403E-02 
1287	 2.38243117400857E-02 
1288	 0.024377087002819 
1289	 2.45366872062585E-02 
1290	 2.42085193402988E-02 
1291	 2.42654204077874E-02 
1292	 2.49877520881457E-02 
1293	 2.46918138377217E-02 
1294	 0.023952819463073 
1295	 2.38468226073443E-02 
1296	 2.45343251915142E-02 
1297	 2.50267712166359E-02 
1298	 2.49230300047442E-02 
1299	 2.52178755986759E-02 
1300	 2.52152100634488E-02 
1301	 2.43029523588741E-02 
1302	 2.42761619824196E-02 
1303	 2.50934131342397E-02 
1304	 0.024788818390276 
1305	 2.42268451772946E-02 
1306	 2.43728597444333E-02 
1307	 2.55280821534745E-02 
1308	 2.56421253800126E-02 
1309	 0.025593311929662 
1310	 2.56144887358957E-02 
1311	 2.45560388707865E-02 
1312	 0.024490141524584 
1313	 2.56153310867992E-02 
1314	 2.59353513584819E-02 
1315	 0.02631365414743 
1316	 2.66962096344065E-02 
1317	 2.60366485382841E-02 
1318	 0.026023151611192 
1319	 2.71581708826289E-02 
1320	 2.75806355980781E-02 
1321	 2.75530664203052E-02 
1322	 2.83608680724715E-02 
1323	 2.87597224908684E-02 
1324	 2.75883226691932E-02 
1325	 2.78096687169165E-02 
1326	 2.89184555097473E-02 
1327	 2.93206400958126E-02 
1328	 2.99649510079723E-02 
1329	 0.030536674306451 
1330	 3.10552881684168E-02 
1331	 3.13876210333957E-02 
1332	 2.98419283185273E-02 
1333	 2.94918694073997E-02 
1334	 3.03921955520609E-02 
1335	 3.02834647546907E-02 
1336	 0.030647543250943 
1337	 3.15126849175326E-02 
1338	 0.031779990882738 
1339	 3.15726990279948E-02 
1340	 3.28701747311323E-02 
1341	 3.26127400520419E-02 
1342	 0.028240157731073 
1343	 2.83385749786317E-02 
1344	 3.30595239900408E-02 
1345	 3.32472712700711E-02 
1346	 3.23845391623941E-02 
1347	 3.47571285198126E-02 
1348	 3.46092847750597E-02 
1349	 0.035135452145819 
1350	 4.87334518476401E-02 
1351	 6.10669977816301E-02 
1352	 5.72228559761142E-02 
1353	 6.30091308896595E-02 
1354	 0.086914351889061 
1355	 9.92138884727052E-02 
1356	 0.149200315185093 
1357	 0.201716894283591 
1358	 0.222531777356813 
1359	 0.269247310132613 
1360	 0.245767612582138 
1361	 7.98107767962175E-02 
1362	 0.140597273364307 
1363	 0.245771644541971 
1364	 0.222974142590575 
1365	 0.284217375616699 
1366	 0.629980350296285 
1367	 1.06302256889367 
1368	 0.910873874487085 
1369	 0.45795272846938 
1370	 1.3324619052086 
1371	 2.72821347835333 
1372	 1.79922541623642 
1373	-94.1628994771533 
1374	-24.1171081044087 
1375	 1.34247201545919 
1376	 0.755519142051563 
1377	 0.805228066306381 
1378	 0.884890410594855 
1379	 9.58926464964066E-02 
1380	-0.205616591135745 
1381	 1.21069234547125 
1382	 1.92131927977229 
1383	-0.310490207952788 
1384	-0.100963926145283 
1385	 0.437849445122219 
1386	 0.55168285107453 
1387	 0.901897347203408 
1388	 1.27720721430397 
1389	 3.68949422414205 
1390	 2.80552149357687 
1391	 0.65252390263647 
1392	 0.483882738773859 
1393	 0.814752387944211 
1394	 0.77885247240863 
1395	 0.601352587481973 
1396	 0.82746251184142 
1397	 1.24265612887481 
1398	 1.57704183632286 
1399	 5.7475729463298 
1400	-91.7699807061216 
1401	 1.59508740858995 
1402	 0.636289122637621 
1403	 0.691621879698451 
1404	 1.48398947790042 
1405	 2.03000691117053 
1406	-6.57262333837526 
1407	 20.8192781809961 
1408	 1.8673692130365 
1409	 0.861033186786148 
1410	 5.53534461108153E-02 
1411	 0.234900841290867 
1412	 1.58881579193984 
1413	 0.891688196327704 
1414	 0.257109895320573 
1415	 0.220358995599582 
1416	-0.104488464814485 
1417	-0.164308461197113 
1418	 7.53282682514851E-03 
1419	 0.133559472414635 
1420	 0.18352670012624 
1421	 0.160815210462587 
1422	 0.164839568680613 
1423	 0.177304583805431 
1424	 0.133516837653022 
1425	 0.115951833298622 
1426	 0.151588261461655 
1427	 0.151964568954828 
1428	 0.110804600427575 
1429	 9.84580917446825E-02 
1430	 9.51554166683702E-02 
1431	 9.65262163407152E-02 
1432	 0.111863455158678 
1433	 0.115733861773049 
1434	 0.126637573792007 
1435	 0.128192556376471 
1436	 0.117768615289464 
1437	 9.86733988191179E-02 
1438	 8.27531251267472E-02 
1439	 6.62520139249357E-02 
1440	 5.63432604487372E-02 
1441	 5.48200446407052E-02 
1442	 6.98389860579605E-02 
1443	 9.28763330086229E-02 
1444	 8.62241081308922E-02 
1445	 6.29948580364513E-02 
1446	 5.34700173309192E-02 
1447	 4.50753901588719E-02 
1448	 3.91789072398159E-02 
1449	 4.66801836310799E-02 
1450	 5.44954755672236E-02 
1451	 4.85392892501561E-02 
1452	 4.39369151873289E-02 
1453	 0.04644987333881 
1454	 4.72099296541566E-02 
1455	 4.60731837385672E-02 
1456	 4.47867230894013E-02 
1457	 4.53105636487779E-02 
1458	 4.52832539403691E-02 
1459	 4.17778884942458E-02 
1460	 4.19648518148249E-02 
1461	 4.67843231471183E-02 
1462	 4.70876544166888E-02 
1463	 0.044848160449415 
1464	 4.57967684844696E-02 
1465	 4.63428746400122E-02 
1466	 4.73309515787361E-02 
1467	 5.25165004000324E-02 
1468	 5.47327677707791E-02 
1469	 5.43375805234892E-02 
1470	 5.33387966927282E-02 
1471	 5.10436688611807E-02 
1472	 0.050202799654413 
1473	 4.97646945944299E-02 
1474	 4.74756326693195E-02 
1475	 4.43041304357875E-02 
1476	 0.044009246429576 
1477	 0.043298920449795 
1478	 4.21520660181998E-02 
1479	 4.38536551417503E-02 
1480	 4.35953471611167E-02 
1481	 4.14926869378053E-02 
1482	 0.040093485222562 
1483	 3.91389058346948E-02 
1484	 3.81854018998001E-02 
1485	 3.64865549582188E-02 
1486	 3.54330667420649E-02 
1487	 3.57042943645769E-02 
1488	 3.47940792708352E-02 
1489	 3.34809809695691E-02 
1490	 3.22112192846844E-02 
1491	 0.030253666441614 
1492	 2.94583212349749E-02 
1493	 2.85865491513988E-02 
1494	 2.85851504171435E-02 
1495	 3.06103609576063E-02 
1496	 3.02890335082551E-02 
1497	 2.80893375190182E-02 
1498	 2.80809258634203E-02 
1499	 2.89400179673493E-02 
1500	 0.028438884618389 
1501	 2.76138611551155E-02 
1502	 2.81187353187022E-02 
1503	 2.93911268379859E-02 
1504	 2.84780141972753E-02 
1505	 2.67654681635305E-02 
1506	 2.66230440059382E-02 
1507	 2.73505173542242E-02 
1508	 2.70288965294874E-02 
1509	 2.78007629937435E-02 
1510	 2.94956691330208E-02 
1511	 2.93429229599741E-02 
1512	 2.82809433247219E-02 
1513	 2.78982532677594E-02 
1514	 2.84700738052962E-02 
1515	 2.85615515860671E-02 
1516	 2.78596128775754E-02 
1517	 2.77707504552831E-02 
1518	 2.78673170959962E-02 
1519	 2.68728153540262E-02 
1520	 2.62378277451765E-02 
1521	 2.64610945625129E-02 
1522	 2.63845611871701E-02 
1523	 2.65903943210356E-02 
1524	 2.67099527138483E-02 
1525	 2.65319947460342E-02 
1526	 2.67420264441142E-02 
1527	 2.75182738807987E-02 
1528	 2.75356676038346E-02 
1529	 2.64132058083911E-02 
1530	 2.62278044579062E-02 
1531	 2.61020541523101E-02 
1532	 0.025450306601073 
1533	 2.61111701084276E-02 
1534	 2.66835835153742E-02 
1535	 2.56982183379059E-02 
1536	 2.49451206175485E-02 
1537	 2.52239116174866E-02 
1538	 2.56041579215958E-02 
1539	 2.61942319231421E-02 
1540	 2.69073732712855E-02 
1541	 2.71055530400676E-02 
1542	 2.65656900714156E-02 
1543	 2.55661265368957E-02 
1544	 2.50130452273646E-02 
1545	 2.45104354514247E-02 
1546	 2.40574547140396E-02 
1547	 0.025058418144319 
1548	 2.58667960833409E-02 
1549	 2.50125532270679E-02 
1550	 2.50777797502264E-02 
1551	 2.58515833445806E-02 
1552	 2.54402279609351E-02 
1553	 2.49910634649051E-02 
1554	 2.51266539287189E-02 
1555	 2.51839447539643E-02 
1556	 2.47018787351232E-02 
1557	 2.42575442312883E-02 
1558	 2.41661334286513E-02 
1559	 2.38128077071114E-02 
1560	 2.36271590647745E-02 
1561	 2.45274341343018E-02 
1562	 2.54236281490131E-02 
1563	 2.50065150721772E-02 
1564	 2.46067076685441E-02 
1565	 2.46351299852823E-02 
1566	 2.47048393832742E-02 
1567	 2.50313919089421E-02 
1568	 0.025062889092778 
1569	 2.49601008164485E-02 
1570	 2.48553602479938E-02 
1571	 2.43477903538845E-02 
1572	 2.41466040547732E-02 
1573	 2.46689185697394E-02 
1574	 2.48421197068099E-02 
1575	 2.47474274485349E-02 
1576	 2.51270573850874E-02 
1577	 2.52963268263458E-02 
1578	 2.50303129803917E-02 
1579	 2.49998081801999E-02 
1580	 2.51333222713045E-02 
1581	 0.025263619516808 
1582	 2.50799699168939E-02 
1583	 2.42468519927249E-02 
1584	 2.35005192631118E-02 
1585	 0.023749528985735 
1586	 2.44707566580924E-02 
1587	 2.45874496846022E-02 
1588	 2.47209482333742E-02 
1589	 2.48737869580936E-02 
1590	 2.43825665233317E-02 
1591	 2.42489844153129E-02 
1592	 2.46884027731493E-02 
1593	 2.49441808233431E-02 
1594	 2.46479058589693E-02 
1595	 2.43437157690718E-02 
1596	 2.44466814335183E-02 
1597	 2.39757045089488E-02 
1598	 2.35236626877324E-02 
1599	 0.02413256717176 
1600	 0.024796256674268 
1601	 2.47951481477334E-02 
1602	 2.46650550648231E-02 
1603	 2.48749013016844E-02 
1604	 2.51615545286108E-02 
1605	 2.49267005034761E-02 
1606	 2.44632940806375E-02 
1607	 2.47539633191419E-02 
1608	 2.47832669238351E-02 
1609	 2.39160578657211E-02 
1610	 2.41283873290447E-02 
1611	 2.47139998131887E-02 
1612	 2.43435169597222E-02 
1613	 2.45737272558712E-02 
1614	 2.51940350092114E-02 
1615	 2.49288286401527E-02 
1616	 2.44642477472068E-02 
1617	 2.47996836655712E-02 
1618	 2.45885661373212E-02 
1619	 2.38785714983048E-02 
1620	 2.39096030467329E-02 
1621	 2.38887022460154E-02 
1622	 2.42732726859542E-02 
1623	 2.44672098205676E-02 
1624	 2.40465068148224E-02 
1625	 2.38525787186989E-02 
1626	 2.42066146268074E-02 
1627	 2.48902720631191E-02 
1628	 2.49963501730442E-02 
1629	 2.51956279958116E-02 
1630	 2.47768602205525E-02 
1631	 2.37847722214746E-02 
1632	 2.35986083739069E-02 
1633	 0.023521463978833 
1634	 2.36192200617506E-02 
1635	 2.39966741859633E-02 
1636	 2.41123047854439E-02 
1637	 2.39982076542454E-02 
1638	 2.40919012503568E-02 
1639	 2.45193232174158E-02 
1640	 2.46736797077994E-02 
1641	 2.49098358809042E-02 
1642	 2.52944037990539E-02 
1643	 2.48670809887137E-02 
1644	 2.48651136443358E-02 
1645	 2.53021067167361E-02 
1646	 2.47493225066812E-02 
1647	 2.39961917628235E-02 
1648	 2.35872945158977E-02 
1649	 2.35587578823964E-02 
1650	 2.40447984696479E-02 
1651	 2.50784101251413E-02 
1652	 2.56897246264225E-02 
1653	 2.45275290730403E-02 
1654	 2.43425639285915E-02 
1655	 2.45138330605968E-02 
1656	 2.44345799468625E-02 
1657	 2.46229194316306E-02 
1658	 2.47882335128469E-02 
1659	 2.47940177596784E-02 
1660	 0.024544508948839 
1661	 2.42160994351054E-02 
1662	 2.44246263297981E-02 
1663	 2.44081565599943E-02 
1664	 2.46593517671182E-02 
1665	 2.59840564089425E-02 
1666	 2.59895969133624E-02 
1667	 2.47460774452049E-02 
1668	 2.53176043411871E-02 
1669	 2.58418999589756E-02 
1670	 2.54381221469689E-02 
1671	 2.56432693450686E-02 
1672	 2.59880604449789E-02 
1673	 2.53300266770815E-02 
1674	 2.47492802884044E-02 
1675	 0.025093546212986 
1676	 2.58130388556761E-02 
1677	 2.52537174237558E-02 
1678	 2.43647658100798E-02 
1679	 2.45702429404803E-02 
1680	 2.41081219818056E-02 
1681	 2.37823523010179E-02 
1682	 2.49590474936183E-02 
1683	 2.51706164628334E-02 
1684	 2.41370581780945E-02 
1685	 2.40375627888419E-02 
1686	 2.46129668183073E-02 
1687	 2.43188295609311E-02 
1688	 2.37260709427584E-02 
1689	 2.34881519608558E-02 
1690	 2.37417738797946E-02 
1691	 2.44725449525502E-02 
1692	 2.46889747710839E-02 
1693	 2.46427415603517E-02 
1694	 2.45819854782955E-02 
1695	 2.48698782817851E-02 
1696	 2.49393732849112E-02 
1697	 2.47017897074156E-02 
1698	 2.49136933635278E-02 
1699	 2.44591480031712E-02 
1700	 2.44507367063905E-02 
1701	 2.51419734261268E-02 
1702	 0.02537107583347 
1703	 2.53973890677008E-02 
1704	 2.55447835835199E-02 
1705	 2.58254824249138E-02 
1706	 2.52302806679642E-02 
1707	 2.45862406253659E-02 
1708	 0.024432945388317 
1709	 2.44899234376077E-02 
1710	 2.51467282763246E-02 
1711	 2.51169860798181E-02 
1712	 2.49721884857006E-02 
1713	 2.50736985978635E-02 
1714	 0.024854438146512 
1715	 2.39979404699212E-02 
1716	 2.41531785908608E-02 
1717	 2.50449187955037E-02 
1718	 2.53711115612814E-02 
1719	 2.51948057279216E-02 
1720	 2.53887909118994E-02 
1721	 2.54617416530999E-02 
1722	 2.61475308383595E-02 
1723	 0.026349419064268 
1724	 2.53315275437503E-02 
1725	 2.47102782164492E-02 
1726	 2.43913691772789E-02 
1727	 0.024698453973934 
1728	 2.63068015242018E-02 
1729	 2.72730435995513E-02 
1730	 2.63887230905198E-02 
1731	 2.56329505321503E-02 
1732	 2.57279316750389E-02 
1733	 0.025384346442382 
1734	 2.56720464346504E-02 
1735	 2.65732526773395E-02 
1736	 2.60887873609069E-02 
1737	 2.59242624048574E-02 
1738	 2.67322559774815E-02 
1739	 2.66440960223135E-02 
1740	 2.54503743816339E-02 
1741	 2.54174382781811E-02 
1742	 2.73211502810805E-02 
1743	 2.79620209697964E-02 
1744	 2.88098878275326E-02 
1745	 2.98435434102855E-02 
1746	 2.74679804929004E-02 
1747	 2.70509480301341E-02 
1748	 0.027835505213281 
1749	 2.73806065347742E-02 
1750	 2.66753751450318E-02 
1751	 2.67192164776817E-02 
1752	 2.68070669599833E-02 
1753	 2.65685509318466E-02 
1754	 2.65265662705996E-02 
1755	 2.63934507055816E-02 
1756	 2.54946038452991E-02 
1757	 2.61063374245781E-02 
1758	 2.75512232260209E-02 
1759	 2.77299021121786E-02 
1760	 2.71572460433331E-02 
1761	 2.71608258331119E-02 
1762	 2.66471680222337E-02 
1763	 2.61004763621799E-02 
1764	 2.69523751025199E-02 
1765	 2.80532320303228E-02 
1766	 2.80677154266749E-02 
1767	 2.90772952752869E-02 
1768	 0.031063449025679 
1769	 3.15104606642282E-02 
1770	 3.12550084565219E-02 
1771	 2.85605962575141E-02 
1772	 2.47972224473652E-02 
1773	 2.32546629233599E-02 
1774	 2.30766560785508E-02 
1775	 2.82791357196159E-02 
1776	 3.02847787975355E-02 
1777	 3.11360669940739E-02 
1778	 3.24527464099995E-02 
1779	 3.19641322947998E-02 
1780	 0.031919420333507 
1781	 3.27774220917523E-02 
1782	 0.032102125510493 
1783	 2.94061125748693E-02 
1784	 3.07824469355478E-02 
1785	 3.52185985725066E-02 
1786	 3.53052227014789E-02 
1787	 3.35483743532702E-02 
1788	 3.34923130126535E-02 
1789	 3.14650850134117E-02 
1790	 3.38270410672089E-02 
1791	 4.11930849490254E-02 
1792	 4.62861843733057E-02 
1793	 3.58455441298217E-02 
1794	 3.06878904872527E-02 
1795	 3.03561999434695E-02 
1796	 0.035759723043529 
1797	 4.98507751743247E-02 
1798	 4.18498677734105E-02 
1799	 3.32231906836581E-02 
1800	 3.21313981783201E-02 
1801	 3.60565953137551E-02 
1802	 9.80054822464944E-02 
1803	 0.122770831953388 
1804	 7.65142607320934E-02 
1805	 6.97607295578995E-02 
1806	 8.43206348223976E-02 
1807	 7.70804921472193E-02 
1808	 7.66316009184921E-02 
1809	 0.100300589221363 
1810	 4.50224397250061E-02 
1811	 3.28460945278383E-02 
1812	 0.126540979325779 
1813	 0.212552975364108 
1814	 0.472930549667871 
1815	 0.468036657968256 
1816	 0.264881377535124 
1817	-0.295705131131285 
1818	-0.919362035758066 
1819	-2.52945798085543 
1820	 19.9100487991692 
1821	 1.13060185807039 
1822	 3.56375702289503 
1823	-6.3365190469602 
1824	-12.9032139053736 
1825	 11.0469552639812 
1826	 5.26781816593889 
1827	 0.217508915803614 
1828	 5.36037172641427E-02 
1829	-8.12077316311982E-02 
1830	 0.389572359011255 
1831	 2.39671983077112E-02 
1832	 0.463791381272061 
1833	 0.648602636545689 
1834	 0.802028960981964 
1835	 1.68350436571798 
1836	 2.34176471439674 
1837	 6.04590081302347 
1838	 9.73807771983435 
1839	 1.6198179151531 
1840	 0.39626691042001 
1841	-0.383265422207244 
1842	-0.371754030929925 
1843	-0.332793973688582 
1844	-0.145650673720302 
1845	-9.86072779405789E-02 
1846	 0.258410451251276 
1847	 0.314675618644567 
1848	-0.127511636986091 
1849	-5.20750267824679E-02 
1850	 0.141449186313943 
1851	-0.351090149282283 
1852	-0.556855238739706 
1853	-3.48599183738852 
1854	-3.47722265119242 
1855	 0.579426268042397 
1856	 0.885393617759059 
1857	 1.12182320514155 
1858	 0.866280661865294 
1859	 0.560319786093242 
1860	 9.01278596283962E-02 
1861	-0.123726529970986 
1862	-0.392465782583205 
1863	-0.671913377017111 
1864	-0.442181584122046 
1865	-0.359068734911387 
1866	-0.203562841431452 
1867	-0.157736640517595 
1868	-0.132674528599506 
1869	-0.228496826001483 
1870	-0.708361802362366 
1871	-0.639645035789281 
1872	-0.624924270670786 
1873	-0.266138607551323 
1874	 0.221975066699825 
1875	 0.111012073145486 
1876	 0.197411226822128 
1877	 2.60770575396739E-02 
1878	 0.177561123619127 
1879	 1.77983130353263 
1880	 12.1919510631448 
1881	-17.6467817455363 
1882	-4.33809008644761 
1883	-1.54312794100385 
1884	-0.783004022054149 
1885	-0.914504981356467 
1886	-0.716243786606668 
1887	-0.60512403686204 
1888	-0.618810844556427 
1889	-0.592932838423081 
1890	-0.400602015683984 
1891	-0.448380918428617 
1892	-1.1444966335893 
1893	-2.8390088567333 
1894	 0.324678573060899 
1895	 0.231366045285946 
1896	-0.372598856527345 
1897	-0.322741646427874 
1898	-0.284403789208616 
1899	-0.588958098097154 
1900	-0.712275411382468 
1901	-0.948985462143406 
1902	-0.983815881429115 
1903	-0.920193310232865 
1904	-0.780531315836 
1905	-0.804682055121257 
1906	-1.48080547561234 
1907	-6.39231512117505 
1908	-15.8187010487969 
1909	 30.8521269044724 
1910	 17.1813818233284 
1911	-0.861210824157313 
1912	 0.235024715437856 
1913	 5.41388663280238E-03 
1914	-0.850313502084611 
1915	-11.0697734395215 
1916	-0.210755399253154 
1917	-4.40691592661144E-02 
1918	 0.149662172669055 
1919	-0.173946931143409 
1920	 0.639570732456054 
1921	-4.70193364879766 
1922	-5.62994263493342 
1923	 6.52644807621621 
1924	 3.77202061994377 
1925	 1.21435330573542 
1926	 0.185415007422713 
1927	 0.112331709355473 
1928	-84.2665982801117 
1929	 0.216635189867147 
1930	-0.177388549364648 
1931	-0.407558204159328 
1932	-0.565675834345977 
1933	-1.59067502472607 
1934	-2.03591667131001 
1935	-0.57212967583879 
1936	-0.403696741755142 
1937	-0.443565103931836 
1938	-0.203273124197204 
1939	-5.75408741000953E-02 
1940	 0.109871247492583 
1941	 0.268316478290172 
1942	 0.38801226558972 
1943	 0.195518572269591 
1944	-2.72468665427655E-02 
1945	 2.7601501740951E-03 
1946	 0.127510894569025 
1947	 0.201656719230269 
1948	 0.210604524546945 
1949	 0.121550487792073 
1950	-0.040991469809136 
1951	-0.160373471251869 
1952	-0.241720631070048 
1953	-0.275125083566551 
1954	-0.309542611223505 
1955	-0.251275631285147 
1956	-0.150481753695995 
1957	-8.29279187100558E-02 
1958	-1.76933050318985E-02 
1959	-1.23266703700494E-02 
1960	-1.76559802138935E-02 
1961	-3.31950286532252E-02 
1962	-4.59423247013424E-02 
1963	-1.70907128994945E-02 
1964	-1.90337651204163E-02 
1965	-2.04813491013267E-02 
1966	-1.30726892270695E-02 
1967	-1.30060199356088E-03 
1968	-9.16481378126115E-03 
1969	 7.8695185695792E-04 
1970	 1.31295786247722E-02 
1971	 1.70912874883055E-02 
1972	 2.47473623458098E-02 
1973	 3.01336611574406E-02 
1974	 3.17092705822087E-02 
1975	 3.57614939741671E-02 
1976	 3.58313780579778E-02 
1977	 2.63532779560092E-02 
1978	 2.19568399896531E-02 
1979	 2.31993862556611E-02 
1980	 0.02765421379509 
1981	 2.94932487312255E-02 
1982	 3.18301472942438E-02 
1983	 0.03651861103765 
1984	 3.64028610571748E-02 
1985	 2.91312787922249E-02 
1986	 2.41756293726036E-02 
1987	 2.25054497522213E-02 
1988	 1.93466841281695E-02 
1989	 2.02637578962854E-02 
1990	 2.39462196635049E-02 
1991	 2.28727247488975E-02 
1992	 2.12269768382912E-02 
1993	 0.020514754922804 
1994	 1.93692000499402E-02 
1995	 2.05159421893873E-02 
1996	 1.95167768286608E-02 
1997	 1.47366229835503E-02 
1998	 0.012027175615059 
1999	 6.14024412522242E-03 
2000	 6.8850405921847E-03 
2001	 1.55751171613666E-02 
2002	 2.15970615292137E-02 
2003	 2.91015873601536E-02 
2004	 3.85650713829603E-02 
2005	 4.51781490592983E-02 
2006	 3.10525948662734E-02 
2007	 2.10035200010784E-02 
2008	 2.91907466154877E-02 
2009	 2.83704870744541E-02 
2010	 2.30657949746365E-02 
2011	 2.56914087641566E-02 
2012	 3.37606320744714E-02 
2013	 3.14465214652431E-02 
2014	 3.25278624828985E-02 
2015	 3.22764851459679E-02 
2016	 2.28961071066598E-02 
2017	 2.05085072628109E-02 
2018	 1.87920781642258E-02 
2019	 9.88898753689668E-03 
2020	 1.32767734790533E-02 
2021	 1.69348813859061E-02 
2022	 1.88562091674515E-02 
2023	 2.44056180387767E-02 
2024	 0.026436282712292 
2025	 2.72918779788138E-02 
2026	 2.80680671317584E-02 
2027	 2.80364089031144E-02 
2028	 2.60933583444216E-02 
2029	 2.59863488672306E-02 
2030	 2.49363383254325E-02 
2031	 0.022455859821255 
2032	 2.41234464959736E-02 
2033	 2.74409550599579E-02 
2034	 2.74531118037531E-02 
2035	 0.026718204853421 
2036	 2.58607301459654E-02 
2037	 2.65830500897632E-02 
2038	 2.76418298932363E-02 
2039	 2.78990068789121E-02 
2040	 2.95498361043902E-02 
2041	 2.93860109839925E-02 
2042	 2.69371671522785E-02 
2043	 2.55888693424403E-02 
2044	 2.44271442363198E-02 
2045	 2.25040608593203E-02 
2046	 1.97515246873151E-02 
2047	 1.88652593719289E-02 
2048	 1.83032316175616E-02 
2049	 0.017974981696917 
2050	 2.09191820429659E-02 
2051	 0.026231834210492 
2052	 3.04368873058337E-02 
2053	 2.92869757697539E-02 
2054	 2.94818816972209E-02 
2055	 2.97144149798929E-02 
2056	 2.85632178067912E-02 
2057	 2.82155946757331E-02 
2058	 2.72282340372866E-02 
2059	 2.30198028535382E-02 
2060	 1.93938607720854E-02 
2061	 1.40903397705947E-02 
2062	 0.012637630815309 
2063	 1.47317431052112E-02 
2064	 1.73668524504273E-02 
2065	 1.75421731597134E-02 
2066	 1.81684877497574E-02 
2067	 1.76957058107086E-02 
2068	 1.91938902471671E-02 
2069	 2.72785178554804E-02 
2070	 0.02989989031429 
2071	 2.71515356020632E-02 
2072	 2.90247596011395E-02 
2073	 2.89063586194103E-02 
2074	 2.63636034714785E-02 
2075	 2.51030038855239E-02 
2076	 2.41650338587075E-02 
2077	 2.30165211697236E-02 
2078	 2.13900482008255E-02 
2079	 2.12677616803263E-02 
2080	 2.15473114475574E-02 
2081	 0.02347865619335 
2082	 2.79926320074355E-02 
2083	 2.99869707359386E-02 
2084	 3.43622584780744E-02 
2085	 3.65258276960896E-02 
2086	 0.031089296819871 
2087	 2.79683218901977E-02 
2088	 2.47683410316794E-02 
2089	 1.70193257571091E-02 
2090	 1.53840559694296E-02 
2091	 1.71706029551644E-02 
2092	 1.92591993977752E-02 
2093	 2.66352249832752E-02 
2094	 2.85912956109261E-02 
2095	 2.76891534158377E-02 
2096	 0.028528723034444 
2097	 2.74018895972654E-02 
2098	 2.60389370880995E-02 
2099	 2.55877314011125E-02 
2100	 2.66600049231264E-02 
2101	 2.47994512231153E-02 
2102	 2.28367686989652E-02 
2103	 0.023457523895092 
2104	 2.47609863209059E-02 
2105	 2.55536824961845E-02 
2106	 2.59396082489272E-02 
2107	 2.64394100921345E-02 
2108	 2.62539151315535E-02 
2109	 2.63119452241864E-02 
2110	 2.58235888140319E-02 
2111	 2.26815804294669E-02 
2112	 2.11020727555325E-02 
2113	 0.020895016928878 
2114	 2.03817839197028E-02 
2115	 2.04154852097162E-02 
2116	 2.33298366969948E-02 
2117	 2.43878037848909E-02 
2118	 2.39898022125163E-02 
2119	 2.43157282494446E-02 
2120	 2.56621269266768E-02 
2121	 2.54721536487738E-02 
2122	 0.025137350984265 
2123	 2.63560352373035E-02 
2124	 2.60449820566796E-02 
2125	 2.70903848839575E-02 
2126	 2.84484801770214E-02 
2127	 2.75681818831727E-02 
2128	 2.79622965821612E-02 
2129	 2.53661390624797E-02 
2130	 2.29288771575932E-02 
2131	 2.30439315314883E-02 
2132	 2.02674515102039E-02 
2133	 1.93131068826916E-02 
2134	 1.93221065370123E-02 
2135	 0.019832832188501 
2136	 1.84706512911838E-02 
2137	 1.64118049918878E-02 
2138	 1.77616040731065E-02 
2139	 2.05854234780927E-02 
2140	 2.19032514568651E-02 
2141	 2.59929317571761E-02 
2142	 2.77271688507315E-02 
2143	 0.027571863490452 
2144	 2.45360989529311E-02 
2145	 2.27979435882084E-02 
2146	 2.18160942343162E-02 
2147	 2.12501289039018E-02 
2148	 1.99625158326898E-02 
2149	 0.020381555952827 
2150	 2.27926636822962E-02 
2151	 2.44908624908367E-02 
2152	 0.025816422549931 
2153	 2.36899300614367E-02 
2154	 2.47110885074655E-02 
2155	 2.59301367954681E-02 
2156	 2.54647546467128E-02 
2157	 0.025734262337733 
2158	 2.78641943370733E-02 
2159	 2.76633598419252E-02 
2160	 2.51531704923924E-02 
2161	 2.49581029002004E-02 
2162	 2.62927437541625E-02 
2163	 2.54239239064789E-02 
2164	 2.36094422348621E-02 
2165	 2.26053632028021E-02 
2166	 2.14216959737835E-02 
2167	 2.05263747500465E-02 
2168	 2.05098717032374E-02 
2169	 1.95212170518197E-02 
2170	 1.69147799527029E-02 
2171	 1.50994223911139E-02 
2172	 1.56921391980633E-02 
2173	 1.84698715691626E-02 
2174	 2.25300329451814E-02 
2175	 2.45942451176232E-02 
2176	 2.57700829937827E-02 
2177	 2.60182164481219E-02 
2178	 2.43083680643972E-02 
2179	 2.20689949506331E-02 
2180	 1.87997909348014E-02 
2181	 1.62048505543575E-02 
2182	 1.66394743971909E-02 
2183	 1.57322522343798E-02 
2184	 1.48675695637769E-02 
2185	 1.66127573582822E-02 
2186	 1.71401571390243E-02 
2187	 1.81496902900135E-02 
2188	 1.83259823642938E-02 
2189	 1.60452489183211E-02 
2190	 1.72265326690906E-02 
2191	 2.02471358167759E-02 
2192	 2.10252304853583E-02 
2193	 2.54176348846117E-02 
2194	 2.42467787324876E-02 
2195	 1.61871143048049E-02 
2196	 1.31086546717108E-02 
2197	 9.20020081547508E-03 
2198	 8.64194600372785E-03 
2199	 1.28416362226039E-02 
2200	 1.35617894898402E-02 
2201	 0.018381911913187 
2202	 2.12785808753974E-02 
2203	 2.22415832786452E-02 
2204	 2.31553663617653E-02 
2205	 1.87233704283533E-02 
2206	 0.017055984843474 
2207	 1.66304556818958E-02 
2208	 1.59775062727531E-02 
2209	 2.30609883304103E-02 
2210	 0.025323722152696 
2211	 0.023803946436802 
2212	 2.68407117556217E-02 
2213	 2.17036388041969E-02 
2214	 0.019700882078894 
2215	 2.26906707989204E-02 
2216	 1.87953184227104E-02 
2217	 1.90137702900806E-02 
2218	 2.34897256327749E-02 
2219	 2.31589716585507E-02 
2220	 2.04052358843899E-02 
2221	 2.09295460986034E-02 
2222	 0.020432229644262 
2223	 1.96821609927334E-02 
2224	 2.03709114110877E-02 
2225	 0.021759413443837 
2226	 2.26535371079337E-02 
2227	 2.40220692383374E-02 
2228	 2.87521411641499E-02 
2229	 3.10287612640788E-02 
2230	 3.15297995443531E-02 
2231	 3.19414048447126E-02 
2232	 3.15642055316632E-02 
2233	 2.99552926934375E-02 
2234	 2.67058613214935E-02 
2235	 0.02415054682524 
2236	 2.20968238945434E-02 
2237	 1.97129638369883E-02 
2238	 2.01565185461704E-02 
2239	 2.24967161831173E-02 
2240	 2.37172935710391E-02 
2241	 2.65485161766228E-02 
2242	 2.90896316977332E-02 
2243	 2.57387411234046E-02 
2244	 2.40320180724251E-02 
2245	 2.26446209481324E-02 
2246	 1.57710556698714E-02 
2247	 1.27025510125967E-02 
2248	 7.2053014982243E-03 
2249	 4.72534556118753E-04 
2250	-7.22707045784119E-04 
2251	-3.97848643188925E-03 
2252	-5.19991437430023E-03 
2253	-2.70002480483199E-03 
2254	 3.65445457967148E-03 
2255	 1.28426764656636E-02 
2256	 1.96492849165961E-02 
2257	 2.40106963680127E-02 
2258	 0.023710476104101 
2259	 2.16011648240801E-02 
2260	 2.12635611079662E-02 
2261	 2.21707377700948E-02 
2262	 2.11584029516729E-02 
2263	 1.94759482570464E-02 
2264	 1.92276438680148E-02 
2265	 1.88370303873713E-02 
2266	 1.73958443374834E-02 
2267	 1.79005740289173E-02 
2268	 1.60684994209715E-02 
2269	 8.60070862058209E-03 
2270	 7.03392167606602E-03 
2271	 8.6176941673561E-03 
2272	 9.31965812630788E-03 
2273	 1.41447656440087E-02 
2274	 1.47166547556571E-02 
2275	 9.88889167772601E-03 
2276	 8.68878991519906E-03 
2277	 7.93821186638129E-03 
2278	 1.25419730787494E-02 
2279	 2.23185237922561E-02 
2280	 2.82758926198919E-02 
2281	 3.83138615831676E-02 
2282	 0.040230076690615 
2283	 2.84841324037352E-02 
2284	 2.85433222459663E-02 
2285	 3.30786529841233E-02 
2286	 2.53878067451742E-02 
2287	 2.24961081534177E-02 
2288	 2.40037890831943E-02 
2289	 0.021516769012341 
2290	 1.82084044557347E-02 
2291	 1.80271795081808E-02 
2292	 1.70872394646092E-02 
2293	 1.14548486203956E-02 
2294	 0.014032954465099 
2295	 2.27802653377109E-02 
2296	 3.21259139883053E-02 
2297	 3.29851494387532E-02 
2298	 2.70193394350706E-02 
2299	 2.91734578728632E-02 
2300	 2.54274157228317E-02 
2301	 2.37814905891424E-02 
2302	 0.024914158029372 
2303	 1.16650719089651E-02 
2304	 7.28800801635275E-03 
2305	 8.33792062599957E-03 
2306	 5.52351980754956E-03 
2307	 9.57589366375441E-03 
2308	 1.34957049947022E-02 
2309	 1.96276317444434E-02 
2310	 2.46486574219585E-02 
2311	 2.70556834643723E-02 
2312	 3.20893908813954E-02 
2313	 2.99148929473823E-02 
2314	 2.83457996000596E-02 
2315	 2.31439215830516E-02 
2316	 1.17864394985631E-02 
2317	 1.52613853138652E-02 
2318	 1.99577011894874E-02 
2319	 2.35847077399302E-02 
2320	 1.99232268074675E-02 
2321	 1.45586814137524E-03 
2322	 4.85631948636693E-03 
2323	 1.65211077584788E-02 
2324	 1.93588406842297E-02 
2325	 2.93441521493422E-02 
2326	 2.49828885337277E-02 
2327	 0.010719892386763 
2328	 0.010934526027863 
2329	 8.91145861605319E-03 
2330	-8.17776459219449E-03 
2331	-2.52805147655694E-02 
2332	-4.26581199611167E-02 
2333	-5.01441388807211E-02 
2334	-4.10884021098859E-02 
2335	-2.67320304498761E-02 
2336	-4.7227215321251E-03 
2337	 1.91258880760673E-02 
2338	 3.57054267850543E-02 
2339	 0.0246843974543 
2340	 2.96775863606748E-03 
2341	-9.19548537304429E-03 
2342	-3.56600189390114E-02 
2343	-2.04823464410684E-02 
2344	 1.52029570738966E-02 
2345	 2.35537299252177E-02 
2346	 5.74943056016298E-02 
2347	 5.76277924552082E-02 
2348	 4.50493766329173E-02 
2349	 3.29336142644454E-02 
2350	 1.46989026123715E-03 
2351	-6.46483411847897E-03 
2352	-3.82799817050595E-02 
2353	-3.43089264694107E-02 
2354	-2.83540781311125E-02 
2355	-7.36807902526898E-02 
2356	-8.09998851389676E-02 
2357	-9.51581065773386E-02 
2358	-0.11961985833204 
2359	-7.36763685639755E-02 
2360	-1.42192857091911E-02 
2361	 3.35083527915741E-03 
2362	 2.71054664139287E-02 
2363	 4.67872080372525E-02 
2364	 3.27524727145258E-02 
2365	 1.59285363368943E-02 
2366	 1.28838269035052E-02 
2367	-3.54010291113888E-03 
2368	-0.01848777019979 
2369	-0.043310996056516 
2370	-9.33440516050609E-02 
2371	-9.40335818944494E-02 
2372	-0.093577624205223 
2373	-9.22451215993849E-02 
2374	-2.93081616532193E-02 
2375	-3.15093158205032E-02 
2376	-0.099432223310141 
2377	-9.71794899561605E-02 
2378	-0.117800734953077 
2379	-0.173678281962185 
2380	-0.138683569838994 
2381	-0.114023729590219 
2382	-0.113815010954064 
2383	-2.52953979114722E-02 
2384	 2.35976872424612E-02 
2385	-4.20574733847535E-02 
2386	-0.079088749539037 
2387	-8.33880850978666E-02 
2388	-0.075176813226986 
2389	-7.78497805850127E-02 
2390	-0.142123187021224 
2391	-0.205520559440553 
2392	-0.241193596313322 
2393	-0.248303375916379 
2394	-0.179180813329252 
2395	-0.116002300289176 
2396	-0.145004909115998 
2397	-0.188390230890758 
2398	-0.177328709595809 
2399	-0.192180184952427 
2400	-0.243429952390667 
2401	-0.186281762694522 
2402	-6.09179205901897E-02 
2403	 2.87938319695913E-02 
2404	 4.72118331461278E-02 
2405	-6.91330518195163E-02 
2406	-9.18485186016689E-02 
2407	-9.86336486655543E-02 
2408	-0.151562493561375 
2409	-9.82999900871788E-02 
2410	-5.86467848211672E-02 
2411	-0.131223737515863 
2412	-0.277731619426079 
2413	-0.303454229566066 
2414	-0.48603018195794 
2415	-0.729515814723556 
2416	-0.258134593878524 
2417	-1.89180217484144E-02 
2418	-7.76299160393226E-02 
2419	-8.16579217130747E-02 
2420	-0.228465117270749 
2421	-0.347447741086262 
2422	-0.222487043892251 
2423	 8.24468776342504E-02 
2424	 0.175691751567558 
2425	 9.01506169564392E-02 
2426	 0.156459081392983 
2427	 8.74752387790943E-02 
2428	-2.11742381489135E-02 
2429	 0.232581773423859 
2430	 0.151390410571145 
2431	-0.015909616982508 
2432	 0.07846058116769 
2433	-0.28159345205547 
2434	-0.438632928340776 
2435	-0.195835991202563 
2436	-0.246284992297294 
2437	-6.76818512442074E-02 
2438	 2.97562451353834E-02 
2439	-0.309890627180607 
2440	-0.62538465215365 
2441	-0.855643252165052 
2442	-0.779266333958712 
2443	-0.783460074021561 
2444	-0.729117065481363 
2445	-0.462618370126947 
2446	-0.433386410717547 
2447	-0.105596400683885 
2448	 0.100264367408982 
2449	 0.239478306788842 
2450	 0.245470235582142 
2451	 0.287742263518625 
2452	 0.261950697230659 
2453	-0.249925793578249 
2454	-0.902672545436897 
2455	-1.60529004803873 
2456	-1.34006792024509 
2457	-1.71456626692104 
2458	-1.92578377040435 
2459	-1.57086018475599 
2460	-1.42354862731382 
2461	-0.955012852819466 
2462	-0.479704304482558 
2463	-0.392629878238844 
2464	-0.173162218465476 
2465	 0.305085119070334 
2466	 0.279619999735478 
2467	-0.16705692152994 
2468	-0.374353794711399 
2469	-0.877460128259348 
2470	-0.714758816363083 
2471	-0.585056549983324 
2472	-7.96964401396603 
2473	-6.23570268839396 
2474	-2.38272837071328 
2475	-1.87594655577712 
2476	-1.55355071538236 
2477	-2.17669363815306 
2478	 1.48464987110528 
2479	 0.612541505175372 
2480	-7.45276709214222E-03 
2481	 1.1815613435554 
2482	-1.12892764682504 
2483	 4.05433098893698 
2484	 1.12967054719973 
2485	 0.883340291398454 
2486	-0.39292766475305 
2487	-0.505778015405944 
2488	-2.21524579231241 
2489	 4.00375281492026 
2490	 2.72519688766648 
2491	-3.86075924637258 
2492	-1.59274641011965 
2493	-1.24563020623756 
2494	-1.30175418974897 
2495	-7.72387875963375 
2496	-21.3624644279244 
2497	 15.1952524637964 
2498	 1.62605978100834 
2499	-2.16474476930877 
2500	-1.18088602217418 
