Wavelength	rt062200008.asd
350	 2.15888777644033E-02 
351	 2.09236766779287E-02 
352	 2.08312912774659E-02 
353	 2.11990431740799E-02 
354	 2.16731899225647E-02 
355	 2.19856386480459E-02 
356	 2.23346468225123E-02 
357	 2.25935718411576E-02 
358	 2.26689065804412E-02 
359	 2.30753905024005E-02 
360	 0.022921483778901 
361	 2.25057616680939E-02 
362	 0.02282287510882 
363	 2.28873632025875E-02 
364	 2.29878533206974E-02 
365	 2.32902888424788E-02 
366	 2.35400773961892E-02 
367	 2.39595107973638E-02 
368	 2.42958761702005E-02 
369	 2.42932071927464E-02 
370	 2.41173508563984E-02 
371	 2.37934304565342E-02 
372	 2.39107690765861E-02 
373	 2.50980375673282E-02 
374	 2.55106122296963E-02 
375	 2.56703220249815E-02 
376	 2.60128267592265E-02 
377	 2.64766506338215E-02 
378	 2.60672778715995E-02 
379	 2.61697875256453E-02 
380	 2.76116547823287E-02 
381	 2.77814210066047E-02 
382	 2.76067724285552E-02 
383	 0.027727106107298 
384	 2.84001085012203E-02 
385	 0.028171914046615 
386	 2.83863923510229E-02 
387	 2.92536941133847E-02 
388	 2.95094337181437E-02 
389	 2.95668018005157E-02 
390	 2.93621946611981E-02 
391	 2.90609537918972E-02 
392	 2.95728766654181E-02 
393	 0.030016689363966 
394	 3.03376925111445E-02 
395	 3.07147482890587E-02 
396	 3.07643989414832E-02 
397	 3.04932744559794E-02 
398	 3.03049305601821E-02 
399	 3.08320043864731E-02 
400	 3.11745421191722E-02 
401	 3.13639168360843E-02 
402	 3.14707604416364E-02 
403	 3.12175464799639E-02 
404	 3.12828706795115E-02 
405	 3.17263864007407E-02 
406	 3.22433377309238E-02 
407	 0.031998232353326 
408	 3.20100171142218E-02 
409	 3.24616488694908E-02 
410	 3.26216489366979E-02 
411	 3.24813239836286E-02 
412	 3.24836552970751E-02 
413	 3.28274185026292E-02 
414	 3.29294501818752E-02 
415	 3.30942982844613E-02 
416	 3.32946719762411E-02 
417	 3.34082378644787E-02 
418	 3.35468468082384E-02 
419	 3.38519822188693E-02 
420	 3.42544420342057E-02 
421	 3.44718643441005E-02 
422	 3.46116614178665E-02 
423	 3.47325501412311E-02 
424	 3.49029237081638E-02 
425	 3.52534745341522E-02 
426	 3.55362016997352E-02 
427	 3.57640686124789E-02 
428	 3.60641191739545E-02 
429	 3.63563287610495E-02 
430	 3.66837555115219E-02 
431	 3.70694689521323E-02 
432	 0.037501525947756 
433	 3.77533825795757E-02 
434	 3.78124133933955E-02 
435	 3.78447412546576E-02 
436	 3.84073428880836E-02 
437	 3.87476052058457E-02 
438	 3.89392489144894E-02 
439	 3.94471913679373E-02 
440	 3.98442756662828E-02 
441	 4.00496404237968E-02 
442	 4.01737045192004E-02 
443	 4.05503268571188E-02 
444	 4.07524819202037E-02 
445	 4.09797801406008E-02 
446	 4.14311653102082E-02 
447	 4.16093063968775E-02 
448	 4.18441302614785E-02 
449	 4.21101568358764E-02 
450	 4.21461439387858E-02 
451	 4.23138695264636E-02 
452	 4.26333246755337E-02 
453	 4.29977090632055E-02 
454	 4.31561757370455E-02 
455	 4.32327834934435E-02 
456	 4.33064476981953E-02 
457	 4.34330596231479E-02 
458	 4.35993874193113E-02 
459	 4.37705795027091E-02 
460	 4.39239850619087E-02 
461	 4.40520586894765E-02 
462	 4.41883089569168E-02 
463	 4.42834682703292E-02 
464	 4.43080284673865E-02 
465	 4.43093242942087E-02 
466	 4.44516712872205E-02 
467	 4.47086057307191E-02 
468	 4.49316857477408E-02 
469	 4.49075415553715E-02 
470	 4.50379935074503E-02 
471	 4.53496092584633E-02 
472	 4.52979925913114E-02 
473	 4.53456777266692E-02 
474	 4.55495873128722E-02 
475	 4.57913994007875E-02 
476	 0.04569441259462 
477	 0.045910552879453 
478	 4.63260272554614E-02 
479	 4.63567667175156E-02 
480	 0.046551777351376 
481	 4.67297312288246E-02 
482	 4.68119970432272E-02 
483	 4.71361131597927E-02 
484	 0.047325382665797 
485	 4.74543179488387E-02 
486	 4.77193449476325E-02 
487	 0.047999986249843 
488	 4.82162713244737E-02 
489	 4.84454936397983E-02 
490	 0.048890031657175 
491	 4.90466457749946E-02 
492	 4.92882573042675E-02 
493	 4.98301230151118E-02 
494	 4.99539527381157E-02 
495	 5.03441183861784E-02 
496	 5.09194869921762E-02 
497	 5.12561532063926E-02 
498	 5.16098292643309E-02 
499	 5.19343551605451E-02 
500	 5.22514928398668E-02 
501	 5.27301433479679E-02 
502	 5.31888161134223E-02 
503	 5.36189999793841E-02 
504	 5.40591869345565E-02 
505	 5.45193601381729E-02 
506	 5.49128889940639E-02 
507	 5.52940358803394E-02 
508	 5.58091319455252E-02 
509	 0.056197894815798 
510	 5.66313915841844E-02 
511	 5.72053590355536E-02 
512	 5.76918748074858E-02 
513	 5.81189016482368E-02 
514	 5.86043029649919E-02 
515	 5.92479250469143E-02 
516	 5.96789540369445E-02 
517	 0.060206855585441 
518	 6.09051375347593E-02 
519	 6.14896602814868E-02 
520	 6.21069956890231E-02 
521	 6.26792249044345E-02 
522	 6.31594137293093E-02 
523	 6.37429587681629E-02 
524	 6.44319555607774E-02 
525	 6.51636172148372E-02 
526	 6.58440880197338E-02 
527	 6.65767858865505E-02 
528	 6.72668511667355E-02 
529	 6.78797354793702E-02 
530	 6.85441535431665E-02 
531	 6.92759959661371E-02 
532	 7.00761443086682E-02 
533	 7.09132215750449E-02 
534	 7.16781738316739E-02 
535	 7.24333003092995E-02 
536	 7.32341320377892E-02 
537	 0.074108712535101 
538	 7.49822747556122E-02 
539	 7.59126269971754E-02 
540	 0.076893979659718 
541	 7.76016748965786E-02 
542	 7.83715086589595E-02 
543	 7.92650841862161E-02 
544	 8.01589234619947E-02 
545	 8.09437716892734E-02 
546	 8.17279987144758E-02 
547	 8.25515303913138E-02 
548	 8.32599574139445E-02 
549	 8.39959131549134E-02 
550	 8.48055526116077E-02 
551	 8.56704828853342E-02 
552	 8.64228736827533E-02 
553	 8.71435109199179E-02 
554	 8.79059835389679E-02 
555	 0.088751651543329 
556	 8.96502530988216E-02 
557	 9.05705399117529E-02 
558	 9.14540117686892E-02 
559	 9.21832143864604E-02 
560	 9.29380490820992E-02 
561	 9.37471107054976E-02 
562	 0.094545703661813 
563	 9.53394533600806E-02 
564	 9.60605600845525E-02 
565	 9.67112687887012E-02 
566	 9.74611969562348E-02 
567	 9.80149301105434E-02 
568	 9.83931378461607E-02 
569	 9.87603829683814E-02 
570	 9.93447952347198E-02 
571	 9.97758165747489E-02 
572	 0.100024750834036 
573	 0.100462106827825 
574	 0.100983246628666 
575	 0.101457025954214 
576	 0.101813566010834 
577	 0.102235100474015 
578	 0.102591212213401 
579	 0.102828410583424 
580	 0.102983324503103 
581	 0.103424738188277 
582	 0.103976414565307 
583	 0.104414576072585 
584	 0.104531895705835 
585	 0.104761783866308 
586	 0.105075559310642 
587	 0.105288301411447 
588	 0.105367673758525 
589	 0.105585250057189 
590	 0.105913417033142 
591	 0.106022123931046 
592	 0.106225987905433 
593	 0.106418256229208 
594	 0.106502696045962 
595	 0.10670043937994 
596	 0.106818850543712 
597	 0.106873353180863 
598	 0.106987312109727 
599	 0.107101223936753 
600	 0.10725163987266 
601	 0.107411867777347 
602	 0.107418113472673 
603	 0.107602059944176 
604	 0.107856964426569 
605	 0.10798240736175 
606	 0.108104667101472 
607	 0.108206071862307 
608	 0.108336975437987 
609	 0.108606467372559 
610	 0.108622837365064 
611	 0.108625493153881 
612	 0.108840356610423 
613	 0.109066128438738 
614	 0.109107819094224 
615	 0.109114227066875 
616	 0.109379429519195 
617	 0.109529738910947 
618	 0.109572429594252 
619	 0.109611662033937 
620	 0.109839779789916 
621	 0.109982268585632 
622	 0.110100643578077 
623	 0.110289182200267 
624	 0.110238562342366 
625	 0.110209275883103 
626	 0.110298890521705 
627	 0.110425447339104 
628	 0.110592828126887 
629	 0.110676615942595 
630	 0.110660550268947 
631	 0.110864187486273 
632	 0.11101047069123 
633	 0.111026882909166 
634	 0.11095840588786 
635	 0.110912925282521 
636	 0.110942453540545 
637	 0.111045704032849 
638	 0.111170523096283 
639	 0.110928415815142 
640	 0.110691188565182 
641	 0.110814747210885 
642	 0.110592959116564 
643	 0.110331827911684 
644	 0.11017969921169 
645	 0.110126589248855 
646	 0.109931229195419 
647	 0.109648513701531 
648	 0.109416404062801 
649	 0.109420342838313 
650	 0.109306338117017 
651	 0.10904932065995 
652	 0.108792728519581 
653	 0.108770270934037 
654	 0.108761905404647 
655	 0.108555302987895 
656	 0.108049142978298 
657	 0.10788033123872 
658	 0.107685479880451 
659	 0.107173121641143 
660	 0.10693555035413 
661	 0.106653274013077 
662	 0.106268252660671 
663	 0.105891869776703 
664	 0.105541984443225 
665	 0.105120557993501 
666	 0.104691899040941 
667	 0.104668146908727 
668	 0.104396152089792 
669	 0.104114655095273 
670	 0.104180961581471 
671	 0.103947081000804 
672	 0.103774582500176 
673	 0.103811443257334 
674	 0.10396000417592 
675	 0.104182362970461 
676	 0.104473731775901 
677	 0.1047937216076 
678	 0.104956540545166 
679	 0.105298945217044 
680	 0.105951737864394 
681	 0.106874069649318 
682	 0.107631746097659 
683	 0.108438141747636 
684	 0.109405526400382 
685	 0.11053550248975 
686	 0.111650828414101 
687	 0.112839911702906 
688	 0.114139528843506 
689	 0.115394606792643 
690	 0.116634653022609 
691	 0.117614945184437 
692	 0.118041527903813 
693	 0.119216268894046 
694	 0.120256833253888 
695	 0.120755000229398 
696	 0.121639564522281 
697	 0.122363308189961 
698	 0.122832216272209 
699	 0.123098550459908 
700	 0.123599482815718 
701	 0.123942836997122 
702	 0.124103441222794 
703	 0.124356974703861 
704	 0.124360592245112 
705	 0.124217700600781 
706	 0.124082731939738 
707	 0.124099740891555 
708	 0.12381932881882 
709	 0.123361046044628 
710	 0.122983546977519 
711	 0.122416177001021 
712	 0.121599113337055 
713	 0.120589042614612 
714	 0.119518297477334 
715	 0.118224186966458 
716	 0.116726918514565 
717	 0.115256470219272 
718	 0.113913932911367 
719	 0.112907996076772 
720	 0.11208750752986 
721	 0.111061656138929 
722	 0.109943812696843 
723	 0.108574912411546 
724	 0.107094028413131 
725	 0.10565286174875 
726	 0.104254836380823 
727	 0.102695974141844 
728	 0.100863942694478 
729	 9.89693477187103E-02 
730	 9.70461342008516E-02 
731	 9.53578997100072E-02 
732	 9.40250770316088E-02 
733	 9.27605413475419E-02 
734	 9.14584086567695E-02 
735	 9.02413269465188E-02 
736	 8.94953792484435E-02 
737	 8.89336572052554E-02 
738	 8.87316359189899E-02 
739	 8.88785698156682E-02 
740	 8.84618576417745E-02 
741	 8.82023389404572E-02 
742	 8.82477128162414E-02 
743	 8.83955013937574E-02 
744	 8.83508885476968E-02 
745	 8.83154681525313E-02 
746	 0.088426502787883 
747	 8.86611389263923E-02 
748	 8.88379335408883E-02 
749	 0.088838694323161 
750	 8.86715483741236E-02 
751	 8.86410652351844E-02 
752	 8.87188841693523E-02 
753	 8.88073392017915E-02 
754	 8.88093181352478E-02 
755	 8.90256635071159E-02 
756	 8.90218739486113E-02 
757	 8.86690982283753E-02 
758	 8.82782409528452E-02 
759	 8.78746632026193E-02 
760	 8.76055199632368E-02 
761	 8.76660192823406E-02 
762	 8.78861051013003E-02 
763	 8.81997051996923E-02 
764	 8.86650706822602E-02 
765	 8.92595586498647E-02 
766	 8.93664141931272E-02 
767	 8.97224992617856E-02 
768	 9.03125608753566E-02 
769	 9.04370830230203E-02 
770	 9.08162983145483E-02 
771	 0.091214043681048 
772	 9.13995325702526E-02 
773	 9.16928166949442E-02 
774	 9.17912355782543E-02 
775	 9.19367296577335E-02 
776	 9.24434814807528E-02 
777	 9.25130874990621E-02 
778	 9.28051995478496E-02 
779	 9.33678338644007E-02 
780	 9.35744150945405E-02 
781	 9.39516523375259E-02 
782	 0.094410044103058 
783	 9.47754499250494E-02 
784	 9.49201711890253E-02 
785	 9.51876630702947E-02 
786	 9.55196148804797E-02 
787	 9.57663558700633E-02 
788	 9.61737347355243E-02 
789	 9.65199730976685E-02 
790	 9.69354544525874E-02 
791	 9.77681403648503E-02 
792	 9.83166127377805E-02 
793	 9.87802243328054E-02 
794	 9.92418952459749E-02 
795	 9.93548122508019E-02 
796	 9.96122034356111E-02 
797	 0.10012365402389 
798	 0.100719729287795 
799	 0.100620303773113 
800	 0.100949733580271 
801	 0.101561431624013 
802	 0.101671724929294 
803	 0.101778368600616 
804	 0.102071768812027 
805	 0.102424861188288 
806	 0.102428574908765 
807	 0.102417508026903 
808	 0.102294385033021 
809	 0.101995051425954 
810	 0.101782581818296 
811	 0.101183840180067 
812	 0.100434089899336 
813	 0.100058985002381 
814	 0.100146174423358 
815	 9.90878429047262E-02 
816	 9.77561237174592E-02 
817	 9.85401509346204E-02 
818	 0.098282244104763 
819	 9.76515031138977E-02 
820	 9.71313504618013E-02 
821	 9.65107783206317E-02 
822	 9.52852527258119E-02 
823	 9.39148806615967E-02 
824	 9.28641359333392E-02 
825	 9.18548349079101E-02 
826	 0.090622870257484 
827	 8.89241959292348E-02 
828	 8.68208153974374E-02 
829	 8.51209378006634E-02 
830	 8.35210514952908E-02 
831	 0.082149643159074 
832	 0.081437842465052 
833	 8.07447092884275E-02 
834	 8.00360524270937E-02 
835	 7.94004721295208E-02 
836	 7.89829029743584E-02 
837	 7.88462615837554E-02 
838	 7.87658879802961E-02 
839	 7.85348610894975E-02 
840	 7.81682626593765E-02 
841	 7.75277581878708E-02 
842	 7.70418437903296E-02 
843	 7.70987616776581E-02 
844	 0.076927358487688 
845	 7.65288687243372E-02 
846	 7.61111275386868E-02 
847	 7.59578257933942E-02 
848	 7.58480784357163E-02 
849	 0.075480728002129 
850	 0.07509673409863 
851	 7.55246332663571E-02 
852	 7.50339123580887E-02 
853	 7.45551220858225E-02 
854	 7.47153889881776E-02 
855	 0.074256408732525 
856	 7.40566547440977E-02 
857	 7.39186234798931E-02 
858	 7.35164262742809E-02 
859	 7.31330583673445E-02 
860	 7.28855217472294E-02 
861	 7.28604652193917E-02 
862	 7.30608801359144E-02 
863	 7.32963849600726E-02 
864	 7.29700803451701E-02 
865	 0.072230696576187 
866	 7.18938664864884E-02 
867	 7.18329591265972E-02 
868	 7.16908846076696E-02 
869	 7.14209898116102E-02 
870	 7.14036517144671E-02 
871	 7.06650630691072E-02 
872	 0.07023629711463 
873	 7.06671238951764E-02 
874	 7.04744921399695E-02 
875	 7.02893068273632E-02 
876	 6.98710280235712E-02 
877	 6.90168491719644E-02 
878	 6.84823821902134E-02 
879	 6.83885412813569E-02 
880	 6.84240929537273E-02 
881	 6.81284721888658E-02 
882	 0.067557628494472 
883	 6.71217876751615E-02 
884	 6.67884069862563E-02 
885	 6.62565594486265E-02 
886	 6.61864172993848E-02 
887	 6.60815733500239E-02 
888	 6.58532612728992E-02 
889	 6.59591626914753E-02 
890	 6.55357670742839E-02 
891	 6.49699310079168E-02 
892	 6.46516725318296E-02 
893	 6.45326590933972E-02 
894	 6.37193315572289E-02 
895	 6.31324140752408E-02 
896	 6.35219528647385E-02 
897	 0.063174510602658 
898	 6.17226003285501E-02 
899	 0.060771929100936 
900	 6.15487376197063E-02 
901	 6.16759703472918E-02 
902	 0.061423421361701 
903	 6.08352641487965E-02 
904	 6.00985285777475E-02 
905	 6.03241763511066E-02 
906	 6.13475234936123E-02 
907	 6.17300912009772E-02 
908	 5.97483076130449E-02 
909	 5.89317860221294E-02 
910	 5.85416144199991E-02 
911	 5.75941588685427E-02 
912	 5.57228363592026E-02 
913	 5.64515419291163E-02 
914	 5.66870451676251E-02 
915	 5.55303868778246E-02 
916	 5.54254674574467E-02 
917	 0.055574812231813 
918	 5.52858061895557E-02 
919	 5.46309050124806E-02 
920	 5.45699199965833E-02 
921	 5.39781567110325E-02 
922	 0.053120638707662 
923	 0.053108641280313 
924	 5.63163757188953E-02 
925	 5.63176488030854E-02 
926	 5.45569917386891E-02 
927	 5.41995872384598E-02 
928	 0.054236369363925 
929	 5.59457184546489E-02 
930	 5.61326434547372E-02 
931	 0.050510267480695 
932	 5.02682248897614E-02 
933	 4.93458942756011E-02 
934	 4.67469004839299E-02 
935	 4.45281495751288E-02 
936	 4.01270234328724E-02 
937	 4.30171087583093E-02 
938	 4.35817819250284E-02 
939	 3.43922749599521E-02 
940	 3.68659724651496E-02 
941	 4.37441746571387E-02 
942	 0.051386861863637 
943	 5.63922571442648E-02 
944	 4.58435208816148E-02 
945	 0.046946504064651 
946	 5.39581848281832E-02 
947	 4.61888827235162E-02 
948	 4.87040663763742E-02 
949	 4.77947749632361E-02 
950	 4.33675240222059E-02 
951	 4.37825290211651E-02 
952	 4.48899621969173E-02 
953	 4.66777204969464E-02 
954	 4.56680490318053E-02 
955	 3.91218294240124E-02 
956	 4.23244748201129E-02 
957	 4.69725639664805E-02 
958	 4.57758189963802E-02 
959	 3.70051730694606E-02 
960	 3.54138891709467E-02 
961	 3.77472290301831E-02 
962	 0.041931060574848 
963	 0.047078262209078 
964	 4.59815940506288E-02 
965	 4.24653499485551E-02 
966	 4.19433576838396E-02 
967	 0.047679751716791 
968	 4.39978781464231E-02 
969	 4.07751324794951E-02 
970	 0.041460079585111 
971	 4.22608301656776E-02 
972	 4.34886817558487E-02 
973	 4.17227001195283E-02 
974	 4.02912568112341E-02 
975	 4.65364529045883E-02 
976	 4.28514334958526E-02 
977	 3.95830079794293E-02 
978	 4.14679570067818E-02 
979	 4.47618716520525E-02 
980	 4.62657904121742E-02 
981	 4.44026281834532E-02 
982	 4.17350758796328E-02 
983	 0.042661887187366 
984	 4.22760484929812E-02 
985	 4.06904953376349E-02 
986	 4.09263013509946E-02 
987	 0.045867836413594 
988	 4.51364938134297E-02 
989	 4.28718355770337E-02 
990	 4.27646882732989E-02 
991	 4.56629172125678E-02 
992	 4.49457883774622E-02 
993	 4.26860413406953E-02 
994	 4.18297723163734E-02 
995	 4.41414696757727E-02 
996	 4.46212853441884E-02 
997	 4.63990520425119E-02 
998	 4.63726489179607E-02 
999	 4.09780934520748E-02 
1000	 4.68292082591365E-02 
1001	 4.45673265102632E-02 
1002	 4.41397844691486E-02 
1003	 4.42065514544864E-02 
1004	 4.44140703635758E-02 
1005	 4.47097940564709E-02 
1006	 4.55011793000045E-02 
1007	 4.58056090584592E-02 
1008	 4.54303202924908E-02 
1009	 4.50447277090493E-02 
1010	 4.50578168904051E-02 
1011	 4.50159462331949E-02 
1012	 4.57181961793603E-02 
1013	 4.62694024192788E-02 
1014	 4.63181771245097E-02 
1015	 4.57320846873628E-02 
1016	 4.57411861738314E-02 
1017	 4.56898806594567E-02 
1018	 4.57293018104156E-02 
1019	 4.62605923625718E-02 
1020	 4.64447459345834E-02 
1021	 4.62946902858924E-02 
1022	 4.62705874119366E-02 
1023	 4.65849827026207E-02 
1024	 4.66965815990898E-02 
1025	 4.72732559865373E-02 
1026	 4.80492539511778E-02 
1027	 4.82556174079907E-02 
1028	 0.048221942834452 
1029	 4.82935440764086E-02 
1030	 4.81075727374633E-02 
1031	 4.78875166847287E-02 
1032	 4.74811589262616E-02 
1033	 4.75577086609189E-02 
1034	 0.047733784032346 
1035	 4.78596742235347E-02 
1036	 4.85216749710425E-02 
1037	 4.88502815983904E-02 
1038	 4.86129958495746E-02 
1039	 4.89253193743139E-02 
1040	 4.93123844222893E-02 
1041	 4.92921847838462E-02 
1042	 0.049281181572339 
1043	 4.90155665907698E-02 
1044	 0.04912306104655 
1045	 4.92359267815236E-02 
1046	 4.95206700671047E-02 
1047	 5.04084858070928E-02 
1048	 5.06498140137526E-02 
1049	 5.06905075708403E-02 
1050	 5.05685020426053E-02 
1051	 4.98328888408938E-02 
1052	 4.95337568085661E-02 
1053	 4.90759240059839E-02 
1054	 4.90964283026551E-02 
1055	 4.98242856511653E-02 
1056	 0.05019910022835 
1057	 5.05671951823826E-02 
1058	 5.13499026417675E-02 
1059	 5.12314491434349E-02 
1060	 0.050305458274896 
1061	 5.01656648259424E-02 
1062	 4.99303285324823E-02 
1063	 4.98318062071381E-02 
1064	 5.02983445513995E-02 
1065	 5.03829033285452E-02 
1066	 4.99742145731361E-02 
1067	 0.050013257215955 
1068	 5.03513553797607E-02 
1069	 5.05679013698943E-02 
1070	 0.051118922349567 
1071	 5.13307526063285E-02 
1072	 5.16045190965392E-02 
1073	 5.12701561090879E-02 
1074	 5.08840965132329E-02 
1075	 4.97801367821047E-02 
1076	 4.98220247296741E-02 
1077	 5.04893220622405E-02 
1078	 5.03777728789791E-02 
1079	 5.04754986885331E-02 
1080	 0.050563858743957 
1081	 4.98591962546481E-02 
1082	 4.96678470638063E-02 
1083	 5.05398587178062E-02 
1084	 5.05038027067458E-02 
1085	 4.95557966073453E-02 
1086	 4.92384965109499E-02 
1087	 4.87974243909426E-02 
1088	 4.85968964961325E-02 
1089	 4.87115939015444E-02 
1090	 4.94158622033376E-02 
1091	 4.94441735050738E-02 
1092	 4.93081573695721E-02 
1093	 4.89075598683163E-02 
1094	 4.76588871191644E-02 
1095	 0.047600660526212 
1096	 4.84173075832599E-02 
1097	 4.85151727804576E-02 
1098	 4.90347105628935E-02 
1099	 4.89245769087718E-02 
1100	 4.76996548172983E-02 
1101	 0.046823580623648 
1102	 4.56301224457218E-02 
1103	 4.55187862974169E-02 
1104	 4.65215536057509E-02 
1105	 4.62654275276179E-02 
1106	 4.74083437939813E-02 
1107	 4.77367181246196E-02 
1108	 4.66467663203569E-02 
1109	 4.66017936948623E-02 
1110	 4.60511632874346E-02 
1111	 0.045012040268728 
1112	 4.47241445258155E-02 
1113	 4.40662089539644E-02 
1114	 4.45390917584946E-02 
1115	 4.80985477054608E-02 
1116	 4.86220912453286E-02 
1117	 4.77995916161779E-02 
1118	 4.80905957522905E-02 
1119	 4.40735400237456E-02 
1120	 4.33852052003334E-02 
1121	 0.052209353479286 
1122	 5.19161793440761E-02 
1123	 4.11806763700786E-02 
1124	 3.56596387662864E-02 
1125	 3.84595150039662E-02 
1126	 4.96420667682919E-02 
1127	 0.059849422148779 
1128	 6.46591553042692E-02 
1129	 6.16501180101031E-02 
1130	 3.71925004676131E-02 
1131	 3.62512339615494E-02 
1132	 4.85215023823308E-02 
1133	 4.71435166024606E-02 
1134	 4.53215362091583E-02 
1135	 4.54738656282721E-02 
1136	 3.86454807309283E-02 
1137	 3.65081102214991E-02 
1138	 3.93513352520176E-02 
1139	 4.17659574255519E-02 
1140	 3.88077299140876E-02 
1141	 3.92292777668739E-02 
1142	 4.17863696390172E-02 
1143	 3.87526931209506E-02 
1144	 3.53166377805033E-02 
1145	 3.66096587546548E-02 
1146	 3.56072984677335E-02 
1147	 3.29825912080852E-02 
1148	 3.35793438796138E-02 
1149	 3.39093074198217E-02 
1150	 3.41388325615465E-02 
1151	 3.54263664874535E-02 
1152	 3.53820850323719E-02 
1153	 3.40535005398443E-02 
1154	 3.46806223139383E-02 
1155	 3.61554398603673E-02 
1156	 3.56972944190686E-02 
1157	 3.46450324104692E-02 
1158	 3.32713315476604E-02 
1159	 3.17937676694578E-02 
1160	 3.15294262323358E-02 
1161	 0.032177239557167 
1162	 3.23265768561043E-02 
1163	 0.031926234932497 
1164	 3.14978626692593E-02 
1165	 3.15243305588653E-02 
1166	 3.26857467257708E-02 
1167	 3.31676896872018E-02 
1168	 3.23944457839151E-02 
1169	 3.26183743301025E-02 
1170	 3.27608842048001E-02 
1171	 0.032304965241578 
1172	 0.031376721840794 
1173	 3.14468867401607E-02 
1174	 0.031790747273814 
1175	 3.11586922491391E-02 
1176	 3.12324280159766E-02 
1177	 3.19947099850455E-02 
1178	 3.15993093347529E-02 
1179	 3.12098368682129E-02 
1180	 3.18943250177625E-02 
1181	 3.20266206107446E-02 
1182	 3.16674777843039E-02 
1183	 3.15191559800323E-02 
1184	 3.08457025644768E-02 
1185	 3.07572729134274E-02 
1186	 3.14385354803977E-02 
1187	 0.03127034722195 
1188	 3.07076098881434E-02 
1189	 3.06682394933476E-02 
1190	 3.09725773635928E-02 
1191	 3.08304555416645E-02 
1192	 3.08618024793026E-02 
1193	 3.14235438048318E-02 
1194	 3.19323839536505E-02 
1195	 3.11524757419184E-02 
1196	 3.09847891145216E-02 
1197	 3.19484627427452E-02 
1198	 3.16679166404959E-02 
1199	 3.07589132987613E-02 
1200	 3.09887871567176E-02 
1201	 3.14727220051026E-02 
1202	 3.13731080962279E-02 
1203	 3.17719158980303E-02 
1204	 3.19669567362943E-02 
1205	 3.12763517397492E-02 
1206	 3.11663820415186E-02 
1207	 3.13590907899921E-02 
1208	 3.11304070748089E-02 
1209	 3.09793369760958E-02 
1210	 3.11557558326943E-02 
1211	 3.12090399597968E-02 
1212	 3.12024150956655E-02 
1213	 3.18616037225672E-02 
1214	 3.21642647987464E-02 
1215	 3.20939086418782E-02 
1216	 3.16239907497373E-02 
1217	 0.032022257002811 
1218	 3.20916394144898E-02 
1219	 3.18187285434012E-02 
1220	 3.19215453593032E-02 
1221	 3.16004258109243E-02 
1222	 3.15296368587491E-02 
1223	 3.19023340367139E-02 
1224	 3.20473348033791E-02 
1225	 3.22293169401163E-02 
1226	 3.23359654832152E-02 
1227	 0.032333886160634 
1228	 3.23882333578758E-02 
1229	 3.25137086595958E-02 
1230	 3.26120641544936E-02 
1231	 3.24860127233152E-02 
1232	 0.032387569332518 
1233	 3.22203104021541E-02 
1234	 3.21128404552046E-02 
1235	 3.22181400972391E-02 
1236	 3.24579548662367E-02 
1237	 3.24368851436088E-02 
1238	 3.25507355156412E-02 
1239	 3.25591124170035E-02 
1240	 3.22451303867923E-02 
1241	 3.21407770081923E-02 
1242	 0.032259664342565 
1243	 3.26276080056892E-02 
1244	 3.28084048411886E-02 
1245	 3.26362474590167E-02 
1246	 3.27103971016914E-02 
1247	 3.29254904113141E-02 
1248	 3.28430503097606E-02 
1249	 0.032578841957807 
1250	 3.25434557572031E-02 
1251	 0.032631158701545 
1252	 3.27262003512265E-02 
1253	 3.26290344928914E-02 
1254	 3.23106063251492E-02 
1255	 3.20139695872543E-02 
1256	 3.18274648595644E-02 
1257	 3.16816189841159E-02 
1258	 3.17893748825761E-02 
1259	 3.22076710337093E-02 
1260	 3.22714111180098E-02 
1261	 3.23687661961731E-02 
1262	 3.22581471650613E-02 
1263	 3.17904387350753E-02 
1264	 0.03166272240359 
1265	 3.18924421740849E-02 
1266	 0.031958404140217 
1267	 0.03203305499167 
1268	 3.19806174961713E-02 
1269	 3.17822679754367E-02 
1270	 3.17695813618199E-02 
1271	 3.19529546784996E-02 
1272	 3.23563262712867E-02 
1273	 3.26996158993437E-02 
1274	 3.23736122358918E-02 
1275	 3.22577547968048E-02 
1276	 3.24609514927755E-02 
1277	 3.21617136109523E-02 
1278	 3.22149348306284E-02 
1279	 3.27273495942815E-02 
1280	 3.28564643719807E-02 
1281	 3.27784033433906E-02 
1282	 3.23842308702692E-02 
1283	 3.22880295946371E-02 
1284	 3.21047125731575E-02 
1285	 3.20263993856457E-02 
1286	 3.23690953517086E-02 
1287	 3.21964523267862E-02 
1288	 3.15307622360063E-02 
1289	 3.12179192777545E-02 
1290	 3.07514836515158E-02 
1291	 3.06581805243634E-02 
1292	 3.05569958312503E-02 
1293	 3.01567326605317E-02 
1294	 3.03771240998251E-02 
1295	 3.05692710458553E-02 
1296	 3.03393404635932E-02 
1297	 0.030555280339349 
1298	 3.06856765260339E-02 
1299	 0.030420375496588 
1300	 3.04580437311405E-02 
1301	 3.09159095861981E-02 
1302	 3.08773986986084E-02 
1303	 3.04524329122179E-02 
1304	 3.04281421299668E-02 
1305	 3.00901908553725E-02 
1306	 2.97821854707116E-02 
1307	 2.91336630833419E-02 
1308	 2.89621901852137E-02 
1309	 2.91843842731327E-02 
1310	 2.91192076684971E-02 
1311	 2.91397846004428E-02 
1312	 2.89630421678356E-02 
1313	 2.86375401914343E-02 
1314	 2.81649095661929E-02 
1315	 2.72856991058146E-02 
1316	 2.67399677362284E-02 
1317	 2.61755612399706E-02 
1318	 0.025878381699162 
1319	 2.59408067630331E-02 
1320	 2.59207519655532E-02 
1321	 2.58979990597312E-02 
1322	 2.58900913419419E-02 
1323	 2.67006491056062E-02 
1324	 2.88217590561498E-02 
1325	 2.85271496486421E-02 
1326	 2.71844222052204E-02 
1327	 2.72054922251111E-02 
1328	 2.60319639194726E-02 
1329	 0.025381999458588 
1330	 2.76024603549404E-02 
1331	 2.83365204274682E-02 
1332	 2.56137600144741E-02 
1333	 2.48642964175722E-02 
1334	 2.58519390021875E-02 
1335	 2.54739129258629E-02 
1336	 0.023307311728265 
1337	 2.32481410996252E-02 
1338	 2.46189453819572E-02 
1339	 2.49933292535777E-02 
1340	 2.60141530409742E-02 
1341	 2.64715732723746E-02 
1342	 2.45987869520233E-02 
1343	 2.57596859496228E-02 
1344	 3.18239959300538E-02 
1345	 0.034277391129156 
1346	 3.67251772860471E-02 
1347	 3.90270702752724E-02 
1348	 3.26223492552687E-02 
1349	 2.94800857668094E-02 
1350	 3.43413162603042E-02 
1351	 4.04803140520572E-02 
1352	 4.87851468174384E-02 
1353	 5.61281336702833E-02 
1354	 5.35867336859218E-02 
1355	 8.91871069088094E-02 
1356	 0.113781706446699 
1357	 0.138803721545434 
1358	 0.19551727008363 
1359	 0.166446617696713 
1360	-7.47098432562907E-02 
1361	-0.312298433398341 
1362	-0.156165647654759 
1363	 0.086137218228568 
1364	 0.194586191021974 
1365	 0.248528770829903 
1366	 0.109304586607681 
1367	-0.057620049629483 
1368	-0.142993796067434 
1369	-8.78573527231107E-02 
1370	 3.80071798184464E-02 
1371	 0.357095208575584 
1372	 0.431448907861488 
1373	 0.517555703018545 
1374	 0.593776054966827 
1375	 0.368961979729745 
1376	 0.353320918229818 
1377	 0.701489745902285 
1378	 0.881329703643323 
1379	 0.843509203787519 
1380	 0.899581822879691 
1381	 0.862820823970408 
1382	 0.781340482338461 
1383	 0.787196972655253 
1384	 0.687053432625505 
1385	 5.76642682158822 
1386	 3.21361567401722 
1387	-1.78260393992776 
1388	-0.320355529355168 
1389	-2.81645199826617 
1390	 0.802182210175803 
1391	 0.708931093865772 
1392	 1.56175862980576 
1393	 4.32685625320417 
1394	 1.70475361156449 
1395	 3.07403310840784 
1396	-1.05891420226361 
1397	-2.11791866692475 
1398	-9.25381135513249 
1399	-6.19021995171263 
1400	 1.48039758103978 
1401	 0.631344466793526 
1402	 1.39507239253074 
1403	 1.86778689347369 
1404	 1.37860610066632 
1405	 1.40878479979657 
1406	 1.86167813138716 
1407	 1.83506770290509 
1408	 3.15894522492816 
1409	 1.03962232719592 
1410	 0.311343604915551 
1411	 0.208744294008151 
1412	 0.275797243367699 
1413	 0.196185758255579 
1414	-1.46138070037132E-02 
1415	-1.36160942448112E-02 
1416	 4.39695944101137E-02 
1417	 6.62375562532592E-02 
1418	 0.147518611751732 
1419	 0.163708905175453 
1420	 0.167218254706865 
1421	 0.116776565536597 
1422	 9.72775707990159E-03 
1423	 2.00207094101715E-02 
1424	 4.84344012924773E-02 
1425	 4.01250504167427E-02 
1426	 6.60657492524475E-02 
1427	 8.43734660559287E-02 
1428	 8.12457178699926E-02 
1429	 0.06933710843937 
1430	 5.39283410840732E-02 
1431	 0.058211626621168 
1432	 6.08526476192612E-02 
1433	 5.59920696779468E-02 
1434	 7.53875904693439E-02 
1435	 0.080712323328808 
1436	 5.59619385937392E-02 
1437	 4.48329994080162E-02 
1438	 4.39377398851807E-02 
1439	 2.85678051982426E-02 
1440	 2.64597925454579E-02 
1441	 0.021580503991056 
1442	 2.19481650199033E-02 
1443	 0.032604731734537 
1444	 3.12401187304307E-02 
1445	 2.44599878200897E-02 
1446	 1.51293699954253E-02 
1447	 1.17951761781611E-02 
1448	 1.60979960940782E-02 
1449	 2.04530025338552E-02 
1450	 2.45344829955164E-02 
1451	 2.34021166458056E-02 
1452	 2.07366561833439E-02 
1453	 1.60440304738055E-02 
1454	 0.012509647379012 
1455	 9.02808388891519E-03 
1456	 8.97672296699783E-03 
1457	 9.80076158461629E-03 
1458	 9.45709467097428E-03 
1459	 1.02520607708312E-02 
1460	 1.09360856548627E-02 
1461	 9.88633409535589E-03 
1462	 1.07637727304846E-02 
1463	 1.73367357451573E-02 
1464	 1.52675110847842E-02 
1465	 2.75695311206742E-03 
1466	 3.4565667766018E-03 
1467	 1.02531680928767E-02 
1468	 9.98035964792959E-03 
1469	 1.35155149905019E-02 
1470	 1.77484656301614E-02 
1471	 1.59044904523252E-02 
1472	 1.49888175847907E-02 
1473	 0.021620795778632 
1474	 2.27072319864518E-02 
1475	 1.51225762672492E-02 
1476	 1.19717728713804E-02 
1477	 1.14019294939081E-02 
1478	 1.15147327413597E-02 
1479	 1.19433900085593E-02 
1480	 1.16787009605017E-02 
1481	 1.28122531425842E-02 
1482	 1.28405748644821E-02 
1483	 1.10232605575681E-02 
1484	 0.010614746878199 
1485	 1.14445501947983E-02 
1486	 1.09728749918383E-02 
1487	 1.04191034404159E-02 
1488	 9.92831005263393E-03 
1489	 8.84729414949983E-03 
1490	 8.1039051370612E-03 
1491	 6.90367074593282E-03 
1492	 6.74257033817478E-03 
1493	 7.65198853881625E-03 
1494	 7.64324246231074E-03 
1495	 7.61368097335038E-03 
1496	 7.85238230858228E-03 
1497	 7.54974443301037E-03 
1498	 7.54282932527564E-03 
1499	 8.02525997115344E-03 
1500	 8.42664458013587E-03 
1501	 8.78978991883881E-03 
1502	 8.84429385644815E-03 
1503	 9.39301984921195E-03 
1504	 9.32595120609559E-03 
1505	 8.6839804911796E-03 
1506	 7.74661302128229E-03 
1507	 7.78074030864665E-03 
1508	 7.66361516018858E-03 
1509	 8.22212997216354E-03 
1510	 8.80115025788097E-03 
1511	 8.69062701481864E-03 
1512	 8.24458432734015E-03 
1513	 7.8406760217961E-03 
1514	 8.18016276590541E-03 
1515	 8.79730424605782E-03 
1516	 8.90086943128392E-03 
1517	 8.71810265142645E-03 
1518	 8.7793071942718E-03 
1519	 8.68252459346475E-03 
1520	 8.77377186047214E-03 
1521	 9.55230287898852E-03 
1522	 9.87945995874943E-03 
1523	 9.98693239986363E-03 
1524	 1.00989935655444E-02 
1525	 9.68911316498049E-03 
1526	 9.6844892627996E-03 
1527	 9.96109790256063E-03 
1528	 9.98805498615647E-03 
1529	 1.00463508886484E-02 
1530	 1.00200747529838E-02 
1531	 9.79561546152937E-03 
1532	 9.81151707615215E-03 
1533	 1.03756015446332E-02 
1534	 1.08344402672755E-02 
1535	 1.07748482696998E-02 
1536	 1.05619938423146E-02 
1537	 0.01036075530206 
1538	 1.01737168115646E-02 
1539	 1.02914704453927E-02 
1540	 1.04727622137298E-02 
1541	 1.08188470889967E-02 
1542	 1.14145857887485E-02 
1543	 1.15203128478043E-02 
1544	 1.17050721187087E-02 
1545	 1.18667033669213E-02 
1546	 1.15228756030861E-02 
1547	 1.14993521803851E-02 
1548	 1.14385655654957E-02 
1549	 1.12312996168848E-02 
1550	 1.11959197561055E-02 
1551	 1.11140783970132E-02 
1552	 1.15030675830009E-02 
1553	 1.19297791458727E-02 
1554	 1.18155413210589E-02 
1555	 1.14997652153807E-02 
1556	 0.01128671021285 
1557	 1.13014188765524E-02 
1558	 1.13200536241789E-02 
1559	 1.15687970487404E-02 
1560	 1.20798458430659E-02 
1561	 1.19702527822433E-02 
1562	 1.13781723134345E-02 
1563	 1.16349153792894E-02 
1564	 0.011994541036499 
1565	 1.20815114657654E-02 
1566	 1.26287276256216E-02 
1567	 1.25990475549207E-02 
1568	 1.21627609496503E-02 
1569	 1.22444708396856E-02 
1570	 1.27424791778284E-02 
1571	 1.31751673961443E-02 
1572	 1.30186379533321E-02 
1573	 1.29906678029264E-02 
1574	 1.35816583997023E-02 
1575	 1.35603820265525E-02 
1576	 1.28393431609357E-02 
1577	 1.28621453134012E-02 
1578	 1.30142609060736E-02 
1579	 1.25545973062448E-02 
1580	 1.28173131136653E-02 
1581	 1.34395651785344E-02 
1582	 1.32807315588315E-02 
1583	 1.31551828388633E-02 
1584	 1.36711249826224E-02 
1585	 1.37317247066886E-02 
1586	 1.30560355878743E-02 
1587	 1.28863198427312E-02 
1588	 1.30374318981057E-02 
1589	 1.36545435593817E-02 
1590	 1.47808100833334E-02 
1591	 1.45914070640975E-02 
1592	 1.39418332672295E-02 
1593	 1.41390396967934E-02 
1594	 0.013707628333844 
1595	 1.39643778228597E-02 
1596	 1.51791270296197E-02 
1597	 1.49249171105549E-02 
1598	 1.45762845424625E-02 
1599	 0.014840340123306 
1600	 1.52215087574827E-02 
1601	 1.55991423276438E-02 
1602	 1.55899624164094E-02 
1603	 1.56550018158693E-02 
1604	 1.55091424960941E-02 
1605	 1.53183870579727E-02 
1606	 1.55359614971799E-02 
1607	 1.60141754376801E-02 
1608	 1.61743340371989E-02 
1609	 1.57282398868434E-02 
1610	 1.56883571284947E-02 
1611	 1.57348814333433E-02 
1612	 1.52820647316852E-02 
1613	 1.50368097672495E-02 
1614	 1.48459303579196E-02 
1615	 1.47313001763539E-02 
1616	 1.51419806564274E-02 
1617	 1.59666690166384E-02 
1618	 1.61392705694877E-02 
1619	 1.63436180104368E-02 
1620	 1.73312103941011E-02 
1621	 1.69880828303206E-02 
1622	 0.016539481719681 
1623	 1.69184149892606E-02 
1624	 1.60279603551174E-02 
1625	 1.53761147643715E-02 
1626	 0.016220275745035 
1627	 0.016787743682034 
1628	 1.64439293327094E-02 
1629	 1.64995754214573E-02 
1630	 1.68975749492714E-02 
1631	 1.61098003636903E-02 
1632	 1.53141932217996E-02 
1633	 1.56371727261585E-02 
1634	 1.60387599558977E-02 
1635	 1.66244271317385E-02 
1636	 1.70443171414878E-02 
1637	 1.65630477290992E-02 
1638	 1.61076620741903E-02 
1639	 1.59925783061328E-02 
1640	 1.56653037102113E-02 
1641	 1.58466748693481E-02 
1642	 1.63856256500275E-02 
1643	 1.64180580789179E-02 
1644	 1.63098928759066E-02 
1645	 1.58453854128007E-02 
1646	 1.54592498164729E-02 
1647	 0.015348480676703 
1648	 0.015466088806363 
1649	 1.60522158302037E-02 
1650	 1.60596822440139E-02 
1651	 1.60601080162132E-02 
1652	 1.64584444285537E-02 
1653	 1.56154529932884E-02 
1654	 1.59641272463844E-02 
1655	 1.64781754631011E-02 
1656	 1.66356253595947E-02 
1657	 1.80510703875006E-02 
1658	 1.81961197381651E-02 
1659	 0.01691097444851 
1660	 0.016540851053589 
1661	 1.62623137916199E-02 
1662	 1.62081045979288E-02 
1663	 1.65488744007365E-02 
1664	 1.64549085849067E-02 
1665	 1.60393620240118E-02 
1666	 1.60336715711228E-02 
1667	 1.64440645529214E-02 
1668	 1.62823868448226E-02 
1669	 1.56842721084962E-02 
1670	 1.54659034581099E-02 
1671	 1.58980544694687E-02 
1672	 1.59782781427606E-02 
1673	 1.54992122201357E-02 
1674	 1.58901153971692E-02 
1675	 1.72183951780767E-02 
1676	 1.79652060098905E-02 
1677	 1.85840086925265E-02 
1678	 0.018614159568025 
1679	 1.77875248678063E-02 
1680	 1.74741248279432E-02 
1681	 1.80459299873457E-02 
1682	 0.018822034605238 
1683	 1.77880472480505E-02 
1684	 1.58628567619817E-02 
1685	 1.55009475477451E-02 
1686	 0.015610632251932 
1687	 0.016064257945965 
1688	 1.78138212962182E-02 
1689	 1.86099215088055E-02 
1690	 1.76432690161422E-02 
1691	 1.68412053305861E-02 
1692	 1.69111478362927E-02 
1693	 1.68633162731727E-02 
1694	 1.68919384247446E-02 
1695	 1.78596310804802E-02 
1696	 0.017452689940104 
1697	 1.62459509309669E-02 
1698	 1.66381972117707E-02 
1699	 1.69438513171663E-02 
1700	 1.70823379031703E-02 
1701	 1.78114924593869E-02 
1702	 0.017756837592 
1703	 1.72775140055699E-02 
1704	 1.68136138274696E-02 
1705	 1.64843499095137E-02 
1706	 1.70913439040672E-02 
1707	 1.70344833066366E-02 
1708	 0.016505948262013 
1709	 1.63436065383271E-02 
1710	 0.015315778212613 
1711	 1.48201041905425E-02 
1712	 1.53872383848742E-02 
1713	 1.61154513418472E-02 
1714	 1.64957321730796E-02 
1715	 1.64892759314668E-02 
1716	 1.67642770638257E-02 
1717	 1.61473712543987E-02 
1718	 1.50098627936975E-02 
1719	 1.50611672998914E-02 
1720	 0.015393020300139 
1721	 1.61689319978766E-02 
1722	 1.69778519577016E-02 
1723	 1.73883412432431E-02 
1724	 1.69695269056308E-02 
1725	 1.59824847164681E-02 
1726	 1.57816212169199E-02 
1727	 1.54483602563314E-02 
1728	 1.59573963528881E-02 
1729	 1.73741483834929E-02 
1730	 1.68993045750844E-02 
1731	 1.59060391340406E-02 
1732	 1.58300094455349E-02 
1733	 0.015322642504274 
1734	 1.50408122865943E-02 
1735	 1.60034829475024E-02 
1736	 1.55010209287682E-02 
1737	 1.37337937783941E-02 
1738	 1.46879224543632E-02 
1739	 1.55249533784534E-02 
1740	 1.51655421993198E-02 
1741	 1.61665273869292E-02 
1742	 1.58958300965347E-02 
1743	 1.55147413909206E-02 
1744	 1.56638180425006E-02 
1745	 1.45672519728488E-02 
1746	 1.41386840298274E-02 
1747	 1.40686665093912E-02 
1748	 1.55871564748252E-02 
1749	 1.58915695933352E-02 
1750	 0.014902176807205 
1751	 1.48338427066982E-02 
1752	 1.51024958109592E-02 
1753	 1.48269534539879E-02 
1754	 1.49981275325862E-02 
1755	 0.014646550490198 
1756	 1.25249323896888E-02 
1757	 1.32648945268774E-02 
1758	 1.38174575165129E-02 
1759	 1.44002030551699E-02 
1760	 1.65225868781865E-02 
1761	 1.66327783959074E-02 
1762	 1.59781251310089E-02 
1763	 1.58560744619874E-02 
1764	 1.43154145508183E-02 
1765	 1.47040375905092E-02 
1766	 1.73490523537888E-02 
1767	 1.76167076766375E-02 
1768	 1.62350585483002E-02 
1769	 1.50178978264611E-02 
1770	 1.26248125471278E-02 
1771	 1.16082120568704E-02 
1772	 1.41658539736561E-02 
1773	 1.59210731180134E-02 
1774	 1.50846675928183E-02 
1775	 1.38988251268676E-02 
1776	 0.013489477802676 
1777	 1.22779381549776E-02 
1778	 1.23460073066507E-02 
1779	 1.45669247663265E-02 
1780	 1.58412784572688E-02 
1781	 1.62138803206481E-02 
1782	 1.80248659859929E-02 
1783	 2.22525359420343E-02 
1784	 2.24556858558563E-02 
1785	 2.15600453731977E-02 
1786	 2.01199450699306E-02 
1787	 1.24506360686642E-02 
1788	 1.17410931653657E-02 
1789	 1.68664014620709E-02 
1790	 2.05200306267534E-02 
1791	 0.022547889575238 
1792	 0.020318587402801 
1793	 1.12678794719328E-02 
1794	 3.03271523014184E-03 
1795	 2.72185062917348E-03 
1796	 5.96489930028818E-03 
1797	 1.34517917063109E-02 
1798	 1.80331415269288E-02 
1799	 0.015452221285178 
1800	 2.64846306091479E-02 
1801	 2.82570996205579E-02 
1802	 0.023175045876955 
1803	 3.06856673831366E-02 
1804	 3.30144468310535E-02 
1805	 0.035572121105489 
1806	 0.081278184720069 
1807	 9.92438403309515E-02 
1808	 3.10139198086588E-02 
1809	 2.56386375501168E-02 
1810	 6.28435077573833E-02 
1811	 0.100200875828859 
1812	 0.225448996249731 
1813	 0.303995918904271 
1814	 0.386350921467652 
1815	 0.401644923934372 
1816	 0.150365963251643 
1817	 0.755466155186798 
1818	 1.38922707635688 
1819	 1.85180464259285 
1820	 1.82960180515412 
1821	 0.087902150488259 
1822	-1.49814443988665 
1823	-0.200874727827543 
1824	 0.185993723666199 
1825	 1.36935793248363 
1826	 1.59801831006924 
1827	 10.9442334965516 
1828	 9.179321879787 
1829	-0.428053150518995 
1830	-0.577859565563054 
1831	-0.98832221088753 
1832	-1.0885292277661 
1833	-3.95967288370014 
1834	-11.4124454236813 
1835	 11.0066616752928 
1836	-121.360270832925 
1837	-0.810372091851714 
1838	-0.462423876739523 
1839	 1.88548761690781E-03 
1840	-5.80777180746956E-02 
1841	-0.743395260990634 
1842	-1.35717555605382 
1843	-1.24868685602212 
1844	-8.38210625799106E-02 
1845	 0.192457865527989 
1846	 0.975196582060435 
1847	 1.26178281901942 
1848	 1.10340962542668 
1849	 0.661265406065774 
1850	-0.702519068917381 
1851	-0.059554528261179 
1852	 1.34626640936161 
1853	 1.12529863854405 
1854	 0.983209613878892 
1855	 0.651022320494735 
1856	 0.631764267355945 
1857	 0.673915360709017 
1858	-3.64090722906501E-02 
1859	-0.728643069686958 
1860	 0.109493566135534 
1861	-9.53773743522827E-02 
1862	-2.2430238869005 
1863	-0.318851008576209 
1864	-2.01413968830937 
1865	-2.8625905945575 
1866	-8.14141287725506 
1867	-12.4080450821213 
1868	 5.62312025648439 
1869	 47.9200129088569 
1870	-1.43300526058041 
1871	-1.50457859349277 
1872	-1.55803594719919 
1873	-3.55835527085237 
1874	 106.086407338521 
1875	 4.82078014838307 
1876	 3.79674630262115 
1877	 64.7013433546306 
1878	-8.92974042786779 
1879	-1.51981808205297 
1880	-1.09723948110415 
1881	-1.08313607788948 
1882	-0.724557329167369 
1883	-9.80463590831534E-02 
1884	-0.320221527684816 
1885	-0.477436237538317 
1886	-0.594441476227171 
1887	 8.87243668558164 
1888	 1.56164437922815 
1889	 1.15929025931822 
1890	 0.754782130260077 
1891	 0.703528783291393 
1892	-2.83618047274076 
1893	-6.35478834404428 
1894	-1.07412487451706 
1895	-0.742631086119321 
1896	-49.4104602111772 
1897	 6.69347718624061E-02 
1898	-9.08535072522054 
1899	 5.47697116449273 
1900	 11.4242374154898 
1901	 1.0245768306678 
1902	 2.34810963325094 
1903	-0.874854391528288 
1904	-0.138822819094095 
1905	-0.266947363350985 
1906	-0.400025768095427 
1907	-0.270869730973814 
1908	-0.323934426535774 
1909	-0.167807932766159 
1910	-0.214442713392642 
1911	-0.868435227798363 
1912	-1.25067608265223 
1913	-1.97189809769054 
1914	 1.40814823690861 
1915	 0.678913025560151 
1916	-0.25450634229612 
1917	-7.25366568536362E-02 
1918	 0.142684323060331 
1919	-0.297824737604378 
1920	-55.2610080834677 
1921	 10.0276156670336 
1922	-2.13958015747862 
1923	 2.36363085420823 
1924	-0.361889153452067 
1925	-0.19786040516201 
1926	 4.96940992219611E-02 
1927	 0.822385317885808 
1928	 5.63060480243166 
1929	-0.496337020835905 
1930	-0.494371201482174 
1931	-0.379215097886285 
1932	-0.059093446429947 
1933	 4.4368442113938 
1934	-1.68263292607347 
1935	-0.417154364206578 
1936	-0.446716720896855 
1937	-0.245502486608183 
1938	-0.126638641178272 
1939	-0.101372439562752 
1940	-0.108941420921528 
1941	-5.67505438151624E-02 
1942	-0.146419153193461 
1943	-0.226875811545809 
1944	-0.184789041288165 
1945	-0.195026861982995 
1946	-0.139187680221987 
1947	-1.34882762749319E-02 
1948	-1.40249774592729E-02 
1949	 8.11953053058054E-02 
1950	 0.167080319196531 
1951	 6.04535864798676E-02 
1952	 3.29571743851343E-02 
1953	 4.68275287638109E-02 
1954	 2.33822087417381E-02 
1955	-0.063251836996944 
1956	-5.79984541119411E-02 
1957	-1.62281264080986E-02 
1958	-2.70397852593848E-02 
1959	-3.39788190223441E-02 
1960	-3.17228026160559E-02 
1961	-4.35602425423846E-02 
1962	-4.38202536033873E-02 
1963	-3.20510754251543E-02 
1964	-2.37682362916423E-02 
1965	-2.39033105182425E-02 
1966	-2.54639142169662E-02 
1967	-3.39260100278625E-02 
1968	-3.55543867240791E-02 
1969	-2.99304927579014E-02 
1970	-2.20231779527651E-02 
1971	-8.58444416221879E-03 
1972	-4.54479124061083E-03 
1973	-3.99487187606442E-03 
1974	 1.23353183131666E-03 
1975	-4.77719271980041E-03 
1976	-9.34234271181437E-03 
1977	-3.45676959426566E-03 
1978	-4.26962703240411E-03 
1979	-5.8856532231783E-03 
1980	-6.25241148428563E-03 
1981	-4.24832302224857E-03 
1982	-9.07341559309035E-03 
1983	-1.00524603102325E-02 
1984	-6.88242354999938E-03 
1985	-3.98585123203309E-03 
1986	-4.50210797074825E-03 
1987	-6.08404016121141E-03 
1988	-2.49170337083809E-03 
1989	-2.07257627377286E-03 
1990	-3.66837850361026E-03 
1991	-3.44425653639155E-03 
1992	-7.07065049665788E-03 
1993	-8.93872113657812E-03 
1994	-8.02663515277595E-03 
1995	 2.3914837737701E-04 
1996	 3.3151055034124E-03 
1997	 9.98230567229133E-04 
1998	 1.3324757929782E-03 
1999	-1.23682937070056E-03 
2000	-1.33703846390605E-03 
2001	-7.65899939094121E-04 
2002	-3.14265904110978E-03 
2003	 4.03661034799979E-03 
2004	 4.1939474735729E-03 
2005	-1.88223663079748E-03 
2006	 1.54877467019225E-03 
2007	-9.17678516390844E-04 
2008	-7.33479260244189E-03 
2009	-1.18375908944419E-02 
2010	-8.75979550782515E-03 
2011	-4.02522492717898E-03 
2012	-1.38328276275496E-03 
2013	-5.46293414757878E-03 
2014	 1.22152846979556E-02 
2015	 2.38080718139037E-02 
2016	 1.74903297939432E-02 
2017	 1.97287032287456E-02 
2018	 2.12822162021361E-02 
2019	 1.08101491873496E-02 
2020	 5.32836151002001E-03 
2021	 6.03767613964147E-03 
2022	 1.63347206906296E-03 
2023	-1.00417932354759E-03 
2024	-3.22148992636414E-05 
2025	 6.34410632565151E-03 
2026	 5.58677944355152E-03 
2027	 2.55426997350464E-03 
2028	 2.71246007886756E-03 
2029	 2.96036143754853E-03 
2030	-1.25930604618348E-03 
2031	-1.47210189494717E-03 
2032	 1.77387380465318E-03 
2033	 3.62939535371933E-03 
2034	 5.57266127023512E-03 
2035	 9.99647458414935E-03 
2036	 1.02658285308194E-02 
2037	 7.01267415464526E-03 
2038	 3.38331769590696E-03 
2039	 2.52122585814034E-04 
2040	-4.56865795096455E-03 
2041	-5.13202124434092E-03 
2042	-3.75864902809305E-03 
2043	-2.63234019449013E-03 
2044	 1.78922747573335E-03 
2045	 3.20680320786924E-03 
2046	 3.03610279833153E-03 
2047	 3.99948142567969E-03 
2048	 6.24831842613019E-03 
2049	 6.94891813139286E-03 
2050	 4.88097749141693E-03 
2051	 4.37510139596455E-03 
2052	 7.83703250997038E-04 
2053	-2.15344966668892E-03 
2054	-3.55300599864953E-03 
2055	-5.29530406128695E-03 
2056	-4.91841051490612E-03 
2057	-3.9397852203052E-03 
2058	-2.46393133145814E-03 
2059	 3.60198084677497E-03 
2060	 5.48144424342106E-03 
2061	 4.9624408963962E-03 
2062	 6.19236905088535E-03 
2063	 5.78120384304013E-03 
2064	 6.81948368443719E-03 
2065	 7.41534546607545E-03 
2066	 5.3284708092597E-03 
2067	 5.46499387219309E-03 
2068	 3.58893162300488E-03 
2069	 3.78456873792032E-03 
2070	 7.68142480939127E-03 
2071	 9.2024560226636E-03 
2072	 1.06087291734194E-02 
2073	 1.01964575257448E-02 
2074	 7.03106261955672E-03 
2075	 5.45916882739555E-03 
2076	 3.99404312455042E-03 
2077	 2.50744723651264E-03 
2078	 7.64729721394747E-04 
2079	 4.20780963150643E-04 
2080	 8.12893883650044E-04 
2081	 4.45281869469933E-04 
2082	 1.84225629402675E-03 
2083	 4.3483037415173E-03 
2084	 4.66457338839014E-03 
2085	 4.57904988132041E-03 
2086	 4.82436722931744E-03 
2087	 3.98376888685887E-03 
2088	 4.15949443851411E-03 
2089	 5.14522723665299E-03 
2090	 6.28783471991569E-03 
2091	 6.80387139022587E-03 
2092	 5.98255529703384E-03 
2093	 3.94408841233167E-03 
2094	 3.64235389897338E-03 
2095	 2.42567732977857E-03 
2096	 2.06311929381901E-03 
2097	 4.34617514494399E-03 
2098	 4.79415576848788E-03 
2099	 3.17217212391369E-03 
2100	 3.39115207106759E-03 
2101	 5.78570815591017E-03 
2102	 6.94699385568554E-03 
2103	 8.74646265066029E-03 
2104	 1.03902634332122E-02 
2105	 1.01012089772617E-02 
2106	 7.65555208523024E-03 
2107	 5.38534335870614E-03 
2108	 4.38752856980231E-03 
2109	 4.78508935241762E-03 
2110	 6.93795635086962E-03 
2111	 7.92899142017839E-03 
2112	 6.52758953406587E-03 
2113	 6.71226700695902E-03 
2114	 6.62543195145593E-03 
2115	 5.54207774421625E-03 
2116	 5.23074170058819E-03 
2117	 4.65155578797431E-03 
2118	 1.5722600993145E-03 
2119	 1.43074403556541E-04 
2120	-5.05904712220181E-04 
2121	 4.70365141106695E-04 
2122	 1.99632240380148E-03 
2123	 2.12627217854145E-03 
2124	 2.55206953206272E-03 
2125	 3.00400320605376E-03 
2126	 1.95116433770607E-03 
2127	 1.26364302089859E-03 
2128	 1.36171398207998E-03 
2129	 2.36815758327028E-03 
2130	 3.22037106979774E-03 
2131	 2.2399127899241E-03 
2132	 2.85415790036217E-03 
2133	 4.3816801632177E-03 
2134	 4.69990877224869E-03 
2135	 4.77059484305815E-03 
2136	 5.55023755812447E-03 
2137	 6.46459233676701E-03 
2138	 5.85056611280989E-03 
2139	 4.65057216383313E-03 
2140	 4.35053874050202E-03 
2141	 2.87831662781814E-03 
2142	 1.81861232269074E-03 
2143	 1.09903663310567E-03 
2144	 2.71658609238413E-03 
2145	 2.8040239174635E-03 
2146	 1.79885388750373E-03 
2147	 1.68779574253764E-03 
2148	 6.74813471716498E-04 
2149	 1.27497240827041E-04 
2150	 2.76800200857279E-03 
2151	 5.69122002972708E-03 
2152	 6.9094343988931E-03 
2153	 7.62074058908657E-03 
2154	 6.76894544387637E-03 
2155	 2.12611889327249E-03 
2156	 2.1489837191848E-04 
2157	 1.21540379115265E-03 
2158	 4.11813980735574E-03 
2159	 0.004575907852746 
2160	 8.80569414176604E-03 
2161	 8.48440484384433E-03 
2162	 2.23071361183066E-03 
2163	 3.94436427436778E-04 
2164	-1.04587559413708E-04 
2165	-1.00349856703332E-03 
2166	-1.2733680633635E-03 
2167	-3.002658960099E-04 
2168	 1.06446689103864E-03 
2169	 1.85031034664284E-03 
2170	 4.59436595204267E-03 
2171	 5.23684405502268E-03 
2172	 2.2331235678205E-03 
2173	 2.03401182348378E-03 
2174	 4.37322606307697E-03 
2175	 4.22193382761305E-03 
2176	 2.80227477311125E-03 
2177	 5.79801682002561E-03 
2178	 1.00396517117145E-02 
2179	 1.02869221170407E-02 
2180	 9.98685753557421E-03 
2181	 0.011292694728818 
2182	 9.08309832827399E-03 
2183	 6.29981257731539E-03 
2184	 6.80671859761026E-03 
2185	 7.11090180808628E-03 
2186	 7.12540047585178E-03 
2187	 5.86245664940975E-03 
2188	 6.42832002436698E-03 
2189	 9.4981883877187E-03 
2190	 9.67322107755987E-03 
2191	 8.51559872576027E-03 
2192	 8.65373539957098E-03 
2193	 7.5872026018055E-03 
2194	 7.22784961497011E-03 
2195	 8.1671016711116E-03 
2196	 8.31036251145671E-03 
2197	 8.75144191969743E-03 
2198	 7.64835259783352E-03 
2199	 4.98772594454922E-03 
2200	 4.91846184413454E-03 
2201	 2.08988438849447E-05 
2202	-3.28941304669895E-03 
2203	-3.17823616199056E-03 
2204	-2.62993388757702E-03 
2205	 1.00463912249684E-03 
2206	 3.45537891629167E-03 
2207	 6.1788959063557E-03 
2208	 6.44942816213636E-03 
2209	 5.94798775536207E-03 
2210	 9.20905572932463E-03 
2211	 1.09882112187172E-02 
2212	 0.012194135436726 
2213	 1.55859139297794E-02 
2214	 1.60095402894159E-02 
2215	 1.07872537916127E-02 
2216	 6.2014857107947E-03 
2217	 7.37853032682767E-03 
2218	 1.25776878992828E-02 
2219	 1.42835811124042E-02 
2220	 2.05161717567325E-02 
2221	 2.16589024641526E-02 
2222	 1.57846615901752E-02 
2223	 1.39631437941587E-02 
2224	 1.37904881305169E-02 
2225	 1.40526491742052E-02 
2226	 1.60899841726156E-02 
2227	 1.35893588967038E-02 
2228	 7.97968746377409E-03 
2229	 6.09349543115945E-03 
2230	 3.39431796743646E-03 
2231	 2.40498595162373E-03 
2232	 5.62693562901217E-03 
2233	 6.38081056344997E-03 
2234	 5.33476851634384E-03 
2235	 4.35157937919763E-03 
2236	 6.49802629221343E-03 
2237	 5.34577471353313E-03 
2238	 1.78115113588748E-03 
2239	 5.97713039965908E-05 
2240	-1.13018544880919E-03 
2241	 1.61643213085458E-03 
2242	 6.74775719766646E-03 
2243	 6.95966596018436E-03 
2244	 6.01862440986634E-03 
2245	 6.33361464085283E-03 
2246	 5.03945562041144E-03 
2247	-7.68231655132069E-04 
2248	-6.92678389595211E-03 
2249	-6.81216679542761E-03 
2250	-5.64497704445637E-03 
2251	-1.00581968781897E-03 
2252	 6.81939950204818E-03 
2253	 8.88327613226443E-03 
2254	 5.56525078476373E-03 
2255	 3.4916532291627E-03 
2256	 1.85594264889686E-03 
2257	-4.02537625940892E-03 
2258	-3.5516088978992E-03 
2259	 4.11615041840735E-03 
2260	 6.88342185906905E-03 
2261	 1.04129017779834E-02 
2262	 1.23466277199007E-02 
2263	 1.26958654166314E-02 
2264	 9.37734844824645E-03 
2265	 1.31096657799013E-03 
2266	-9.91557993938514E-04 
2267	-3.37517829787193E-03 
2268	-4.74644479500728E-03 
2269	-3.23536316842866E-04 
2270	 9.23859768303938E-04 
2271	-5.85920074221919E-04 
2272	-3.58689941430151E-03 
2273	-8.58530875833557E-03 
2274	-9.53818839845678E-03 
2275	-9.73128339939663E-03 
2276	-1.04923873069804E-02 
2277	-0.009749970421599 
2278	-6.79988550163357E-03 
2279	-4.35870919437681E-03 
2280	-1.88258120096345E-03 
2281	 3.80745173373924E-03 
2282	 8.89916899468703E-03 
2283	 1.21561791052009E-02 
2284	 1.59212496134431E-02 
2285	 1.32403036745521E-02 
2286	 0.010604209512625 
2287	 4.74806734311221E-03 
2288	-3.28044723721379E-03 
2289	-5.72733681861935E-03 
2290	-5.24651286882777E-03 
2291	-1.00090796775145E-02 
2292	-1.48496100978301E-02 
2293	-1.23140777581226E-02 
2294	-1.63257231529684E-02 
2295	-1.27833651043609E-02 
2296	 1.38833784872451E-04 
2297	-1.94563634693722E-03 
2298	-5.55073757193956E-03 
2299	-9.84245303938059E-04 
2300	-5.63379087378203E-03 
2301	-6.14452202809906E-03 
2302	 6.22556348881434E-03 
2303	 8.86490336593464E-03 
2304	 7.97128211223972E-03 
2305	 1.13270282309852E-02 
2306	 7.75950650741009E-03 
2307	 7.61879871256726E-03 
2308	 1.67521149497784E-02 
2309	 1.55648926597997E-02 
2310	 1.19866502127478E-02 
2311	 5.72474587005139E-03 
2312	-3.6974982225773E-03 
2313	-1.69885814222369E-03 
2314	 5.87016878516583E-04 
2315	 5.63638760206323E-03 
2316	 4.89055702440511E-03 
2317	-3.24086021918039E-03 
2318	-5.63497322225633E-03 
2319	-6.09002789542208E-03 
2320	-7.39929511411697E-03 
2321	-1.48416982353463E-02 
2322	-2.27771685874395E-02 
2323	-2.10905233929985E-02 
2324	-1.58323362258144E-02 
2325	-3.88388286820115E-03 
2326	 5.44598992749278E-03 
2327	 5.60746170526888E-03 
2328	 7.5647225798373E-03 
2329	-3.49339730929843E-03 
2330	-1.02631715288267E-02 
2331	-1.22436992944235E-02 
2332	-2.21781982218215E-02 
2333	-2.17896738120426E-02 
2334	-1.99931162558408E-02 
2335	-1.99278790819221E-02 
2336	-1.53397781934479E-02 
2337	-7.21416898313019E-03 
2338	 3.19159936464158E-03 
2339	 7.9835590131638E-03 
2340	 9.74793572048835E-03 
2341	 5.27743990096046E-03 
2342	-1.67221919538781E-04 
2343	 8.04251980092701E-03 
2344	 1.15869378785951E-02 
2345	 4.06736370027705E-03 
2346	-1.33670288664952E-02 
2347	-0.010823225713933 
2348	 2.11291230045947E-02 
2349	 2.83797937491378E-02 
2350	 0.035850480346669 
2351	 4.05422366868163E-02 
2352	-4.52270650460346E-03 
2353	-3.13368084362565E-02 
2354	-2.38151433383943E-02 
2355	-1.39687086390477E-02 
2356	 2.29907871888367E-04 
2357	-1.36201974123598E-03 
2358	-8.16665466851992E-03 
2359	-2.81301016640686E-03 
2360	-4.1950798410463E-03 
2361	 1.90480099840054E-02 
2362	 6.97718180713212E-02 
2363	 7.16402021665693E-02 
2364	 6.82220067475966E-02 
2365	 8.24009116102865E-02 
2366	 4.67099260433028E-02 
2367	 4.48897227119519E-02 
2368	 0.075557106665894 
2369	 8.78240106550663E-02 
2370	 0.101475464135979 
2371	 9.46592077534949E-02 
2372	 7.06332586037934E-02 
2373	 5.20474044269814E-02 
2374	 4.11722543459183E-02 
2375	 0.059248969541522 
2376	 9.04442604672429E-02 
2377	 6.84532322293276E-02 
2378	 8.10002548504939E-02 
2379	 0.126804498383576 
2380	 8.75533840616308E-02 
2381	 3.7336793544308E-03 
2382	-3.53992013909394E-02 
2383	-8.60577159495889E-02 
2384	-0.13844912344215 
2385	-6.10813974162775E-02 
2386	-5.43095757953874E-02 
2387	-0.154209530733553 
2388	-0.218404516845712 
2389	-0.298042278170919 
2390	-0.296788814598902 
2391	-0.222714517118478 
2392	-0.1371889266319 
2393	-3.87918619037562E-02 
2394	-1.61673915633646E-02 
2395	 2.93561925985074E-02 
2396	 3.56511757958693E-02 
2397	-0.021701460565415 
2398	 1.19703621596379E-02 
2399	 5.45350283714966E-02 
2400	 3.12124309305146E-02 
2401	 8.42241803392067E-03 
2402	-3.52073938192755E-02 
2403	-0.095086503267842 
2404	-9.42748703503394E-02 
2405	-2.85845289217432E-02 
2406	-6.29214544205353E-02 
2407	-0.121097236270284 
2408	-0.109061643884507 
2409	-8.84410901537471E-02 
2410	-0.041400248984213 
2411	-0.114095619545996 
2412	-0.266652296696638 
2413	-0.270057633644577 
2414	-0.230375841933389 
2415	-8.03850595618793E-02 
2416	 8.22699601036678E-02 
2417	 0.118166109878274 
2418	 0.204192043352508 
2419	 0.165697061525009 
2420	-4.43065483754472E-02 
2421	-0.164280509699266 
2422	-0.179864188965899 
2423	 1.59343025353099E-02 
2424	 0.018023926211029 
2425	-7.07044241059443E-02 
2426	-7.60877805576689E-02 
2427	-0.218134352364939 
2428	-0.312914120478179 
2429	-0.339513189822391 
2430	-0.419802571850853 
2431	-0.386998635595141 
2432	-0.582830541166165 
2433	-0.457971209523312 
2434	-0.283022817917341 
2435	-0.297239753544105 
2436	-3.85259036293017E-02 
2437	 0.165952261230247 
2438	 0.164495030268733 
2439	 3.57233032813399E-02 
2440	-8.29949673670797E-02 
2441	-0.20662796916256 
2442	-0.496794140916693 
2443	-0.649565053601149 
2444	-1.01469406152967 
2445	-2.59062604353169 
2446	-1.78317769040862 
2447	-1.62076043308571 
2448	-0.782602095202458 
2449	 0.4548235105746 
2450	 0.466529583353035 
2451	-0.171223240042511 
2452	 0.118689556029776 
2453	 0.703497406658095 
2454	 0.854569698005256 
2455	 1.85154814248549 
2456	 1.49812302652955 
2457	 0.340897369947529 
2458	-0.161368916945247 
2459	-0.262664103332743 
2460	-0.291442898380666 
2461	-0.828396168906737 
2462	 0.687186983931707 
2463	-0.838061696642663 
2464	 0.447361005415622 
2465	 2.09895526486789 
2466	 4.72736375146484 
2467	 2.65078409793837 
2468	 2.5950249506519 
2469	 3.23189102614355 
2470	 0.519078558310561 
2471	 0.574027335630242 
2472	 0.551584694917207 
2473	 6.45682022458381E-02 
2474	 0.130977888642568 
2475	 0.17026911092709 
2476	 0.280018460882187 
2477	 1.42037686216817 
2478	 0.260917052839803 
2479	 1.31080099012036 
2480	 8.54525871476765 
2481	-1.76688017748183 
2482	-0.550868972329665 
2483	 7.88660088444436E-02 
2484	 0.156735817046702 
2485	 0.384807880373492 
2486	 0.780441304585153 
2487	 0.657330228718393 
2488	 0.147327935397673 
2489	-0.152660142851755 
2490	-0.419189306960484 
2491	-0.570182581934259 
2492	-0.452370952177762 
2493	-0.455225564375847 
2494	-0.126524576147943 
2495	 0.812878798029324 
2496	 1.06805641890278 
2497	 2.44123518931704 
2498	 15.6569637897121 
2499	 1.19236649883321 
2500	 1.02354940272566 
