Wavelength	rt0622clean00001.asd
350	 2.31997003785736E-02 
351	 2.31753456558466E-02 
352	 2.28778150178005E-02 
353	 2.30878012087637E-02 
354	 0.023955061132001 
355	 0.023969232546129 
356	 2.38872073062485E-02 
357	 2.36915585344279E-02 
358	 2.33469834467856E-02 
359	 2.36955759027787E-02 
360	 2.39671856133631E-02 
361	 0.024262971935083 
362	 2.51523975452024E-02 
363	 2.52441550831361E-02 
364	 2.48305378496649E-02 
365	 2.45250934532403E-02 
366	 2.50868390952102E-02 
367	 2.49761630125213E-02 
368	 2.49732725402077E-02 
369	 2.58072830063602E-02 
370	 2.57789821926149E-02 
371	 2.55037652243395E-02 
372	 2.56129340587214E-02 
373	 2.64820400013383E-02 
374	 2.63320196736047E-02 
375	 2.63967595279909E-02 
376	 0.02716452887708 
377	 2.76688154256358E-02 
378	 2.77102202803092E-02 
379	 2.79141714301483E-02 
380	 2.86642383574652E-02 
381	 2.89578814775213E-02 
382	 2.89870912356673E-02 
383	 2.89808098160955E-02 
384	 2.91309327269143E-02 
385	 2.90335810695675E-02 
386	 2.96078731519268E-02 
387	 3.05108675897022E-02 
388	 3.00285076229991E-02 
389	 3.04934248571535E-02 
390	 3.11576584570148E-02 
391	 3.11828837748966E-02 
392	 0.030939226770456 
393	 3.12877239254829E-02 
394	 3.19715409994495E-02 
395	 3.23286182322861E-02 
396	 3.20928073757393E-02 
397	 0.032350112075157 
398	 3.30368313376249E-02 
399	 3.31120209228045E-02 
400	 3.31141900394956E-02 
401	 3.32617891656018E-02 
402	 0.033520768135674 
403	 3.33767878158938E-02 
404	 3.35920697831203E-02 
405	 3.40253555634848E-02 
406	 3.42333671484058E-02 
407	 3.41574011327024E-02 
408	 0.034367614163966 
409	 3.47978249771003E-02 
410	 0.034766461222718 
411	 3.47103704133734E-02 
412	 3.48998746944423E-02 
413	 3.53523747026329E-02 
414	 3.55859953061523E-02 
415	 3.58381087293264E-02 
416	 0.036049802607634 
417	 0.036108291915743 
418	 3.62736800481733E-02 
419	 3.65845380268477E-02 
420	 3.69464866987505E-02 
421	 3.71562706354252E-02 
422	 3.74494847060228E-02 
423	 0.037771983146879 
424	 3.80427992751037E-02 
425	 3.82629763894285E-02 
426	 0.038612802884519 
427	 3.89950807890017E-02 
428	 3.92457638039836E-02 
429	 3.98155585754575E-02 
430	 4.03103408840917E-02 
431	 4.05682953168128E-02 
432	 4.07937505376868E-02 
433	 4.11083709254265E-02 
434	 4.13544646562143E-02 
435	 4.14973985956417E-02 
436	 4.20935696576863E-02 
437	 4.25810165657347E-02 
438	 4.29429466665008E-02 
439	 4.34300649801995E-02 
440	 4.37982520288977E-02 
441	 4.40378777880076E-02 
442	 4.42731322164611E-02 
443	 4.47880747322758E-02 
444	 4.52025390882594E-02 
445	 0.045572714690229 
446	 0.045995419458125 
447	 4.62209513489774E-02 
448	 4.64897112538335E-02 
449	 0.046785850923063 
450	 4.69286971069559E-02 
451	 4.72573136951075E-02 
452	 0.0476127575577 
453	 4.78729650127692E-02 
454	 4.81408572436134E-02 
455	 4.84013784682649E-02 
456	 4.85637044844522E-02 
457	 4.85873308247179E-02 
458	 4.88371261319596E-02 
459	 0.049113479033242 
460	 4.93132085897002E-02 
461	 4.94623477827232E-02 
462	 4.95811046451295E-02 
463	 4.98039518016429E-02 
464	 5.01260371971849E-02 
465	 5.00716615390016E-02 
466	 5.02852710760092E-02 
467	 5.06995600172085E-02 
468	 0.050912421804289 
469	 5.09408565780183E-02 
470	 5.10909185486357E-02 
471	 5.14303571147952E-02 
472	 5.16743799297113E-02 
473	 5.18404109155875E-02 
474	 5.19934908729201E-02 
475	 5.21845597852543E-02 
476	 5.23112226152198E-02 
477	 5.26476864557841E-02 
478	 5.30804524948675E-02 
479	 5.32731509495127E-02 
480	 5.36091196680043E-02 
481	 5.38983238731669E-02 
482	 5.40399145197211E-02 
483	 5.42488779021215E-02 
484	 5.46434005265224E-02 
485	 0.055058657038755 
486	 5.52954223847823E-02 
487	 5.56323013550311E-02 
488	 5.60452774718135E-02 
489	 5.64598817097868E-02 
490	 5.67776393089407E-02 
491	 5.70050531908761E-02 
492	 5.73908581822844E-02 
493	 5.80267054035236E-02 
494	 5.84742654632878E-02 
495	 5.89036512588885E-02 
496	 5.93593527321686E-02 
497	 5.98326189200268E-02 
498	 6.03732500908913E-02 
499	 0.060825204747215 
500	 6.12350108605856E-02 
501	 6.19975048126741E-02 
502	 6.24418819317741E-02 
503	 6.28089981006112E-02 
504	 6.34545844675661E-02 
505	 0.06405626026325 
506	 6.45756278862945E-02 
507	 6.50667918776628E-02 
508	 0.065641495935407 
509	 0.066181940257225 
510	 0.066728456253575 
511	 6.73128786681147E-02 
512	 6.79021247897214E-02 
513	 6.84300918232044E-02 
514	 6.90423336534211E-02 
515	 6.98817347920675E-02 
516	 7.03708233309046E-02 
517	 7.10184449778799E-02 
518	 7.19452155415715E-02 
519	 7.26865236617835E-02 
520	 0.073290637501548 
521	 7.38788426146832E-02 
522	 7.45675552532164E-02 
523	 7.53623757882116E-02 
524	 7.61650385187124E-02 
525	 7.69053329826064E-02 
526	 7.75727024391905E-02 
527	 7.85510662028881E-02 
528	 7.93438628371063E-02 
529	 7.97927022829612E-02 
530	 8.06502614271358E-02 
531	 8.14664755877139E-02 
532	 8.22893490970981E-02 
533	 8.32664894679084E-02 
534	 8.40945573320906E-02 
535	 8.48630624188832E-02 
536	 8.56404715401113E-02 
537	 8.64356241931823E-02 
538	 8.73739479884049E-02 
539	 8.83795568019074E-02 
540	 8.93356514471179E-02 
541	 0.090180650388735 
542	 9.10078267636605E-02 
543	 9.18385471552607E-02 
544	 9.26592035882043E-02 
545	 9.36068239516115E-02 
546	 0.094432993968134 
547	 9.50903988646286E-02 
548	 9.60158493324538E-02 
549	 9.69017722804246E-02 
550	 9.77026601779066E-02 
551	 0.098475883694801 
552	 9.93051144334438E-02 
553	 0.100186107634836 
554	 0.1010523281339 
555	 0.101774902078074 
556	 0.102582569292615 
557	 0.103389765730995 
558	 0.104115362125688 
559	 0.104991706555969 
560	 0.105806263777674 
561	 0.106481358394959 
562	 0.107055056159998 
563	 0.107721850151429 
564	 0.108446977873019 
565	 0.109149146640695 
566	 0.109733668280279 
567	 0.110148441017126 
568	 0.110521406498533 
569	 0.111021302878178 
570	 0.111606927469285 
571	 0.112082491092168 
572	 0.112383263685394 
573	 0.112597567915764 
574	 0.112878208172605 
575	 0.113105122272884 
576	 0.113204905986325 
577	 0.113500833700072 
578	 0.113652412222001 
579	 0.113636765512972 
580	 0.113637637180376 
581	 0.113752749405858 
582	 0.113737317985176 
583	 0.113528047759088 
584	 0.113477980572794 
585	 0.113304237866219 
586	 0.112986593170813 
587	 0.112605771940049 
588	 0.112276324501266 
589	 0.111992816449438 
590	 0.111728933967973 
591	 0.111424293086881 
592	 0.110944364162442 
593	 0.11031665908051 
594	 0.109631127989286 
595	 0.109046391752672 
596	 0.108103938815625 
597	 0.106971895384885 
598	 0.106110528946294 
599	 0.104952429191975 
600	 0.103896593546638 
601	 0.103236315119107 
602	 0.10290700022961 
603	 0.102446632620957 
604	 0.102139635557455 
605	 0.102316002504298 
606	 0.102146103391253 
607	 0.102066897344134 
608	 0.102228310093632 
609	 0.102409501364718 
610	 0.102204283000807 
611	 0.102090792803463 
612	 0.102382155888531 
613	 0.102331304958306 
614	 0.102236389784842 
615	 0.102220915008377 
616	 0.102293354998851 
617	 0.102290393815937 
618	 0.102194682797676 
619	 0.102095201117369 
620	 0.102233607438413 
621	 0.102204976360035 
622	 0.102112062908753 
623	 0.102150182844526 
624	 0.102097550088623 
625	 0.101977299283467 
626	 0.101855838115569 
627	 0.101828452252389 
628	 0.101871535095097 
629	 0.101862632879292 
630	 0.101782077709106 
631	 0.101957486509271 
632	 0.101891944986332 
633	 0.101647295121758 
634	 0.101530072918897 
635	 0.101432535918993 
636	 0.101375809801962 
637	 0.101295825852004 
638	 0.100989335152584 
639	 0.100801027163366 
640	 0.10069144602081 
641	 0.100502906224737 
642	 0.100081614572335 
643	 9.97866543860479E-02 
644	 9.96676459652983E-02 
645	 9.95009919397786E-02 
646	 9.90573455311907E-02 
647	 9.86267599133044E-02 
648	 9.84421647577534E-02 
649	 9.83616525249863E-02 
650	 9.81207023448837E-02 
651	 9.75645221747456E-02 
652	 9.67383233976691E-02 
653	 9.63926009897789E-02 
654	 0.096008191796065 
655	 9.52902206026037E-02 
656	 9.44823478833689E-02 
657	 9.37126866048039E-02 
658	 0.093047408822936 
659	 0.092498930506298 
660	 9.21002406895192E-02 
661	 9.16510947652065E-02 
662	 9.12003862506559E-02 
663	 9.09265015171877E-02 
664	 9.05026295844391E-02 
665	 9.00579050441146E-02 
666	 0.089723933126036 
667	 8.95436787353082E-02 
668	 8.94086838136613E-02 
669	 8.92570102463468E-02 
670	 8.90619322952895E-02 
671	 8.88656730225889E-02 
672	 8.87327392854602E-02 
673	 8.86524230976646E-02 
674	 8.85520425228003E-02 
675	 8.85867215115062E-02 
676	 8.87047734879211E-02 
677	 8.87993982655681E-02 
678	 8.86956127990884E-02 
679	 8.88178549979262E-02 
680	 8.91331360296218E-02 
681	 8.94026626693245E-02 
682	 8.96167194802707E-02 
683	 8.99022645821012E-02 
684	 9.03049913168742E-02 
685	 0.09078912064316 
686	 9.10473912761476E-02 
687	 9.12010393458844E-02 
688	 9.14614512154721E-02 
689	 9.17398423642146E-02 
690	 9.18836023258359E-02 
691	 9.17378371950145E-02 
692	 9.12013773282758E-02 
693	 9.10160725714341E-02 
694	 0.090613070785831 
695	 8.98344509809868E-02 
696	 8.93814241528622E-02 
697	 8.88291318042824E-02 
698	 0.087964657313118 
699	 8.68134556667043E-02 
700	 8.60326526034629E-02 
701	 8.52287757283996E-02 
702	 8.42418621996881E-02 
703	 8.31213025215558E-02 
704	 8.19287023963379E-02 
705	 8.04674415319901E-02 
706	 7.88156495886809E-02 
707	 7.76545756492366E-02 
708	 7.61106201979809E-02 
709	 7.43434415768364E-02 
710	 7.27503734607202E-02 
711	 7.07086273898448E-02 
712	 0.068637493764433 
713	 6.66713119783098E-02 
714	 0.064538271225083 
715	 6.25366979311755E-02 
716	 6.04140156166453E-02 
717	 0.058092086083416 
718	 5.59225919183374E-02 
719	 5.35556550891951E-02 
720	 5.14763442655386E-02 
721	 4.97828823696617E-02 
722	 4.82663323700132E-02 
723	 0.046253207325094 
724	 4.39759194703366E-02 
725	 4.23587078241396E-02 
726	 4.06020778321138E-02 
727	 3.86794019017748E-02 
728	 3.67370417168106E-02 
729	 3.48294508350425E-02 
730	 3.27503871235349E-02 
731	 3.08353633879334E-02 
732	 2.94054979215163E-02 
733	 2.82465621069734E-02 
734	 2.72869455036386E-02 
735	 2.64864501012114E-02 
736	 2.57949474273244E-02 
737	 0.025373996244078 
738	 2.52060878636221E-02 
739	 2.51480692769802E-02 
740	 2.48093944214557E-02 
741	 2.44478284259929E-02 
742	 2.42808450467102E-02 
743	 2.44131490876455E-02 
744	 2.43491411063698E-02 
745	 2.42630717655837E-02 
746	 2.42935654987385E-02 
747	 2.44354181992862E-02 
748	 2.44326245370046E-02 
749	 2.43278560785621E-02 
750	 2.42138408069959E-02 
751	 0.024029284897019 
752	 2.40147838906617E-02 
753	 2.40702185056536E-02 
754	 2.39690330129477E-02 
755	 2.41611229942804E-02 
756	 0.024241805077434 
757	 2.41127468934222E-02 
758	 2.42574750272201E-02 
759	 2.43873174953105E-02 
760	 2.41711395864208E-02 
761	 2.37407453317023E-02 
762	 2.38650973024098E-02 
763	 2.41471379696927E-02 
764	 2.43490780754319E-02 
765	 2.43682084552883E-02 
766	 2.40383055174528E-02 
767	 2.40841222511764E-02 
768	 2.44667272620255E-02 
769	 2.44798514144219E-02 
770	 2.44252235766829E-02 
771	 2.45239742622603E-02 
772	 2.48046927756355E-02 
773	 2.48136855158366E-02 
774	 2.47904684174265E-02 
775	 2.49317839658893E-02 
776	 2.52954233768053E-02 
777	 2.52067859297875E-02 
778	 2.53388498383307E-02 
779	 2.57582668691208E-02 
780	 2.58543586320629E-02 
781	 0.025932575566884 
782	 0.02616052697384 
783	 2.64806537031048E-02 
784	 2.63345651823167E-02 
785	 2.66733809652039E-02 
786	 2.71665321621589E-02 
787	 2.71937338920199E-02 
788	 0.027346767889101 
789	 2.75144521065095E-02 
790	 2.77926287106136E-02 
791	 2.83942574398379E-02 
792	 2.87771920851608E-02 
793	 2.89918200252951E-02 
794	 2.91279334052713E-02 
795	 2.91705505530648E-02 
796	 0.029542961461909 
797	 3.01126366997656E-02 
798	 3.05560585365104E-02 
799	 3.04171951715053E-02 
800	 0.030507843931615 
801	 3.09352453083504E-02 
802	 3.13190483933129E-02 
803	 3.11920290923849E-02 
804	 3.12002467611059E-02 
805	 3.15451716271162E-02 
806	 3.18318240281519E-02 
807	 0.031606426026599 
808	 0.031446788914198 
809	 3.16004567806275E-02 
810	 3.07831412633055E-02 
811	 0.030626366664594 
812	 3.10058126781017E-02 
813	 3.10299545104181E-02 
814	 0.030456165184349 
815	 2.95411636564253E-02 
816	 2.90353575153707E-02 
817	 2.96156496871439E-02 
818	 2.94805293574766E-02 
819	 2.88502297863003E-02 
820	 2.80382677350676E-02 
821	 2.71952312921504E-02 
822	 2.65631078081387E-02 
823	 2.62294614441952E-02 
824	 2.59329477044689E-02 
825	 2.48182335041141E-02 
826	 2.38740791723063E-02 
827	 0.023159218929922 
828	 2.24072995000778E-02 
829	 2.13938234230843E-02 
830	 0.020472901292467 
831	 1.98920589963586E-02 
832	 1.97402751035513E-02 
833	 1.95702040118768E-02 
834	 1.91788265238671E-02 
835	 1.87377652721078E-02 
836	 1.88135332756841E-02 
837	 1.90225011838429E-02 
838	 1.88933942701431E-02 
839	 0.018425127438547 
840	 1.89020820089408E-02 
841	 1.86910777121534E-02 
842	 1.81201332202967E-02 
843	 1.80000095553043E-02 
844	 1.76564070626847E-02 
845	 1.75444652772692E-02 
846	 1.76202916707208E-02 
847	 1.75126123292573E-02 
848	 1.74202130136769E-02 
849	 1.73481778306783E-02 
850	 1.73423616971233E-02 
851	 1.74941496796574E-02 
852	 1.71596492287859E-02 
853	 1.70432045152281E-02 
854	 1.73632701542712E-02 
855	 1.66955065760542E-02 
856	 1.68441233076837E-02 
857	 1.71394138048043E-02 
858	 1.67383514159522E-02 
859	 1.67348320840202E-02 
860	 1.67587889865997E-02 
861	 1.66338165635123E-02 
862	 0.016376534040946 
863	 1.65009611667899E-02 
864	 1.66032673705383E-02 
865	 0.016587888695834 
866	 1.66893976133609E-02 
867	 1.68852423372074E-02 
868	 1.68347511604627E-02 
869	 1.64934024791956E-02 
870	 1.62334814564801E-02 
871	 1.59411826648355E-02 
872	 1.59097927787803E-02 
873	 1.61768635579788E-02 
874	 1.60410286871663E-02 
875	 0.016233166157912 
876	 1.61128391811223E-02 
877	 1.52661051867411E-02 
878	 1.56330595976085E-02 
879	 1.56884646930142E-02 
880	 1.54012710219152E-02 
881	 1.53846794466619E-02 
882	 1.53098698511023E-02 
883	 1.54155582322056E-02 
884	 1.55169730046406E-02 
885	 1.51786688556011E-02 
886	 1.47573474317244E-02 
887	 1.46785200057213E-02 
888	 1.50855957680728E-02 
889	 1.57351790157634E-02 
890	 1.55551111321626E-02 
891	 1.51350948757416E-02 
892	 1.51989264410209E-02 
893	 0.016085550935626 
894	 1.49670668592816E-02 
895	 1.41533382973619E-02 
896	 1.56875795984634E-02 
897	 1.52280577659583E-02 
898	 0.013735453635881 
899	 1.36382012612503E-02 
900	 1.58327657581928E-02 
901	 0.014868624064685 
902	 0.014302278157619 
903	 1.40191656230908E-02 
904	 1.30781608851235E-02 
905	 1.39842570057476E-02 
906	 1.46114666656111E-02 
907	 1.45341195734685E-02 
908	 1.45212652948399E-02 
909	 1.31946305379532E-02 
910	 0.012884993711519 
911	 1.35483296866439E-02 
912	 1.29392058048365E-02 
913	 1.23789796066913E-02 
914	 1.23314388667077E-02 
915	 1.27029886793258E-02 
916	 1.29499111639284E-02 
917	 1.38861162565476E-02 
918	 1.39042916677451E-02 
919	 1.27389554626858E-02 
920	 1.21686979371544E-02 
921	 1.27307294027264E-02 
922	 1.29742978848206E-02 
923	 0.012665010777763 
924	 1.50122244298316E-02 
925	 1.61295462552278E-02 
926	 1.44427671041472E-02 
927	 1.09225859236281E-02 
928	 1.33774568133349E-02 
929	 1.59017659597908E-02 
930	 1.75067288385732E-02 
931	 0.019539455406856 
932	 2.11414076590316E-02 
933	 1.23035260948307E-02 
934	 6.6331972536849E-03 
935	 1.81974865818954E-02 
936	 1.28000377425868E-02 
937	 0.014037670085832 
938	 1.74285822278501E-02 
939	 1.31347556419243E-02 
940	 6.00645175000743E-03 
941	 6.47737734178367E-03 
942	 0.014223677968278 
943	 0.021342946367621 
944	 1.32949222863011E-02 
945	 1.62758168225574E-02 
946	 2.61933356695003E-02 
947	 2.29633762461676E-02 
948	 1.58147611366435E-02 
949	 1.38810025257869E-02 
950	 1.49990424061784E-02 
951	 1.21696262979515E-02 
952	 1.61613457975136E-02 
953	 1.53642066119531E-02 
954	 1.16647580209327E-02 
955	 1.45110733285657E-02 
956	 1.33119539130525E-02 
957	 1.23940509951423E-02 
958	 1.15947468079271E-02 
959	 8.00359393645341E-03 
960	 7.70285525311966E-03 
961	 8.09498029260785E-03 
962	 9.9471962996273E-03 
963	 1.55037957256727E-02 
964	 1.89885997047052E-02 
965	 1.32902502333501E-02 
966	 6.03660745504528E-03 
967	 1.15974460713699E-02 
968	 1.38553011694789E-02 
969	 1.14710434904976E-02 
970	 8.35763968192038E-03 
971	 1.06844465201841E-02 
972	 1.42507039570367E-02 
973	 1.32889748496637E-02 
974	 9.98974629596907E-03 
975	 1.27623644170362E-02 
976	 1.28903957360195E-02 
977	 1.30284016474533E-02 
978	 1.32688020011818E-02 
979	 1.11862801014584E-02 
980	 1.08493817010387E-02 
981	 1.12928231572217E-02 
982	 1.19070936262179E-02 
983	 1.23588031917155E-02 
984	 8.55967397424831E-03 
985	 6.62143943873818E-03 
986	 9.23204301525502E-03 
987	 1.40182012122819E-02 
988	 1.10839365456331E-02 
989	 8.05195555788774E-03 
990	 8.99349533257391E-03 
991	 1.27776214413118E-02 
992	 1.45391337919275E-02 
993	 0.011281724615944 
994	 8.59033284075762E-03 
995	 1.39655710792779E-02 
996	 1.04819493400306E-02 
997	 9.60609054424905E-03 
998	 1.14371429888627E-02 
999	 9.20164508708708E-03 
1000	 7.5775625560231E-03 
1001	 1.12520302593004E-02 
1002	 1.09762480090988E-02 
1003	 1.11357905020144E-02 
1004	 1.12756172156258E-02 
1005	 0.011064633927828 
1006	 0.010766843157907 
1007	 1.08605748156377E-02 
1008	 1.09510122434534E-02 
1009	 1.10443167462347E-02 
1010	 1.12029737416766E-02 
1011	 1.13147580055022E-02 
1012	 1.06335053976491E-02 
1013	 9.87154452456254E-03 
1014	 9.56520632326066E-03 
1015	 9.6973259371878E-03 
1016	 9.56827364144063E-03 
1017	 9.41912046032769E-03 
1018	 9.33840056658522E-03 
1019	 8.84314004951586E-03 
1020	 9.03191230764758E-03 
1021	 9.71661832698236E-03 
1022	 1.06022638019315E-02 
1023	 1.11310134831361E-02 
1024	 1.16721791325997E-02 
1025	 1.17490989658713E-02 
1026	 1.14834272998345E-02 
1027	 1.13480604067547E-02 
1028	 0.011192379752329 
1029	 1.10070136511297E-02 
1030	 0.010438528005434 
1031	 1.06701114016658E-02 
1032	 1.15732140426342E-02 
1033	 1.19077204922998E-02 
1034	 1.27366522866969E-02 
1035	 1.27397104660909E-02 
1036	 1.18123263482587E-02 
1037	 1.12079829117494E-02 
1038	 1.02248980479805E-02 
1039	 9.71958695512364E-03 
1040	 8.84470370044724E-03 
1041	 8.45321320765328E-03 
1042	 8.6569504183407E-03 
1043	 9.22540117135946E-03 
1044	 9.88092372971081E-03 
1045	 1.17180478244441E-02 
1046	 1.20787710822949E-02 
1047	 1.17685197387164E-02 
1048	 0.011653632010824 
1049	 1.04707999572825E-02 
1050	 1.04285040855121E-02 
1051	 1.15847463432987E-02 
1052	 1.17089236243828E-02 
1053	 1.16702298739767E-02 
1054	 1.17105153731951E-02 
1055	 1.09738700932287E-02 
1056	 1.06351630893095E-02 
1057	 1.05320257081077E-02 
1058	 1.10046079459004E-02 
1059	 0.011033626032189 
1060	 1.07853205858398E-02 
1061	 1.10413954650969E-02 
1062	 1.16404607420307E-02 
1063	 1.18588882065075E-02 
1064	 0.01231743110915 
1065	 1.24343025003532E-02 
1066	 1.23633923196791E-02 
1067	 1.18972325308464E-02 
1068	 1.05042521157949E-02 
1069	 1.01828848938654E-02 
1070	 1.01276161168012E-02 
1071	 9.98895622782927E-03 
1072	 1.02244088415389E-02 
1073	 1.13569165746278E-02 
1074	 1.13048125997408E-02 
1075	 1.03573116478914E-02 
1076	 1.02053730857876E-02 
1077	 1.00744050896686E-02 
1078	 1.00583529184593E-02 
1079	 1.01111421275004E-02 
1080	 1.06439852281536E-02 
1081	 1.20927185905118E-02 
1082	 1.21837907569832E-02 
1083	 1.18763582731197E-02 
1084	 1.17753215126069E-02 
1085	 1.03483900897699E-02 
1086	 9.90392282840641E-03 
1087	 1.06465066434173E-02 
1088	 1.08935219554485E-02 
1089	 1.10832469814911E-02 
1090	 1.16319601915843E-02 
1091	 1.10749723151746E-02 
1092	 9.43171783150116E-03 
1093	 9.09721896311018E-03 
1094	 8.60653328776943E-03 
1095	 8.36878718544306E-03 
1096	 9.64840230017906E-03 
1097	 9.69761592107159E-03 
1098	 8.02723965302771E-03 
1099	 7.95799390263279E-03 
1100	 9.09756284529411E-03 
1101	 9.32252233095596E-03 
1102	 1.04297512924997E-02 
1103	 0.010527500604639 
1104	 9.42370401242189E-03 
1105	 7.38081372613061E-03 
1106	 6.60103852471946E-03 
1107	 6.92207774621356E-03 
1108	 7.3450755949771E-03 
1109	 7.65009164752286E-03 
1110	 7.76989782052642E-03 
1111	 7.16632986902718E-03 
1112	 6.85621956732281E-03 
1113	 6.99961291300885E-03 
1114	 6.5003597452025E-03 
1115	 4.15641744352029E-03 
1116	 4.32920864818758E-03 
1117	 8.74558832993724E-03 
1118	 8.53152018002986E-03 
1119	 4.66652870025484E-03 
1120	 3.86098312070958E-03 
1121	-1.27987492606596E-03 
1122	-3.32654904022433E-03 
1123	 1.3907422451824E-03 
1124	 3.09285198749553E-03 
1125	-1.6394948266395E-03 
1126	-0.010915135763329 
1127	-1.55127940134016E-02 
1128	-6.15495832472083E-03 
1129	-3.49960774270135E-03 
1130	-1.28832961304611E-03 
1131	-1.24667693194485E-03 
1132	 8.53582520434328E-04 
1133	-2.72023365549276E-03 
1134	-1.24528019082683E-02 
1135	-1.21105610017642E-02 
1136	-1.02864221436519E-02 
1137	-9.53332107237648E-03 
1138	-5.5945458449349E-03 
1139	 2.60587593896146E-04 
1140	 1.56099970192283E-03 
1141	-4.97289435639478E-03 
1142	-5.39832152838453E-03 
1143	 1.45731249639547E-04 
1144	-1.89776567091549E-03 
1145	-8.19301288336145E-04 
1146	 2.73296241035224E-03 
1147	-1.00143295533031E-03 
1148	-3.20781300977816E-04 
1149	 2.41475475236965E-03 
1150	 2.49110217848066E-03 
1151	-1.03814881081948E-03 
1152	 2.27756686911505E-04 
1153	 3.41972416439189E-03 
1154	 4.11079499465802E-03 
1155	 5.35065862420367E-03 
1156	 5.54145377320943E-03 
1157	 3.72034819759582E-03 
1158	 3.24950752200676E-03 
1159	 4.1777791678018E-03 
1160	 5.69096008907097E-03 
1161	 6.80421256164571E-03 
1162	 6.47476434127189E-03 
1163	 6.80814908206118E-03 
1164	 7.02192512309889E-03 
1165	 6.57238327957673E-03 
1166	 7.19721271021656E-03 
1167	 7.64454486733498E-03 
1168	 7.48611812746345E-03 
1169	 7.4307731347455E-03 
1170	 7.44397554525599E-03 
1171	 7.50252195127051E-03 
1172	 7.3554921262983E-03 
1173	 7.36135906846296E-03 
1174	 7.49283629497949E-03 
1175	 7.73975209103673E-03 
1176	 7.88885789932981E-03 
1177	 7.99336993892336E-03 
1178	 8.37997618250782E-03 
1179	 8.0686684297656E-03 
1180	 7.08694866401385E-03 
1181	 6.93498750311609E-03 
1182	 7.08133827843815E-03 
1183	 7.07483848940867E-03 
1184	 7.45424478407776E-03 
1185	 7.70337815933805E-03 
1186	 7.08962004724837E-03 
1187	 6.81849921876247E-03 
1188	 7.47796404974261E-03 
1189	 7.50096007800292E-03 
1190	 7.0963936080528E-03 
1191	 6.82922079433183E-03 
1192	 6.74838545368943E-03 
1193	 6.45650552483121E-03 
1194	 6.90346741733867E-03 
1195	 7.83412318204442E-03 
1196	 7.99099814055479E-03 
1197	 7.74676809519027E-03 
1198	 7.54566909691687E-03 
1199	 7.36843299727507E-03 
1200	 7.27828781876468E-03 
1201	 7.26620480842414E-03 
1202	 7.83088635020417E-03 
1203	 7.46565731431283E-03 
1204	 7.21897900494034E-03 
1205	 8.73226655982951E-03 
1206	 8.5598240369607E-03 
1207	 7.83302767283675E-03 
1208	 8.47707412150745E-03 
1209	 8.31935256331547E-03 
1210	 7.99541828329534E-03 
1211	 8.58413340825047E-03 
1212	 8.5809574385242E-03 
1213	 7.60057119675398E-03 
1214	 7.47912739656238E-03 
1215	 7.90769485010019E-03 
1216	 8.35921546545045E-03 
1217	 7.86709881370504E-03 
1218	 8.00632324172329E-03 
1219	 8.52387584325678E-03 
1220	 8.20650732499133E-03 
1221	 7.94206260297699E-03 
1222	 8.32552930730255E-03 
1223	 8.27567443129374E-03 
1224	 7.84737625884734E-03 
1225	 7.76767211400919E-03 
1226	 7.82768010715427E-03 
1227	 7.72949005950502E-03 
1228	 7.59465024457739E-03 
1229	 7.61125562104101E-03 
1230	 7.83808447099834E-03 
1231	 8.14832379829093E-03 
1232	 8.40549630958968E-03 
1233	 8.85937936592801E-03 
1234	 8.85848999098125E-03 
1235	 8.79026939385416E-03 
1236	 8.33524906036317E-03 
1237	 8.18841623308533E-03 
1238	 8.02107107178698E-03 
1239	 8.0066539248952E-03 
1240	 8.03802322586768E-03 
1241	 7.76054228332436E-03 
1242	 7.93541252799085E-03 
1243	 8.02123248511287E-03 
1244	 7.88954877251845E-03 
1245	 8.25051353034804E-03 
1246	 8.28296799619955E-03 
1247	 8.37204191071744E-03 
1248	 8.66652642654753E-03 
1249	 8.38941781844964E-03 
1250	 8.06204895153373E-03 
1251	 7.78427933399805E-03 
1252	 7.86204166005672E-03 
1253	 8.29402867905575E-03 
1254	 0.008626540342099 
1255	 8.87017631772186E-03 
1256	 8.78336011189865E-03 
1257	 8.1682991278274E-03 
1258	 8.0371970348516E-03 
1259	 7.94456224626108E-03 
1260	 7.98152576877849E-03 
1261	 8.52867542193716E-03 
1262	 8.52562731206906E-03 
1263	 8.12989629158843E-03 
1264	 7.9268242825464E-03 
1265	 7.86058862100704E-03 
1266	 7.78072105637569E-03 
1267	 7.8950357238934E-03 
1268	 7.83779101198501E-03 
1269	 7.69363055423146E-03 
1270	 7.8973116363053E-03 
1271	 7.69046171144687E-03 
1272	 7.39649454508153E-03 
1273	 7.39585852721063E-03 
1274	 7.26328150494109E-03 
1275	 7.55905126296967E-03 
1276	 8.11959488899775E-03 
1277	 8.07312305300665E-03 
1278	 7.69947881740981E-03 
1279	 7.71966894718077E-03 
1280	 7.90246978703611E-03 
1281	 0.007894702101769 
1282	 7.81617583987776E-03 
1283	 7.81798220681408E-03 
1284	 7.77677068481318E-03 
1285	 7.68131348075807E-03 
1286	 7.64950036790491E-03 
1287	 7.48476214952951E-03 
1288	 7.28107821061254E-03 
1289	 6.98328300813543E-03 
1290	 6.38321435545337E-03 
1291	 5.99872209760412E-03 
1292	 6.23414056737256E-03 
1293	 6.55053212409162E-03 
1294	 6.89828382224989E-03 
1295	 0.007154543835613 
1296	 7.14184397542979E-03 
1297	 7.07126553590435E-03 
1298	 6.73454976086711E-03 
1299	 6.86568622716971E-03 
1300	 7.33102553206923E-03 
1301	 7.06233311411926E-03 
1302	 7.26904506613332E-03 
1303	 7.9938802331297E-03 
1304	 7.33870975805895E-03 
1305	 5.77771338349411E-03 
1306	 5.70820141513204E-03 
1307	 6.37396799317081E-03 
1308	 6.28147755944989E-03 
1309	 6.98456999338013E-03 
1310	 7.05779625265794E-03 
1311	 5.70396405141567E-03 
1312	 5.20013203170053E-03 
1313	 5.6318851798006E-03 
1314	 5.40377961698585E-03 
1315	 4.51910413917185E-03 
1316	 4.22233694363683E-03 
1317	 4.11270369963579E-03 
1318	 3.87132940479018E-03 
1319	 3.7582342894614E-03 
1320	 3.76914761108862E-03 
1321	 3.12913629420966E-03 
1322	 4.23861866567339E-03 
1323	 4.40557896751799E-03 
1324	 3.69626108240317E-03 
1325	 3.64944453405033E-03 
1326	 3.40770386833498E-03 
1327	 3.1801187117343E-03 
1328	 2.28282625237437E-03 
1329	 1.64157457394868E-03 
1330	 2.34266448343017E-03 
1331	 2.11929230949927E-03 
1332	 1.31813486685084E-03 
1333	 1.14576959182207E-03 
1334	 7.10711191451418E-04 
1335	 8.65877016385971E-04 
1336	 4.40476302648769E-03 
1337	 4.29186842459939E-03 
1338	 4.86006738948932E-04 
1339	-2.41154425164649E-04 
1340	-7.10496587914781E-04 
1341	-1.11083582741312E-03 
1342	 1.74865200614508E-03 
1343	 1.78217624026026E-03 
1344	-2.69381537107812E-03 
1345	-3.65716403449522E-03 
1346	-1.30029965465527E-03 
1347	-3.35344631310979E-03 
1348	-7.54294332032066E-03 
1349	-1.20056783330341E-02 
1350	-2.88713808384678E-02 
1351	-4.37233453352193E-02 
1352	-3.62633679290284E-02 
1353	-5.36860253485498E-02 
1354	-0.101103210781402 
1355	-0.174879347470866 
1356	-0.274621409654077 
1357	-0.368604237024117 
1358	-0.400332555645852 
1359	-0.510875143644137 
1360	-0.427969261578527 
1361	-0.549369021198582 
1362	-0.925033163892293 
1363	-0.518567523161829 
1364	-0.544482529291222 
1365	-0.831424378746068 
1366	-0.941981033556158 
1367	-1.47139265693744 
1368	-1.67286361892893 
1369	-1.41186015753328 
1370	-1.38630186929287 
1371	-1.16746581970352 
1372	-1.08400442050115 
1373	-1.11109236850024 
1374	-1.36275600655721 
1375	-1.82058011940318 
1376	-1.78853957616413 
1377	-2.46113153827321 
1378	-2.07739159101627 
1379	-0.31205402135714 
1380	-0.211250695907356 
1381	-1.29400796887242 
1382	-1.61236611617486 
1383	-2.23023700577545 
1384	-3.9718834200426 
1385	 12.5320529703372 
1386	 8.62989218725754 
1387	 12.7379639093267 
1388	 6.67170135772671 
1389	-46.7955108814059 
1390	-4.33849508399447 
1391	-1.15123946804518 
1392	-2.23411965952447 
1393	-8.12919128164156 
1394	-2.39604798785891 
1395	-5.38001087622037 
1396	 2.02031044317389 
1397	 1.30018265666192 
1398	 5.89090885527868 
1399	 8.20077511699511 
1400	-3.2649293124537 
1401	-1.31175125382468 
1402	-3.10844677751804 
1403	-3.79191089837243 
1404	-3.37422162699588 
1405	-3.30290084920147 
1406	-3.00166064503481 
1407	-2.8015538078288 
1408	-5.37123961605475 
1409	-1.67800709506856 
1410	-0.653249681878202 
1411	-0.529768697846755 
1412	-0.326433899746799 
1413	-0.400712377231661 
1414	-0.861252279654413 
1415	-0.813604496795912 
1416	-0.605300931026089 
1417	-0.532469543969133 
1418	-0.441370323802575 
1419	-0.308566144240841 
1420	-0.169938440668011 
1421	-0.155359017139978 
1422	-0.151530088214768 
1423	-0.102763023113047 
1424	-0.107495105358318 
1425	-0.109215371585438 
1426	-5.59474480335584E-02 
1427	-3.63653972416022E-02 
1428	-5.29761779296995E-02 
1429	-6.59038783021856E-02 
1430	-8.44201476581607E-02 
1431	-7.99032315311539E-02 
1432	-6.00522974707558E-02 
1433	-6.22389813015062E-02 
1434	-6.93327120078326E-02 
1435	-6.27714953375159E-02 
1436	-5.78473941814492E-02 
1437	-7.42513472454815E-02 
1438	-6.95584294717713E-02 
1439	-3.88400778459151E-02 
1440	-5.11541681763919E-02 
1441	-6.64971921465048E-02 
1442	-5.19273720016237E-02 
1443	-4.37835129861471E-02 
1444	-3.99593962151749E-02 
1445	-2.87993155886555E-02 
1446	-2.42672599391871E-02 
1447	-2.71956452568439E-02 
1448	-3.31885607090166E-02 
1449	-3.06946940617938E-02 
1450	-1.45675335955038E-02 
1451	-1.04389575098476E-02 
1452	-1.34294689966885E-02 
1453	-8.03705912817624E-03 
1454	-4.21993421354088E-03 
1455	-7.22120292791548E-03 
1456	-5.97482133864649E-03 
1457	 3.39157251412371E-03 
1458	 3.24834476628369E-03 
1459	-5.33809092041752E-03 
1460	-5.76808903082353E-03 
1461	-2.28563528529031E-03 
1462	-3.07900161954889E-03 
1463	-4.29846208282915E-03 
1464	-4.57421889115288E-03 
1465	-6.75702903705461E-03 
1466	-9.71590779639973E-03 
1467	-1.22771990356808E-02 
1468	-1.11235871186723E-02 
1469	-1.06896246722342E-02 
1470	-9.25931996802522E-03 
1471	-7.91364408613807E-04 
1472	 1.58371454536151E-04 
1473	-6.13907037523553E-03 
1474	-6.54149241236025E-03 
1475	-4.29376823550923E-03 
1476	-4.73169050874806E-03 
1477	-6.40283796268137E-03 
1478	-5.51570775573577E-03 
1479	-3.76816515704597E-03 
1480	-3.46259350281321E-03 
1481	-2.72574855600318E-03 
1482	-1.14656913062017E-03 
1483	 3.34335174567857E-04 
1484	-3.15674467749402E-04 
1485	-1.51627883867184E-03 
1486	-8.69347936726567E-04 
1487	-0.001241570353092 
1488	-9.42638386033907E-04 
1489	 1.48582073218554E-03 
1490	 2.32690015952763E-03 
1491	 1.45216743220082E-03 
1492	 1.98554964531415E-03 
1493	 3.61594033312218E-03 
1494	 3.99763687005623E-03 
1495	 4.52581015976746E-03 
1496	 4.49954935976466E-03 
1497	 2.60839423523159E-03 
1498	 2.69907746328375E-03 
1499	 4.70628305967545E-03 
1500	 4.71660695315765E-03 
1501	 4.07994979867701E-03 
1502	 4.19487301918705E-03 
1503	 3.62608687006165E-03 
1504	 3.28627567370982E-03 
1505	 3.64638037877437E-03 
1506	 4.17311089794172E-03 
1507	 4.52062419310618E-03 
1508	 4.27168242743291E-03 
1509	 4.61129440879311E-03 
1510	 4.59557676266309E-03 
1511	 3.90695016379506E-03 
1512	 4.29193373771313E-03 
1513	 5.28837786764021E-03 
1514	 5.40526451927955E-03 
1515	 4.60049806182624E-03 
1516	 4.07773633695644E-03 
1517	 4.41351801968417E-03 
1518	 4.44853947839112E-03 
1519	 4.01339924406716E-03 
1520	 4.27769534996634E-03 
1521	 4.76296371840703E-03 
1522	 4.50177358514724E-03 
1523	 4.34439676954334E-03 
1524	 4.5623217454946E-03 
1525	 4.59667004903639E-03 
1526	 4.89552261480992E-03 
1527	 5.11321865941638E-03 
1528	 4.99616222382799E-03 
1529	 4.88381575499831E-03 
1530	 4.79904666009468E-03 
1531	 5.65279691850178E-03 
1532	 6.53854205897301E-03 
1533	 5.83768050143624E-03 
1534	 5.17428276386335E-03 
1535	 5.79324469640053E-03 
1536	 6.03248455819524E-03 
1537	 5.3538461951317E-03 
1538	 5.16092230550414E-03 
1539	 5.04423183176952E-03 
1540	 4.71236859045702E-03 
1541	 4.85194402041441E-03 
1542	 5.18123335237967E-03 
1543	 5.38020250792011E-03 
1544	 5.44098497614698E-03 
1545	 5.92996569541224E-03 
1546	 6.03512694462528E-03 
1547	 5.23890213325628E-03 
1548	 5.12437911133133E-03 
1549	 5.6282506046946E-03 
1550	 5.70002746366112E-03 
1551	 5.58030158087744E-03 
1552	 5.69019570815598E-03 
1553	 5.89072335355152E-03 
1554	 6.10424142486491E-03 
1555	 6.15966903056794E-03 
1556	 5.89313809105075E-03 
1557	 5.59873074100129E-03 
1558	 5.38506708348157E-03 
1559	 5.20780444740872E-03 
1560	 5.39572625091379E-03 
1561	 5.7075350675774E-03 
1562	 5.66544292334058E-03 
1563	 6.13347563322005E-03 
1564	 6.87696914377284E-03 
1565	 6.28000446589374E-03 
1566	 5.5159857655344E-03 
1567	 5.82805363735644E-03 
1568	 5.95628614571718E-03 
1569	 5.91591008674424E-03 
1570	 6.10945530215183E-03 
1571	 5.9036413445521E-03 
1572	 5.30508895827643E-03 
1573	 5.25608804312428E-03 
1574	 6.03880411984697E-03 
1575	 0.006357798555815 
1576	 5.86285566712814E-03 
1577	 5.41065244822929E-03 
1578	 5.20046623035138E-03 
1579	 5.18600576798923E-03 
1580	 5.30871271788686E-03 
1581	 5.30349658594502E-03 
1582	 5.45590586873426E-03 
1583	 5.80421378600726E-03 
1584	 5.8819993774754E-03 
1585	 5.97731802823256E-03 
1586	 6.28348395080584E-03 
1587	 6.12334366976696E-03 
1588	 5.77438428301375E-03 
1589	 5.8898751898129E-03 
1590	 5.94782917465614E-03 
1591	 5.78686424989064E-03 
1592	 5.53821363438899E-03 
1593	 5.77465974877959E-03 
1594	 6.5508341766702E-03 
1595	 6.6539145874009E-03 
1596	 6.31167901755359E-03 
1597	 6.24654809624739E-03 
1598	 5.98227209273226E-03 
1599	 5.69332902472229E-03 
1600	 6.23556733607979E-03 
1601	 6.55351284524989E-03 
1602	 5.72455512246116E-03 
1603	 5.34979850938206E-03 
1604	 5.83849093864543E-03 
1605	 6.02487333230364E-03 
1606	 6.00586934186146E-03 
1607	 6.05278014775099E-03 
1608	 5.84284782282703E-03 
1609	 5.72644303716552E-03 
1610	 6.05150411004203E-03 
1611	 6.42599399357836E-03 
1612	 6.43136454632967E-03 
1613	 6.35860905937284E-03 
1614	 6.58544213562648E-03 
1615	 6.52513150454232E-03 
1616	 6.17490717302668E-03 
1617	 6.15136155158044E-03 
1618	 6.03522245616835E-03 
1619	 5.77694046368996E-03 
1620	 5.88494086828213E-03 
1621	 6.07703828859988E-03 
1622	 6.29204635258288E-03 
1623	 6.58963361137756E-03 
1624	 6.57388474284493E-03 
1625	 6.09113089532902E-03 
1626	 5.68595607978243E-03 
1627	 5.61822359780265E-03 
1628	 5.66859802182246E-03 
1629	 6.31584080385742E-03 
1630	 6.7612195000629E-03 
1631	 5.99489091724463E-03 
1632	 5.9431084966736E-03 
1633	 6.83153790038461E-03 
1634	 6.51217293573981E-03 
1635	 6.57705969948311E-03 
1636	 7.21053039076678E-03 
1637	 6.11565489102381E-03 
1638	 5.63121269784721E-03 
1639	 6.42263057799972E-03 
1640	 0.006333605360744 
1641	 6.29289909925442E-03 
1642	 6.32648286897746E-03 
1643	 6.12877549428652E-03 
1644	 6.66768909798532E-03 
1645	 7.17458226009723E-03 
1646	 7.38797386159335E-03 
1647	 7.33878809153978E-03 
1648	 6.87067802587482E-03 
1649	 6.83233342153448E-03 
1650	 6.9370631789415E-03 
1651	 6.50703381656126E-03 
1652	 5.54713540956396E-03 
1653	 4.88270991943904E-03 
1654	 4.91707572200989E-03 
1655	 5.87573969147789E-03 
1656	 5.95431753484413E-03 
1657	 5.57915087291808E-03 
1658	 5.89012073748596E-03 
1659	 6.08496079049596E-03 
1660	 6.33172170230049E-03 
1661	 7.72260860479551E-03 
1662	 7.65713050103093E-03 
1663	 6.30812077217816E-03 
1664	 6.1504424944328E-03 
1665	 5.76570208003944E-03 
1666	 5.66907473853088E-03 
1667	 6.68001063014225E-03 
1668	 6.45854512410272E-03 
1669	 5.87477938160499E-03 
1670	 5.96945394465729E-03 
1671	 6.12314434175695E-03 
1672	 6.05158052754313E-03 
1673	 5.96281424376274E-03 
1674	 5.95746725481482E-03 
1675	 5.85883109713066E-03 
1676	 5.67813211187897E-03 
1677	 6.06491451200061E-03 
1678	 6.52053640338976E-03 
1679	 6.03227540048147E-03 
1680	 5.29808934546851E-03 
1681	 5.42476374810688E-03 
1682	 5.7216207222435E-03 
1683	 5.90245110772737E-03 
1684	 6.50501391020439E-03 
1685	 6.89393994054223E-03 
1686	 6.45618370949174E-03 
1687	 5.87364435323046E-03 
1688	 6.20157418407759E-03 
1689	 6.54589513774016E-03 
1690	 6.27065435389591E-03 
1691	 6.40929083709422E-03 
1692	 6.48879306477683E-03 
1693	 5.85969854369727E-03 
1694	 5.66929158533044E-03 
1695	 5.51294620309678E-03 
1696	 4.75236865973266E-03 
1697	 5.06714252196525E-03 
1698	 5.50823593344175E-03 
1699	 5.64896666358816E-03 
1700	 6.74550295995302E-03 
1701	 6.67267557929648E-03 
1702	 5.76419054331336E-03 
1703	 5.81869608151478E-03 
1704	 5.30664032425448E-03 
1705	 4.78175478135478E-03 
1706	 5.47717598585252E-03 
1707	 5.31144052526335E-03 
1708	 4.08259844727077E-03 
1709	 3.77338518108996E-03 
1710	 4.48805951322454E-03 
1711	 5.29317329472575E-03 
1712	 5.70236395367681E-03 
1713	 5.39688226265375E-03 
1714	 5.47008224337018E-03 
1715	 6.10078292898393E-03 
1716	 7.33465738491623E-03 
1717	 6.54439784946925E-03 
1718	 5.14341285388864E-03 
1719	 4.11256151860793E-03 
1720	 4.22539343699526E-03 
1721	 5.19797351464835E-03 
1722	 5.66651020016706E-03 
1723	 6.00946755205913E-03 
1724	 5.57100283266991E-03 
1725	 4.97774388670847E-03 
1726	 6.25313022276649E-03 
1727	 6.58380154018059E-03 
1728	 5.78058401074848E-03 
1729	 5.90827614072987E-03 
1730	 5.00743562936042E-03 
1731	 4.20813387376067E-03 
1732	 5.41890560051615E-03 
1733	 6.16647541412392E-03 
1734	 5.80946470640099E-03 
1735	 5.93835258299887E-03 
1736	 5.59216261735891E-03 
1737	 4.32001255053244E-03 
1738	 3.40793401639253E-03 
1739	 3.41930059222626E-03 
1740	 3.6128956105393E-03 
1741	 3.50502477948683E-03 
1742	 4.3240720703645E-03 
1743	 4.82834804931545E-03 
1744	 3.99942345810175E-03 
1745	 4.4986082957245E-03 
1746	 5.38956338976676E-03 
1747	 4.98915285033491E-03 
1748	 3.64416287343943E-03 
1749	 3.48362125940224E-03 
1750	 3.47520483644609E-03 
1751	 3.48174046291356E-03 
1752	 4.53454372888801E-03 
1753	 4.99407869304023E-03 
1754	 4.08112847607281E-03 
1755	 4.15543226775307E-03 
1756	 5.96110057255245E-03 
1757	 3.7147613955614E-03 
1758	 3.01521440057423E-03 
1759	 4.75963036546168E-03 
1760	 4.12990602541937E-03 
1761	 3.85219103632853E-03 
1762	 5.01685723337697E-03 
1763	 4.83136910711808E-03 
1764	 5.31392510383897E-03 
1765	 6.93857288771692E-03 
1766	 7.17858431757305E-03 
1767	 5.1841020893846E-03 
1768	 3.4241466342459E-03 
1769	 2.25462722888335E-03 
1770	 2.38630419204855E-03 
1771	 3.87917337819605E-03 
1772	 3.08639928364246E-03 
1773	 2.92734720861691E-03 
1774	 4.04219145337865E-03 
1775	 4.49498101681183E-03 
1776	 4.51887169499967E-03 
1777	 3.75584186798812E-03 
1778	 3.59605408052759E-03 
1779	 4.36005516656192E-03 
1780	 2.68153727004058E-03 
1781	-1.76935642409157E-03 
1782	-7.28263713030509E-04 
1783	 2.11610829444048E-03 
1784	 1.24437817876595E-03 
1785	 4.58934184829046E-03 
1786	 4.87354507542904E-03 
1787	-3.51445183497448E-03 
1788	-4.26462184081426E-03 
1789	 1.88159706130354E-03 
1790	-3.06412505270602E-03 
1791	-2.19545023209686E-03 
1792	-6.53571597723073E-03 
1793	-1.42120604385316E-02 
1794	-1.50664596011091E-02 
1795	-1.63733747144395E-02 
1796	-8.71554734115255E-03 
1797	 3.93411541659128E-03 
1798	-1.13023915509793E-02 
1799	-2.19209478656471E-02 
1800	-3.23448691001523E-02 
1801	-4.34284423692708E-02 
1802	 4.30397886004072E-03 
1803	 6.29710315253313E-03 
1804	-0.090750360307132 
1805	-0.116568763439374 
1806	-0.109400389430349 
1807	-0.130310422929053 
1808	-0.023742989669926 
1809	 9.57663497673871E-03 
1810	-0.129934307732856 
1811	-0.17908371089616 
1812	-0.149870562017762 
1813	-0.243846876064487 
1814	-0.390372397836245 
1815	-0.627379139241717 
1816	-1.15204178184415 
1817	-0.847555789908805 
1818	-1.22142015923106 
1819	-1.56219144434296 
1820	-0.352904139713334 
1821	-2.3352187460515 
1822	-2.71573007080614 
1823	-1.00882631058571 
1824	-1.06423956365659 
1825	-0.465253940162026 
1826	-0.477558651459131 
1827	-8.04050959982049 
1828	-10.2861322410821 
1829	-0.888398220975288 
1830	-0.98811239761 
1831	 0.327422358172037 
1832	 0.436595908025579 
1833	 2.36057472753793 
1834	 6.3803834734853 
1835	-3.72596080872123 
1836	 38.8321397428845 
1837	 0.207818423087789 
1838	 0.180413744711838 
1839	 0.468003513719303 
1840	 0.546261627839752 
1841	 0.386216488657621 
1842	-8.64466692508299E-02 
1843	-0.359736705432345 
1844	-0.771431591879647 
1845	-0.868346760398119 
1846	-0.591605476121202 
1847	-0.256315246534617 
1848	 0.162712054626114 
1849	 0.537810654820241 
1850	 2.00044999411884 
1851	 1.20222078355297 
1852	-1.81205506779818E-03 
1853	-4.96401545976569E-02 
1854	-0.049357387921861 
1855	-3.73746166146694E-02 
1856	 7.35756864950754E-03 
1857	-0.505385874150323 
1858	-0.558671815756217 
1859	 0.82388658011989 
1860	 0.711598313606415 
1861	 0.103029986293732 
1862	 0.52294100802626 
1863	 0.369358582210561 
1864	 1.23485434509008 
1865	 1.65335419211825 
1866	 3.17599541859705 
1867	 4.73948639591751 
1868	-3.11177911656346 
1869	-34.8435609398182 
1870	 1.07895026988405 
1871	 1.13170221026433 
1872	 1.81019864413503 
1873	 3.83724183767105 
1874	-113.619405795303 
1875	-5.58222864656067 
1876	-3.90301906470939 
1877	-30.9077189079509 
1878	 2.97192853055642 
1879	 0.258041100378159 
1880	-8.89615781810657E-02 
1881	-0.270673980385022 
1882	 0.262406236375359 
1883	-0.109428261179531 
1884	-0.143399769295954 
1885	-0.267344216272994 
1886	-9.95930572968325E-02 
1887	 15.4005453069811 
1888	 1.89138614139985 
1889	 1.06502760659913 
1890	 1.13979383250471 
1891	 1.23329877271614 
1892	-1.63190435557881 
1893	-3.32273672464632 
1894	 0.543537993215138 
1895	-0.676374359179329 
1896	 31.2510585845584 
1897	-1.1446908944905 
1898	-10.204502280021 
1899	 6.56806360599695 
1900	 16.1556158301897 
1901	 1.5073206139929 
1902	 2.15153771425359 
1903	-0.386793478245659 
1904	-0.765317387015512 
1905	-0.524699651906572 
1906	-0.516484659077449 
1907	-0.656454428601136 
1908	-9.53704807898714E-02 
1909	-0.397030807689008 
1910	-1.44645140791988 
1911	-3.2812956408377 
1912	-8.63044459283109 
1913	-12.6694446599034 
1914	 4.8301960282339 
1915	 2.9475805075412 
1916	 5.86911667132194 
1917	-2.81243918349497 
1918	-1.66977937095856 
1919	-1.95473769350983 
1920	-36.6416151040229 
1921	 10.4684550877406 
1922	-10.4393610594705 
1923	 8.45442238384646 
1924	 2.3380457927077 
1925	 0.717000406029185 
1926	 0.764658276600968 
1927	 0.20571170553275 
1928	 7.91218968482754 
1929	-2.13666826979845 
1930	-1.49731797740895 
1931	-2.21754416938286 
1932	-4.48098860261217 
1933	 20.6694575960894 
1934	-5.48548736321117 
1935	-0.980949621954625 
1936	-0.806470508985302 
1937	-0.69432759569723 
1938	-0.500334370425771 
1939	-0.417710694998167 
1940	-0.44248064274135 
1941	-0.333205148402176 
1942	-0.215190858589965 
1943	-0.138947479137836 
1944	-0.115487976627992 
1945	-0.1588966347763 
1946	-0.17463988254509 
1947	-0.113118347728709 
1948	-0.120549936574343 
1949	-9.50934933470721E-02 
1950	 9.24289205219323E-03 
1951	-1.48028821324647E-02 
1952	-4.68401719321385E-02 
1953	-8.42570865663172E-02 
1954	-8.74356355413117E-02 
1955	-0.105029800613065 
1956	-0.124232617044957 
1957	-0.109656595807086 
1958	-8.98177441180097E-02 
1959	-9.64959742843302E-02 
1960	-8.11838500399165E-02 
1961	-0.049676852337373 
1962	-3.67309213851407E-02 
1963	-3.72131580340493E-02 
1964	-3.51507644750043E-02 
1965	-3.50546171413386E-02 
1966	-3.11399851585574E-02 
1967	-2.39377341831398E-02 
1968	-1.46905495745311E-02 
1969	-1.59037721681957E-02 
1970	-1.58178850182395E-02 
1971	-0.015001582958321 
1972	-1.84615982980463E-02 
1973	-1.55993037627621E-02 
1974	-6.68148159151257E-03 
1975	-4.54592582099938E-04 
1976	 1.19039182106248E-03 
1977	-6.27639980084331E-04 
1978	-4.93389246385817E-03 
1979	-6.78579715046333E-03 
1980	-1.24112435987709E-02 
1981	-1.00333097696025E-02 
1982	-4.01037189588907E-03 
1983	-1.18037411398186E-03 
1984	 1.77893478524036E-04 
1985	-1.65873938920581E-03 
1986	-3.38105377427907E-03 
1987	-5.62247820880131E-03 
1988	-9.60166424235555E-03 
1989	-1.04911580144205E-02 
1990	-1.04958700259502E-02 
1991	-9.45507247187407E-03 
1992	-3.57818617082944E-03 
1993	-7.83452992320043E-04 
1994	 1.14315308082944E-03 
1995	 1.81133014268384E-03 
1996	 5.01483255380709E-03 
1997	 2.32509099461626E-03 
1998	 1.88724730265945E-03 
1999	 2.05204700499874E-03 
2000	-5.60509467770381E-03 
2001	-9.34216383827865E-03 
2002	-5.10156497280681E-03 
2003	 1.28599647572964E-03 
2004	 9.6413430701845E-03 
2005	 1.31650364594864E-02 
2006	-4.01831146477507E-03 
2007	-1.75535658394323E-02 
2008	-1.80421828872726E-02 
2009	-1.83319875899446E-02 
2010	-4.20308156014428E-03 
2011	-1.82442666131123E-03 
2012	 4.06963854090741E-04 
2013	-1.16910352108257E-02 
2014	-2.53507639145383E-02 
2015	-0.02878881558509 
2016	-2.44999495497218E-02 
2017	-2.26260440319738E-02 
2018	-2.10320922851198E-02 
2019	-1.82079472471404E-02 
2020	-1.29017573037645E-02 
2021	-5.12986703451308E-03 
2022	 1.55903536905841E-03 
2023	 5.22733350839361E-03 
2024	 5.22236679734892E-03 
2025	-1.69580324408394E-03 
2026	-3.35303349072697E-03 
2027	-4.91346050221805E-03 
2028	-3.37070986847347E-03 
2029	-2.15342180178544E-03 
2030	-2.53008392454687E-03 
2031	-6.3331701071271E-04 
2032	-1.44863732747326E-03 
2033	-2.12680779700359E-03 
2034	 1.57285845871372E-03 
2035	 3.17682278595529E-03 
2036	 3.48268622218575E-03 
2037	 3.2989037312566E-03 
2038	 1.98681449182195E-03 
2039	 1.4695241467891E-03 
2040	 1.46225218751045E-04 
2041	 2.81067893495003E-04 
2042	 2.43067614576481E-03 
2043	 3.30008579053611E-03 
2044	 4.06369464936519E-03 
2045	 4.76984518085554E-03 
2046	 5.47046854888169E-03 
2047	 4.22443812229238E-03 
2048	 4.97829508933521E-03 
2049	 8.63576698240066E-03 
2050	 1.11454136027748E-02 
2051	 1.33969548581719E-02 
2052	 1.13575479476099E-02 
2053	 2.78668087245288E-03 
2054	-3.80349788526518E-03 
2055	-6.31510477061606E-03 
2056	-7.08988451219634E-03 
2057	-1.45253332690311E-03 
2058	 4.00766167225154E-04 
2059	 3.87547588769455E-03 
2060	 3.66231673727889E-03 
2061	-1.04380732091483E-04 
2062	-2.71575899824697E-03 
2063	-2.35177933241088E-03 
2064	-5.57428351976553E-03 
2065	-7.55142273071381E-03 
2066	-6.63574637767504E-03 
2067	-6.85625870753611E-03 
2068	-9.0349081631707E-03 
2069	-7.72645960754883E-03 
2070	-2.84435143544856E-03 
2071	 6.16317228590436E-04 
2072	 7.27304310857221E-04 
2073	 1.00452981056046E-03 
2074	 6.10829725700267E-04 
2075	-9.85432636903072E-04 
2076	-4.75429771941907E-03 
2077	-4.60796722861337E-03 
2078	-4.49666757858189E-03 
2079	-3.94788174136897E-03 
2080	-1.3465529966479E-03 
2081	 0.001659584818956 
2082	 2.71089160145621E-03 
2083	 3.71634040120685E-03 
2084	 4.23383172516091E-03 
2085	 4.11613592558059E-03 
2086	 3.89709549011403E-03 
2087	 4.48156545977078E-03 
2088	 6.3688138863019E-03 
2089	 7.77721586169987E-03 
2090	 7.44090537791659E-03 
2091	 6.25683659749272E-03 
2092	 6.07713822036302E-03 
2093	 5.75794783226379E-03 
2094	 4.8678315593475E-03 
2095	 4.12753577619015E-03 
2096	 3.77341662339768E-03 
2097	 1.72549792049013E-03 
2098	 1.92480103459369E-03 
2099	 4.35764110585038E-03 
2100	 6.50592140848959E-03 
2101	 6.84587266080041E-03 
2102	 5.4760520718903E-03 
2103	 3.10654582553262E-03 
2104	 1.49835912866481E-03 
2105	 2.04486515183166E-03 
2106	 3.17987463860395E-03 
2107	 2.62693369163703E-03 
2108	 2.84047752667107E-03 
2109	 9.12795515003124E-04 
2110	-2.27573641142008E-03 
2111	-2.01941282525889E-03 
2112	-2.28946496113213E-03 
2113	-1.32328241028864E-03 
2114	 3.85665015893705E-03 
2115	 4.08233360554964E-03 
2116	 1.20937770199792E-03 
2117	 3.67960049469881E-04 
2118	-2.44044167582038E-03 
2119	-2.64332939516183E-03 
2120	 3.06908665203558E-04 
2121	 1.01732952225987E-03 
2122	 1.17741158089126E-03 
2123	-8.50948538914533E-04 
2124	-5.29314099973663E-03 
2125	-4.71902231676497E-03 
2126	-2.68808466037717E-03 
2127	-1.33042907543563E-03 
2128	 1.63267087594004E-04 
2129	-1.03108963186997E-04 
2130	 1.40647774572693E-04 
2131	-6.54923782066818E-04 
2132	-1.83693624940951E-03 
2133	-1.02721729948176E-03 
2134	-2.2536398748355E-05 
2135	 6.59019679822637E-04 
2136	 1.81239619366059E-03 
2137	 5.52950002611992E-03 
2138	 6.07955028032328E-03 
2139	 4.82614109676062E-03 
2140	 4.49299158517654E-03 
2141	 2.11441368390107E-03 
2142	 1.70500812787802E-03 
2143	 2.5967216531345E-03 
2144	 3.84840899844774E-03 
2145	 3.83542591283469E-03 
2146	 3.92448514155628E-03 
2147	 3.98542891738898E-03 
2148	 2.62210305837479E-03 
2149	 2.32325476514784E-03 
2150	 4.31953014157086E-03 
2151	 4.15804054376809E-03 
2152	 3.93727871742221E-03 
2153	 5.71746572534958E-03 
2154	 5.60949020135973E-03 
2155	 3.93102925129323E-03 
2156	 1.22103492623821E-03 
2157	 3.19944162446485E-04 
2158	-2.26888247573872E-03 
2159	-1.60959099472307E-03 
2160	 4.14604051371202E-03 
2161	 5.46189112411812E-03 
2162	 5.6598449760456E-03 
2163	 5.01084599666844E-03 
2164	 2.17302212856968E-03 
2165	 4.01656761556516E-04 
2166	-2.90758355514907E-03 
2167	-3.00340371865455E-03 
2168	-4.95804732987253E-04 
2169	-1.28300024138632E-04 
2170	 6.43120307989945E-04 
2171	 2.2740175297918E-03 
2172	 3.93522646753401E-03 
2173	 3.4511295326737E-03 
2174	 5.32662664488321E-03 
2175	 6.97566591381357E-03 
2176	 6.87051647593258E-03 
2177	 4.43553828061248E-03 
2178	-1.08315585105889E-03 
2179	-2.53334448242805E-04 
2180	-1.1755563615791E-03 
2181	-6.03029977748428E-03 
2182	-4.42491319563474E-03 
2183	-4.8063656333821E-03 
2184	-6.81774819474431E-03 
2185	-3.26164559861087E-03 
2186	-1.68699055920809E-03 
2187	-0.000320346255167 
2188	 9.98422807867111E-04 
2189	 2.32648348998188E-03 
2190	 3.26973272455884E-03 
2191	 4.31694608412263E-03 
2192	 4.02270050371336E-03 
2193	 4.06723251298685E-03 
2194	 2.28827292555978E-03 
2195	-3.51621111694905E-03 
2196	-5.0485603484295E-03 
2197	-5.99098660010349E-03 
2198	-6.88637121763862E-03 
2199	-5.4351809273422E-03 
2200	-1.86816377540373E-03 
2201	-3.04133910513253E-03 
2202	-0.006542370398638 
2203	-8.6797538057758E-03 
2204	-9.70737168224068E-03 
2205	-8.5725857583884E-03 
2206	-3.66355259680613E-03 
2207	 3.21087946625098E-03 
2208	 8.19514081406167E-03 
2209	 1.04714159643624E-02 
2210	 0.01033019756951 
2211	 8.47087503099015E-03 
2212	 6.81441597523398E-03 
2213	 5.71030209503733E-03 
2214	 4.34793404126559E-03 
2215	 1.67865729411934E-03 
2216	-1.77123300398703E-03 
2217	-3.17852930419779E-03 
2218	-2.53581270304039E-03 
2219	-4.6676800332972E-03 
2220	-8.06876434733615E-03 
2221	-9.88123050536168E-03 
2222	-0.013829793765261 
2223	-1.50543742342177E-02 
2224	-1.32918462888432E-02 
2225	-1.12721055410954E-02 
2226	-8.69592712880874E-03 
2227	-6.2353639189058E-03 
2228	 4.5775983663828E-05 
2229	 2.82718019067512E-03 
2230	 1.94841316525893E-03 
2231	 3.06757630260302E-03 
2232	 2.17713266761356E-03 
2233	 3.42480326207865E-03 
2234	 8.9913761617476E-03 
2235	 0.010901070709132 
2236	 6.28398263127467E-03 
2237	 8.08083895470459E-03 
2238	 9.34267276289412E-03 
2239	 7.83332293107862E-03 
2240	 1.02127834066953E-02 
2241	 9.77252947563562E-03 
2242	 9.11709386443905E-03 
2243	 1.26982882494716E-02 
2244	 1.39819050174216E-02 
2245	 0.013204311643653 
2246	 1.14198654898123E-02 
2247	 7.27832281859904E-03 
2248	 6.9661148847069E-03 
2249	 8.27915761418542E-03 
2250	 4.5585258055355E-03 
2251	-6.61652163375933E-04 
2252	-4.28550328176658E-03 
2253	-2.38798724764573E-03 
2254	-2.27984616137775E-03 
2255	-5.00008629816295E-03 
2256	-3.07990124167252E-03 
2257	-6.61838498351668E-03 
2258	-1.00794526805323E-02 
2259	-7.0137341717325E-03 
2260	-5.7567150109634E-03 
2261	-4.98035606815775E-03 
2262	-5.45448458483601E-03 
2263	-5.58087596465414E-03 
2264	-4.94331700726949E-03 
2265	-6.98086268191053E-03 
2266	-4.85860744834038E-03 
2267	 1.67388478811256E-03 
2268	 3.50761422500537E-03 
2269	 5.2532272999376E-03 
2270	 6.15457658296161E-03 
2271	 4.27037541033648E-03 
2272	 3.19130403305247E-03 
2273	 2.69684665999457E-03 
2274	 1.23942220691951E-03 
2275	-3.12390655853288E-03 
2276	-1.61198206036538E-03 
2277	 6.16803331386509E-03 
2278	 7.28276586742343E-03 
2279	 6.8324667753153E-03 
2280	 5.33759954118106E-03 
2281	 8.26078953787304E-05 
2282	-6.23615784424779E-03 
2283	-0.011029713441353 
2284	-7.19180606011572E-03 
2285	-5.02363146948702E-03 
2286	-5.70793543780599E-03 
2287	-2.9090212388738E-03 
2288	 6.64414612288377E-05 
2289	 4.42677306381835E-03 
2290	 1.07953156774638E-02 
2291	 1.63300451621805E-02 
2292	 0.013622302977554 
2293	 8.95666146899262E-03 
2294	 8.32609382816118E-03 
2295	 1.22683451075671E-02 
2296	 1.48032297182277E-02 
2297	 9.03927666576689E-03 
2298	-2.80041835789752E-03 
2299	-2.19869170961124E-02 
2300	-2.59078417087225E-02 
2301	-1.68842832540673E-02 
2302	-1.08896498438497E-02 
2303	-2.99939848932023E-03 
2304	 7.95814293397087E-04 
2305	 2.14502260103344E-03 
2306	-2.10482026592249E-03 
2307	-6.70667213170942E-03 
2308	-6.97378911305938E-03 
2309	-1.17076651389533E-02 
2310	-1.15518058402147E-02 
2311	-4.41572985618237E-03 
2312	-4.03374421239672E-03 
2313	 1.91872546171829E-03 
2314	 1.22951109278002E-02 
2315	 8.11201273667271E-03 
2316	 6.44522673770094E-03 
2317	 3.89153697340803E-03 
2318	-1.29311787746459E-02 
2319	-1.93113346746116E-02 
2320	-2.18264733548781E-02 
2321	-3.53443372691017E-02 
2322	-3.30657518539844E-02 
2323	-2.42061924092154E-02 
2324	-2.50968098065481E-02 
2325	-1.56750374073324E-02 
2326	-1.15109964566155E-02 
2327	-1.60643847421271E-02 
2328	-2.17122384496208E-02 
2329	-2.98681110516893E-02 
2330	-2.66018100624055E-02 
2331	-0.025742317552307 
2332	-1.66254694509991E-02 
2333	-2.41155253768297E-03 
2334	-7.78135732799087E-03 
2335	-4.19708110259914E-03 
2336	-5.37420593556482E-03 
2337	-1.28676001175286E-02 
2338	 5.59901025708064E-03 
2339	 2.62113725634006E-02 
2340	 3.95537064819987E-02 
2341	 5.42152241096884E-02 
2342	 4.86080812019682E-02 
2343	 1.68159596895203E-02 
2344	 1.42890750030881E-03 
2345	-7.67513434494251E-03 
2346	-2.52576457596545E-02 
2347	-2.69825786051351E-02 
2348	-1.63885332533758E-02 
2349	-1.40474024496411E-02 
2350	-2.17744157705148E-02 
2351	-1.76353540354108E-03 
2352	 1.63206251495542E-02 
2353	-2.06628464808374E-03 
2354	-9.12195769302537E-03 
2355	-8.66076826471216E-03 
2356	-2.22367737902553E-02 
2357	-1.30987109492712E-03 
2358	 2.83566189323041E-02 
2359	 1.73530272928136E-02 
2360	 1.2032125549923E-03 
2361	-2.20455972540492E-02 
2362	-3.46609556355111E-02 
2363	-0.020320322820334 
2364	-1.08650469108493E-02 
2365	-1.92670206998164E-02 
2366	-3.80396539933276E-02 
2367	-4.06829684705107E-02 
2368	-0.026419767000619 
2369	-1.62599941013483E-02 
2370	-0.020906617391372 
2371	-2.07694511202899E-02 
2372	-2.98421293683003E-02 
2373	-1.97554735406663E-02 
2374	 1.59893111697021E-03 
2375	-2.13861021264699E-02 
2376	-3.80766279819642E-02 
2377	-5.96724512451342E-02 
2378	-7.03909313207819E-02 
2379	-0.062753140625462 
2380	-0.077743613842596 
2381	-7.80073139017912E-02 
2382	-7.34642836302151E-02 
2383	-0.120062532771328 
2384	-0.127873848096425 
2385	-0.111380429699464 
2386	-6.88300539069172E-02 
2387	 3.71376870315655E-02 
2388	-7.05924918117034E-03 
2389	-2.90471283123329E-02 
2390	 4.83469041352781E-02 
2391	-2.02752670755508E-02 
2392	 4.79901662857101E-02 
2393	 0.150637322467032 
2394	 3.80022519846352E-02 
2395	-2.28965570439881E-02 
2396	-6.94600745311262E-02 
2397	-0.104117648386766 
2398	-6.04812083684368E-02 
2399	 2.08529090827229E-02 
2400	 7.76908493528672E-02 
2401	 5.45177616718759E-02 
2402	-6.62893043676971E-02 
2403	-0.185887539067814 
2404	-0.115044823501321 
2405	 8.52175244234412E-02 
2406	 0.248598155547547 
2407	 0.339303343692722 
2408	 0.22568813005073 
2409	-0.132924301028212 
2410	-0.385549574667149 
2411	-0.340380012185198 
2412	-0.167245181659564 
2413	 0.084241809082157 
2414	 0.160025273453926 
2415	 5.60811502919698E-02 
2416	-0.115608883383335 
2417	-0.243879824276293 
2418	-0.262836280718528 
2419	-0.30397056511387 
2420	-0.443645879950666 
2421	-0.32246072034414 
2422	-0.223883451651755 
2423	-0.221561176007122 
2424	-3.05699639877143E-02 
2425	-2.0123416036557E-03 
2426	-8.70476194942611E-02 
2427	-0.093208914267274 
2428	-0.180179980063112 
2429	-0.19543702462853 
2430	-0.106033785178846 
2431	-0.105612686461773 
2432	 0.074355670867889 
2433	 0.073821463629309 
2434	-7.32297613246122E-03 
2435	 0.150668278996484 
2436	 0.221217886627511 
2437	 2.59788107372668E-02 
2438	-8.13161751594987E-02 
2439	-0.489761788615724 
2440	-0.930639944703927 
2441	-1.08069145654322 
2442	-0.990399001013401 
2443	-0.49065347874066 
2444	 0.424383399133442 
2445	 0.962955369999435 
2446	-0.210873060643861 
2447	-2.76533856060556 
2448	-2.96038604764795 
2449	-1.0616133759942 
2450	-1.2162825226724 
2451	-0.89210546367813 
2452	-1.84678324185515 
2453	-2.68026534897426 
2454	-1.29030467359549 
2455	-1.56693154845059 
2456	-1.07946579929733 
2457	-0.614288055352056 
2458	-1.15732841465374 
2459	-1.85452688391192 
2460	-2.11257823491786 
2461	-2.26645489935535 
2462	-2.6986809059621 
2463	-9.74679515362353 
2464	 3.68344533970233 
2465	 2.63681305702518 
2466	 1.18375672152195 
2467	-0.761801516630334 
2468	-0.792720579518287 
2469	-1.47228713242148 
2470	-0.212341458932754 
2471	 0.232121994209514 
2472	 1.90966978146908E-02 
2473	-0.102584451915773 
2474	 4.23924587929812E-02 
2475	 0.31688254142553 
2476	 0.820376866689145 
2477	 3.79838764303029 
2478	-0.110463769443589 
2479	 1.3992687284643 
2480	 8.48040072486289 
2481	-2.3476044618147 
2482	-0.445136585197692 
2483	 6.30557870703851E-02 
2484	 0.091787056579902 
2485	 0.51419401621706 
2486	 0.377168767162922 
2487	-0.246756803932669 
2488	-0.515053871522492 
2489	-0.590584748493296 
2490	-0.845766727765368 
2491	-0.294400002427511 
2492	-0.205771219557164 
2493	-0.409413697979047 
2494	-0.513704100742697 
2495	-1.82403284299299 
2496	-0.862097553391938 
2497	-1.00169816634467 
2498	 0.494236927514914 
2499	 1.97221225215396 
2500	 1.39498539908672 
