Wavelength	rt0622close00006.asd
350	 0.018503836095544 
351	 1.99791472975795E-02 
352	 1.91398007631966E-02 
353	 1.84738828797301E-02 
354	 1.94543593523271E-02 
355	 1.92445329685848E-02 
356	 1.92481121835019E-02 
357	 1.95614426780937E-02 
358	 1.98650834651336E-02 
359	 1.97936695726711E-02 
360	 0.019817333952051 
361	 2.01443726228161E-02 
362	 2.06895404021829E-02 
363	 2.06470009447354E-02 
364	 2.04288885530732E-02 
365	 2.04455412583729E-02 
366	 2.08657133474481E-02 
367	 2.09666119147765E-02 
368	 2.10804346214317E-02 
369	 2.15785300930647E-02 
370	 0.021952728723652 
371	 2.19561469192295E-02 
372	 2.18723364053388E-02 
373	 2.21961091947855E-02 
374	 2.22761740836832E-02 
375	 2.19850040837773E-02 
376	 2.18119597617523E-02 
377	 2.29369694092565E-02 
378	 2.31715297261166E-02 
379	 2.27389451826965E-02 
380	 2.25845500253129E-02 
381	 2.39505557388254E-02 
382	 2.46822282276016E-02 
383	 2.45329062370469E-02 
384	 2.43054852827133E-02 
385	 2.45111213543996E-02 
386	 2.48200964566254E-02 
387	 2.49706145989046E-02 
388	 2.49004052376014E-02 
389	 2.50193760583579E-02 
390	 2.55623760410387E-02 
391	 2.63167576349296E-02 
392	 2.60966373457553E-02 
393	 2.62281821674897E-02 
394	 2.65774437757553E-02 
395	 2.66112707128255E-02 
396	 2.68529362949326E-02 
397	 0.027257274537034 
398	 2.75799151449072E-02 
399	 0.027489848448321 
400	 2.75905545582027E-02 
401	 2.78893437269603E-02 
402	 2.82078651885983E-02 
403	 0.02813266667945 
404	 2.85254650585461E-02 
405	 0.028902538557707 
406	 2.86013645410117E-02 
407	 2.90466880620243E-02 
408	 2.94511110768767E-02 
409	 0.029545357539369 
410	 0.029698142986537 
411	 0.029789732998939 
412	 0.030043884180651 
413	 3.04775529536818E-02 
414	 0.030463637294187 
415	 3.06212979817992E-02 
416	 3.09538938822701E-02 
417	 3.12278847761211E-02 
418	 3.14318287527547E-02 
419	 3.17650953884257E-02 
420	 3.21356896905753E-02 
421	 3.21484158175198E-02 
422	 3.23885876696867E-02 
423	 3.28498898742206E-02 
424	 3.33053548227581E-02 
425	 3.32401182788022E-02 
426	 0.033581498511991 
427	 3.41094287780957E-02 
428	 3.41839528987217E-02 
429	 3.45826545529383E-02 
430	 3.51048906766456E-02 
431	 3.55045785442999E-02 
432	 3.56056322545117E-02 
433	 3.61386836824026E-02 
434	 3.66744886687578E-02 
435	 3.68340981782106E-02 
436	 3.71609151431088E-02 
437	 3.76688036138113E-02 
438	 3.81685008002834E-02 
439	 3.84030672405661E-02 
440	 3.86239778584828E-02 
441	 3.90263441017271E-02 
442	 3.95663110435882E-02 
443	 3.98709226589947E-02 
444	 4.00987520941931E-02 
445	 4.04056069714572E-02 
446	 4.08656463677929E-02 
447	 4.12558350365752E-02 
448	 4.15306276091835E-02 
449	 4.17311772565216E-02 
450	 4.19641595445821E-02 
451	 4.22953540224013E-02 
452	 0.042578479563917 
453	 4.27432173712431E-02 
454	 4.29258017288096E-02 
455	 4.32070859151471E-02 
456	 4.34643149656853E-02 
457	 4.35684886578617E-02 
458	 4.38341856989094E-02 
459	 4.39411721884317E-02 
460	 4.39182864753084E-02 
461	 4.41538464636967E-02 
462	 4.42823868503363E-02 
463	 4.44850352037372E-02 
464	 4.48639422687981E-02 
465	 4.50178409717653E-02 
466	 4.50905397549548E-02 
467	 4.51868108368237E-02 
468	 4.53838624685826E-02 
469	 4.56319520811115E-02 
470	 4.58684827491341E-02 
471	 4.60383556059393E-02 
472	 4.60967775182563E-02 
473	 4.63694885959592E-02 
474	 4.66233652524355E-02 
475	 4.66573164554219E-02 
476	 0.046931110757108 
477	 4.72963363794044E-02 
478	 4.76028336951487E-02 
479	 4.77450939575337E-02 
480	 4.80915187308894E-02 
481	 4.83343545558307E-02 
482	 4.83962479836744E-02 
483	 0.048869613391323 
484	 4.91413199921987E-02 
485	 4.93734568670478E-02 
486	 4.98854684563074E-02 
487	 5.02092363100439E-02 
488	 5.05413769722182E-02 
489	 5.09222168564919E-02 
490	 5.12167555581108E-02 
491	 5.15463711993442E-02 
492	 5.20191844715809E-02 
493	 5.26108922515505E-02 
494	 5.29476987729189E-02 
495	 0.053395197039768 
496	 5.38706089398521E-02 
497	 0.054132298268947 
498	 5.46509830093751E-02 
499	 5.51905394281951E-02 
500	 5.56081367118759E-02 
501	 5.60146492845028E-02 
502	 0.056536229677512 
503	 5.71169011277678E-02 
504	 5.76588989544748E-02 
505	 5.81497289175576E-02 
506	 5.86320978570745E-02 
507	 5.91321747572846E-02 
508	 5.96536762526103E-02 
509	 6.01072130899436E-02 
510	 6.05619012877243E-02 
511	 6.10816796176081E-02 
512	 0.061663659195849 
513	 6.23105526957479E-02 
514	 6.29472572174041E-02 
515	 6.34959069409498E-02 
516	 6.41701516238991E-02 
517	 6.48133726229476E-02 
518	 6.53621046074109E-02 
519	 6.59102993964374E-02 
520	 6.65985042759432E-02 
521	 6.73349390041085E-02 
522	 6.80144192219218E-02 
523	 6.86618635304727E-02 
524	 6.94020683783433E-02 
525	 7.01748515845011E-02 
526	 7.08098180533246E-02 
527	 7.14678030125199E-02 
528	 7.21688554140061E-02 
529	 7.29142201682193E-02 
530	 7.37231000885379E-02 
531	 7.45378553817651E-02 
532	 7.52964579346242E-02 
533	 7.59749147688214E-02 
534	 7.67803081605144E-02 
535	 7.75651217526206E-02 
536	 7.82840763564457E-02 
537	 7.90275218183068E-02 
538	 7.99831894750608E-02 
539	 8.08727666397613E-02 
540	 8.15092237816829E-02 
541	 8.23865727509949E-02 
542	 8.33148433806648E-02 
543	 8.41668949668783E-02 
544	 8.48842816647797E-02 
545	 8.56230921382209E-02 
546	 0.086444983396093 
547	 8.73184129664886E-02 
548	 0.088064319847414 
549	 8.88476100701273E-02 
550	 8.96668983371702E-02 
551	 9.04770671427542E-02 
552	 9.13349609887082E-02 
553	 9.21249343270084E-02 
554	 0.092821648106216 
555	 9.35087695318086E-02 
556	 0.094406984359518 
557	 9.53469302225736E-02 
558	 9.61146048360464E-02 
559	 9.67058647043633E-02 
560	 9.74804509467669E-02 
561	 9.83070199334046E-02 
562	 9.88072713669499E-02 
563	 9.94947739869489E-02 
564	 0.10020972947981 
565	 0.100823143658001 
566	 0.101447588968447 
567	 0.101947251744299 
568	 0.102447903083777 
569	 0.103082845368409 
570	 0.103451223415984 
571	 0.103810318397127 
572	 0.104297582422347 
573	 0.104868479576966 
574	 0.105210539847215 
575	 0.105493133229123 
576	 0.105892618412264 
577	 0.106233782259731 
578	 0.106416100127337 
579	 0.106610714570941 
580	 0.107081381703872 
581	 0.107207098550549 
582	 0.107297564133223 
583	 0.10750853104255 
584	 0.107488738978668 
585	 0.107583803588333 
586	 0.107649574738486 
587	 0.107430732802368 
588	 0.107152074174733 
589	 0.107013708357735 
590	 0.107003505221685 
591	 0.106881832454725 
592	 0.106779449590498 
593	 0.106602945861572 
594	 0.106265240032331 
595	 0.105809428605388 
596	 0.105314732724769 
597	 0.104804703412527 
598	 0.104278200391427 
599	 0.103831227864809 
600	 0.10330688874087 
601	 0.102755906838719 
602	 0.10264673408681 
603	 0.102454874005723 
604	 0.102320448704831 
605	 0.102472165168901 
606	 0.102413378962191 
607	 0.10252432341478 
608	 0.102770249466405 
609	 0.102671600290941 
610	 0.102727773983331 
611	 0.102801861993161 
612	 0.102758946951967 
613	 0.102875156766238 
614	 0.102997620102063 
615	 0.103010379268006 
616	 0.102879176072106 
617	 0.103096327127707 
618	 0.103281220089522 
619	 0.103212526164642 
620	 0.103057760508614 
621	 0.103078404549489 
622	 0.103221382610486 
623	 0.103313504422658 
624	 0.10322780606214 
625	 0.103161557351686 
626	 0.103164625866707 
627	 0.103132428345138 
628	 0.103057338381704 
629	 0.103016833131872 
630	 0.10307133058619 
631	 0.103208368737541 
632	 0.103321403620529 
633	 0.103317112876 
634	 0.103177077798731 
635	 0.103340718762884 
636	 0.103477482086856 
637	 0.103426004263538 
638	 0.103367774876139 
639	 0.103372062119784 
640	 0.103352049686042 
641	 0.103232976046631 
642	 0.103201184944628 
643	 0.103232485679127 
644	 0.103201953013962 
645	 0.102930879278975 
646	 0.102801162852946 
647	 0.102786148772822 
648	 0.102775348879716 
649	 0.102658686084059 
650	 0.102575211353329 
651	 0.102472720362094 
652	 0.102251677545519 
653	 0.101987320869626 
654	 0.101677404100241 
655	 0.101274929399169 
656	 0.100745249299184 
657	 0.100295393088371 
658	 9.99836447982004E-02 
659	 9.97790146778508E-02 
660	 9.95457667162282E-02 
661	 0.099314195438333 
662	 9.91514315518683E-02 
663	 9.91278246973371E-02 
664	 9.90501193808618E-02 
665	 0.098925788067762 
666	 9.87958957012987E-02 
667	 9.87122783053031E-02 
668	 9.86306031474245E-02 
669	 9.86217094003141E-02 
670	 9.87279093391063E-02 
671	 9.86819087195559E-02 
672	 0.098520988273804 
673	 9.84126093294603E-02 
674	 9.86015534933424E-02 
675	 9.87248163519635E-02 
676	 9.87074734282155E-02 
677	 9.86314397579922E-02 
678	 9.88325473513899E-02 
679	 9.89557717755287E-02 
680	 0.098957286132441 
681	 9.89629223642858E-02 
682	 9.92055137059223E-02 
683	 9.92989008480515E-02 
684	 9.91611907513103E-02 
685	 9.91804012812957E-02 
686	 9.92227655469348E-02 
687	 9.90943100069554E-02 
688	 9.87675364613896E-02 
689	 9.87216567968662E-02 
690	 9.87001126086855E-02 
691	 9.84783050617436E-02 
692	 9.79037282573197E-02 
693	 9.77019966912966E-02 
694	 9.72641093847701E-02 
695	 9.64987483804694E-02 
696	 9.63440556670147E-02 
697	 9.59091686033519E-02 
698	 9.51248540524636E-02 
699	 9.42293269702356E-02 
700	 9.34378724224319E-02 
701	 9.26878042800057E-02 
702	 9.19351859841674E-02 
703	 9.11327634247203E-02 
704	 9.02244528296727E-02 
705	 8.92686484437689E-02 
706	 8.83133142452256E-02 
707	 8.72745633688529E-02 
708	 8.60394263321905E-02 
709	 8.46833152539857E-02 
710	 8.33183708705279E-02 
711	 0.081774156191615 
712	 8.02313427319738E-02 
713	 7.86132883335947E-02 
714	 0.076523830666489 
715	 7.46235551674164E-02 
716	 7.26168196644108E-02 
717	 7.03223673986497E-02 
718	 6.82643568792319E-02 
719	 6.61436385996652E-02 
720	 6.42993114567062E-02 
721	 6.26997493407856E-02 
722	 6.10383851434131E-02 
723	 5.90217251793096E-02 
724	 5.68209428754363E-02 
725	 5.45908090241922E-02 
726	 5.25007502846544E-02 
727	 5.03423219225112E-02 
728	 4.78902969288595E-02 
729	 0.044979497717141 
730	 4.24157568312412E-02 
731	 4.02765199586061E-02 
732	 3.81586549178247E-02 
733	 3.64068661387118E-02 
734	 3.47949543781319E-02 
735	 0.033346534145237 
736	 3.24132879694831E-02 
737	 3.16186495664024E-02 
738	 3.10431517859986E-02 
739	 3.07387929263351E-02 
740	 3.02883056641318E-02 
741	 3.00166470121125E-02 
742	 2.99072559417111E-02 
743	 2.97760862708314E-02 
744	 2.96902937963343E-02 
745	 0.029637063780457 
746	 2.95680168097285E-02 
747	 2.93954273819677E-02 
748	 2.94914098930169E-02 
749	 2.96216846220663E-02 
750	 2.95362153310362E-02 
751	 2.94737139345545E-02 
752	 2.94489243350174E-02 
753	 2.94177489679876E-02 
754	 2.93242431266458E-02 
755	 2.93121350834609E-02 
756	 2.94555119152961E-02 
757	 2.96330038065894E-02 
758	 2.93691216872833E-02 
759	 2.92399295898325E-02 
760	 2.93477897990737E-02 
761	 2.93830580915737E-02 
762	 2.95509169687191E-02 
763	 2.98020090553748E-02 
764	 2.99184594022237E-02 
765	 2.98354091116652E-02 
766	 3.01021828432334E-02 
767	 3.01671909872702E-02 
768	 3.00923631527409E-02 
769	 3.04815108070367E-02 
770	 3.08103045155959E-02 
771	 3.08928342187953E-02 
772	 3.08279752674058E-02 
773	 3.12968971065366E-02 
774	 3.16656781798627E-02 
775	 3.19111674407529E-02 
776	 3.22402516046626E-02 
777	 0.032495882183136 
778	 3.26085376640252E-02 
779	 3.27972873620393E-02 
780	 3.34970889007357E-02 
781	 3.37672801537933E-02 
782	 0.033901908069256 
783	 3.42615639531292E-02 
784	 3.48451830858013E-02 
785	 3.52511148729082E-02 
786	 3.55840920242238E-02 
787	 3.60564241789069E-02 
788	 3.63175027114661E-02 
789	 3.67782050510036E-02 
790	 3.73857571980098E-02 
791	 3.77319983515591E-02 
792	 3.80621624946488E-02 
793	 3.85606883587907E-02 
794	 3.92345993700289E-02 
795	 3.98058270118757E-02 
796	 4.01151968046057E-02 
797	 4.03179714179791E-02 
798	 4.06727347218138E-02 
799	 4.14363869116298E-02 
800	 4.17013896874285E-02 
801	 4.17476650229905E-02 
802	 4.23874480584613E-02 
803	 4.27183437265929E-02 
804	 4.29790899867618E-02 
805	 4.32500235991071E-02 
806	 4.33358695401435E-02 
807	 4.31847116183203E-02 
808	 4.30645070631034E-02 
809	 4.31074201274294E-02 
810	 4.29007923236407E-02 
811	 4.27709822615197E-02 
812	 4.24840254418538E-02 
813	 4.16936521125765E-02 
814	 4.09668439632028E-02 
815	 4.09186802200178E-02 
816	 4.08913955319538E-02 
817	 3.95722411539809E-02 
818	 3.89629289173497E-02 
819	 3.85539865848584E-02 
820	 3.79766030344199E-02 
821	 3.73921156544016E-02 
822	 0.036301176049295 
823	 3.48893179102423E-02 
824	 0.033443136381052 
825	 3.16886707636192E-02 
826	 3.01571610102816E-02 
827	 2.86478754172229E-02 
828	 2.68942481351047E-02 
829	 0.025441266718646 
830	 0.023749894405934 
831	 2.22501766649451E-02 
832	 2.19017046152252E-02 
833	 2.08987545327953E-02 
834	 2.00034639623562E-02 
835	 1.96275714175776E-02 
836	 1.93520343259236E-02 
837	 1.87864527660858E-02 
838	 1.84335908983282E-02 
839	 0.01849116616768 
840	 0.017824168195104 
841	 1.75591439040789E-02 
842	 1.75130520305015E-02 
843	 1.71443515409369E-02 
844	 1.66257971766406E-02 
845	 1.63634269633124E-02 
846	 1.63984393743181E-02 
847	 1.64737174065144E-02 
848	 1.62956307629614E-02 
849	 1.56550111858518E-02 
850	 0.015022509291873 
851	 1.55683056740069E-02 
852	 1.58230679302043E-02 
853	 0.015472265772198 
854	 1.47305960739046E-02 
855	 0.014271654423555 
856	 1.45106575852483E-02 
857	 0.014774754443541 
858	 1.43631835241334E-02 
859	 1.35093448353612E-02 
860	 1.36372520247082E-02 
861	 1.41151100449471E-02 
862	 1.35670205355647E-02 
863	 1.32060226214304E-02 
864	 1.32563223186229E-02 
865	 1.34169751965487E-02 
866	 1.30344204830988E-02 
867	 1.24622382247217E-02 
868	 1.21938836364881E-02 
869	 1.22594807376666E-02 
870	 1.21028142645869E-02 
871	 1.21187160024546E-02 
872	 1.18591388977177E-02 
873	 1.11834960099074E-02 
874	 1.09793655798107E-02 
875	 1.12063621801756E-02 
876	 0.011168356906782 
877	 1.04024948861641E-02 
878	 9.98374525179521E-03 
879	 1.02574876893915E-02 
880	 1.05446415183654E-02 
881	 9.96031400584996E-03 
882	 9.5024977308156E-03 
883	 9.05399881298091E-03 
884	 9.06214263421399E-03 
885	 1.00529358010863E-02 
886	 9.4462743328202E-03 
887	 8.67804261268554E-03 
888	 8.49102385717339E-03 
889	 8.32819447943733E-03 
890	 8.7794398300649E-03 
891	 9.05462479522779E-03 
892	 8.60135803809049E-03 
893	 7.80852542303696E-03 
894	 8.48504200031055E-03 
895	 8.93544482282599E-03 
896	 7.59760939673352E-03 
897	 7.27677573980815E-03 
898	 7.56769814690293E-03 
899	 7.95270314265534E-03 
900	 7.89992978069231E-03 
901	 7.20306185264504E-03 
902	 7.09494882585647E-03 
903	 7.08166853530826E-03 
904	 6.47524269077742E-03 
905	 7.35364257387684E-03 
906	 6.16119908435296E-03 
907	 4.3292737706402E-03 
908	 6.17239870401774E-03 
909	 5.69657677864103E-03 
910	 5.35806308546572E-03 
911	 5.68575497532835E-03 
912	 4.97498310301395E-03 
913	 4.76646845263406E-03 
914	 4.95995358315624E-03 
915	 5.26932008465458E-03 
916	 5.45770173421956E-03 
917	 5.38358937753024E-03 
918	 5.00742106967945E-03 
919	 4.70974682152386E-03 
920	 5.27627822281439E-03 
921	 4.71463114792036E-03 
922	 4.11503579168968E-03 
923	 4.04198123817263E-03 
924	 2.63030468870632E-03 
925	 3.72430028578874E-03 
926	 4.70506939774773E-03 
927	 0.002831225587548 
928	 3.75993263828953E-03 
929	 3.98316991447578E-03 
930	 4.23493356948162E-03 
931	 6.44812490400941E-03 
932	 2.89030088627348E-03 
933	-1.58679050432309E-03 
934	 7.79684276336275E-04 
935	 9.25387598139482E-03 
936	-9.89233151817189E-04 
937	 2.4116728060495E-06 
938	 4.46510001926761E-03 
939	-6.12972575028395E-04 
940	 7.36761926347091E-04 
941	-3.53861896457492E-03 
942	-7.93151460670726E-03 
943	-1.24253486449398E-03 
944	 6.25122119289652E-04 
945	-9.57803574100733E-04 
946	-2.17064632234495E-03 
947	-1.87122040058344E-04 
948	-2.71420207932985E-03 
949	 0.00115585455747 
950	 5.82017775567555E-03 
951	-1.38755690122547E-04 
952	 2.41251588733198E-03 
953	 3.92019583011536E-03 
954	 1.64998264842598E-03 
955	-6.44885182865062E-04 
956	 6.45044188382902E-04 
957	 7.32524239579956E-04 
958	 1.22138142334609E-03 
959	 6.34535501859034E-03 
960	 5.22833181952274E-03 
961	 9.23160669494865E-04 
962	-1.55668733310282E-03 
963	 1.23349679637858E-03 
964	 1.06605826965727E-03 
965	 1.49702012788942E-03 
966	 2.58109799946873E-03 
967	 1.78326642859098E-03 
968	 1.65619603837503E-03 
969	 1.72215677868412E-03 
970	 1.74497997046096E-03 
971	 2.1913974443269E-03 
972	 6.51376950623005E-03 
973	 4.96627217402143E-03 
974	 4.29623818987072E-04 
975	 6.25744665390361E-03 
976	 4.32037446514998E-03 
977	 1.74553297497264E-03 
978	 2.28671343527366E-03 
979	 3.69442002264174E-03 
980	 4.12980006458606E-03 
981	 3.97283260918268E-03 
982	 4.19848922165947E-03 
983	 5.16496463853688E-03 
984	 6.50071044167408E-04 
985	-2.60322567976123E-04 
986	 2.57547517226297E-03 
987	 2.18636566429776E-03 
988	 1.96077292695712E-03 
989	 2.37265988687957E-03 
990	 3.66665593924241E-03 
991	 5.21755791638955E-03 
992	 1.40388702311428E-03 
993	-1.32616266442163E-04 
994	 2.16160850645739E-03 
995	 4.13602513238659E-03 
996	 1.61820103783431E-03 
997	 2.31651766128442E-03 
998	 3.55075940541427E-03 
999	-1.13625081481338E-03 
1000	 1.87820544351696E-03 
1001	 1.78957240836062E-03 
1002	 2.5088046670183E-03 
1003	 2.73491813782549E-03 
1004	 3.12905836004404E-03 
1005	 3.49243215618898E-03 
1006	 3.73146554191442E-03 
1007	 4.14537797963222E-03 
1008	 4.38720539098481E-03 
1009	 4.52273430665271E-03 
1010	 4.4977368380571E-03 
1011	 3.87463886390803E-03 
1012	 3.58170139282756E-03 
1013	 3.98806732840516E-03 
1014	 4.09438290876541E-03 
1015	 4.32505428812187E-03 
1016	 4.55086142090936E-03 
1017	 4.94014827313622E-03 
1018	 4.85423777866597E-03 
1019	 4.69265279710447E-03 
1020	 4.30005938680506E-03 
1021	 3.6433852853643E-03 
1022	 2.21192079861107E-03 
1023	 2.33493939830424E-03 
1024	 2.84341514245194E-03 
1025	 3.07956382732842E-03 
1026	 5.06660005806247E-03 
1027	 5.84574819348417E-03 
1028	 6.47876094342682E-03 
1029	 6.3098087468137E-03 
1030	 5.43997426257569E-03 
1031	 5.07503785329373E-03 
1032	 4.07747073223446E-03 
1033	 3.66091404446528E-03 
1034	 4.10099841625157E-03 
1035	 3.89918622931246E-03 
1036	 3.17554455323479E-03 
1037	 2.95143611443704E-03 
1038	 2.6396480973505E-03 
1039	 2.80694568033959E-03 
1040	 3.25555510141809E-03 
1041	 3.24171861206326E-03 
1042	 3.65429307724305E-03 
1043	 4.25095823296934E-03 
1044	 4.61988942272334E-03 
1045	 5.20405049475463E-03 
1046	 5.50800033133413E-03 
1047	 5.69655443744332E-03 
1048	 5.51504631498217E-03 
1049	 4.87782378049085E-03 
1050	 4.64548399637083E-03 
1051	 4.03013104458885E-03 
1052	 3.8898784720395E-03 
1053	 4.72872747684729E-03 
1054	 4.80419752609254E-03 
1055	 4.10520035454005E-03 
1056	 4.17237124314703E-03 
1057	 4.41670676043231E-03 
1058	 4.66824372398049E-03 
1059	 4.74299525150453E-03 
1060	 5.61507521733228E-03 
1061	 5.32410884700241E-03 
1062	 3.93347631556471E-03 
1063	 3.22228306270009E-03 
1064	 1.97403678522841E-03 
1065	 1.76145523560441E-03 
1066	 2.2996100978283E-03 
1067	 2.65348299547777E-03 
1068	 3.99694350412904E-03 
1069	 4.41491553030958E-03 
1070	 4.0999371891783E-03 
1071	 4.03916019700232E-03 
1072	 3.35950806467574E-03 
1073	 3.44722664386407E-03 
1074	 3.2725396612377E-03 
1075	 3.54969535889326E-03 
1076	 2.97458441407953E-03 
1077	 1.13925564340566E-03 
1078	 1.54983716858272E-03 
1079	 2.83107806890199E-03 
1080	 3.60653233734189E-03 
1081	 6.2721425002044E-03 
1082	 7.09903062443156E-03 
1083	 5.94951990554367E-03 
1084	 5.94292630619851E-03 
1085	 6.36087753972039E-03 
1086	 6.26552734474746E-03 
1087	 6.10499619811362E-03 
1088	 6.00103607238506E-03 
1089	 5.20588920722204E-03 
1090	 5.05564087089844E-03 
1091	 4.87167826876382E-03 
1092	 4.89862181019436E-03 
1093	 4.91226772330126E-03 
1094	 5.08587563194568E-03 
1095	 4.90105414430706E-03 
1096	 5.07049777883805E-03 
1097	 4.73720789376458E-03 
1098	 3.53034532928755E-03 
1099	 2.67918367793847E-03 
1100	 1.17583193870899E-03 
1101	 4.25761800970848E-04 
1102	 6.17611185238277E-04 
1103	 7.68083333501804E-04 
1104	 1.79685533471939E-03 
1105	 1.81716730428864E-03 
1106	 2.80621074340134E-03 
1107	 2.52757433671693E-03 
1108	 2.13257292833285E-03 
1109	 4.38730041780394E-03 
1110	 4.30643087239499E-03 
1111	 2.37522022449364E-03 
1112	 2.05872202465248E-03 
1113	 1.16464520850921E-03 
1114	 6.38464865624192E-04 
1115	 4.31849982984403E-03 
1116	 2.79530268336597E-03 
1117	-5.9203154667016E-03 
1118	-1.16722555248542E-02 
1119	-0.021066259151691 
1120	-2.89021114928578E-02 
1121	-3.04681952917119E-02 
1122	-3.56205619287343E-02 
1123	-3.58293161123304E-02 
1124	-3.74609571842335E-02 
1125	-4.91870396523953E-02 
1126	-5.13809799753839E-02 
1127	-5.54357787142011E-02 
1128	-6.38854296079284E-02 
1129	-5.99164927901034E-02 
1130	-4.24399887642658E-02 
1131	-3.84508065503444E-02 
1132	-3.77264234203201E-02 
1133	-3.37572921088228E-02 
1134	-3.40484289797007E-02 
1135	-2.96723838217991E-02 
1136	-1.85583539634481E-02 
1137	-1.46768106330583E-02 
1138	-1.25997299584824E-02 
1139	-0.011869513896487 
1140	-1.41554939733988E-02 
1141	-1.15935923123465E-02 
1142	-5.6548468620656E-03 
1143	-3.97069980779973E-03 
1144	-4.81379427617409E-03 
1145	-2.48995642481215E-04 
1146	 3.19893295803821E-03 
1147	 4.66259881239799E-03 
1148	 8.69450040992634E-03 
1149	 7.34051496339653E-03 
1150	 6.2366399761966E-03 
1151	 2.79180486279856E-03 
1152	 2.49396385980898E-03 
1153	 2.87615448907993E-03 
1154	 2.48071661000287E-03 
1155	 3.09840189132231E-03 
1156	 8.15112579811642E-04 
1157	-6.7381144610573E-04 
1158	 1.55589672257255E-03 
1159	 2.20772545064108E-03 
1160	 2.91897721841679E-03 
1161	 4.33630766922566E-03 
1162	 3.57776976919223E-03 
1163	 2.58604467920978E-03 
1164	 2.21534777567894E-03 
1165	 1.29846927666649E-03 
1166	 5.18457621083351E-04 
1167	 1.63459653298027E-04 
1168	 5.48852635069516E-04 
1169	 1.40047202877435E-03 
1170	 1.91707592129487E-03 
1171	 2.37027475644324E-03 
1172	 2.91411725350377E-03 
1173	 3.13520386409314E-03 
1174	 2.83917043883845E-03 
1175	 3.56508066561277E-03 
1176	 3.77542866758672E-03 
1177	 4.0565852821353E-03 
1178	 4.27675753947956E-03 
1179	 3.58835377351011E-03 
1180	 3.52503979172221E-03 
1181	 3.57089071420789E-03 
1182	 3.51026695529093E-03 
1183	 3.78192882443153E-03 
1184	 4.53966617836982E-03 
1185	 5.24837486456383E-03 
1186	 5.27960762321939E-03 
1187	 5.15951999477189E-03 
1188	 4.67474377662419E-03 
1189	 4.28687382732828E-03 
1190	 4.38004185062878E-03 
1191	 4.09582042800449E-03 
1192	 4.12496785448758E-03 
1193	 4.24076989316868E-03 
1194	 4.3785877668152E-03 
1195	 3.83379794762577E-03 
1196	 3.88294410470755E-03 
1197	 4.59746738632801E-03 
1198	 4.77719342164038E-03 
1199	 4.66195360903041E-03 
1200	 4.86854704270188E-03 
1201	 4.57393241926789E-03 
1202	 3.58164775283349E-03 
1203	 3.92034304711932E-03 
1204	 5.34597189723618E-03 
1205	 5.02863881781794E-03 
1206	 3.89033272317762E-03 
1207	 4.12145203118982E-03 
1208	 4.12757725670776E-03 
1209	 3.57093775482357E-03 
1210	 3.71560777732913E-03 
1211	 3.92978092850209E-03 
1212	 3.91295222500748E-03 
1213	 0.004477914112373 
1214	 4.64486152432479E-03 
1215	 5.23797763460762E-03 
1216	 4.81114020134758E-03 
1217	 3.97845208300594E-03 
1218	 3.66715642837571E-03 
1219	 4.0871996884249E-03 
1220	 4.13988836759288E-03 
1221	 3.59446197321059E-03 
1222	 3.28494348292073E-03 
1223	 3.45746530426437E-03 
1224	 3.97733980233616E-03 
1225	 4.97473474162931E-03 
1226	 5.77889172565397E-03 
1227	 6.01281481190221E-03 
1228	 6.0755639277629E-03 
1229	 5.67420888191985E-03 
1230	 5.23936806068015E-03 
1231	 5.45321227852953E-03 
1232	 4.96795507514167E-03 
1233	 3.69067792607932E-03 
1234	 3.63575767068645E-03 
1235	 3.76623106120077E-03 
1236	 3.76408853686102E-03 
1237	 3.72063233838108E-03 
1238	 4.43217060703812E-03 
1239	 4.65676370413165E-03 
1240	 4.57348796829599E-03 
1241	 4.42244320412305E-03 
1242	 4.60550026289941E-03 
1243	 5.26593648922184E-03 
1244	 4.80155751708924E-03 
1245	 4.16709448964203E-03 
1246	 4.69925567398877E-03 
1247	 4.87482564321894E-03 
1248	 4.4675593282992E-03 
1249	 4.14878667401686E-03 
1250	 3.76909281976438E-03 
1251	 3.35973155086483E-03 
1252	 3.1354121137828E-03 
1253	 3.45047312024103E-03 
1254	 4.28342420345369E-03 
1255	 4.4743388848298E-03 
1256	 4.37909982544258E-03 
1257	 4.30269641412895E-03 
1258	 4.42796142792863E-03 
1259	 3.70452471362534E-03 
1260	 3.63827921879184E-03 
1261	 4.63007786861817E-03 
1262	 4.76683933519007E-03 
1263	 4.50398340125089E-03 
1264	 4.38185734380678E-03 
1265	 4.08691660424421E-03 
1266	 3.82100147678566E-03 
1267	 3.81227199988856E-03 
1268	 4.12447164047339E-03 
1269	 4.69853024221262E-03 
1270	 4.74660379844463E-03 
1271	 4.69870946342988E-03 
1272	 4.97761445603863E-03 
1273	 4.91623724186864E-03 
1274	 5.00722530463339E-03 
1275	 5.32020664009905E-03 
1276	 5.39044050480756E-03 
1277	 5.76401967709877E-03 
1278	 5.82675708587995E-03 
1279	 5.46161995104964E-03 
1280	 5.5780621742264E-03 
1281	 5.6392490081474E-03 
1282	 5.66040789677288E-03 
1283	 5.76599416288425E-03 
1284	 6.28595812324365E-03 
1285	 6.25654280589043E-03 
1286	 5.67463554290915E-03 
1287	 5.68963383991505E-03 
1288	 5.88553508195908E-03 
1289	 5.72190448594455E-03 
1290	 5.52935518615588E-03 
1291	 5.82852588065047E-03 
1292	 5.66316930345951E-03 
1293	 5.19943609735749E-03 
1294	 5.34080904352352E-03 
1295	 6.00959433804456E-03 
1296	 5.8933589090962E-03 
1297	 5.0995183914288E-03 
1298	 4.69705504695906E-03 
1299	 4.05857890522107E-03 
1300	 3.79320256573485E-03 
1301	 4.2359624689347E-03 
1302	 4.51325028439972E-03 
1303	 4.59362428013447E-03 
1304	 4.61972915934878E-03 
1305	 4.93122339938837E-03 
1306	 4.85232886185615E-03 
1307	 4.45661766566027E-03 
1308	 4.27325480678849E-03 
1309	 3.67683233623421E-03 
1310	 3.58403723566581E-03 
1311	 4.51754612636618E-03 
1312	 4.04171900888637E-03 
1313	 2.16524108021537E-03 
1314	 2.0160720852416E-03 
1315	 2.25999779136536E-03 
1316	 2.20553712486163E-03 
1317	 3.51843768014368E-03 
1318	 4.35334198911794E-03 
1319	 4.57595073181873E-03 
1320	 4.23969752109299E-03 
1321	 3.41790822822952E-03 
1322	 3.30400462268837E-03 
1323	 3.56683309958143E-03 
1324	 2.79004067640965E-03 
1325	 2.94106296444093E-03 
1326	 4.08955762579187E-03 
1327	 3.19621111857474E-03 
1328	 1.57482195501641E-03 
1329	 2.14214992437975E-03 
1330	 1.67224440396605E-03 
1331	-3.99968420468734E-04 
1332	-7.85122437889256E-04 
1333	-3.52328022146991E-04 
1334	-7.09973907795398E-05 
1335	 4.56972702263911E-04 
1336	 3.06085281859467E-03 
1337	 4.67677782704182E-03 
1338	 5.18071991567319E-03 
1339	 5.37127397523077E-03 
1340	 5.48465104491661E-03 
1341	 7.39547992862411E-03 
1342	 1.13920509126699E-02 
1343	 1.10171686020216E-02 
1344	 8.74117170409353E-03 
1345	 6.11948250005677E-03 
1346	-6.03873506357879E-03 
1347	-1.36115451117007E-02 
1348	-1.51196816973784E-02 
1349	-1.74963228922312E-02 
1350	-1.62192282393653E-02 
1351	-1.32368795365593E-02 
1352	 1.11351468479883E-02 
1353	 3.14775308058971E-02 
1354	 6.80652366131142E-02 
1355	 3.82507290279971E-02 
1356	-8.90949946199259E-02 
1357	-0.131657686286721 
1358	-5.86436851949222E-02 
1359	-0.169629154457329 
1360	-0.127874865405772 
1361	-0.150110366962138 
1362	-0.275567062510378 
1363	 2.01791325293147E-02 
1364	-8.84527295078145E-02 
1365	-0.283838189456673 
1366	-0.231673371150367 
1367	 6.34965981960641E-02 
1368	 0.370030662923468 
1369	 1.98153516012265 
1370	 4.17479495497243 
1371	 2.06408991284576 
1372	 1.10518556479277 
1373	-71.1419654959449 
1374	-9.82645856487203 
1375	 0.303784413959602 
1376	 0.450195243885611 
1377	 0.799023387505659 
1378	 0.88656196622557 
1379	 1.34919696159526 
1380	 1.48581287770319 
1381	 1.54324265006694 
1382	 1.07631097370709 
1383	-9.27875963924351E-02 
1384	 0.10554422098042 
1385	 0.663437847657069 
1386	 0.661052073531408 
1387	 0.925632872956664 
1388	 1.12439902504575 
1389	 0.109601993177309 
1390	-0.399634486962428 
1391	 0.515131118457908 
1392	 0.825409579462238 
1393	 0.957283027213233 
1394	 1.07200774578244 
1395	 1.26236084328543 
1396	 1.23770676065734 
1397	 1.13541375818191 
1398	 2.33373875708199 
1399	 29.3862341540487 
1400	-282.835826644119 
1401	 2.92804465761063 
1402	 1.59758211290632 
1403	 1.00265942124555 
1404	-0.261568638343631 
1405	-1.3909849523765 
1406	 21.9854716197639 
1407	-117.209905979377 
1408	-3.99623743953817 
1409	-2.06962216580949 
1410	-0.768869465572621 
1411	-0.680537683298108 
1412	-1.18581614888433 
1413	-0.521502728608646 
1414	 3.23367471629705E-02 
1415	 6.56183857104529E-02 
1416	 6.90566540857409E-02 
1417	 4.33253958024814E-02 
1418	-0.112970980705159 
1419	-0.16568367423232 
1420	-0.16091789867472 
1421	-0.143060632484804 
1422	-0.14503733019254 
1423	-0.106553648495957 
1424	-4.38512333485616E-02 
1425	 2.45132519711715E-03 
1426	 8.49512021648879E-02 
1427	 8.27996512457786E-02 
1428	 2.47664144014491E-02 
1429	 3.00795923385189E-02 
1430	 5.14325201430627E-02 
1431	 2.99073082288099E-02 
1432	-1.20791246378185E-02 
1433	-9.18261936190412E-04 
1434	 0.035186378264114 
1435	 1.92634583986288E-02 
1436	 6.3096331587456E-03 
1437	 2.08591281925386E-02 
1438	-1.92840575230212E-04 
1439	-0.05843373815562 
1440	-9.16590484131385E-02 
1441	-7.87402647499389E-02 
1442	-0.042538428715163 
1443	-2.47591304901753E-02 
1444	-1.26751847239935E-02 
1445	 9.52281111662049E-03 
1446	 1.62365166411565E-02 
1447	 9.66533079900862E-03 
1448	 1.22306831240506E-02 
1449	 1.56048425222255E-02 
1450	 1.40645834065148E-02 
1451	 7.88292768499101E-03 
1452	 6.3914634485365E-03 
1453	 6.03331003230247E-03 
1454	 3.52299781923876E-03 
1455	-5.37122504869194E-03 
1456	-4.22675973695838E-03 
1457	 1.91360238999195E-03 
1458	 5.56404909167408E-03 
1459	 1.16490135650085E-02 
1460	 1.15678556336872E-02 
1461	 8.69755301168186E-03 
1462	 9.16643697893656E-03 
1463	 8.08001005817844E-03 
1464	 6.78479141664913E-03 
1465	 7.94237216959897E-03 
1466	 6.54494230260746E-03 
1467	 1.84791253760714E-04 
1468	-1.15840316914208E-03 
1469	 1.4838301506089E-03 
1470	 2.64320650341606E-03 
1471	 5.23675447827589E-03 
1472	 5.12865228040756E-03 
1473	 1.06165509839226E-03 
1474	 2.42149757982099E-03 
1475	 6.52486678902059E-03 
1476	 7.67683269013946E-03 
1477	 0.011333854327695 
1478	 1.23722819113354E-02 
1479	 9.96227453340083E-03 
1480	 8.49362254225962E-03 
1481	 5.5787185985421E-03 
1482	 7.48629970338686E-03 
1483	 0.012302598398812 
1484	 1.21750412200774E-02 
1485	 1.39546004385484E-02 
1486	 1.32595095974252E-02 
1487	 6.98116694698621E-03 
1488	 5.36992967991048E-03 
1489	 5.9858857319177E-03 
1490	 6.34834679771538E-03 
1491	 8.23432872903222E-03 
1492	 8.4287324656538E-03 
1493	 8.12990553020266E-03 
1494	 7.60029760132867E-03 
1495	 5.42929263474957E-03 
1496	 4.97822888440423E-03 
1497	 6.12785190166375E-03 
1498	 5.86852271799942E-03 
1499	 5.01669705661496E-03 
1500	 4.90796728984745E-03 
1501	 4.65218708008346E-03 
1502	 4.40490277373938E-03 
1503	 0.004543026043058 
1504	 4.7869569336117E-03 
1505	 5.11152890555035E-03 
1506	 4.85492667582656E-03 
1507	 5.13226278203361E-03 
1508	 5.46332649943649E-03 
1509	 5.09891842020154E-03 
1510	 4.89913608674323E-03 
1511	 3.54397747319094E-03 
1512	 3.02994632382763E-03 
1513	 3.79553250243672E-03 
1514	 3.58308617256805E-03 
1515	 3.24639590855244E-03 
1516	 3.99328161779892E-03 
1517	 4.01198157110199E-03 
1518	 3.79815033059087E-03 
1519	 4.8067436258283E-03 
1520	 4.87977766308944E-03 
1521	 4.50855529983991E-03 
1522	 4.82204788105351E-03 
1523	 5.04997471084113E-03 
1524	 5.26362912430064E-03 
1525	 5.45913939771899E-03 
1526	 5.15333209069555E-03 
1527	 4.68954190134413E-03 
1528	 4.40231910819489E-03 
1529	 4.43796011530575E-03 
1530	 4.77276383025548E-03 
1531	 5.15599217566953E-03 
1532	 5.43218478765867E-03 
1533	 5.2070024988161E-03 
1534	 4.6543252067417E-03 
1535	 3.8688180491738E-03 
1536	 3.67164585368449E-03 
1537	 4.48177986566123E-03 
1538	 4.94552977103051E-03 
1539	 4.91686944737518E-03 
1540	 4.61930510322542E-03 
1541	 3.57345741745195E-03 
1542	 3.39290793663018E-03 
1543	 4.7263734933755E-03 
1544	 5.23904645434022E-03 
1545	 4.99849070043973E-03 
1546	 5.07218119252752E-03 
1547	 4.81756634774069E-03 
1548	 4.41269142209983E-03 
1549	 4.7433602987544E-03 
1550	 5.21659660257098E-03 
1551	 5.07827779131524E-03 
1552	 5.00456799585108E-03 
1553	 5.20200177855651E-03 
1554	 5.04645056757575E-03 
1555	 4.95515238739822E-03 
1556	 4.45101934249724E-03 
1557	 3.42915095104533E-03 
1558	 3.65828951704803E-03 
1559	 3.38572118393979E-03 
1560	 3.01023794419226E-03 
1561	 4.05366403682493E-03 
1562	 4.1187456485335E-03 
1563	 4.15871399009855E-03 
1564	 4.76416724618598E-03 
1565	 4.30179153272161E-03 
1566	 3.64438529715972E-03 
1567	 3.77643216203477E-03 
1568	 3.92319319619796E-03 
1569	 3.91297821712198E-03 
1570	 4.58944152340736E-03 
1571	 4.70983426597383E-03 
1572	 4.14730514691516E-03 
1573	 4.30909295304728E-03 
1574	 4.37923520389505E-03 
1575	 4.23587142586253E-03 
1576	 4.29498939689752E-03 
1577	 4.52248225315182E-03 
1578	 4.12654058907237E-03 
1579	 3.73532196993734E-03 
1580	 4.24929470545327E-03 
1581	 3.79323367807947E-03 
1582	 3.33237331344355E-03 
1583	 3.95387455704956E-03 
1584	 4.33258514664043E-03 
1585	 5.20819528661247E-03 
1586	 5.52452597569724E-03 
1587	 4.06294933721204E-03 
1588	 3.87044499749233E-03 
1589	 4.60733740448602E-03 
1590	 4.50988951904852E-03 
1591	 5.02063816375625E-03 
1592	 5.16197248796635E-03 
1593	 4.25347448771862E-03 
1594	 3.99489859521346E-03 
1595	 4.52842875357567E-03 
1596	 4.8165090340022E-03 
1597	 4.47843704028461E-03 
1598	 4.77123669439882E-03 
1599	 5.07308517213931E-03 
1600	 4.18717210461408E-03 
1601	 4.35776463095391E-03 
1602	 4.84335137395281E-03 
1603	 4.2200247940556E-03 
1604	 4.14779900419336E-03 
1605	 4.64033252145513E-03 
1606	 4.56786154511285E-03 
1607	 3.9358081513925E-03 
1608	 4.35413075158528E-03 
1609	 5.01237678847432E-03 
1610	 4.89509562060849E-03 
1611	 5.02481607739975E-03 
1612	 4.6556906537405E-03 
1613	 3.68584942383002E-03 
1614	 3.24097681694774E-03 
1615	 4.49652453479059E-03 
1616	 5.58098385196149E-03 
1617	 4.36734173835091E-03 
1618	 3.61067570031287E-03 
1619	 3.74223535822415E-03 
1620	 3.4201279369783E-03 
1621	 3.30606324431802E-03 
1622	 3.16718937344099E-03 
1623	 2.33209242083795E-03 
1624	 1.69353505770727E-03 
1625	 2.54112255112778E-03 
1626	 3.68555400319439E-03 
1627	 3.92509383144214E-03 
1628	 3.50355119792396E-03 
1629	 3.1828819070456E-03 
1630	 2.99779045489437E-03 
1631	 2.41104804828262E-03 
1632	 2.15578840110676E-03 
1633	 2.56053035347647E-03 
1634	 2.54161207075396E-03 
1635	 2.42327241359867E-03 
1636	 3.09610056942826E-03 
1637	 3.87019936590418E-03 
1638	 4.15275385138233E-03 
1639	 4.17645247559063E-03 
1640	 4.42491178883486E-03 
1641	 3.67262158358145E-03 
1642	 2.58705927649473E-03 
1643	 3.38827594930505E-03 
1644	 4.27302166376161E-03 
1645	 4.31478925615003E-03 
1646	 4.94596204626509E-03 
1647	 4.9058173347714E-03 
1648	 3.81617460068581E-03 
1649	 3.34259272761047E-03 
1650	 3.30077195499836E-03 
1651	 3.38766470276374E-03 
1652	 3.36416397449364E-03 
1653	 4.01972968596486E-03 
1654	 4.18205374346799E-03 
1655	 3.29950498837176E-03 
1656	 3.23600725953176E-03 
1657	 3.63354012410826E-03 
1658	 3.48857026682924E-03 
1659	 3.44219916737567E-03 
1660	 3.60151766701487E-03 
1661	 3.78213778868031E-03 
1662	 3.38128044587677E-03 
1663	 2.78936863273172E-03 
1664	 2.74431756115137E-03 
1665	 1.97198234926749E-03 
1666	 1.95156372307939E-03 
1667	 3.34469779588178E-03 
1668	 3.55698322360715E-03 
1669	 3.99635532240338E-03 
1670	 3.62594914798361E-03 
1671	 2.66807799851434E-03 
1672	 2.43709591280597E-03 
1673	 2.16676616022349E-03 
1674	 2.66036169154513E-03 
1675	 3.45651613604102E-03 
1676	 3.19095550895701E-03 
1677	 2.57684864317558E-03 
1678	 2.20096787768048E-03 
1679	 1.96353935814732E-03 
1680	 2.33884640238939E-03 
1681	 3.38589054674468E-03 
1682	 3.55132011507099E-03 
1683	 3.64018772732788E-03 
1684	 4.21446885913292E-03 
1685	 4.23914911658351E-03 
1686	 4.64959055675885E-03 
1687	 4.88116485985128E-03 
1688	 4.2451343313959E-03 
1689	 3.71581288475997E-03 
1690	 3.67783802439876E-03 
1691	 3.85710716490606E-03 
1692	 3.90015171401541E-03 
1693	 4.08346173697244E-03 
1694	 3.91737568945262E-03 
1695	 4.20601994293805E-03 
1696	 5.00670554954177E-03 
1697	 4.64201919277627E-03 
1698	 5.07865903121257E-03 
1699	 6.14537663606894E-03 
1700	 5.24753525331016E-03 
1701	 4.74753712145943E-03 
1702	 4.42771896165933E-03 
1703	 2.89892053674629E-03 
1704	 2.79193521284489E-03 
1705	 3.1238796893316E-03 
1706	 3.15563973294258E-03 
1707	 3.58477767556786E-03 
1708	 3.56753863301543E-03 
1709	 3.71745261561265E-03 
1710	 4.14710716352333E-03 
1711	 3.8345694830567E-03 
1712	 3.22158639931313E-03 
1713	 2.95081471849645E-03 
1714	 2.84678865056889E-03 
1715	 2.87626717809424E-03 
1716	 3.0041194219093E-03 
1717	 2.52701060424613E-03 
1718	 1.7456888743275E-03 
1719	 1.54269546241544E-03 
1720	 3.31554496142842E-03 
1721	 5.53692612376541E-03 
1722	 5.79469083331464E-03 
1723	 5.80858461443933E-03 
1724	 5.06268836914376E-03 
1725	 3.44270059247547E-03 
1726	 4.20161489672705E-03 
1727	 5.22241396447088E-03 
1728	 4.30591453541336E-03 
1729	 4.35149371156118E-03 
1730	 5.21759824925209E-03 
1731	 4.95600096428226E-03 
1732	 4.5686510676183E-03 
1733	 4.06468387878365E-03 
1734	 2.38780388246706E-03 
1735	 1.6724756700789E-03 
1736	 3.7514519998415E-03 
1737	 5.3122698055583E-03 
1738	 5.22143962703458E-03 
1739	 4.94229444923749E-03 
1740	 1.93453212337777E-03 
1741	-9.28978453109086E-04 
1742	 1.24684445381348E-04 
1743	 6.42562003052709E-04 
1744	 1.18364733567066E-03 
1745	 4.15339839657842E-03 
1746	 2.29775819375116E-03 
1747	 1.67602095804969E-03 
1748	 1.52528921389341E-03 
1749	 9.01692839881579E-04 
1750	 4.75171628185522E-04 
1751	 7.53822593717442E-04 
1752	 1.76852079332991E-03 
1753	 1.85547428540932E-03 
1754	 9.54279480063233E-04 
1755	 1.60830463833148E-03 
1756	 3.19814336060255E-03 
1757	 2.88697188882365E-03 
1758	 3.10352210409768E-03 
1759	 1.99809649692709E-03 
1760	-8.96154297681578E-04 
1761	-1.19968264147151E-03 
1762	-5.34933707746976E-05 
1763	-5.31712440454768E-04 
1764	-7.31607386254552E-04 
1765	-2.44978954666813E-03 
1766	-3.56918120801157E-03 
1767	-1.75013816253122E-03 
1768	-1.30244551133879E-04 
1769	 6.57694091698555E-04 
1770	 1.02095339413394E-03 
1771	 8.2645658236749E-05 
1772	 1.53202421493252E-04 
1773	 3.0636466608449E-03 
1774	 2.96796233244993E-03 
1775	-7.65810154307969E-04 
1776	-2.52603705920639E-03 
1777	-6.95093237706575E-03 
1778	-7.30530607121582E-03 
1779	-2.18685015478307E-03 
1780	-8.13732505383063E-04 
1781	 2.20651997033567E-04 
1782	 2.98612857262862E-03 
1783	 5.53946284368415E-03 
1784	 6.24943275112264E-03 
1785	 8.91252314373711E-03 
1786	 9.69765710283497E-03 
1787	 4.52427406345416E-03 
1788	 4.51874296500226E-03 
1789	 9.11713676365123E-03 
1790	 6.97338176720054E-03 
1791	 9.05697287371999E-03 
1792	 7.70504563250951E-03 
1793	 6.89525726326248E-04 
1794	 9.3457662983696E-03 
1795	 9.28508235675862E-03 
1796	 2.01026942254307E-03 
1797	 1.75469561346607E-02 
1798	 1.53939153792283E-02 
1799	 1.50184335457273E-02 
1800	 1.54938453388722E-03 
1801	-7.32438249952677E-03 
1802	-2.68812566326548E-02 
1803	-3.02556004224683E-02 
1804	 2.65166923954266E-02 
1805	 4.57055162778815E-02 
1806	 1.85332109289284E-02 
1807	 2.31892992793551E-02 
1808	 5.46269824553708E-03 
1809	 2.11730173185456E-02 
1810	 0.177005978700421 
1811	 0.154976871846359 
1812	-2.26904929150163E-02 
1813	-0.13142167003259 
1814	-0.702586964915986 
1815	-0.583796863264452 
1816	 0.475524575537983 
1817	 1.23560201134535 
1818	 2.09840545362022 
1819	 1.8221325285614 
1820	 12.8926247560592 
1821	-1.21275373021232 
1822	-1.57798010392033 
1823	-4.09985897304713 
1824	-9.73716327260821 
1825	 5.21036449266766 
1826	 2.37476135434007 
1827	 0.264437859496602 
1828	-0.122782670670737 
1829	-1.39239486420006 
1830	-5.56971184951164 
1831	-0.422454433694918 
1832	-0.536494347979941 
1833	-0.240437477548262 
1834	-0.265311433154269 
1835	-0.507459876025801 
1836	-1.03825143614135 
1837	-6.22527716375927 
1838	-15.6801406508894 
1839	-4.26912247692154 
1840	-3.27103865065902 
1841	-1.64013917782711 
1842	-1.07702172968125 
1843	-0.938097880312967 
1844	-1.08127497696349 
1845	-0.873116742620232 
1846	-0.886835396409552 
1847	-0.749288288696508 
1848	-0.483556112013662 
1849	-0.208170067748476 
1850	 0.148351413772304 
1851	 0.721439612850709 
1852	 0.54499669522296 
1853	-5.21321817188303E-02 
1854	-2.45695294688537 
1855	-1.47951500915895 
1856	-1.60008365574689 
1857	-9.68466806295905E-02 
1858	 1.70720287843613E-02 
1859	-0.353573987733864 
1860	-0.474396874762543 
1861	-0.31124000517529 
1862	-0.442582589536545 
1863	-0.49804243346146 
1864	-0.578597328002635 
1865	-0.468089867490628 
1866	-0.28284852148875 
1867	-0.214191939009674 
1868	 0.150816704812058 
1869	 0.290464483151225 
1870	 0.215595511724379 
1871	-0.153788076244858 
1872	 6.89527889594757E-02 
1873	 3.83396261182877E-02 
1874	-0.427936849064242 
1875	-0.564923815039955 
1876	-0.617545138132038 
1877	-0.760050178274206 
1878	-1.13305920267093 
1879	-1.44140209790391 
1880	-3.91339406070593 
1881	 6.77479119774214 
1882	 2.46074810352968 
1883	 1.50554267097822 
1884	 0.198177339605093 
1885	-0.47820525404599 
1886	-0.268921679950889 
1887	-0.124198099252687 
1888	 0.31070909650969 
1889	 0.419159134269023 
1890	 0.816315004009654 
1891	 1.47648342060032 
1892	 1.80593296546069 
1893	 1.19177872514186 
1894	 0.462830363435841 
1895	 0.336621987226242 
1896	 0.28087843257975 
1897	 0.317405827514603 
1898	 0.189460295965043 
1899	-0.15720076124569 
1900	-0.16662490829668 
1901	 0.309984293172345 
1902	 0.242272106718042 
1903	-0.200590927420413 
1904	-0.115953326460078 
1905	-4.32779087831641E-02 
1906	-0.928153912707113 
1907	-4.02077553647594 
1908	-17.4191865485554 
1909	 69.3326253950729 
1910	 41.1632570730055 
1911	-8.0294448508543 
1912	 2.38517310875991 
1913	 1.14601155343321 
1914	-1.10894434106998 
1915	-17.5521381083584 
1916	 0.698447330028505 
1917	 0.569012927099008 
1918	 0.234433536547066 
1919	-0.664214407960579 
1920	-1.11695068503758 
1921	-1.23705588999065 
1922	-4.92411610156871 
1923	 6.45552016086397 
1924	 5.51835030410699 
1925	 3.3591074229416 
1926	 1.34818195639756 
1927	 2.64576341059225 
1928	 1451.41435342506 
1929	-2.75516009940915 
1930	-2.18584217987655 
1931	-0.939110943918753 
1932	-0.858757611277485 
1933	-1.90008641735608 
1934	-2.07814929876391 
1935	-0.990710243486088 
1936	 9.22448346792435E-03 
1937	 0.364691361859891 
1938	 0.460399879265265 
1939	 0.558006699442905 
1940	 0.638156212635744 
1941	 0.486749850222621 
1942	 0.465765666148003 
1943	 0.444459390080499 
1944	 0.223658734369434 
1945	-9.69162370622562E-02 
1946	-0.223079018616327 
1947	-0.257859548133458 
1948	-0.22759090962041 
1949	-4.80671912953959E-02 
1950	 1.28938879377744E-02 
1951	-5.69345938299697E-03 
1952	 6.92830857354042E-03 
1953	 1.32939447100697E-02 
1954	-2.33975943987159E-02 
1955	-7.62561971444662E-02 
1956	-7.94677086485458E-02 
1957	-6.99866130670254E-02 
1958	-7.14884875646084E-02 
1959	-4.24755900093214E-02 
1960	-1.87238079021611E-02 
1961	-5.64323637052261E-03 
1962	-9.7233004648995E-03 
1963	-1.72152723717818E-02 
1964	-1.24408785171952E-02 
1965	-1.27307847420451E-02 
1966	-1.16807409547428E-02 
1967	-1.05829623633121E-02 
1968	-7.64874337736493E-03 
1969	-1.88414765876382E-03 
1970	 6.08047831572757E-03 
1971	 1.05579308919842E-03 
1972	-4.3635797925506E-03 
1973	-5.03244302022446E-03 
1974	-8.62182257664666E-03 
1975	-5.39495289966865E-04 
1976	 3.44497793455974E-03 
1977	-5.30787400787596E-03 
1978	-6.41976489156377E-03 
1979	-5.76481048647306E-03 
1980	-6.04891264789387E-03 
1981	-4.86453365647254E-03 
1982	 2.49172243698642E-03 
1983	 4.68596076502834E-03 
1984	 3.99610835392345E-03 
1985	 7.95300964033317E-03 
1986	 1.01492849436336E-02 
1987	 9.94722831245501E-03 
1988	 0.010527804190418 
1989	 1.04176772879605E-02 
1990	 1.05545459825353E-02 
1991	 9.37704831223085E-03 
1992	 6.92300370278048E-03 
1993	 8.13933605193392E-03 
1994	 8.30707577502202E-03 
1995	 9.26715198562453E-03 
1996	 1.11223958474615E-02 
1997	 1.39370248713699E-02 
1998	 0.011886254586205 
1999	 1.04821093625993E-02 
2000	 1.08542015409417E-02 
2001	 1.19060565260814E-02 
2002	 1.42248901125717E-02 
2003	 1.52278720914959E-02 
2004	 0.018573920455761 
2005	 2.22044101377121E-02 
2006	 0.016025323031163 
2007	 7.56423678007724E-03 
2008	 3.31259390573123E-03 
2009	 1.99214964956311E-04 
2010	 1.38566237342599E-03 
2011	-4.11841445388872E-03 
2012	-1.52969073973538E-02 
2013	-1.64842947110851E-02 
2014	-9.83282057067379E-03 
2015	-3.74540442123255E-03 
2016	 8.51606012626182E-03 
2017	 7.96005307920521E-03 
2018	-6.95249930156749E-03 
2019	-1.91954380132465E-02 
2020	-2.38249617689648E-02 
2021	-2.45978813619147E-02 
2022	-1.87978991532143E-02 
2023	-1.04113928712101E-02 
2024	-4.01636571177826E-03 
2025	 5.84699646598953E-03 
2026	 8.74889856966104E-03 
2027	 9.5093080045517E-03 
2028	 8.21592006228243E-03 
2029	 5.66069280569555E-03 
2030	 4.33210446482986E-03 
2031	 6.02552068459414E-03 
2032	 7.80161720954687E-03 
2033	 7.98864518483043E-03 
2034	 7.68719372007068E-03 
2035	 8.69625553864996E-03 
2036	 1.02277106514816E-02 
2037	 0.010327413479171 
2038	 7.58031644488711E-03 
2039	 5.19789824400699E-03 
2040	-1.47870413804517E-03 
2041	-2.83981512295779E-03 
2042	-1.40279311393732E-03 
2043	 3.32011169870099E-04 
2044	 4.53548821159375E-03 
2045	 9.41277218565471E-03 
2046	 0.012593611257677 
2047	 1.52494840297778E-02 
2048	 1.64948220226352E-02 
2049	 1.24258388921199E-02 
2050	 8.07321486791372E-03 
2051	 9.47665312185432E-03 
2052	 1.00650165936086E-02 
2053	 6.1502904435614E-03 
2054	 6.18136308348769E-03 
2055	 5.13452920936547E-03 
2056	 2.00125449420395E-03 
2057	-2.16097360029667E-03 
2058	-2.8606683614868E-03 
2059	-3.77443446484469E-03 
2060	-4.95522796345564E-03 
2061	-5.2728355307885E-03 
2062	-3.05602045948166E-03 
2063	-6.65454671524424E-05 
2064	-3.07148770891499E-03 
2065	-5.30929426153204E-04 
2066	 6.69320508381652E-03 
2067	 8.00431789884072E-03 
2068	 1.33781354076285E-02 
2069	 0.018538482671241 
2070	 1.64594621013848E-02 
2071	 1.43493098642573E-02 
2072	 1.24882401074822E-02 
2073	 1.00861127284042E-02 
2074	 5.32087064297037E-03 
2075	 3.18529622190566E-03 
2076	 1.95212905816771E-03 
2077	 6.4514599799976E-04 
2078	 1.10147592795892E-04 
2079	-3.23031792219437E-06 
2080	 8.04542658160273E-04 
2081	 6.99945033060386E-05 
2082	 1.51609131435038E-03 
2083	 1.51347321989258E-04 
2084	 4.1703472043797E-04 
2085	 4.01594670424205E-03 
2086	 4.32537592304493E-03 
2087	 3.01129591545703E-03 
2088	 8.60049472828975E-04 
2089	-2.16236279278781E-03 
2090	-2.56536225705263E-03 
2091	 6.44621027657056E-04 
2092	 3.01438077085567E-03 
2093	 9.29463855076423E-03 
2094	 1.05871977840027E-02 
2095	 8.90174072975845E-03 
2096	 6.59942751249883E-03 
2097	-5.4437883434418E-04 
2098	-2.64361977964705E-03 
2099	-3.38241569568312E-03 
2100	-2.03448057926996E-03 
2101	 1.14909614255731E-03 
2102	 3.92567290186465E-03 
2103	 4.69646880575416E-03 
2104	 6.52850315877913E-03 
2105	 6.43931416474565E-03 
2106	 6.40979526452645E-03 
2107	 8.0387119860509E-03 
2108	 8.03099801011199E-03 
2109	 8.00613283523199E-03 
2110	 7.76051814098481E-03 
2111	 6.87690029904449E-03 
2112	 5.75208088922492E-03 
2113	 5.53257169704219E-03 
2114	 8.35985397843649E-03 
2115	 8.87107383095398E-03 
2116	 7.25280101478552E-03 
2117	 6.92127330907686E-03 
2118	 6.31678545908787E-03 
2119	 5.75949711951076E-03 
2120	 5.36596373299558E-03 
2121	 5.80473480712137E-03 
2122	 5.46428156782806E-03 
2123	 8.75343175051889E-03 
2124	 1.12660336135937E-02 
2125	 1.18037912531724E-02 
2126	 1.20353673110522E-02 
2127	 8.14439183263419E-03 
2128	 3.23010766706999E-03 
2129	 2.73934285739347E-03 
2130	 4.98609691410438E-03 
2131	 5.95612709090642E-03 
2132	 7.45933480930457E-03 
2133	 9.90908895390442E-03 
2134	 1.04120136073418E-02 
2135	 9.3631019730375E-03 
2136	 8.77708150258834E-03 
2137	 7.7937138652986E-03 
2138	 6.20153811194323E-03 
2139	 3.3143505078228E-03 
2140	 1.74664286400659E-03 
2141	 5.05692135590774E-04 
2142	-3.80163089890166E-04 
2143	-1.47115533407533E-03 
2144	-4.75222671667741E-04 
2145	 2.65015272423104E-03 
2146	 3.52493539354185E-03 
2147	 6.47045791236096E-03 
2148	 1.01547165771356E-02 
2149	 9.46710296295178E-03 
2150	 8.34309236967699E-03 
2151	 6.74729462166561E-03 
2152	 4.49930693601063E-03 
2153	 6.56803783728336E-03 
2154	 6.39533586768412E-03 
2155	 4.04173703044094E-03 
2156	 5.78976535123518E-03 
2157	 5.99902421994764E-03 
2158	 4.76419755862095E-03 
2159	 5.10234584990379E-03 
2160	 6.53716893303789E-03 
2161	 6.76450915269773E-03 
2162	 7.43793044456906E-03 
2163	 7.44763068643047E-03 
2164	 6.7224556865295E-03 
2165	 6.63813617884796E-03 
2166	 6.95832967008122E-03 
2167	 5.88174524066699E-03 
2168	 2.61782652683954E-03 
2169	 2.08770025559739E-03 
2170	 2.9245716444972E-03 
2171	 2.19653439604245E-03 
2172	 1.54234206868243E-03 
2173	 3.7284770355888E-03 
2174	 3.74153750193073E-03 
2175	 2.61120035162143E-03 
2176	 3.95935124893185E-03 
2177	 5.78897195119096E-03 
2178	 3.51167211745198E-03 
2179	 1.26192354442554E-03 
2180	-2.96434095838744E-04 
2181	-1.03696591662462E-03 
2182	 9.31698778171871E-04 
2183	 1.69264223617072E-03 
2184	 1.05657565659081E-03 
2185	-1.58208523600534E-04 
2186	 7.86832776405401E-04 
2187	 4.17426678037859E-03 
2188	 4.10119119945447E-03 
2189	 3.76341338449004E-03 
2190	 2.80893226215929E-03 
2191	-3.19733190793553E-03 
2192	-3.8540346339007E-03 
2193	 1.10936801798043E-03 
2194	 9.06326339583613E-04 
2195	-2.21948350973978E-03 
2196	-1.45738422358162E-03 
2197	 4.46884738897605E-04 
2198	 5.86830939120724E-04 
2199	 2.78017597942232E-03 
2200	 4.67379278719342E-03 
2201	 3.91907283997015E-03 
2202	 2.69782800866841E-03 
2203	 3.10510097973998E-03 
2204	 4.44319931644769E-03 
2205	 7.87604837441349E-03 
2206	 1.09008092232438E-02 
2207	 1.37342967451183E-02 
2208	 1.44587481389194E-02 
2209	 8.94041974459597E-03 
2210	 4.28053739625826E-03 
2211	 4.83474226615762E-03 
2212	 4.1644980673898E-03 
2213	 4.4083307641838E-03 
2214	 6.48796471725564E-03 
2215	 4.11465367338286E-03 
2216	 3.73712564373907E-03 
2217	 2.96456003033226E-03 
2218	 7.36573233786892E-04 
2219	-8.60613109726646E-04 
2220	-1.54497313076262E-03 
2221	-2.10766229683624E-03 
2222	-1.82234390154146E-03 
2223	-2.14664631064693E-03 
2224	-1.86548216575474E-03 
2225	-4.92829227073992E-03 
2226	-1.31724503749893E-02 
2227	-1.43174577933881E-02 
2228	-1.33397227903168E-02 
2229	-0.011539792473654 
2230	-1.77715273472456E-03 
2231	 1.91542775098389E-03 
2232	 3.41291258590903E-04 
2233	 1.07332372827045E-03 
2234	 3.1267042617038E-03 
2235	 2.65887472333983E-05 
2236	-1.36251942830439E-03 
2237	-1.20394399202245E-03 
2238	-2.35345879991275E-03 
2239	-2.37502868215675E-03 
2240	 1.37842932880824E-03 
2241	 4.9182191875986E-03 
2242	 6.39750857813401E-03 
2243	 8.65177122819747E-03 
2244	 8.96305714945027E-03 
2245	 9.30226566201074E-03 
2246	 1.64437518500224E-02 
2247	 2.30957470827451E-02 
2248	 1.94266938425132E-02 
2249	 1.62673799381177E-02 
2250	 1.44225630789216E-02 
2251	 7.21062392399621E-03 
2252	 4.99374492166957E-03 
2253	 4.24715441066051E-03 
2254	 3.98175427173497E-05 
2255	-2.0077047058816E-03 
2256	-3.05544892906905E-03 
2257	 4.38996663436479E-04 
2258	 2.94832471445271E-03 
2259	 2.78125671151459E-04 
2260	 1.14928167495281E-03 
2261	 4.63178582760712E-03 
2262	 4.5135638950241E-03 
2263	 4.07566925203448E-03 
2264	 4.59099128640971E-03 
2265	 4.7450594585257E-03 
2266	 4.88858101496307E-03 
2267	 5.06617679326417E-03 
2268	 5.65246119170114E-03 
2269	 2.5295740585465E-03 
2270	 2.31274565514928E-03 
2271	 5.43755567656719E-03 
2272	 8.6462327216087E-03 
2273	 1.85227084883397E-02 
2274	 2.12001698840935E-02 
2275	 1.87070070421591E-02 
2276	 1.62526242351305E-02 
2277	 4.4283182190751E-03 
2278	 1.42855309695968E-03 
2279	 4.50453646196158E-03 
2280	 6.98450761731478E-03 
2281	 1.34941648348333E-02 
2282	 0.021361452915283 
2283	 1.89154094051355E-02 
2284	 1.76950340088902E-02 
2285	 1.19670318194751E-02 
2286	 3.84220055736153E-03 
2287	 5.59974506368353E-03 
2288	 4.23576848377806E-03 
2289	 1.15926997602448E-03 
2290	-2.49084906852008E-03 
2291	-8.54751477830945E-03 
2292	-7.47469929572147E-03 
2293	 1.35231297343021E-03 
2294	 1.22673924204041E-02 
2295	 1.86621219206007E-02 
2296	 2.14336517519033E-02 
2297	 1.52799236387537E-02 
2298	 1.03638596701232E-02 
2299	 1.08153454857843E-02 
2300	 3.36534775060889E-03 
2301	 4.62312572223539E-03 
2302	 1.10536574721898E-02 
2303	 8.35459874976076E-03 
2304	 0.012088145260486 
2305	 1.47323529251633E-02 
2306	 5.28103982699883E-03 
2307	-6.94680505483007E-03 
2308	-0.013149987709432 
2309	-1.68376592004649E-02 
2310	-1.67254447336485E-02 
2311	-7.43539117741254E-03 
2312	-6.31783881592131E-03 
2313	-1.16109023653649E-02 
2314	-7.59596414743178E-03 
2315	-5.85182739049778E-03 
2316	-4.90979062121968E-03 
2317	 4.15043235796283E-03 
2318	-6.7790827223415E-03 
2319	-1.91597283342427E-02 
2320	-1.48623303437579E-02 
2321	-1.87052310567649E-02 
2322	-1.89285111260756E-02 
2323	-1.38249029799956E-02 
2324	-1.24836736164677E-02 
2325	-1.18941385974624E-02 
2326	-5.81798243783536E-03 
2327	 5.10235012332392E-03 
2328	 7.87759380706296E-03 
2329	 3.8995810464388E-03 
2330	 1.32735143524103E-02 
2331	 1.66159812936766E-02 
2332	 3.03607004451023E-04 
2333	-1.47012607818848E-02 
2334	-3.15641151458271E-02 
2335	-4.90956966085686E-02 
2336	-5.10681869406694E-02 
2337	-3.66908589290188E-02 
2338	-3.60075587329452E-02 
2339	-2.45885440129301E-02 
2340	-1.72745260546301E-03 
2341	-6.89429970594481E-04 
2342	 9.50988115329368E-03 
2343	 1.11099104567346E-02 
2344	-1.71946193948253E-03 
2345	-4.83081636878311E-03 
2346	-0.018192670734224 
2347	-1.64841910519237E-02 
2348	 3.85289229943646E-03 
2349	-2.57508916470221E-02 
2350	-0.049050690765939 
2351	-0.030416517865863 
2352	-5.62920284907332E-02 
2353	-7.01949811165375E-02 
2354	-4.01347029221079E-02 
2355	-4.62087443313578E-02 
2356	-5.97361934352795E-02 
2357	-6.25231798667416E-02 
2358	-6.47578295341476E-02 
2359	-0.063545776593078 
2360	-0.069565806184786 
2361	-5.16034634069669E-02 
2362	-3.63023231192939E-02 
2363	-5.10709297922686E-02 
2364	-4.72656154571016E-02 
2365	-3.63292775018447E-02 
2366	-4.54865169771715E-02 
2367	-0.035168635436386 
2368	-1.22049838691809E-02 
2369	-5.03408071669649E-02 
2370	-8.01005829260814E-02 
2371	-4.36171963712976E-02 
2372	-5.17903513702562E-02 
2373	-8.02849318102565E-02 
2374	-6.01656031448626E-02 
2375	-4.47465034774179E-02 
2376	-5.67493109315312E-02 
2377	-0.01736980928701 
2378	 5.50952938752004E-02 
2379	 6.43529796259595E-02 
2380	 7.38948396454032E-03 
2381	-4.29576514457116E-02 
2382	-5.40853044273267E-02 
2383	-2.33528006327209E-02 
2384	 7.36125229571507E-02 
2385	 0.166245466463454 
2386	 0.188591370368719 
2387	 0.175427012199125 
2388	 0.174993675745336 
2389	 0.119592800974563 
2390	 3.39595954953238E-02 
2391	-0.118876845921949 
2392	-0.263673315815881 
2393	-0.30065651146977 
2394	-0.296702863335386 
2395	-0.217759079377569 
2396	-0.154876232771866 
2397	-8.36358866184955E-02 
2398	-4.34358109406333E-02 
2399	-0.088445942054393 
2400	-8.57728849011899E-02 
2401	-0.123624171605177 
2402	-0.120775991096242 
2403	 3.71689053921042E-02 
2404	 0.120821690118649 
2405	 0.120875575710711 
2406	 2.98268481848379E-02 
2407	-3.33458563126791E-02 
2408	-0.20820413836858 
2409	-0.288014274553936 
2410	-9.03054293983841E-02 
2411	 2.87644933745081E-02 
2412	 3.70507293740621E-02 
2413	 3.43438390724161E-02 
2414	-2.39165987741652E-02 
2415	-0.126132441204208 
2416	 3.36949072445269E-02 
2417	 5.86959611977442E-02 
2418	-4.34121330338264E-02 
2419	 3.78051942822579E-02 
2420	 0.019031181295852 
2421	 3.72432608224065E-02 
2422	 3.63285008540475E-02 
2423	-0.123233391630937 
2424	-0.227225598614796 
2425	-0.233032288376472 
2426	-0.111492613510785 
2427	 2.80453498187028E-02 
2428	 0.288199325941657 
2429	 0.321862768483215 
2430	 0.245670203823787 
2431	 0.220771778117931 
2432	 4.49373732992159E-02 
2433	-0.142973109124895 
2434	-0.109607104810429 
2435	-0.278742814972298 
2436	-0.498308863146437 
2437	-0.579925336230716 
2438	-0.530369177588969 
2439	-0.264396220080312 
2440	 4.49605021150322E-02 
2441	 1.62934573253374E-02 
2442	-9.07325180971554E-02 
2443	 0.256103585370962 
2444	 0.27489748774199 
2445	-5.99573422938696E-02 
2446	 5.65979105928837E-02 
2447	-0.490976020147538 
2448	-0.397649553201006 
2449	 0.140859842767087 
2450	 0.261608132307162 
2451	 0.347200979185357 
2452	 0.355525143393203 
2453	-0.164734128013713 
2454	-0.906321595640957 
2455	-1.12075600379943 
2456	-0.520199135715407 
2457	-0.565849068332043 
2458	-0.827237641545424 
2459	-0.303391519587802 
2460	 0.434339858063631 
2461	 0.781089959653179 
2462	 0.836204075156276 
2463	 0.634881971652789 
2464	 0.232746782540345 
2465	 0.170628981630478 
2466	 0.223180148418311 
2467	 0.271061253051638 
2468	 0.315055196078036 
2469	 0.253606942480659 
2470	 0.174604509720977 
2471	 0.232022856160346 
2472	-1.63902857991971 
2473	-2.34143079277777 
2474	-1.48442200451569 
2475	-0.876891333213765 
2476	-0.352555598970621 
2477	 0.596164602543723 
2478	-0.595975108561326 
2479	-0.256169716128747 
2480	-0.347065868389057 
2481	-1.18403511134408 
2482	 1.41489982741335 
2483	-5.90501645668919 
2484	-0.750388378552301 
2485	-0.37624944652925 
2486	-7.11049584005842E-02 
2487	 1.17730617723194 
2488	-1.08670929351429 
2489	-6.785894721434 
2490	-5.98476297534316 
2491	 13.507137918657 
2492	 9.54530142430536 
2493	 2.50293983421237 
2494	 2.01422539863837 
2495	 8.88561244524036 
2496	 3.70698295906535 
2497	 5.12183456415851 
2498	-1.04661723248266 
2499	 2.48024691707707 
2500	 1.7867365752027 
