Wavelength	rt062200002.asd
350	 1.88472978401235E-02 
351	 2.01759261209907E-02 
352	 2.08982995669532E-02 
353	 2.07313489065999E-02 
354	 2.02380158657544E-02 
355	 2.06510875887538E-02 
356	 2.11664384410513E-02 
357	 2.14800897422034E-02 
358	 0.021470999910349 
359	 2.09999942428823E-02 
360	 2.11083918000632E-02 
361	 2.19514795786303E-02 
362	 2.29351673131666E-02 
363	 2.28218177690266E-02 
364	 2.26756285877608E-02 
365	 0.022907256392439 
366	 2.24720895686176E-02 
367	 2.26756986281438E-02 
368	 2.31958245551805E-02 
369	 2.34140503126476E-02 
370	 2.32958217921503E-02 
371	 2.33254648364692E-02 
372	 0.02375528054278 
373	 0.024501676888432 
374	 2.41167130411249E-02 
375	 2.39901644375682E-02 
376	 2.46598720923759E-02 
377	 2.50858522724641E-02 
378	 2.52359791110673E-02 
379	 2.55528877323119E-02 
380	 2.61715657174236E-02 
381	 2.58126334128292E-02 
382	 2.59093805321603E-02 
383	 2.64744629715588E-02 
384	 2.68108238433934E-02 
385	 2.67129041969894E-02 
386	 2.69133422365102E-02 
387	 2.74080059525891E-02 
388	 2.73387076714062E-02 
389	 2.77147885395062E-02 
390	 2.81974868321744E-02 
391	 2.83524403634304E-02 
392	 2.81030767188171E-02 
393	 2.82326574655963E-02 
394	 2.86549360075975E-02 
395	 2.89519938721852E-02 
396	 0.029006493070007 
397	 0.02895575725508 
398	 2.89924440921416E-02 
399	 2.93095192074854E-02 
400	 2.96624327941659E-02 
401	 2.99055635207657E-02 
402	 2.99296825878677E-02 
403	 2.95566914995709E-02 
404	 2.95828246432819E-02 
405	 3.01013008041393E-02 
406	 3.07527302189997E-02 
407	 0.030398602673829 
408	 3.03199488939919E-02 
409	 3.08261843600881E-02 
410	 0.031130276461253 
411	 3.09665653001001E-02 
412	 3.08890827973544E-02 
413	 3.12375377095627E-02 
414	 3.14894512988074E-02 
415	 3.16701575473779E-02 
416	 3.17491859884188E-02 
417	 3.17463902478584E-02 
418	 3.19946609458053E-02 
419	 3.23653861985144E-02 
420	 3.26897892395898E-02 
421	 3.28102697858558E-02 
422	 3.29480176625134E-02 
423	 3.31964116044931E-02 
424	 3.35330143153754E-02 
425	 0.033689597975589 
426	 3.39921181918058E-02 
427	 3.43365787282175E-02 
428	 3.44987776898388E-02 
429	 3.50365543549931E-02 
430	 3.54688624997677E-02 
431	 3.56827394904753E-02 
432	 3.61033687714294E-02 
433	 3.64312460234252E-02 
434	 3.65166124911902E-02 
435	 3.64593845181953E-02 
436	 3.69922302355132E-02 
437	 3.74913505081309E-02 
438	 3.78415818867798E-02 
439	 3.81942637070498E-02 
440	 3.83690332322961E-02 
441	 3.85492173913233E-02 
442	 3.88435092512011E-02 
443	 3.91990844712738E-02 
444	 3.95242437201594E-02 
445	 3.97889551642583E-02 
446	 4.00099001324819E-02 
447	 4.03018368483238E-02 
448	 4.04963932713743E-02 
449	 4.06078888534969E-02 
450	 4.07914909571983E-02 
451	 4.10972841739778E-02 
452	 4.14318786027582E-02 
453	 4.16644981372359E-02 
454	 4.16012722370205E-02 
455	 4.17988616614618E-02 
456	 4.20865297833098E-02 
457	 4.21274807654465E-02 
458	 4.22919247718044E-02 
459	 4.23743673313525E-02 
460	 4.24242195122752E-02 
461	 4.27475320454534E-02 
462	 4.28974862757948E-02 
463	 4.29269584573331E-02 
464	 4.29653212698999E-02 
465	 0.043043248465247 
466	 4.32100598987478E-02 
467	 4.34522267948484E-02 
468	 4.36929628799171E-02 
469	 4.36927558013281E-02 
470	 4.37227954246747E-02 
471	 4.39133428695902E-02 
472	 4.41423802848345E-02 
473	 4.41992853086133E-02 
474	 4.42366590738964E-02 
475	 4.44080927360529E-02 
476	 4.44633441232827E-02 
477	 4.47127572671042E-02 
478	 0.045053991731093 
479	 4.51419119279215E-02 
480	 4.53223268540529E-02 
481	 4.55394741620882E-02 
482	 0.045723146343178 
483	 4.58677739756144E-02 
484	 4.62011617936263E-02 
485	 4.65621215460284E-02 
486	 4.67257122533347E-02 
487	 4.69926707302371E-02 
488	 4.72659207602654E-02 
489	 4.75055620735784E-02 
490	 4.77482396105057E-02 
491	 4.79829910829129E-02 
492	 4.83499798557556E-02 
493	 4.88761680761543E-02 
494	 4.92216809112543E-02 
495	 4.95671235247223E-02 
496	 4.99214770303317E-02 
497	 5.02330866992677E-02 
498	 5.06754031022281E-02 
499	 5.10954465425755E-02 
500	 5.14581888130621E-02 
501	 5.19637327023751E-02 
502	 5.23659324543723E-02 
503	 5.28078850663766E-02 
504	 5.34315154711111E-02 
505	 5.39153491349924E-02 
506	 5.43100430994745E-02 
507	 5.47340562922476E-02 
508	 5.53240493250472E-02 
509	 5.57469326130041E-02 
510	 5.62116679018312E-02 
511	 0.056843679631606 
512	 5.73684742195195E-02 
513	 5.79853189728237E-02 
514	 5.86078982533663E-02 
515	 5.90597026515305E-02 
516	 5.94691394400077E-02 
517	 6.00837975673999E-02 
518	 6.08582377613075E-02 
519	 6.13907174696613E-02 
520	 6.21369382748608E-02 
521	 6.28651554638429E-02 
522	 6.33855241234769E-02 
523	 6.41942814616345E-02 
524	 6.49956734054041E-02 
525	 6.56816426425522E-02 
526	 6.63077522429722E-02 
527	 0.067065002517919 
528	 6.78572300570452E-02 
529	 6.86303411130401E-02 
530	 0.069519500928119 
531	 7.03265492034961E-02 
532	 7.11261996959378E-02 
533	 7.20573515900771E-02 
534	 7.30202090110527E-02 
535	 7.38060453113233E-02 
536	 7.45299140954889E-02 
537	 7.56601121949785E-02 
538	 7.66751614415024E-02 
539	 7.76086806390751E-02 
540	 7.85797212994138E-02 
541	 7.95358362914854E-02 
542	 8.04079292954592E-02 
543	 8.12544657972503E-02 
544	 8.22080482369067E-02 
545	 8.32618283579106E-02 
546	 8.41962900466277E-02 
547	 0.084964892945746 
548	 8.59066135126097E-02 
549	 8.67681225169375E-02 
550	 8.75826875634096E-02 
551	 8.84663226320762E-02 
552	 8.94061853231444E-02 
553	 9.02686128745539E-02 
554	 9.10949608650832E-02 
555	 9.21182586817901E-02 
556	 9.30365042689188E-02 
557	 9.39607122682498E-02 
558	 9.50119421498046E-02 
559	 9.60613634788784E-02 
560	 9.69746011312477E-02 
561	 9.77745189616164E-02 
562	 0.098589830943787 
563	 9.94028069728107E-02 
564	 0.100274989722501 
565	 0.101172372087753 
566	 0.101868901255068 
567	 0.102422517054327 
568	 0.102957391040532 
569	 0.103587500635127 
570	 0.10419144608055 
571	 0.104649481519995 
572	 0.105008639801001 
573	 0.105486893174078 
574	 0.1060234999568 
575	 0.106488312854272 
576	 0.106821496452418 
577	 0.107267791911096 
578	 0.107614496775038 
579	 0.10788419343418 
580	 0.108246081620126 
581	 0.10877243632243 
582	 0.109219500305903 
583	 0.109475875616732 
584	 0.109728297165759 
585	 0.110014273295792 
586	 0.110266191662699 
587	 0.110396938342855 
588	 0.110481364125306 
589	 0.110705695646614 
590	 0.111034176527816 
591	 0.111220376768644 
592	 0.111434957388987 
593	 0.111518074657131 
594	 0.111410032651019 
595	 0.111557561979533 
596	 0.111699557343317 
597	 0.111762091430843 
598	 0.11177914942198 
599	 0.111730967902825 
600	 0.111859752716269 
601	 0.112154470433118 
602	 0.112121142477568 
603	 0.112115402837638 
604	 0.112228969910953 
605	 0.112435043116666 
606	 0.112549698818489 
607	 0.112659936918745 
608	 0.11282576536015 
609	 0.113055557686066 
610	 0.113103657807746 
611	 0.11319319203646 
612	 0.113458238988996 
613	 0.113460816846493 
614	 0.113483800748523 
615	 0.113589164358794 
616	 0.113711905609097 
617	 0.113842887772048 
618	 0.11396148472838 
619	 0.114087096346652 
620	 0.114309287425343 
621	 0.114367909176114 
622	 0.114404764431071 
623	 0.114602928532434 
624	 0.114657087202603 
625	 0.114666669779031 
626	 0.114675229491958 
627	 0.114665087118011 
628	 0.114788439567176 
629	 0.114978297170953 
630	 0.115141859669826 
631	 0.115252218941346 
632	 0.115220502356764 
633	 0.115166771132146 
634	 0.11526541710423 
635	 0.115249177976168 
636	 0.115195601402197 
637	 0.115171310013046 
638	 0.115180330124695 
639	 0.115139483305861 
640	 0.115101378333339 
641	 0.115100505473679 
642	 0.114922057162013 
643	 0.114732145243277 
644	 0.114589450693388 
645	 0.114441942751326 
646	 0.113971202433456 
647	 0.113672749707447 
648	 0.113777851743523 
649	 0.11353113220594 
650	 0.113330299350444 
651	 0.113229489158162 
652	 0.113160531794607 
653	 0.113066891162272 
654	 0.112898404579038 
655	 0.112651844242987 
656	 0.112422065682478 
657	 0.111983703643715 
658	 0.111621057664046 
659	 0.111498383472608 
660	 0.111186215218298 
661	 0.110812806913695 
662	 0.11042736321887 
663	 0.110036622828191 
664	 0.109606888037024 
665	 0.10922820201403 
666	 0.108962096561576 
667	 0.108818779084928 
668	 0.108491740030014 
669	 0.108255783715091 
670	 0.108393128000141 
671	 0.108162792551132 
672	 0.108060336488133 
673	 0.108157828324792 
674	 0.108106546409975 
675	 0.108330289308309 
676	 0.108676539738561 
677	 0.108969093075012 
678	 0.109210360231355 
679	 0.109819026373161 
680	 0.110651034283182 
681	 0.111340000118068 
682	 0.112010041998061 
683	 0.112953623006039 
684	 0.114128460453806 
685	 0.115127800020877 
686	 0.116368426989702 
687	 0.1176747538356 
688	 0.118772945541213 
689	 0.120060861674024 
690	 0.121381735505906 
691	 0.122453095450124 
692	 0.123010005928314 
693	 0.12411315393058 
694	 0.125141545132459 
695	 0.125747278529663 
696	 0.126497384445849 
697	 0.127088790696624 
698	 0.12745196182231 
699	 0.127629172349178 
700	 0.12813856361196 
701	 0.128435463696419 
702	 0.128540694038417 
703	 0.128907646420748 
704	 0.128847441489035 
705	 0.128605254335909 
706	 0.128426387497777 
707	 0.128238788150033 
708	 0.12795909572662 
709	 0.12755024325545 
710	 0.126984306869569 
711	 0.126137963924446 
712	 0.125222471214943 
713	 0.12429645373166 
714	 0.123209414502679 
715	 0.121926593346572 
716	 0.120484131383638 
717	 0.119041585173878 
718	 0.117420771042426 
719	 0.116141104502317 
720	 0.115200548897954 
721	 0.11415061584509 
722	 0.112942152281085 
723	 0.111322913179014 
724	 0.109561477630919 
725	 0.108181889671922 
726	 0.106767745398729 
727	 0.104993932851142 
728	 0.102834931300988 
729	 0.100977695558129 
730	 9.89908321363421E-02 
731	 9.70595727597188E-02 
732	 9.54410451393714E-02 
733	 9.40045958846927E-02 
734	 0.092693788908942 
735	 9.15236524246952E-02 
736	 9.05711829558594E-02 
737	 8.99095849842915E-02 
738	 8.97028283150813E-02 
739	 8.98442386389452E-02 
740	 8.93430713640013E-02 
741	 8.90693342759658E-02 
742	 8.91732508521385E-02 
743	 8.93742783674737E-02 
744	 0.089358330586766 
745	 8.93028477681195E-02 
746	 8.93542277182635E-02 
747	 8.95400083882626E-02 
748	 8.96453004136785E-02 
749	 8.96789309547034E-02 
750	 8.96942448266158E-02 
751	 8.96641890954795E-02 
752	 8.96871181571778E-02 
753	 8.97558623681649E-02 
754	 8.98070237553592E-02 
755	 8.98620307365358E-02 
756	 8.99167644407132E-02 
757	 8.99246336024865E-02 
758	 0.089723095521559 
759	 8.94324297306852E-02 
760	 8.89542458975047E-02 
761	 8.85931984942551E-02 
762	 0.088914976917578 
763	 8.92822380171964E-02 
764	 8.97119552647981E-02 
765	 9.03116365457971E-02 
766	 9.04161235422167E-02 
767	 9.08902662002837E-02 
768	 9.16553414037545E-02 
769	 9.17648384057762E-02 
770	 9.18280454415188E-02 
771	 9.20461237620245E-02 
772	 9.24360462868075E-02 
773	 9.27461084005445E-02 
774	 9.30442638133418E-02 
775	 0.093347513830183 
776	 9.36571054721787E-02 
777	 0.093969098710664 
778	 9.42193853211742E-02 
779	 0.094501966608088 
780	 9.50463140410065E-02 
781	 9.54796400858639E-02 
782	 9.58603273358314E-02 
783	 9.62446404376929E-02 
784	 9.64762142705377E-02 
785	 0.096914847805418 
786	 9.73652689905919E-02 
787	 9.75196634738978E-02 
788	 9.76435069605692E-02 
789	 9.80369644339517E-02 
790	 9.87124573383262E-02 
791	 9.94303210234323E-02 
792	 0.100059084258794 
793	 0.100587704525882 
794	 0.100997959443357 
795	 0.101183020507157 
796	 0.101663674706297 
797	 0.102225279021911 
798	 0.102534305890526 
799	 0.102496954404794 
800	 0.102892250659227 
801	 0.103552183318549 
802	 0.103818000392742 
803	 0.1039488616018 
804	 0.104201471673927 
805	 0.104595175406468 
806	 0.104890321156509 
807	 0.104780645416103 
808	 0.104362733893779 
809	 0.10388487390741 
810	 0.103742805062742 
811	 0.103472735888645 
812	 0.103101014159146 
813	 0.102804950945924 
814	 0.102329364757481 
815	 0.101334898516022 
816	 0.100489439961566 
817	 0.100844610995926 
818	 0.100186137433924 
819	 9.95815036834649E-02 
820	 9.92697334037256E-02 
821	 9.81214883500592E-02 
822	 9.67890847492782E-02 
823	 9.57671583986098E-02 
824	 9.49564984345057E-02 
825	 9.29546184638261E-02 
826	 9.12148184714903E-02 
827	 0.089687085324341 
828	 8.79201655532906E-02 
829	 8.60012626190868E-02 
830	 8.45171477507542E-02 
831	 8.33803167520768E-02 
832	 8.21025252402177E-02 
833	 8.11278898512692E-02 
834	 8.03984286003263E-02 
835	 7.98385909069105E-02 
836	 7.94487637822996E-02 
837	 7.92029514629075E-02 
838	 7.89074310049957E-02 
839	 7.84965987585945E-02 
840	 7.83297997918458E-02 
841	 7.79294201005918E-02 
842	 0.07740520397273 
843	 7.70508159438414E-02 
844	 7.68779421896318E-02 
845	 7.67314397253528E-02 
846	 7.64635813699798E-02 
847	 7.60073253509855E-02 
848	 7.58456346650352E-02 
849	 7.57832652743163E-02 
850	 7.57189744426061E-02 
851	 7.57433154531931E-02 
852	 7.48472025589572E-02 
853	 7.43195680373686E-02 
854	 7.47552432753293E-02 
855	 0.074244618450535 
856	 0.074047464461592 
857	 7.40273651968361E-02 
858	 7.37503883957823E-02 
859	 0.073086050863262 
860	 7.28464455809285E-02 
861	 7.29159642129932E-02 
862	 7.27793105266595E-02 
863	 7.28303116123208E-02 
864	 7.27944382064296E-02 
865	 7.24450691271624E-02 
866	 7.17704627509049E-02 
867	 7.19100117957632E-02 
868	 7.16608062231498E-02 
869	 7.08536160408685E-02 
870	 7.09948514057079E-02 
871	 7.04379652321147E-02 
872	 7.00109660281574E-02 
873	 7.02867141105537E-02 
874	 7.01043682198372E-02 
875	 6.95778538861867E-02 
876	 6.90341395916344E-02 
877	 6.87825595355139E-02 
878	 0.068761974836111 
879	 6.83224440203119E-02 
880	 0.067706514638431 
881	 6.74292417719441E-02 
882	 6.67737627447151E-02 
883	 6.65123823721948E-02 
884	 6.64648519447657E-02 
885	 6.58601817882451E-02 
886	 6.59037973312513E-02 
887	 6.57603829631306E-02 
888	 6.52523940256374E-02 
889	 6.51497188293906E-02 
890	 6.49901239576884E-02 
891	 6.44722635057222E-02 
892	 6.36776270484772E-02 
893	 6.33751658288566E-02 
894	 6.21379816697028E-02 
895	 6.15639302781451E-02 
896	 6.27687210189336E-02 
897	 6.22712452744594E-02 
898	 6.09095659424588E-02 
899	 6.04185181352453E-02 
900	 6.15326597345855E-02 
901	 6.08955806403451E-02 
902	 0.060044941819886 
903	 5.93801622733305E-02 
904	 0.058995752729066 
905	 5.99545230054627E-02 
906	 5.98424807076426E-02 
907	 5.89123229570837E-02 
908	 5.91232389827625E-02 
909	 5.81271138438044E-02 
910	 5.73018831877825E-02 
911	 5.67838517980097E-02 
912	 5.54605378048841E-02 
913	 5.45688693825779E-02 
914	 5.40036449089112E-02 
915	 5.40662212099344E-02 
916	 5.53780889287396E-02 
917	 5.52015656282939E-02 
918	 5.45193248273842E-02 
919	 5.41080645799552E-02 
920	 5.37152382363028E-02 
921	 5.31011482292016E-02 
922	 5.24849858835405E-02 
923	 5.26122663588363E-02 
924	 5.52063122830863E-02 
925	 5.31742006847992E-02 
926	 5.08376346951088E-02 
927	 5.31729972893506E-02 
928	 5.18968456239176E-02 
929	 5.14601873656483E-02 
930	 5.04947912806757E-02 
931	 0.046149330445447 
932	 4.90063176960187E-02 
933	 5.25898342236471E-02 
934	 5.25561538931143E-02 
935	 4.81848057893955E-02 
936	 3.87923263113077E-02 
937	 4.33927112876982E-02 
938	 4.92973378762654E-02 
939	 4.25733443702358E-02 
940	 4.10235377699051E-02 
941	 4.52487293266709E-02 
942	 5.23792478808555E-02 
943	 5.51397725307325E-02 
944	 3.31371570360217E-02 
945	 3.26285512547494E-02 
946	 5.21378327119097E-02 
947	 5.96496073009285E-02 
948	 5.09508561949159E-02 
949	 3.94580231846323E-02 
950	 3.54512973190756E-02 
951	 4.15120612051556E-02 
952	 4.11221043404145E-02 
953	 3.99976120132705E-02 
954	 4.01493828575323E-02 
955	 3.99824665710113E-02 
956	 4.02631671313457E-02 
957	 4.06685452959176E-02 
958	 4.15120262237641E-02 
959	 0.042897587348016 
960	 4.02122317302652E-02 
961	 3.76080120651952E-02 
962	 3.77487313296208E-02 
963	 0.040908684238096 
964	 4.59418088413697E-02 
965	 4.25695229408585E-02 
966	 3.71246692478921E-02 
967	 4.39952296432567E-02 
968	 4.35058256586613E-02 
969	 4.07134636764343E-02 
970	 3.91942893393242E-02 
971	 0.039452763196237 
972	 4.36132480463903E-02 
973	 4.27652239461042E-02 
974	 3.88828872083614E-02 
975	 4.32734561688203E-02 
976	 4.29427207152294E-02 
977	 0.042060095465981 
978	 4.15343216511278E-02 
979	 3.88826502307453E-02 
980	 0.041707809850173 
981	 4.36777455165577E-02 
982	 0.043577860295329 
983	 4.44832566647431E-02 
984	 3.99051518615894E-02 
985	 3.93072855588611E-02 
986	 4.35679251775522E-02 
987	 4.55748642414704E-02 
988	 4.19323328087053E-02 
989	 4.11612571753273E-02 
990	 4.34223965883358E-02 
991	 4.27234722267023E-02 
992	 4.38518259602151E-02 
993	 4.31197854191781E-02 
994	 4.25183630173026E-02 
995	 4.61777264567978E-02 
996	 4.39415151902491E-02 
997	 4.18885383171837E-02 
998	 0.042406300420162 
999	 4.40474818151333E-02 
1000	 0.044049881305715 
1001	 4.17709128599537E-02 
1002	 4.24344807266902E-02 
1003	 0.042855427414586 
1004	 4.38950189302137E-02 
1005	 4.45435695435074E-02 
1006	 4.51376703541626E-02 
1007	 4.50554770512368E-02 
1008	 4.52855412467301E-02 
1009	 4.51054329153627E-02 
1010	 4.44360485283814E-02 
1011	 4.42110310985972E-02 
1012	 4.35982126410648E-02 
1013	 4.32207869391861E-02 
1014	 4.31582402346985E-02 
1015	 4.32337298551378E-02 
1016	 4.35727958598348E-02 
1017	 4.46006857921696E-02 
1018	 4.50040084817254E-02 
1019	 4.54001524801102E-02 
1020	 4.57379141341619E-02 
1021	 4.58101939530052E-02 
1022	 4.56783064107684E-02 
1023	 4.60892306461144E-02 
1024	 4.63349430544404E-02 
1025	 4.63913082069705E-02 
1026	 4.62810057533876E-02 
1027	 4.60134225118692E-02 
1028	 4.52310806272027E-02 
1029	 4.51046729544892E-02 
1030	 4.50319926774779E-02 
1031	 4.52619456398532E-02 
1032	 4.62426865415691E-02 
1033	 4.64898780622626E-02 
1034	 4.65287128665201E-02 
1035	 4.65222565363886E-02 
1036	 4.57472300843561E-02 
1037	 4.58239648253118E-02 
1038	 4.61357871163224E-02 
1039	 4.70977666741967E-02 
1040	 0.047940685387612 
1041	 4.82885411164794E-02 
1042	 4.85693866231472E-02 
1043	 4.84427409398046E-02 
1044	 4.83129576251117E-02 
1045	 4.82133943989396E-02 
1046	 4.78968966080666E-02 
1047	 4.68897716431255E-02 
1048	 4.67761135892001E-02 
1049	 4.71617651464341E-02 
1050	 4.72867788421219E-02 
1051	 4.78842269021583E-02 
1052	 4.80886196332693E-02 
1053	 4.74357269579783E-02 
1054	 4.75953566168835E-02 
1055	 4.86109952563186E-02 
1056	 0.048968583868975 
1057	 4.92218599441274E-02 
1058	 4.98416689211385E-02 
1059	 4.97255946116543E-02 
1060	 4.87171306269722E-02 
1061	 4.83033475499418E-02 
1062	 4.74758054037516E-02 
1063	 4.77454784289997E-02 
1064	 4.90909739096266E-02 
1065	 4.94197626185185E-02 
1066	 5.03390982396981E-02 
1067	 5.03777789534432E-02 
1068	 4.88201483988266E-02 
1069	 4.82168204318189E-02 
1070	 4.79513940018881E-02 
1071	 4.75844831299911E-02 
1072	 4.72523117801422E-02 
1073	 4.71463915987389E-02 
1074	 4.74117776332956E-02 
1075	 4.78234867406921E-02 
1076	 4.81676191088631E-02 
1077	 4.92077714713757E-02 
1078	 4.93607509429465E-02 
1079	 4.88697314481296E-02 
1080	 4.87147162785277E-02 
1081	 4.82498683622882E-02 
1082	 4.81717893527091E-02 
1083	 4.85199295119528E-02 
1084	 4.85014098849567E-02 
1085	 4.86882935679056E-02 
1086	 4.84398198911875E-02 
1087	 4.73109277065223E-02 
1088	 4.68851498788604E-02 
1089	 4.66989417557755E-02 
1090	 4.64207438895403E-02 
1091	 4.62837668676211E-02 
1092	 4.66323246907985E-02 
1093	 4.66407400854963E-02 
1094	 4.65090737351447E-02 
1095	 4.62712160409748E-02 
1096	 4.58167442712058E-02 
1097	 4.58281538919948E-02 
1098	 4.59723055155854E-02 
1099	 4.59038820621406E-02 
1100	 0.046774928273594 
1101	 4.64978425930301E-02 
1102	 0.044234397704207 
1103	 0.04358998577601 
1104	 4.38234828894694E-02 
1105	 4.28723694613092E-02 
1106	 4.35656765058448E-02 
1107	 4.54132022304967E-02 
1108	 4.44514904326875E-02 
1109	 4.37799625954161E-02 
1110	 4.40481938449168E-02 
1111	 4.47839904639524E-02 
1112	 4.45899004530168E-02 
1113	 4.52927251928351E-02 
1114	 4.48842507221286E-02 
1115	 4.13485692666914E-02 
1116	 3.89445857872356E-02 
1117	 3.64360469521919E-02 
1118	 3.59724686010398E-02 
1119	 3.74233228812062E-02 
1120	 3.85992810276928E-02 
1121	 4.40765985364968E-02 
1122	 5.11100542598232E-02 
1123	 4.75343930891898E-02 
1124	 4.57715928828975E-02 
1125	 4.25220787699995E-02 
1126	 3.96727827011628E-02 
1127	 4.60970580764213E-02 
1128	 4.86305004686147E-02 
1129	 4.93896283465889E-02 
1130	 4.98017581936623E-02 
1131	 4.76951273935152E-02 
1132	 4.37506523308022E-02 
1133	 4.20213520916207E-02 
1134	 4.00881015608731E-02 
1135	 3.85099190282969E-02 
1136	 3.49791335844091E-02 
1137	 3.45067269942508E-02 
1138	 3.51570789349596E-02 
1139	 3.80983291101645E-02 
1140	 3.97948410362098E-02 
1141	 4.02525447396496E-02 
1142	 3.76082629878926E-02 
1143	 3.21123295478033E-02 
1144	 2.90986727994863E-02 
1145	 3.29572327157998E-02 
1146	 3.59521693152186E-02 
1147	 3.31042807224862E-02 
1148	 3.34597972140197E-02 
1149	 3.42654240262999E-02 
1150	 3.27099310888559E-02 
1151	 3.18618564758099E-02 
1152	 3.19921065898853E-02 
1153	 2.84604843922042E-02 
1154	 2.81062720105492E-02 
1155	 2.98252161812142E-02 
1156	 3.18440605129015E-02 
1157	 3.13766552595911E-02 
1158	 3.21384513086356E-02 
1159	 3.20908242761202E-02 
1160	 3.06744335480925E-02 
1161	 3.02895862247657E-02 
1162	 0.030448915453063 
1163	 3.08032617623534E-02 
1164	 3.17513414237528E-02 
1165	 3.14959523709383E-02 
1166	 0.030982056405034 
1167	 3.09096657212027E-02 
1168	 3.03050123934144E-02 
1169	 3.04715433439613E-02 
1170	 3.08137510417525E-02 
1171	 3.08705833497892E-02 
1172	 3.05321106772936E-02 
1173	 3.05079273320234E-02 
1174	 3.06373510175892E-02 
1175	 3.05654614186806E-02 
1176	 3.01329207891187E-02 
1177	 2.99006671799078E-02 
1178	 2.96305555323354E-02 
1179	 3.02991531107056E-02 
1180	 3.14670438706983E-02 
1181	 3.14464726095404E-02 
1182	 0.030853563146909 
1183	 0.030215578282433 
1184	 2.95546665089085E-02 
1185	 0.029559104677496 
1186	 3.02962083283807E-02 
1187	 2.98809934036106E-02 
1188	 2.90273458369898E-02 
1189	 2.94142111360422E-02 
1190	 2.99626021540722E-02 
1191	 3.05437373432389E-02 
1192	 3.08410360851805E-02 
1193	 3.13957275288052E-02 
1194	 3.12369220368987E-02 
1195	 3.05694225514221E-02 
1196	 2.99627303987833E-02 
1197	 3.03613496026024E-02 
1198	 3.06146585577296E-02 
1199	 0.029695543096136 
1200	 2.93399081024946E-02 
1201	 2.99533675981198E-02 
1202	 2.98748232079254E-02 
1203	 2.97097908124638E-02 
1204	 0.030205050498631 
1205	 2.99684916961646E-02 
1206	 2.97421424257679E-02 
1207	 3.06397474431889E-02 
1208	 0.031090234533921 
1209	 3.08166358399316E-02 
1210	 3.08033953827319E-02 
1211	 3.07031923345807E-02 
1212	 3.08103326688067E-02 
1213	 3.14340162724676E-02 
1214	 3.14899519175816E-02 
1215	 0.031022407709846 
1216	 3.05755871106991E-02 
1217	 3.09668486161377E-02 
1218	 3.10119959674638E-02 
1219	 0.030915771887776 
1220	 3.09078484401641E-02 
1221	 3.08567838119368E-02 
1222	 3.12902809673977E-02 
1223	 3.16997155697087E-02 
1224	 3.16686868400663E-02 
1225	 3.11903234648784E-02 
1226	 3.04838853057635E-02 
1227	 0.030325084280223 
1228	 3.06881836273259E-02 
1229	 3.13709777163416E-02 
1230	 3.19573619605007E-02 
1231	 3.16829012595924E-02 
1232	 3.12157687517677E-02 
1233	 3.13979485982655E-02 
1234	 3.14529702848776E-02 
1235	 3.13765074975549E-02 
1236	 3.17007470398354E-02 
1237	 3.19036378223778E-02 
1238	 3.18928162872599E-02 
1239	 0.03152504186392 
1240	 3.15378219588281E-02 
1241	 0.03181131859859 
1242	 3.15872749299174E-02 
1243	 3.13619253026348E-02 
1244	 3.16800448031864E-02 
1245	 3.17627069967934E-02 
1246	 3.15729891151703E-02 
1247	 3.18017333221004E-02 
1248	 0.031985409512287 
1249	 3.17384068450538E-02 
1250	 3.18991232039297E-02 
1251	 3.22123135175857E-02 
1252	 3.17566794649521E-02 
1253	 3.11724445715923E-02 
1254	 3.13222807096702E-02 
1255	 3.17903493330826E-02 
1256	 3.17921139900508E-02 
1257	 3.17376289728942E-02 
1258	 3.20444536734123E-02 
1259	 3.23300893478234E-02 
1260	 3.20796083553241E-02 
1261	 3.19814052911032E-02 
1262	 3.21095070780733E-02 
1263	 3.19770634266055E-02 
1264	 3.12710974095126E-02 
1265	 3.13558161109432E-02 
1266	 3.19649729333346E-02 
1267	 3.18197113189806E-02 
1268	 3.14985409919425E-02 
1269	 3.17616835364544E-02 
1270	 3.18544201512549E-02 
1271	 3.16437992593558E-02 
1272	 3.14774792294897E-02 
1273	 3.14819070673121E-02 
1274	 3.14238120081096E-02 
1275	 3.14733171484019E-02 
1276	 3.18420145076391E-02 
1277	 3.19305382107457E-02 
1278	 3.16444293593395E-02 
1279	 3.14666839358616E-02 
1280	 3.15530922372234E-02 
1281	 3.14958064879739E-02 
1282	 3.15437560680615E-02 
1283	 0.031431293916854 
1284	 3.09392792354058E-02 
1285	 3.10079997102581E-02 
1286	 3.18372543025425E-02 
1287	 3.16975347739901E-02 
1288	 3.07351714517602E-02 
1289	 3.07160225646491E-02 
1290	 3.08706545499424E-02 
1291	 0.030621819385563 
1292	 3.01977265998404E-02 
1293	 3.08379725222903E-02 
1294	 3.07628557996523E-02 
1295	 0.029639489697817 
1296	 2.98445952103751E-02 
1297	 3.04291747471327E-02 
1298	 2.98678751266739E-02 
1299	 0.02980045999348 
1300	 3.00604031100241E-02 
1301	 2.99099846594087E-02 
1302	 2.98044187346963E-02 
1303	 2.89104794451799E-02 
1304	 2.80971278694615E-02 
1305	 2.78673713619338E-02 
1306	 2.75644327203415E-02 
1307	 2.74021725081758E-02 
1308	 2.75789128321482E-02 
1309	 2.80842024370068E-02 
1310	 2.79921029286607E-02 
1311	 2.79452327005506E-02 
1312	 2.75352026579588E-02 
1313	 0.026471719063473 
1314	 2.59927028350078E-02 
1315	 2.58549069733813E-02 
1316	 2.54191307125147E-02 
1317	 2.45047595528561E-02 
1318	 2.44234966315678E-02 
1319	 2.48899611939761E-02 
1320	 2.47102650467907E-02 
1321	 2.45842322024098E-02 
1322	 2.54253954055243E-02 
1323	 2.50035719672492E-02 
1324	 2.32784799616169E-02 
1325	 2.28473385995042E-02 
1326	 2.35122463261449E-02 
1327	 2.36875516679415E-02 
1328	 2.42321763434432E-02 
1329	 2.46125741318122E-02 
1330	 2.51245916756935E-02 
1331	 2.58120624873806E-02 
1332	 2.53769276067268E-02 
1333	 2.52126623629171E-02 
1334	 2.55385194746049E-02 
1335	 2.52209456685121E-02 
1336	 2.49929245861595E-02 
1337	 2.33278560609644E-02 
1338	 1.94433260908798E-02 
1339	 1.80942909653214E-02 
1340	 1.68238119313898E-02 
1341	 1.60182035491526E-02 
1342	 1.75250074268401E-02 
1343	 1.92607135204781E-02 
1344	 2.17027545785247E-02 
1345	 2.29336702580943E-02 
1346	 2.65345918412663E-02 
1347	 2.85810895003733E-02 
1348	 2.43860379663576E-02 
1349	 2.28811676019691E-02 
1350	 2.23007728302159E-02 
1351	 2.31858960740218E-02 
1352	 3.52952129083809E-02 
1353	 3.71822177648655E-02 
1354	 2.96632982126041E-02 
1355	 8.5072893613506E-03 
1356	-3.03429232819198E-02 
1357	-4.57186294420034E-02 
1358	-7.38270821188389E-03 
1359	-7.20145500466202E-02 
1360	-0.161227975857863 
1361	-0.140819439521814 
1362	-0.158475251435147 
1363	-0.162735807035391 
1364	-8.22265414823189E-02 
1365	-0.100239585552348 
1366	-0.358908828888699 
1367	-0.285217867529803 
1368	-0.176870008802907 
1369	-4.76174634991272E-02 
1370	-0.108510804137969 
1371	-0.124642867681503 
1372	 3.63083442353615E-02 
1373	 0.170830400157988 
1374	 0.229938074792973 
1375	 0.492142722915118 
1376	 0.613512989728544 
1377	 0.633098673212423 
1378	 0.250359284800675 
1379	-3.63843116097277E-02 
1380	-6.90168745689264E-02 
1381	-0.484237891402634 
1382	-0.287271125591083 
1383	 1.05267746793324 
1384	 2.0194631188954 
1385	-7.48045800875702 
1386	-5.73719206779395 
1387	-5.01183261311261 
1388	-0.670632644863442 
1389	-19.2924503095601 
1390	-1.77418894154731 
1391	-0.601871541374553 
1392	-0.99460991772924 
1393	 0.538673259091938 
1394	 1.24779081655883 
1395	 1.6996879016887 
1396	-0.239769478809662 
1397	-0.170844164590279 
1398	 0.109760935123899 
1399	 0.673815880767749 
1400	 0.031029719031075 
1401	 0.274698790358917 
1402	 0.649651248718952 
1403	 1.07897526731614 
1404	 1.11104655775263 
1405	 1.0054502177823 
1406	 0.690007417638064 
1407	 0.733818595123297 
1408	 1.72753224183026 
1409	 0.322218118949259 
1410	-2.79958346752195E-02 
1411	 4.28628807898325E-03 
1412	 7.19348665564555E-02 
1413	 2.67243656266991E-03 
1414	-8.31457481464782E-02 
1415	-0.065189180957293 
1416	-0.140346030144263 
1417	-0.109162522385285 
1418	 7.99485018832178E-02 
1419	 0.10310203561974 
1420	 4.32242071723488E-02 
1421	 3.05579389630931E-02 
1422	 3.31524189980694E-02 
1423	 5.71164070351149E-03 
1424	-5.41022961077735E-02 
1425	-4.11733723835573E-02 
1426	 1.03510367775155E-02 
1427	 1.25568033483701E-02 
1428	 1.39104665713718E-02 
1429	 2.89643982481229E-02 
1430	 0.030485122019351 
1431	 2.17003143309472E-02 
1432	 2.35887742204651E-02 
1433	 3.41929469162294E-02 
1434	 3.07855721864118E-02 
1435	 2.21224681226337E-02 
1436	 2.49568648121964E-02 
1437	 3.80702189438565E-02 
1438	 2.86414725866922E-02 
1439	 1.18052110945833E-02 
1440	 9.09092136417383E-03 
1441	-3.27486741480453E-03 
1442	-1.5787743639116E-03 
1443	-6.69114367224407E-04 
1444	-1.41189367416962E-03 
1445	 1.46616721458809E-02 
1446	 1.03094592738642E-02 
1447	-2.66725595602073E-03 
1448	 1.15776138202777E-04 
1449	 4.64072368570788E-03 
1450	 5.80433685208178E-03 
1451	 9.99449120617905E-03 
1452	 1.29057580195596E-02 
1453	 8.5744703647077E-03 
1454	 6.83861746474714E-03 
1455	 5.04816296057626E-03 
1456	 5.14570315846126E-03 
1457	 4.15959243777028E-03 
1458	 5.00515505456977E-03 
1459	 1.00207164939986E-02 
1460	 9.53540657558273E-03 
1461	 5.97157383969624E-03 
1462	 4.83146079441668E-03 
1463	 2.63936020844899E-03 
1464	-3.10598021767512E-04 
1465	-5.05823906344187E-03 
1466	-3.57505156617208E-03 
1467	 1.89614245261961E-03 
1468	 2.63246556191095E-03 
1469	 6.29618144453747E-03 
1470	 9.90278545656378E-03 
1471	 9.29480516250999E-03 
1472	 8.31913175896751E-03 
1473	 9.75633585650892E-03 
1474	 1.03345375513977E-02 
1475	 7.89465546917729E-03 
1476	 6.07357751645404E-03 
1477	 5.16548456403342E-03 
1478	 6.09725007515216E-03 
1479	 7.51732773308003E-03 
1480	 6.03280150021483E-03 
1481	 3.38295616187752E-03 
1482	 4.64914165899596E-03 
1483	 6.63252341083544E-03 
1484	 6.29794405266681E-03 
1485	 8.01814182315617E-03 
1486	 8.66423989778734E-03 
1487	 6.42324220904027E-03 
1488	 5.67096508019913E-03 
1489	 5.79365030608664E-03 
1490	 6.32011602341116E-03 
1491	 7.19989194100927E-03 
1492	 7.05739427007788E-03 
1493	 6.77101456396155E-03 
1494	 7.37545173579615E-03 
1495	 7.77743836174544E-03 
1496	 7.79816629316191E-03 
1497	 8.80483104462873E-03 
1498	 8.96876411911577E-03 
1499	 7.51323205349639E-03 
1500	 7.41647915300951E-03 
1501	 8.57914471725735E-03 
1502	 8.56078182061967E-03 
1503	 7.75741163188361E-03 
1504	 7.90107425985261E-03 
1505	 8.17992228376272E-03 
1506	 8.32669432587155E-03 
1507	 7.94058820902009E-03 
1508	 8.34215135896246E-03 
1509	 8.28403973501272E-03 
1510	 7.81888469864433E-03 
1511	 8.79820369166623E-03 
1512	 9.00981651344031E-03 
1513	 7.74043881361833E-03 
1514	 7.50291330789427E-03 
1515	 7.25820544588306E-03 
1516	 6.85502605435682E-03 
1517	 7.91793897646211E-03 
1518	 8.2517544609958E-03 
1519	 7.58180676585219E-03 
1520	 7.69936151207848E-03 
1521	 7.82163120829091E-03 
1522	 7.89855395183128E-03 
1523	 8.79655788403705E-03 
1524	 9.49370261727979E-03 
1525	 9.32661090076856E-03 
1526	 9.19314182737496E-03 
1527	 9.01212642521476E-03 
1528	 8.75087588444603E-03 
1529	 9.21967623160021E-03 
1530	 9.69065517290533E-03 
1531	 9.02568647346652E-03 
1532	 8.89078116070754E-03 
1533	 9.88691524440311E-03 
1534	 9.86710263030847E-03 
1535	 9.6138912505209E-03 
1536	 1.02131071822913E-02 
1537	 9.81179901896771E-03 
1538	 9.30470883526656E-03 
1539	 1.01782818630478E-02 
1540	 1.06556243692007E-02 
1541	 1.05218073802012E-02 
1542	 1.06875726350362E-02 
1543	 0.010681247237227 
1544	 1.03571640266957E-02 
1545	 0.010112000741495 
1546	 9.90583253651454E-03 
1547	 1.00136077264095E-02 
1548	 1.03143496068435E-02 
1549	 1.05662482776659E-02 
1550	 1.12812638148594E-02 
1551	 1.14800574616063E-02 
1552	 1.10893864803024E-02 
1553	 1.10897653741592E-02 
1554	 1.09047848653907E-02 
1555	 1.05626199525577E-02 
1556	 1.05187263112615E-02 
1557	 1.07476722917263E-02 
1558	 1.08824920313841E-02 
1559	 1.08139612021833E-02 
1560	 1.13686044174129E-02 
1561	 0.012119879380463 
1562	 0.012150726403158 
1563	 1.22429649348979E-02 
1564	 1.25523108708291E-02 
1565	 1.23459223013386E-02 
1566	 1.22094430110983E-02 
1567	 1.27393755313879E-02 
1568	 1.25731111696743E-02 
1569	 1.15558772989768E-02 
1570	 1.16997191198588E-02 
1571	 1.23654422402029E-02 
1572	 1.21191511472552E-02 
1573	 1.21130442055284E-02 
1574	 1.24739186753561E-02 
1575	 1.22019391519206E-02 
1576	 1.21781991243908E-02 
1577	 1.27892784167462E-02 
1578	 1.30239970109431E-02 
1579	 1.29631454459368E-02 
1580	 1.29942267768172E-02 
1581	 1.33755878010427E-02 
1582	 1.39652378854701E-02 
1583	 1.38764139897463E-02 
1584	 1.33993300504689E-02 
1585	 1.32297490578953E-02 
1586	 1.33926395750405E-02 
1587	 0.01368635661851 
1588	 1.36278359962914E-02 
1589	 1.33513305598105E-02 
1590	 1.32619501213711E-02 
1591	 1.32130677525281E-02 
1592	 1.35710589095802E-02 
1593	 1.41696934944432E-02 
1594	 1.39120271029956E-02 
1595	 1.35696354466005E-02 
1596	 1.40012800417483E-02 
1597	 1.42249794095893E-02 
1598	 1.42119548692194E-02 
1599	 1.43925990147482E-02 
1600	 1.42607798451618E-02 
1601	 0.014070354966671 
1602	 1.38439653480697E-02 
1603	 1.33320394459443E-02 
1604	 1.35279210219364E-02 
1605	 1.38243887950491E-02 
1606	 1.37623272285476E-02 
1607	 1.45439915505909E-02 
1608	 1.48514935383695E-02 
1609	 1.45545644336089E-02 
1610	 1.48425851084953E-02 
1611	 1.49188305413734E-02 
1612	 1.48536420613037E-02 
1613	 1.46102083726289E-02 
1614	 1.41944859489584E-02 
1615	 1.43882609900613E-02 
1616	 1.47412897087646E-02 
1617	 1.47316632250422E-02 
1618	 1.49880684147248E-02 
1619	 0.014838914531631 
1620	 1.41495103357331E-02 
1621	 1.45635372356642E-02 
1622	 1.52984519259693E-02 
1623	 1.52919750586788E-02 
1624	 1.52715520269279E-02 
1625	 1.52708712818101E-02 
1626	 1.50409618978041E-02 
1627	 1.46604430437306E-02 
1628	 1.45296275343126E-02 
1629	 1.48641342183298E-02 
1630	 0.014978856548349 
1631	 1.50634951295783E-02 
1632	 1.53752908874723E-02 
1633	 1.48365166457831E-02 
1634	 1.41788538203797E-02 
1635	 1.46256550073766E-02 
1636	 1.50461354249815E-02 
1637	 1.54978627669408E-02 
1638	 1.60341762564601E-02 
1639	 1.60392896818555E-02 
1640	 1.58904117400497E-02 
1641	 1.53459026589434E-02 
1642	 1.51614844092747E-02 
1643	 0.015156282442745 
1644	 1.51415823015823E-02 
1645	 1.55650914632831E-02 
1646	 1.52123909068449E-02 
1647	 0.015173251748969 
1648	 1.57375487705655E-02 
1649	 1.50468753311288E-02 
1650	 1.49870007513454E-02 
1651	 1.57398932337231E-02 
1652	 1.52301419326083E-02 
1653	 1.55119246359858E-02 
1654	 1.54742812979597E-02 
1655	 1.45923790478856E-02 
1656	 1.45376167144843E-02 
1657	 0.015173716108162 
1658	 1.51169166140069E-02 
1659	 1.47285590675334E-02 
1660	 1.45274723389738E-02 
1661	 1.42754336906221E-02 
1662	 1.43405077745432E-02 
1663	 1.46791842877067E-02 
1664	 1.49743660561823E-02 
1665	 1.51430878508295E-02 
1666	 1.52374259176868E-02 
1667	 1.54561404092732E-02 
1668	 1.53076677534573E-02 
1669	 1.55530635870458E-02 
1670	 0.015917937873918 
1671	 1.59158967695909E-02 
1672	 0.015681427441107 
1673	 1.54879539113165E-02 
1674	 0.015311166927128 
1675	 1.57932026600776E-02 
1676	 1.61258010241028E-02 
1677	 1.57634863768721E-02 
1678	 1.59030240319875E-02 
1679	 1.65284271357157E-02 
1680	 1.66175003073352E-02 
1681	 1.60477115122386E-02 
1682	 1.57283384685573E-02 
1683	 1.57354930767762E-02 
1684	 1.57323488236231E-02 
1685	 1.61168128919715E-02 
1686	 1.63242781904415E-02 
1687	 1.55949517457282E-02 
1688	 1.49404307735956E-02 
1689	 1.59156969769064E-02 
1690	 1.68158036655259E-02 
1691	 1.54363608373448E-02 
1692	 0.014760886443553 
1693	 1.52713310476969E-02 
1694	 1.45194227522201E-02 
1695	 0.014875694129468 
1696	 1.59257512589791E-02 
1697	 1.48980016491194E-02 
1698	 0.014382869335224 
1699	 1.55257116090911E-02 
1700	 1.57096004588365E-02 
1701	 1.52219883723138E-02 
1702	 1.53580621714261E-02 
1703	 1.50392113379266E-02 
1704	 1.47298238746283E-02 
1705	 1.52573852693217E-02 
1706	 1.57629422038551E-02 
1707	 1.60380768227356E-02 
1708	 1.57545476098133E-02 
1709	 1.51742579602382E-02 
1710	 1.46160540408252E-02 
1711	 1.43983776009133E-02 
1712	 1.50538264879728E-02 
1713	 1.56675518128478E-02 
1714	 1.59960972953028E-02 
1715	 1.50376734228923E-02 
1716	 1.50818962574704E-02 
1717	 1.59988253073056E-02 
1718	 1.53549757088806E-02 
1719	 1.45289029540319E-02 
1720	 1.51714520403167E-02 
1721	 1.52552435753568E-02 
1722	 1.47907113812714E-02 
1723	 1.52416721439901E-02 
1724	 1.52109602051225E-02 
1725	 1.40279007433086E-02 
1726	 1.46255666827905E-02 
1727	 1.62487200634401E-02 
1728	 1.51670146971037E-02 
1729	 1.42595231423428E-02 
1730	 1.47903137302954E-02 
1731	 1.36579584799109E-02 
1732	 1.32549589410662E-02 
1733	 1.50545575309372E-02 
1734	 1.52437235749234E-02 
1735	 1.41052977653909E-02 
1736	 1.47430031818641E-02 
1737	 1.51511054388462E-02 
1738	 1.41275964037977E-02 
1739	 1.41262718480931E-02 
1740	 1.40072960134815E-02 
1741	 0.012906393644467 
1742	 1.39926525504622E-02 
1743	 1.53152666031761E-02 
1744	 0.014613291285917 
1745	 0.014565324752505 
1746	 1.31269407835677E-02 
1747	 1.24695964258742E-02 
1748	 1.35172699024959E-02 
1749	 0.013808913306316 
1750	 1.31635725280489E-02 
1751	 0.01330931975998 
1752	 1.32188466907347E-02 
1753	 1.34950971468799E-02 
1754	 1.59434728707178E-02 
1755	 1.64311387801783E-02 
1756	 1.56589115181528E-02 
1757	 1.50157896135779E-02 
1758	 1.23855126953113E-02 
1759	 1.04590174942128E-02 
1760	 0.012770260029981 
1761	 1.39062899857622E-02 
1762	 1.32960150272275E-02 
1763	 1.41609945474756E-02 
1764	 1.28036872049547E-02 
1765	 9.63538788811376E-03 
1766	 1.00578034468552E-02 
1767	 1.23143762728563E-02 
1768	 1.24804272382512E-02 
1769	 1.34971548865089E-02 
1770	 1.43621196244067E-02 
1771	 1.18573526602816E-02 
1772	 1.13841648441617E-02 
1773	 1.23519145806783E-02 
1774	 1.21420266788199E-02 
1775	 1.06303049868943E-02 
1776	 9.67007802730037E-03 
1777	 8.35048060482605E-03 
1778	 8.66738042764786E-03 
1779	 1.25625655281221E-02 
1780	 1.25252817289171E-02 
1781	 9.01756999887621E-03 
1782	 9.05962211558614E-03 
1783	 7.52074571337952E-03 
1784	 8.84693808324488E-03 
1785	 1.90372203486679E-02 
1786	 1.98732882539577E-02 
1787	 1.39616981317457E-02 
1788	 1.20575574815042E-02 
1789	 5.85527649672409E-03 
1790	 6.81421114036907E-03 
1791	 1.01663663083554E-02 
1792	 1.22201220633193E-02 
1793	 1.19552378447193E-02 
1794	 1.05252388342411E-02 
1795	 1.04337772548094E-02 
1796	 6.04882540160469E-03 
1797	 8.26676031973369E-03 
1798	 2.30759594791073E-02 
1799	 2.06437165760901E-02 
1800	-1.15879934796532E-02 
1801	-0.022730251446354 
1802	-3.41033099052241E-02 
1803	-5.49084749540429E-02 
1804	-4.64421002437842E-02 
1805	-4.21035190421644E-02 
1806	-6.99249119998675E-02 
1807	-8.50260479308283E-02 
1808	-3.57147463002579E-02 
1809	-8.64866708521768E-03 
1810	-5.01650391346669E-02 
1811	-4.16181833254058E-02 
1812	 0.062055345441118 
1813	 5.26515083588964E-02 
1814	-7.20284818341506E-02 
1815	-0.199446774580628 
1816	-0.43497995434668 
1817	-0.468979498323777 
1818	-0.433426889238325 
1819	 0.767865962617615 
1820	 0.645855265968591 
1821	 0.212012018385867 
1822	 1.20340823732949E-02 
1823	-0.740249374033586 
1824	-1.12428312913667 
1825	-1.11025288100322E-02 
1826	 0.300484153870185 
1827	 5.47541279066956 
1828	 5.63660267976957 
1829	 3.10014949402126E-02 
1830	-0.109737884863856 
1831	-1.20998065433261 
1832	-1.50407976185879 
1833	-5.40262252087908 
1834	-14.6865642577298 
1835	 7.63009543551654 
1836	-79.9166640217689 
1837	-0.889572600109519 
1838	-0.670237174386069 
1839	-0.365222295335779 
1840	-0.648713464601352 
1841	-1.82949956669678 
1842	-2.02634761256204 
1843	-2.08802969813013 
1844	-0.952089228050551 
1845	-0.881782009140045 
1846	-1.26827957493998 
1847	-1.3042150458443 
1848	-1.29636372599336 
1849	-1.10784969863339 
1850	-0.678656356962391 
1851	 0.11390360649169 
1852	-3.96012159489043 
1853	-0.480664250290592 
1854	-0.247270812070639 
1855	 0.566322804693252 
1856	 0.619974591560246 
1857	 1.19867034699758 
1858	 1.5006186138224 
1859	-0.129200703499518 
1860	-1.26667221206173 
1861	-1.43240142358602 
1862	-3.16082497149998 
1863	 0.243484771863 
1864	-0.696927865480075 
1865	-1.56779515930391 
1866	-8.52387988836649 
1867	-10.364510824788 
1868	-1.10492497906186 
1869	-24.1605169117146 
1870	 0.658928912162523 
1871	 0.676941306420176 
1872	 0.957051447163564 
1873	 1.22914723374401 
1874	-5.44929521082932 
1875	-2.0223084898426 
1876	-2.47713398927024 
1877	-20.6128603781161 
1878	 3.15268386684276 
1879	 2.35764414911526 
1880	 2.0301585970133 
1881	 0.87739127845146 
1882	 0.130141129930889 
1883	 1.10945161181461 
1884	 0.768845026348622 
1885	 0.466672785854474 
1886	 0.449170945491508 
1887	-56.6474528265645 
1888	-2.26046631938714 
1889	 0.257904786642136 
1890	 1.30580258051076 
1891	 2.22210976367079 
1892	-7.57167794178198 
1893	-15.5778736953872 
1894	 1.56663949347019 
1895	 2.802503108774 
1896	-52.1665917299725 
1897	-4.08189653605835 
1898	-27.4139452056448 
1899	 9.75322744868698 
1900	 17.3663608745316 
1901	-1.26896599529695 
1902	-8.84530686346014 
1903	 3.30513439425338 
1904	 1.36856512658356 
1905	 0.957214289878699 
1906	 1.12882396376062 
1907	 1.0943331277027 
1908	 0.906717713891446 
1909	 1.1033175535041 
1910	 1.18318962980566 
1911	 2.51413748684016 
1912	 5.5886122125193 
1913	 9.29870892269773 
1914	-6.72074076517241 
1915	-4.45235054630935 
1916	-7.01325752913004 
1917	 4.43576802439603 
1918	 3.38243768554702 
1919	 0.360566955882446 
1920	-34.4679575073299 
1921	 12.6347519087272 
1922	-11.4659679937543 
1923	 0.655529618399095 
1924	-5.90974981794033 
1925	-2.58430650243311 
1926	-2.75087598998466 
1927	-1.52002047569613 
1928	-9.86459153980112E-02 
1929	-1.50239685124809 
1930	-1.09470898982799 
1931	-1.80793286321995 
1932	-4.56716564585162 
1933	 9.04114400654573 
1934	-0.803234212756152 
1935	-0.384099336735598 
1936	-0.315478523715782 
1937	-0.128731034601488 
1938	-0.184665461778967 
1939	-0.210153987376825 
1940	-0.128767876784642 
1941	-7.34710893400214E-02 
1942	-0.217812493719355 
1943	-0.183970876304177 
1944	-1.79880291687309E-02 
1945	 0.101150756496519 
1946	 0.12989796648922 
1947	 0.161649753000156 
1948	 0.192583374478962 
1949	 0.175271514192083 
1950	 0.188738660090973 
1951	 0.142727753968233 
1952	 0.11763748541211 
1953	 5.67940347974332E-02 
1954	 2.25750979722862E-02 
1955	 2.45491935912327E-02 
1956	 0.085354332241029 
1957	 6.65572249191897E-02 
1958	 1.90739654729593E-02 
1959	 4.28566494625037E-02 
1960	 2.64265214497676E-02 
1961	 4.69409369791207E-03 
1962	 2.91247678587684E-02 
1963	 2.38756028008169E-02 
1964	 9.8676692524657E-03 
1965	 1.67672683612122E-02 
1966	 1.72122543209701E-02 
1967	 1.37068405941514E-02 
1968	 1.18591398955291E-02 
1969	 1.36111402633854E-02 
1970	 9.26226929964586E-03 
1971	 9.42293741595766E-03 
1972	 1.17027858805512E-02 
1973	 7.5371583817599E-03 
1974	 5.93377292318262E-03 
1975	 5.15741590664153E-03 
1976	-9.29566431210601E-05 
1977	-1.43893837337295E-03 
1978	-1.13443850670101E-03 
1979	-4.94426463957502E-04 
1980	-9.85968088231777E-04 
1981	 1.78018119369356E-03 
1982	 4.89771771101263E-03 
1983	 5.50497500422277E-03 
1984	 4.37127600791432E-03 
1985	 2.3745612019122E-03 
1986	-3.09984466275668E-04 
1987	-4.51239149935159E-04 
1988	 9.48887890070199E-04 
1989	-1.98004761715035E-04 
1990	-8.64018617113051E-04 
1991	-3.18479849705816E-04 
1992	 6.31179836129932E-04 
1993	 3.7712469460017E-03 
1994	 4.28036802981256E-03 
1995	 4.9055997681754E-03 
1996	 1.82612917593528E-03 
1997	-3.25486086668458E-03 
1998	-7.27497433102125E-03 
1999	-0.00912525577103 
2000	-1.05145508815059E-02 
2001	-6.26477722228642E-03 
2002	-6.86103794509142E-03 
2003	-1.00484325077002E-02 
2004	-2.08612200894835E-03 
2005	-4.05922268780037E-03 
2006	-1.54854046170239E-02 
2007	-2.03385586148596E-02 
2008	-2.24890056704993E-02 
2009	-1.84852740753653E-02 
2010	-4.68997100941111E-04 
2011	 6.86577329631346E-03 
2012	 1.44999650013671E-02 
2013	 1.79265546869595E-02 
2014	 7.53564362785735E-03 
2015	 1.66820996359954E-03 
2016	 1.09521856392785E-02 
2017	 1.13873618143736E-02 
2018	 1.65536308731917E-02 
2019	 2.32580559446457E-02 
2020	 1.60990877611312E-02 
2021	 9.73749295102838E-03 
2022	 7.41041011265934E-03 
2023	 2.99571798827082E-03 
2024	 1.16621383887625E-03 
2025	 9.98987464474837E-04 
2026	 2.20168021150253E-03 
2027	 4.3733118737629E-03 
2028	 7.12874078289649E-03 
2029	 6.10196944680859E-03 
2030	 4.07029446089687E-03 
2031	 2.2279959823782E-03 
2032	 2.13769575395136E-03 
2033	 4.27812320119669E-03 
2034	 5.28524610744845E-03 
2035	 5.1749463966795E-03 
2036	 2.51541565005703E-03 
2037	 2.51979087113507E-03 
2038	 4.55093931945691E-03 
2039	 4.73160354609913E-03 
2040	 5.94724835549018E-03 
2041	 5.8741786661784E-03 
2042	 2.03751544267172E-03 
2043	 1.04536030501558E-03 
2044	 1.4468195575538E-03 
2045	 2.44380850668406E-03 
2046	 1.92613487693188E-03 
2047	 3.6022980675526E-03 
2048	 7.44870914409922E-03 
2049	 7.25474468457004E-03 
2050	 4.33573322026846E-03 
2051	 3.80807012135865E-03 
2052	 7.77212195669606E-04 
2053	-3.67541969201708E-03 
2054	-1.77364471903189E-04 
2055	 3.14533237421402E-03 
2056	 5.19002592261625E-03 
2057	 9.54637238787842E-03 
2058	 1.05519788239521E-02 
2059	 7.24303580847288E-03 
2060	 6.95927778692638E-03 
2061	 5.85365695712666E-03 
2062	 7.18767985806806E-03 
2063	 8.94803932234271E-03 
2064	 9.24883989259212E-03 
2065	 1.25020018562477E-02 
2066	 9.74648667811512E-03 
2067	 7.37160347132328E-03 
2068	 7.45899619134019E-03 
2069	 5.69088238685873E-03 
2070	 6.56040959759438E-03 
2071	 6.07440084481498E-03 
2072	 5.7730062786751E-03 
2073	 6.42033760100961E-03 
2074	 7.81819061243795E-03 
2075	 7.56475112762544E-03 
2076	 6.60418777522318E-03 
2077	 7.06877654285374E-03 
2078	 6.67532901385372E-03 
2079	 6.49912919232238E-03 
2080	 7.76298835366664E-03 
2081	 9.49359962771955E-03 
2082	 8.33226454879432E-03 
2083	 8.09926690670974E-03 
2084	 8.09649501230439E-03 
2085	 7.03402349138445E-03 
2086	 5.73254530059287E-03 
2087	 5.68454074143234E-03 
2088	 5.62652909197415E-03 
2089	 0.005512216738031 
2090	 8.29389498706863E-03 
2091	 9.43685445130895E-03 
2092	 9.46308738765473E-03 
2093	 9.09389391363746E-03 
2094	 8.63003330488575E-03 
2095	 5.9630632625085E-03 
2096	 5.3203108223763E-03 
2097	 6.52514219192022E-03 
2098	 6.15761471888775E-03 
2099	 5.56602597225525E-03 
2100	 3.97721095329693E-03 
2101	 5.09095146592081E-03 
2102	 6.08672183178129E-03 
2103	 7.11810820424314E-03 
2104	 9.38064302213658E-03 
2105	 9.79010046531196E-03 
2106	 8.14387337611988E-03 
2107	 7.82335371699591E-03 
2108	 9.52645267898046E-03 
2109	 1.02249804541153E-02 
2110	 1.08044947998482E-02 
2111	 1.28730424630796E-02 
2112	 1.30034596855242E-02 
2113	 1.17753775665473E-02 
2114	 8.98234091404315E-03 
2115	 7.87701677206437E-03 
2116	 4.82331538585637E-03 
2117	 4.17437908989433E-03 
2118	 6.81065152501291E-03 
2119	 6.38589418695154E-03 
2120	 4.65189967138168E-03 
2121	 4.27612310979121E-03 
2122	 2.35932259001577E-03 
2123	 2.49586331374541E-03 
2124	 4.73417001431058E-03 
2125	 5.34144947403825E-03 
2126	 3.96044775538359E-03 
2127	 1.85850400056327E-03 
2128	 4.62499727457709E-04 
2129	 4.01095282037059E-04 
2130	 1.44400472995539E-03 
2131	 4.07819328431861E-03 
2132	 6.91520664468045E-03 
2133	 7.82112398298689E-03 
2134	 8.5305824709753E-03 
2135	 1.03695280048433E-02 
2136	 9.60054576256864E-03 
2137	 4.91872915038709E-03 
2138	 4.51885715825443E-03 
2139	 0.005581030509083 
2140	 4.90905736032837E-03 
2141	 5.32952132058738E-03 
2142	 5.33364430606563E-03 
2143	 4.12360484967176E-03 
2144	 2.57503217237944E-03 
2145	 1.20764628916509E-03 
2146	 1.87269507813133E-03 
2147	 8.41148642560304E-05 
2148	-3.99735819354675E-04 
2149	 1.53875035451958E-03 
2150	 2.30117366795891E-03 
2151	 0.00189222519379 
2152	 2.00708755229813E-03 
2153	 3.13635713481252E-03 
2154	 2.14894797148652E-03 
2155	 1.52061713822202E-03 
2156	 1.97364405433774E-03 
2157	 2.30227589499107E-03 
2158	 1.98794791626685E-03 
2159	 2.75702281943136E-03 
2160	 4.35209792870784E-03 
2161	 5.47818730384925E-03 
2162	 6.4433072982202E-03 
2163	 7.60903846378511E-03 
2164	 1.03848827241732E-02 
2165	 1.07728634838782E-02 
2166	 1.02809096143602E-02 
2167	 9.3632698448397E-03 
2168	 6.15085767316816E-03 
2169	 3.85181253404965E-03 
2170	 1.41918359872718E-03 
2171	-1.65403016830237E-03 
2172	-3.75677889603921E-04 
2173	 3.20335205150748E-03 
2174	 0.004969664500188 
2175	 5.21171754695079E-03 
2176	 3.76903050805601E-03 
2177	 0.002731834871435 
2178	 5.3971735926951E-03 
2179	 9.18295353210492E-03 
2180	 9.61063533251027E-03 
2181	 8.53261233293226E-03 
2182	 6.6135785937679E-03 
2183	 4.07840811493307E-03 
2184	 3.32448697867504E-03 
2185	 3.43700341031432E-03 
2186	 4.37908178082329E-03 
2187	 7.7193088870325E-03 
2188	 8.45921560050331E-03 
2189	 8.49414759834915E-03 
2190	 9.01783616915337E-03 
2191	 8.19403154959449E-03 
2192	 7.40964693225577E-03 
2193	 6.36747916176679E-03 
2194	 6.52264256162933E-03 
2195	 6.82414903290795E-03 
2196	 6.89621209944902E-03 
2197	 9.91147564846518E-03 
2198	 1.11501726708701E-02 
2199	 9.71840867488229E-03 
2200	 9.64967088608005E-03 
2201	 1.21945630695173E-02 
2202	 1.11167495393928E-02 
2203	 1.11131136402742E-02 
2204	 1.10129889341315E-02 
2205	 9.54993819033176E-03 
2206	 1.12751858167635E-02 
2207	 1.07129841676719E-02 
2208	 9.03448463397684E-03 
2209	 9.2172536591391E-03 
2210	 0.010159749582809 
2211	 0.01254100394132 
2212	 9.62135485966683E-03 
2213	 4.75881223167094E-03 
2214	 2.52174550827091E-03 
2215	 1.24052570319877E-03 
2216	 5.13471080642557E-03 
2217	 7.60384328765749E-03 
2218	 1.28028347912435E-02 
2219	 1.28192355152803E-02 
2220	 9.22846370123066E-03 
2221	 8.55249960584848E-03 
2222	 8.36855583534059E-03 
2223	 8.66482242250701E-03 
2224	 1.05227807814727E-02 
2225	 9.93826236783201E-03 
2226	 5.07008759259251E-03 
2227	 3.46601107857121E-03 
2228	 5.88749403261569E-03 
2229	 5.70913057310936E-03 
2230	 4.49885429054922E-03 
2231	 5.12828882202354E-03 
2232	 4.18370173788933E-03 
2233	 3.62517441238293E-03 
2234	 4.82642353943694E-03 
2235	 8.13490446995338E-03 
2236	 8.46063033470048E-03 
2237	 4.64503337799134E-03 
2238	 2.51898377924618E-04 
2239	-1.66336688783081E-06 
2240	 3.10411730663063E-03 
2241	 4.04259646478832E-03 
2242	 4.23878184918261E-03 
2243	 8.60015595856212E-03 
2244	 0.011526068238659 
2245	 0.010678304939241 
2246	 1.37889363438638E-02 
2247	 1.55388098406335E-02 
2248	 1.27403350289595E-02 
2249	 1.51285056080939E-02 
2250	 0.019151825026474 
2251	 2.11299488356637E-02 
2252	 2.18414587916695E-02 
2253	 1.69072165462184E-02 
2254	 1.21832538721809E-02 
2255	 9.26550436544185E-03 
2256	 4.9373232523065E-03 
2257	 5.5722011894597E-03 
2258	 5.96179959910608E-03 
2259	 2.89155390888553E-03 
2260	 3.8958936287688E-03 
2261	 8.27668078073841E-03 
2262	 1.13653431021167E-02 
2263	 1.76104980421561E-02 
2264	 1.81321857571726E-02 
2265	 1.38223103349486E-02 
2266	 1.29622988042481E-02 
2267	 1.13664667075979E-02 
2268	 1.15738529071796E-02 
2269	 1.62638798279833E-02 
2270	 1.38638085047824E-02 
2271	 4.52314504874541E-03 
2272	 1.56608435883402E-03 
2273	-1.0865043908046E-03 
2274	-1.48600853148217E-04 
2275	 7.86142068558506E-03 
2276	 1.02048146865489E-02 
2277	 0.01008385209038 
2278	 9.31306423614038E-03 
2279	 8.67226423859895E-03 
2280	 7.44131153760474E-03 
2281	 2.78497197969366E-03 
2282	 2.10755511032375E-03 
2283	 6.86712931594233E-03 
2284	 6.14287785330284E-03 
2285	 6.5947371674617E-03 
2286	 2.6969220661283E-03 
2287	-5.35749966462066E-03 
2288	-9.88351605016824E-03 
2289	-5.62387353501366E-03 
2290	-1.76235949742594E-03 
2291	 2.31785646171657E-04 
2292	 2.38249917635011E-03 
2293	-3.25793572294181E-03 
2294	-7.72557609439107E-03 
2295	-1.02373274398942E-02 
2296	-9.93807600974573E-03 
2297	-1.17718647570262E-03 
2298	 9.19498058450478E-03 
2299	 1.02433922798721E-02 
2300	 5.67195489285831E-03 
2301	 4.57911481258587E-03 
2302	 5.18560240743196E-03 
2303	 0.014976400669957 
2304	 2.11031509960898E-02 
2305	 1.23026557903172E-02 
2306	 8.30016830161835E-03 
2307	 9.83386920223196E-03 
2308	 9.71618811209354E-03 
2309	 1.12899900847791E-02 
2310	 1.73410417919094E-02 
2311	 0.018856586116877 
2312	 1.86577853302778E-02 
2313	 2.10396145292453E-02 
2314	 1.09498696459622E-02 
2315	 2.92718092848047E-03 
2316	 6.85625435021874E-03 
2317	 1.14694734907081E-02 
2318	 1.60265550264501E-02 
2319	 1.38569103275061E-02 
2320	 5.35173166152808E-04 
2321	 3.41387123572649E-04 
2322	 8.16685460798591E-03 
2323	 4.61455067962896E-03 
2324	 6.62075189316268E-03 
2325	 6.82419229374481E-03 
2326	 1.94202779665334E-03 
2327	 8.85632193014593E-03 
2328	 1.59923771320403E-02 
2329	 1.18170413607337E-02 
2330	 6.13275803330961E-03 
2331	 3.24773972292839E-03 
2332	 4.17271149210943E-03 
2333	 1.80170650619643E-03 
2334	-5.19006784085075E-03 
2335	-1.25327651292758E-02 
2336	-2.81880532812133E-02 
2337	-3.50574156974892E-02 
2338	-2.60095780163934E-02 
2339	-9.5440122837169E-03 
2340	 4.98347043069974E-03 
2341	 8.73524742389528E-03 
2342	 0.012708501988781 
2343	 7.6724549457919E-03 
2344	-5.17581731740329E-04 
2345	 6.25966201095728E-03 
2346	 1.95868831192846E-02 
2347	 2.01753887018038E-02 
2348	 2.08951492185112E-02 
2349	 4.60726650926808E-02 
2350	 5.34682513276553E-02 
2351	 5.02915536636993E-02 
2352	 5.65983419074396E-02 
2353	 2.77959693353838E-02 
2354	-8.3060739771707E-03 
2355	-0.039848884028627 
2356	-4.65209824984422E-02 
2357	-1.28696028964018E-02 
2358	 1.27712110326247E-03 
2359	 0.0179998555506 
2360	 2.91597583634871E-02 
2361	-6.48909014749945E-03 
2362	-3.55804224805845E-02 
2363	-2.95001215154124E-02 
2364	-2.93052436715608E-02 
2365	-2.49841128698466E-02 
2366	-5.68128855952504E-04 
2367	-9.57403876212332E-03 
2368	-3.45534556099362E-02 
2369	-5.65516149474376E-02 
2370	-0.077373924119625 
2371	-8.04103364123446E-02 
2372	-5.92492094809347E-02 
2373	-4.26683116010206E-02 
2374	-6.78516927929596E-02 
2375	-0.10525265702483 
2376	-0.148208541100679 
2377	-0.177252364293612 
2378	-0.128610375401649 
2379	-6.58728804629847E-02 
2380	-3.41999661916384E-02 
2381	-1.63203200895599E-02 
2382	-6.54186535406984E-02 
2383	-0.109348628237306 
2384	-0.142022273381234 
2385	-0.126744834867394 
2386	-5.31291314309488E-03 
2387	 5.49572693958254E-03 
2388	 4.00299619994962E-02 
2389	 8.37501926832259E-02 
2390	-2.85427105755749E-02 
2391	-3.15210940094131E-02 
2392	-4.61781422120012E-02 
2393	-0.146069844955868 
2394	-5.15138261759477E-02 
2395	 4.34024381751249E-02 
2396	-2.86947312661921E-03 
2397	-8.72584339601022E-02 
2398	-0.184309771226936 
2399	-0.223144645082029 
2400	-0.177006069729717 
2401	-6.51667722564587E-02 
2402	 2.48012585353309E-02 
2403	 2.04120222448017E-03 
2404	-2.40721854101075E-02 
2405	-9.59498522900103E-03 
2406	 7.61740801843533E-02 
2407	 0.162032237570864 
2408	 0.148780090980775 
2409	 0.184812860183209 
2410	 0.177022799279459 
2411	-2.80092651890235E-02 
2412	-6.23155148503062E-02 
2413	-0.123071028028354 
2414	-0.217047458429801 
2415	-5.88289937761968E-02 
2416	-0.126019379889191 
2417	-0.225016828997002 
2418	-0.275623086680985 
2419	-0.396176424682642 
2420	-0.294011678534721 
2421	-0.224487615675663 
2422	-0.188899701599703 
2423	-0.104229529580705 
2424	-0.148936040646534 
2425	-0.110502072910332 
2426	 1.48382400523771E-02 
2427	-5.07698582513566E-02 
2428	-0.101025960259005 
2429	-0.162694163922955 
2430	-0.47722323413069 
2431	-0.482017831142139 
2432	-0.6179975828917 
2433	-0.562863618930611 
2434	-0.465955554676263 
2435	-0.754365660075824 
2436	-0.779333060269613 
2437	-0.596226451159096 
2438	-0.713317838600018 
2439	-0.232298143319259 
2440	 6.07202254792097E-02 
2441	 0.228914201846634 
2442	 0.506325597269614 
2443	 9.99402636678572E-02 
2444	-0.327770762992054 
2445	-0.770095138973992 
2446	-1.40211251944983 
2447	-2.56025760455826 
2448	-1.33477810266834 
2449	 0.229959999418705 
2450	 7.18546553641447E-02 
2451	 7.84603995530629E-02 
2452	-0.811466238226598 
2453	-1.96946975144265 
2454	-0.559513354088277 
2455	-0.044491090174735 
2456	 0.38493608382603 
2457	 0.766752230073585 
2458	 0.820718234096186 
2459	 0.995316841505072 
2460	 1.43532156783066 
2461	 0.428294322259494 
2462	 4.96091688269317 
2463	 2.44863918376473 
2464	-0.72130459572504 
2465	 0.380547072951356 
2466	 2.10750287036628 
2467	 1.42100477248645 
2468	 1.30482366485573 
2469	 1.88006005743401 
2470	 0.489401351248077 
2471	 0.166063431432034 
2472	-3.50020974092605E-03 
2473	-0.064778460501849 
2474	-0.188762252694258 
2475	-0.623307964693117 
2476	 0.127502568305635 
2477	 0.945809831618767 
2478	 0.503117763460438 
2479	 1.706672979211 
2480	 24.709303512681 
2481	-4.55592649718348 
2482	-1.13818086490224 
2483	-0.827972080829026 
2484	-0.471142448666583 
2485	-0.417836562853706 
2486	-0.568975895287774 
2487	-0.162401791616907 
2488	-0.19600960374278 
2489	-0.235350298395553 
2490	 8.50546060378207E-02 
2491	 0.283720058634977 
2492	 0.202255289795994 
2493	 2.71911923680748E-02 
2494	-0.205687430720533 
2495	-0.390910307491719 
2496	-0.140163001344477 
2497	 0.536573228553244 
2498	 13.1233769669918 
2499	 1.04310971191189 
2500	 0.507915315601436 
