Wavelength	rt062200003.asd
350	 2.37602400274259E-02 
351	 2.30604011956007E-02 
352	 2.30417600728959E-02 
353	 2.36631607227446E-02 
354	 2.43832410713213E-02 
355	 2.42513900107511E-02 
356	 2.47296246017397E-02 
357	 2.49602219992923E-02 
358	 2.41228740474795E-02 
359	 0.024791821417497 
360	 2.49448489018054E-02 
361	 2.47046434543709E-02 
362	 2.55384750185772E-02 
363	 2.57833030570421E-02 
364	 2.56680472342824E-02 
365	 2.55726808957945E-02 
366	 2.57213331658062E-02 
367	 0.026011493206133 
368	 2.62120615304369E-02 
369	 2.61655352911523E-02 
370	 2.60321631444715E-02 
371	 2.63306402346215E-02 
372	 2.70172128688079E-02 
373	 0.027626204113484 
374	 2.73338924680445E-02 
375	 0.027726510884708 
376	 2.88151749668963E-02 
377	 2.81960987463647E-02 
378	 2.81301617953899E-02 
379	 2.87812101724634E-02 
380	 0.029584243392096 
381	 2.94020771327002E-02 
382	 2.94926424656921E-02 
383	 2.99036684732703E-02 
384	 3.01102826160578E-02 
385	 3.02168932417817E-02 
386	 3.03066238066827E-02 
387	 3.03735342114497E-02 
388	 3.03231907438144E-02 
389	 3.04825549040436E-02 
390	 0.031013476658804 
391	 3.16449970273154E-02 
392	 3.10801767914093E-02 
393	 3.12886052586707E-02 
394	 3.19511277694862E-02 
395	 3.20884672904438E-02 
396	 3.23477496370987E-02 
397	 0.03219749680013 
398	 3.20306361945648E-02 
399	 3.29371192851049E-02 
400	 3.29446624065682E-02 
401	 3.27160923038117E-02 
402	 3.28750936916477E-02 
403	 3.30038564055181E-02 
404	 3.32488650004172E-02 
405	 3.35151987981241E-02 
406	 3.36550601312422E-02 
407	 3.37168568361212E-02 
408	 3.39034541522749E-02 
409	 3.41370534364387E-02 
410	 3.40839813338506E-02 
411	 3.40046753652093E-02 
412	 3.41705620327051E-02 
413	 3.46080279407171E-02 
414	 3.47960559056648E-02 
415	 3.49177700036356E-02 
416	 3.50887040593922E-02 
417	 0.035353196336024 
418	 3.54323434810849E-02 
419	 3.56478530010678E-02 
420	 3.60091623294639E-02 
421	 3.61634113440724E-02 
422	 0.036454332714095 
423	 3.67773847490395E-02 
424	 3.70013409068039E-02 
425	 3.71637806761221E-02 
426	 3.74690782540949E-02 
427	 3.78318036101618E-02 
428	 3.80524560869274E-02 
429	 0.038248580132371 
430	 3.86220986002774E-02 
431	 3.90855554841672E-02 
432	 3.92202503452932E-02 
433	 3.94627424677559E-02 
434	 3.97317534229661E-02 
435	 3.99601192803287E-02 
436	 4.04991292091785E-02 
437	 4.09874909540592E-02 
438	 4.12780496510439E-02 
439	 4.14071942994916E-02 
440	 4.18561416496211E-02 
441	 4.22210479790646E-02 
442	 4.23694110505221E-02 
443	 4.27121881418726E-02 
444	 4.30221906992213E-02 
445	 4.32352450278579E-02 
446	 4.33946757128869E-02 
447	 4.38061580603501E-02 
448	 4.40579098919858E-02 
449	 4.41409001263117E-02 
450	 4.43477350743603E-02 
451	 4.46223511155725E-02 
452	 4.48748058657787E-02 
453	 4.50609770671185E-02 
454	 4.52422693325002E-02 
455	 4.54155571668174E-02 
456	 4.55441076449577E-02 
457	 4.56155757418086E-02 
458	 4.58271526041647E-02 
459	 4.59408690701137E-02 
460	 4.59679486398943E-02 
461	 4.61729282770946E-02 
462	 4.62149050144903E-02 
463	 4.62455603330302E-02 
464	 4.64033295966279E-02 
465	 4.65117500369004E-02 
466	 4.66518844094049E-02 
467	 4.68580328910653E-02 
468	 4.71008456546179E-02 
469	 4.70572271238463E-02 
470	 4.70973806078129E-02 
471	 4.73410083376788E-02 
472	 0.04748907824971 
473	 4.76836786270116E-02 
474	 0.047824673618212 
475	 4.78412300011847E-02 
476	 4.79421196235534E-02 
477	 4.82722775425884E-02 
478	 4.86089187249428E-02 
479	 4.85613841278448E-02 
480	 0.048876039383411 
481	 4.91129925318126E-02 
482	 4.90786883250633E-02 
483	 4.94070218567251E-02 
484	 4.97123429444833E-02 
485	 4.98838216972713E-02 
486	 4.99725245474401E-02 
487	 5.03203324935247E-02 
488	 5.07130131085244E-02 
489	 5.10200015471257E-02 
490	 5.12334128498429E-02 
491	 5.14046877191276E-02 
492	 5.18013341994147E-02 
493	 5.24635236616348E-02 
494	 5.27283236410897E-02 
495	 5.29835924279293E-02 
496	 5.33121606571432E-02 
497	 5.36625692154594E-02 
498	 5.41932840423935E-02 
499	 5.46285139551234E-02 
500	 5.49164285052113E-02 
501	 5.54150957681715E-02 
502	 5.58209538465513E-02 
503	 5.62258408122421E-02 
504	 5.67613745733587E-02 
505	 5.72541684236491E-02 
506	 5.76879372066399E-02 
507	 5.81021501855821E-02 
508	 5.85740314549988E-02 
509	 5.90973152607045E-02 
510	 5.96472652327509E-02 
511	 6.01728635168533E-02 
512	 6.05430414642443E-02 
513	 6.11622132072121E-02 
514	 6.18855067991863E-02 
515	 0.0623700667909 
516	 6.28374134971638E-02 
517	 6.34441105733062E-02 
518	 6.41514478225204E-02 
519	 6.46989844424573E-02 
520	 6.52151113339172E-02 
521	 6.58035716296795E-02 
522	 6.65246742801004E-02 
523	 6.73077421574017E-02 
524	 6.81115167738415E-02 
525	 6.88399985595882E-02 
526	 6.94045867655071E-02 
527	 7.01935496304806E-02 
528	 7.09956027374881E-02 
529	 7.16750368367795E-02 
530	 7.24130912911675E-02 
531	 7.32187055910837E-02 
532	 7.41455969687691E-02 
533	 7.51833697454735E-02 
534	 7.59490189453601E-02 
535	 0.076652858207977 
536	 7.74782280506225E-02 
537	 7.85215883206818E-02 
538	 0.079566316496965 
539	 8.05231955149333E-02 
540	 8.13965219010859E-02 
541	 8.23742827557274E-02 
542	 8.33349439548339E-02 
543	 8.42286926144274E-02 
544	 8.50726718116101E-02 
545	 8.60441012126512E-02 
546	 8.69543545946186E-02 
547	 8.77314451371666E-02 
548	 8.86212617207377E-02 
549	 8.94734983479662E-02 
550	 9.03205710847733E-02 
551	 9.12225552829622E-02 
552	 9.20137411097001E-02 
553	 9.28658498367991E-02 
554	 9.38199372063012E-02 
555	 9.47447458669711E-02 
556	 9.56696163268393E-02 
557	 9.66317232279604E-02 
558	 9.76287484308336E-02 
559	 9.85459888575017E-02 
560	 9.95273595748639E-02 
561	 0.100457011973083 
562	 0.101117558417822 
563	 0.101966099168983 
564	 0.102869159554593 
565	 0.103687390221847 
566	 0.104432170696894 
567	 0.105101443450155 
568	 0.105668611306823 
569	 0.106137170600273 
570	 0.106728012572821 
571	 0.107230140823538 
572	 0.107626964687366 
573	 0.10813184376097 
574	 0.108585788554956 
575	 0.108974001139074 
576	 0.109330839441303 
577	 0.109746075888744 
578	 0.110178903837056 
579	 0.110528341970541 
580	 0.110709958912846 
581	 0.111160064470903 
582	 0.111654777417293 
583	 0.112000407353238 
584	 0.112189084569969 
585	 0.112519418098518 
586	 0.112872350524621 
587	 0.113018757688224 
588	 0.113095900183701 
589	 0.113256603228969 
590	 0.113505918708039 
591	 0.113703036054912 
592	 0.113815469452095 
593	 0.113929657264656 
594	 0.114096348043762 
595	 0.114190965752265 
596	 0.114233298379598 
597	 0.114265068090428 
598	 0.114329311027198 
599	 0.11433144866082 
600	 0.114373351446939 
601	 0.114514099096995 
602	 0.114713710644244 
603	 0.11473691357265 
604	 0.114806430450426 
605	 0.115143805082473 
606	 0.115126408347702 
607	 0.115157101169357 
608	 0.11537346757895 
609	 0.115583146955602 
610	 0.115614614314813 
611	 0.115701604621079 
612	 0.116004364445151 
613	 0.116219454413662 
614	 0.116260764452525 
615	 0.116250421634212 
616	 0.116405663653953 
617	 0.116535550565936 
618	 0.116649185931405 
619	 0.116770003576771 
620	 0.116909768726845 
621	 0.116967113157215 
622	 0.117047850381762 
623	 0.117240755943278 
624	 0.11720914228469 
625	 0.117136155211848 
626	 0.117161662061781 
627	 0.117352325814913 
628	 0.11756991587213 
629	 0.117736720213187 
630	 0.117841015209797 
631	 0.117996688681342 
632	 0.118090377924452 
633	 0.11806667397035 
634	 0.117926454972494 
635	 0.117835575355649 
636	 0.117803357684584 
637	 0.117839509170509 
638	 0.117988245822036 
639	 0.117973997310449 
640	 0.117876373951671 
641	 0.117828756984598 
642	 0.117704681138365 
643	 0.117447657922656 
644	 0.117215118856631 
645	 0.117295549780506 
646	 0.116995194433163 
647	 0.116657756102099 
648	 0.116596829842946 
649	 0.116593219673855 
650	 0.116407921588862 
651	 0.116126313933597 
652	 0.115976938128198 
653	 0.116074523148426 
654	 0.116042394782058 
655	 0.115710935357168 
656	 0.115308134193444 
657	 0.114931398800805 
658	 0.114692600560493 
659	 0.114582404283863 
660	 0.114313817980221 
661	 0.113886533630773 
662	 0.113390767548159 
663	 0.112987680739388 
664	 0.112768536524153 
665	 0.112545970236019 
666	 0.112217039848398 
667	 0.111891897655981 
668	 0.111659699779483 
669	 0.1115465301261 
670	 0.111510796565284 
671	 0.111308723027824 
672	 0.11134297136416 
673	 0.111545126955733 
674	 0.11142326546994 
675	 0.11157426523361 
676	 0.111938920601656 
677	 0.112340952724629 
678	 0.11262552065801 
679	 0.113023196972595 
680	 0.113604781600393 
681	 0.114355179635728 
682	 0.115246332059663 
683	 0.116146504730487 
684	 0.117016858082712 
685	 0.118041251650554 
686	 0.119104246402685 
687	 0.120243151767625 
688	 0.121455353738684 
689	 0.122770178229913 
690	 0.123862825704991 
691	 0.124577774274778 
692	 0.124951552643967 
693	 0.126045898391824 
694	 0.127150971776763 
695	 0.127760215343889 
696	 0.128217943893751 
697	 0.128687723592708 
698	 0.129020260363172 
699	 0.129059789189853 
700	 0.129385191352927 
701	 0.12978378598935 
702	 0.130041826262909 
703	 0.13002120419759 
704	 0.129845233489165 
705	 0.12966636962842 
706	 0.129560720365812 
707	 0.129469791699329 
708	 0.128972359794098 
709	 0.12833245235918 
710	 0.127922458617017 
711	 0.127092751822036 
712	 0.126238230536667 
713	 0.125377768296805 
714	 0.124051514863165 
715	 0.122450577985271 
716	 0.120886936929436 
717	 0.119689424545851 
718	 0.117947709223672 
719	 0.116592667664951 
720	 0.115771031149859 
721	 0.114944816647296 
722	 0.113523457625922 
723	 0.111733097070253 
724	 0.110034221732243 
725	 0.108546054771757 
726	 0.106969998542081 
727	 0.105166269033806 
728	 0.103159922921297 
729	 0.101242973862931 
730	 9.92856274407233E-02 
731	 9.74041694372539E-02 
732	 9.56797853168614E-02 
733	 0.094186474615587 
734	 9.27888599138879E-02 
735	 9.15643522155974E-02 
736	 9.08509972737651E-02 
737	 9.02259560038741E-02 
738	 8.98795342864025E-02 
739	 8.98779081349619E-02 
740	 8.94274578335645E-02 
741	 8.92085929542868E-02 
742	 8.92764944975059E-02 
743	 8.93492262777221E-02 
744	 8.93794094984122E-02 
745	 0.089389123371287 
746	 8.94528255835223E-02 
747	 8.96977844799959E-02 
748	 8.97012026614963E-02 
749	 8.96560179980713E-02 
750	 0.089763061108155 
751	 8.96903136617941E-02 
752	 8.95918945710084E-02 
753	 0.089625395647666 
754	 0.089888877211494 
755	 9.00530880606247E-02 
756	 9.00238525308429E-02 
757	 8.98042602058891E-02 
758	 8.94000607114585E-02 
759	 8.91441965614473E-02 
760	 8.87203671971974E-02 
761	 8.80560210099611E-02 
762	 0.088466284292585 
763	 8.91775522003647E-02 
764	 8.97959549730211E-02 
765	 9.02197266712545E-02 
766	 9.04069396290414E-02 
767	 9.07673105550466E-02 
768	 9.12622707917299E-02 
769	 0.091451559415281 
770	 9.18182441316235E-02 
771	 9.21667325853945E-02 
772	 9.23347971324549E-02 
773	 9.26222374793021E-02 
774	 9.28298650028681E-02 
775	 9.30836286962329E-02 
776	 9.35537218137702E-02 
777	 9.37620647701282E-02 
778	 9.41456406496309E-02 
779	 9.46933487534562E-02 
780	 9.49218771085107E-02 
781	 9.53657212079139E-02 
782	 0.095807046367738 
783	 9.60599324734472E-02 
784	 9.63241981066533E-02 
785	 9.64756033836256E-02 
786	 0.096844715486514 
787	 9.76599767344684E-02 
788	 9.77711429780854E-02 
789	 9.79426850310414E-02 
790	 9.85355312716824E-02 
791	 9.94248305118603E-02 
792	 0.100059416838932 
793	 0.100485236241471 
794	 0.100802104478407 
795	 0.101009345124575 
796	 0.101420283857666 
797	 0.101992451751498 
798	 0.102538405604322 
799	 0.102702989994303 
800	 0.10297768576297 
801	 0.103387873734709 
802	 0.103698946852618 
803	 0.10396709541329 
804	 0.104311931435247 
805	 0.104647225042935 
806	 0.104676943523195 
807	 0.104514316221192 
808	 0.104237193159341 
809	 0.103945095107718 
810	 0.103825261122171 
811	 0.103337210765986 
812	 0.102643709625221 
813	 0.102188244184322 
814	 0.10191463948687 
815	 0.101021219036439 
816	 0.100008264853475 
817	 0.100175242127913 
818	 0.100158575032826 
819	 9.94932530977804E-02 
820	 9.84257882775914E-02 
821	 9.79142210898717E-02 
822	 0.096658620191605 
823	 9.51340576839564E-02 
824	 9.39122399054897E-02 
825	 9.24646371206495E-02 
826	 9.09026614281126E-02 
827	 8.92518090905036E-02 
828	 8.75690233390993E-02 
829	 8.54850778390525E-02 
830	 8.35710524107719E-02 
831	 8.22235109967557E-02 
832	 8.15859600865599E-02 
833	 0.080794788416977 
834	 7.99671277155523E-02 
835	 7.92502381765714E-02 
836	 7.86681829947009E-02 
837	 0.078592718150517 
838	 7.82334041022365E-02 
839	 7.73170739132708E-02 
840	 7.75552579706133E-02 
841	 0.077414495111205 
842	 0.076851389424355 
843	 7.63814401281749E-02 
844	 7.63489840018703E-02 
845	 7.59227034388489E-02 
846	 7.52797132123508E-02 
847	 7.51998544771482E-02 
848	 7.49736871946457E-02 
849	 7.45014525290871E-02 
850	 7.41172143741762E-02 
851	 0.074512878315203 
852	 7.41203072440264E-02 
853	 7.37643367674705E-02 
854	 7.39213810404012E-02 
855	 7.32126933048178E-02 
856	 7.29849748321771E-02 
857	 7.30843494288908E-02 
858	 7.29718266684118E-02 
859	 7.22850073158178E-02 
860	 7.20386479541079E-02 
861	 7.21102981921975E-02 
862	 7.18703093877805E-02 
863	 7.16338028466065E-02 
864	 7.15302596460288E-02 
865	 7.14643979517281E-02 
866	 0.071183739159077 
867	 7.09887277946927E-02 
868	 7.06564282685486E-02 
869	 7.02183456196046E-02 
870	 7.00974927476607E-02 
871	 6.96757542487659E-02 
872	 6.92093224297791E-02 
873	 6.89597572142028E-02 
874	 6.87558617851652E-02 
875	 6.87581655159019E-02 
876	 6.83997308537228E-02 
877	 0.06738956192805 
878	 6.71792477198707E-02 
879	 6.69138210874418E-02 
880	 6.64877087107428E-02 
881	 0.066138022182656 
882	 6.57359493181003E-02 
883	 6.57117710894503E-02 
884	 6.56355833918059E-02 
885	 6.46799840953825E-02 
886	 6.45436739729229E-02 
887	 6.42448424086234E-02 
888	 6.36986827383611E-02 
889	 6.40565618522874E-02 
890	 0.064068447160735 
891	 6.35275658222837E-02 
892	 6.27691547174979E-02 
893	 6.27946152023376E-02 
894	 6.20564961725516E-02 
895	 6.13658770435204E-02 
896	 6.15015002464889E-02 
897	 6.06413346260549E-02 
898	 6.00631742784524E-02 
899	 6.00642097670946E-02 
900	 6.02187651712452E-02 
901	 5.92714326832391E-02 
902	 5.86032594617911E-02 
903	 5.80831499290723E-02 
904	 0.057334783868647 
905	 5.79451132451266E-02 
906	 5.79765745323057E-02 
907	 5.72094443388931E-02 
908	 5.67566416365351E-02 
909	 5.63382145324812E-02 
910	 5.66893707956358E-02 
911	 5.67198563963805E-02 
912	 5.43435337746299E-02 
913	 5.42599807989011E-02 
914	 0.054108260206035 
915	 5.31839738702457E-02 
916	 5.35218137968105E-02 
917	 0.054008549183567 
918	 5.41286682904354E-02 
919	 0.05357850964245 
920	 5.22419048767079E-02 
921	 5.16516644197241E-02 
922	 5.12433667056131E-02 
923	 5.09734311842667E-02 
924	 5.28457492886972E-02 
925	 0.052622255505796 
926	 5.07938217251413E-02 
927	 4.93453895298055E-02 
928	 4.95366528195281E-02 
929	 5.06254959399678E-02 
930	 5.12300720443351E-02 
931	 4.99386671661087E-02 
932	 0.050911174639661 
933	 3.98973569918009E-02 
934	 3.48795080508759E-02 
935	 5.34558720120712E-02 
936	 4.74081722545048E-02 
937	 3.78269867151463E-02 
938	 3.64840244372797E-02 
939	 0.043929896343661 
940	 3.67712669241088E-02 
941	 3.52078033135282E-02 
942	 4.25765831245527E-02 
943	 5.02932243052878E-02 
944	 3.71926439378523E-02 
945	 4.06220019787601E-02 
946	 0.053685044454679 
947	 4.75894551433437E-02 
948	 4.45068932052153E-02 
949	 4.19377500600709E-02 
950	 4.06282688595402E-02 
951	 4.26102234897226E-02 
952	 4.14558219792264E-02 
953	 4.11700870679243E-02 
954	 4.07407412407414E-02 
955	 3.69746736678048E-02 
956	 3.80877064531535E-02 
957	 4.08859961034258E-02 
958	 0.040997370137033 
959	 3.62843124099754E-02 
960	 3.75968934994742E-02 
961	 3.94000124506524E-02 
962	 3.96668039835635E-02 
963	 4.01802540879643E-02 
964	 4.32008221527143E-02 
965	 4.11393032633542E-02 
966	 3.62220241440942E-02 
967	 3.70287248471186E-02 
968	 4.12860394785907E-02 
969	 4.05113721522579E-02 
970	 3.66294523180038E-02 
971	 3.93593480496383E-02 
972	 4.22168066622687E-02 
973	 4.21598934110295E-02 
974	 4.07644902746958E-02 
975	 4.25056531621507E-02 
976	 3.93890323553199E-02 
977	 3.81345598042861E-02 
978	 4.05274834912842E-02 
979	 4.24354744572186E-02 
980	 4.12721471112264E-02 
981	 4.19762102396698E-02 
982	 4.31552011871692E-02 
983	 3.95045742118976E-02 
984	 4.00853235797761E-02 
985	 4.06488840974352E-02 
986	 0.039725182291909 
987	 3.92270522214435E-02 
988	 4.08662099140518E-02 
989	 4.07797469385793E-02 
990	 3.97447770095086E-02 
991	 4.13969558588927E-02 
992	 4.11209324268887E-02 
993	 4.05825124744808E-02 
994	 4.06506880299999E-02 
995	 4.09848491396748E-02 
996	 3.99474246816504E-02 
997	 3.96008869417867E-02 
998	 4.11026949393691E-02 
999	 4.39582386460186E-02 
1000	 4.43426745760887E-02 
1001	 3.96757127111982E-02 
1002	 4.05388275756779E-02 
1003	 4.08458150259152E-02 
1004	 4.10311402796481E-02 
1005	 0.041161855422922 
1006	 4.09355665818169E-02 
1007	 4.05388134765094E-02 
1008	 4.08500507172924E-02 
1009	 4.15924688749143E-02 
1010	 4.21068050347852E-02 
1011	 0.042388472774281 
1012	 4.25780437688759E-02 
1013	 4.22779621834349E-02 
1014	 4.22467177329779E-02 
1015	 4.25922703007246E-02 
1016	 4.25045786464193E-02 
1017	 4.22710992019078E-02 
1018	 0.04174842774243 
1019	 4.04461492433146E-02 
1020	 4.00217998727082E-02 
1021	 0.039709385191194 
1022	 3.95172385292324E-02 
1023	 4.09249316864337E-02 
1024	 4.19209754708378E-02 
1025	 4.27210896829591E-02 
1026	 4.42759773955355E-02 
1027	 4.46086409500749E-02 
1028	 4.41022673882678E-02 
1029	 0.044151608853271 
1030	 4.36387443858135E-02 
1031	 4.37207709894472E-02 
1032	 4.47918213637134E-02 
1033	 4.45664214172755E-02 
1034	 4.35112622458371E-02 
1035	 4.32901172498558E-02 
1036	 4.26176097029397E-02 
1037	 4.24316327003592E-02 
1038	 4.33054965682436E-02 
1039	 4.36573847585487E-02 
1040	 4.37952412138748E-02 
1041	 4.37430638498869E-02 
1042	 4.40085453440087E-02 
1043	 0.04449156757381 
1044	 4.46798042525264E-02 
1045	 4.48559262550554E-02 
1046	 4.50804418192322E-02 
1047	 4.52277571136603E-02 
1048	 4.52242054378812E-02 
1049	 4.50051757649668E-02 
1050	 4.51985510861133E-02 
1051	 4.56212075300869E-02 
1052	 4.56975135772676E-02 
1053	 4.60794084595881E-02 
1054	 4.61704666099262E-02 
1055	 4.53553240832108E-02 
1056	 4.51637762935817E-02 
1057	 4.52120310669822E-02 
1058	 0.045651943531955 
1059	 4.57295991007108E-02 
1060	 4.59573727448865E-02 
1061	 4.60810319101192E-02 
1062	 4.58632918459076E-02 
1063	 0.045996965646173 
1064	 4.66395469990077E-02 
1065	 4.66730615055772E-02 
1066	 4.65163831830158E-02 
1067	 4.63065725791843E-02 
1068	 4.55418516725624E-02 
1069	 4.51864897114249E-02 
1070	 0.044790615747336 
1071	 4.47593035460572E-02 
1072	 4.45957204628301E-02 
1073	 4.55548631788751E-02 
1074	 4.60003415208446E-02 
1075	 4.69425109479227E-02 
1076	 4.69887237672695E-02 
1077	 4.67056911468193E-02 
1078	 4.62118840785716E-02 
1079	 4.47126219193702E-02 
1080	 4.44298827503863E-02 
1081	 4.47577348738211E-02 
1082	 4.46785573872957E-02 
1083	 4.49909209909084E-02 
1084	 4.51527689927152E-02 
1085	 4.48875279952003E-02 
1086	 4.47761845242633E-02 
1087	 4.52988061113759E-02 
1088	 4.52432950234444E-02 
1089	 0.044487484455359 
1090	 4.39555041981952E-02 
1091	 4.38578161810602E-02 
1092	 4.36477874863086E-02 
1093	 4.37225909736258E-02 
1094	 4.48371447586028E-02 
1095	 4.47034888378586E-02 
1096	 4.37360315938339E-02 
1097	 4.34185718736971E-02 
1098	 4.25036556184896E-02 
1099	 4.23687280706061E-02 
1100	 4.36001566710069E-02 
1101	 0.043735708151739 
1102	 4.37882499369139E-02 
1103	 4.34612021694188E-02 
1104	 4.24253645081712E-02 
1105	 4.05947734536975E-02 
1106	 4.00302049245886E-02 
1107	 4.04843293005296E-02 
1108	 4.06794315029425E-02 
1109	 0.041100753144181 
1110	 4.11097973478948E-02 
1111	 3.98537676137432E-02 
1112	 3.97721159017616E-02 
1113	 4.10549092836827E-02 
1114	 4.13357700520701E-02 
1115	 4.15480352037432E-02 
1116	 0.041546260955937 
1117	 4.11337920055284E-02 
1118	 3.93358394217408E-02 
1119	 3.33813601920145E-02 
1120	 0.031179495518299 
1121	 2.94030208086293E-02 
1122	 3.05897725091507E-02 
1123	 3.81587434271585E-02 
1124	 4.52663134937055E-02 
1125	 4.40329005560935E-02 
1126	 3.02248374434229E-02 
1127	 1.94149907821101E-02 
1128	 2.85368784174567E-02 
1129	 3.17687414395054E-02 
1130	 4.13482002876144E-02 
1131	 4.18563448577048E-02 
1132	 3.88983900475811E-02 
1133	 3.40409703631318E-02 
1134	 2.37298922752757E-02 
1135	 2.48805392954361E-02 
1136	 3.19364798141948E-02 
1137	 3.16665961398356E-02 
1138	 3.22045044234076E-02 
1139	 3.36479997475706E-02 
1140	 2.83039587012288E-02 
1141	 2.38411429189271E-02 
1142	 3.02062320788276E-02 
1143	 3.51396508612661E-02 
1144	 3.24329059080661E-02 
1145	 3.00980675285888E-02 
1146	 0.024751467367098 
1147	 1.94714480602583E-02 
1148	 2.30044183479945E-02 
1149	 2.98414807428696E-02 
1150	 3.17650532478754E-02 
1151	 0.03199490962076 
1152	 3.15778145815489E-02 
1153	 2.99464312983022E-02 
1154	 2.94399466439094E-02 
1155	 2.91909664039104E-02 
1156	 2.87545457553869E-02 
1157	 2.96519640813133E-02 
1158	 2.78181055965423E-02 
1159	 2.57652153319787E-02 
1160	 2.73247166894796E-02 
1161	 2.77676365881409E-02 
1162	 2.76289041086482E-02 
1163	 2.96450411802719E-02 
1164	 2.99392833140955E-02 
1165	 2.92316831966827E-02 
1166	 2.94707683734478E-02 
1167	 2.88126028653785E-02 
1168	 2.87616882508959E-02 
1169	 2.98665388171534E-02 
1170	 0.03004851944958 
1171	 2.98872603823933E-02 
1172	 2.89765740374111E-02 
1173	 2.87126208803506E-02 
1174	 2.81432382815917E-02 
1175	 2.86687166295267E-02 
1176	 2.89907935884595E-02 
1177	 0.028588858822251 
1178	 2.91078685191766E-02 
1179	 2.86882222436743E-02 
1180	 2.80004917858058E-02 
1181	 0.029156465566253 
1182	 2.96382297335645E-02 
1183	 2.92912358611353E-02 
1184	 2.93982467183204E-02 
1185	 2.93158890209943E-02 
1186	 2.88459372241584E-02 
1187	 2.85782769552821E-02 
1188	 2.92556486546221E-02 
1189	 2.92233235176483E-02 
1190	 0.028416357719028 
1191	 2.89180593882047E-02 
1192	 2.90436610901962E-02 
1193	 2.89459564130475E-02 
1194	 2.84463080866958E-02 
1195	 2.88411364578301E-02 
1196	 2.86177024009304E-02 
1197	 0.027576221838856 
1198	 2.73251803424203E-02 
1199	 2.80567532687418E-02 
1200	 2.84726345222567E-02 
1201	 2.82179016392956E-02 
1202	 2.85188316284778E-02 
1203	 2.86057336398709E-02 
1204	 2.80776519563784E-02 
1205	 2.85246699651518E-02 
1206	 2.90685852718483E-02 
1207	 2.86742504428033E-02 
1208	 2.87746281940028E-02 
1209	 2.93006393696913E-02 
1210	 2.93285556322216E-02 
1211	 2.93600060162581E-02 
1212	 2.91291150008659E-02 
1213	 2.90521853219036E-02 
1214	 2.91843383684507E-02 
1215	 2.97960424631745E-02 
1216	 3.00163372569559E-02 
1217	 0.029979274544416 
1218	 3.00144233967317E-02 
1219	 2.97245282333278E-02 
1220	 2.97273036545047E-02 
1221	 2.98424110613316E-02 
1222	 2.96879475735448E-02 
1223	 3.00295569446993E-02 
1224	 3.02191571177883E-02 
1225	 2.97396632038598E-02 
1226	 2.93598939962841E-02 
1227	 2.91783184537591E-02 
1228	 2.90424489330329E-02 
1229	 2.95628622817297E-02 
1230	 3.03262619503985E-02 
1231	 3.01847037487185E-02 
1232	 2.95729995497405E-02 
1233	 2.96336102073594E-02 
1234	 3.02810979775514E-02 
1235	 3.03230439328238E-02 
1236	 3.00017674028602E-02 
1237	 3.01184479221873E-02 
1238	 3.03233151967187E-02 
1239	 3.01002472584903E-02 
1240	 3.00402795622705E-02 
1241	 3.04896752840511E-02 
1242	 3.04861326925897E-02 
1243	 3.00341664660766E-02 
1244	 3.04265407130497E-02 
1245	 3.09735635231315E-02 
1246	 3.02971983579004E-02 
1247	 2.98772527097532E-02 
1248	 2.98469618913096E-02 
1249	 2.93201690290428E-02 
1250	 2.94174307693435E-02 
1251	 3.01217407072792E-02 
1252	 3.02100628412043E-02 
1253	 0.029753158539613 
1254	 2.96787419397454E-02 
1255	 3.01827626175094E-02 
1256	 3.02568084522732E-02 
1257	 2.98666951393986E-02 
1258	 2.97213776106978E-02 
1259	 2.98105073340758E-02 
1260	 0.029740982013943 
1261	 2.95014094342592E-02 
1262	 2.94761107794357E-02 
1263	 2.97638018133985E-02 
1264	 2.94718081141093E-02 
1265	 2.92287783007701E-02 
1266	 2.96354094139957E-02 
1267	 3.00004035434075E-02 
1268	 2.96760799497303E-02 
1269	 2.94043247949406E-02 
1270	 2.98040643095651E-02 
1271	 3.00142571289066E-02 
1272	 2.97233626541214E-02 
1273	 2.98085605387921E-02 
1274	 2.99804868837824E-02 
1275	 3.01415509985977E-02 
1276	 3.07652063277323E-02 
1277	 3.07887388823349E-02 
1278	 3.00238328855234E-02 
1279	 2.93357858189239E-02 
1280	 2.90578707307415E-02 
1281	 2.90227452842727E-02 
1282	 2.94822047894259E-02 
1283	 2.93586433206657E-02 
1284	 0.029234397303265 
1285	 2.91985671638217E-02 
1286	 2.85778659962114E-02 
1287	 2.85356129027849E-02 
1288	 2.94281102520168E-02 
1289	 2.94219665402199E-02 
1290	 2.88700879069508E-02 
1291	 2.87526805742629E-02 
1292	 2.87352429971467E-02 
1293	 2.83246143445142E-02 
1294	 2.81122336379168E-02 
1295	 2.85575032686598E-02 
1296	 0.028996868773669 
1297	 2.86600144218205E-02 
1298	 2.79222012710737E-02 
1299	 2.71741982542187E-02 
1300	 2.64657616891075E-02 
1301	 2.61857468448424E-02 
1302	 2.66501076860067E-02 
1303	 2.71868175912433E-02 
1304	 2.70690844600555E-02 
1305	 2.70389789102147E-02 
1306	 2.70210207994138E-02 
1307	 2.70417197117069E-02 
1308	 2.67037997927428E-02 
1309	 2.61026023865126E-02 
1310	 2.60475984890962E-02 
1311	 2.60150799731873E-02 
1312	 0.025966637953406 
1313	 2.65128606438398E-02 
1314	 0.026127900926574 
1315	 2.48039932594754E-02 
1316	 2.46960030014758E-02 
1317	 2.51194546908463E-02 
1318	 2.50924004556918E-02 
1319	 2.53574268397922E-02 
1320	 2.52099437612503E-02 
1321	 2.42524334601321E-02 
1322	 2.40637410082518E-02 
1323	 2.35655903419055E-02 
1324	 0.023485999338517 
1325	 2.37017627605286E-02 
1326	 0.022770908215503 
1327	 2.24538992295339E-02 
1328	 2.36000390442015E-02 
1329	 2.47447315745575E-02 
1330	 2.48484752145467E-02 
1331	 2.44547193787566E-02 
1332	 2.41833581771611E-02 
1333	 2.30627868453815E-02 
1334	 2.12283440575606E-02 
1335	 2.04574364864383E-02 
1336	 2.07786170613724E-02 
1337	 2.04165770345823E-02 
1338	 2.07844433818206E-02 
1339	 2.01303513447269E-02 
1340	 1.76807030975234E-02 
1341	 1.66775157152314E-02 
1342	 1.51757095761444E-02 
1343	 1.45606586331897E-02 
1344	 1.71944351383462E-02 
1345	 1.76189347253072E-02 
1346	 0.016546173843768 
1347	 1.62085267707467E-02 
1348	 0.015090927675093 
1349	 0.014002919671017 
1350	 1.04142108353712E-02 
1351	 9.93336807804015E-03 
1352	 1.76245441518789E-02 
1353	 1.75368863165826E-02 
1354	 1.02393388764442E-02 
1355	 2.68946161544422E-02 
1356	 1.17727985827652E-02 
1357	 3.7443461457856E-03 
1358	-5.88380533022224E-02 
1359	-0.214089250287674 
1360	-0.382019786349324 
1361	-0.660423707795235 
1362	-0.423603999301519 
1363	-0.148913745580415 
1364	-0.193210343621729 
1365	-0.258632706358311 
1366	-0.285690754921665 
1367	-0.174391497748052 
1368	-0.157159122558142 
1369	 3.81519050283546E-02 
1370	 0.116038776820713 
1371	-7.69221819001917E-03 
1372	-0.263939713812971 
1373	-0.482311423430202 
1374	-0.658045481660503 
1375	-1.2058053820613 
1376	-1.25318228218296 
1377	-0.737153357783489 
1378	-0.672973800758047 
1379	-0.727745732308664 
1380	-0.644310126472667 
1381	-0.854272431866845 
1382	-0.919779137843805 
1383	 0.085618792438091 
1384	-2.04232107687545E-03 
1385	 18.7619840204033 
1386	 15.430376709257 
1387	 11.2518345974518 
1388	 5.47453838090324 
1389	-21.5560874851868 
1390	-1.55457116717497 
1391	-0.849379911229278 
1392	-1.81746399398716 
1393	-5.29503381892032 
1394	-0.990910917315029 
1395	-6.18594762718919E-02 
1396	 5.05386386253878E-02 
1397	 0.691789950327653 
1398	 5.22483693712363 
1399	 6.2285928892214 
1400	-2.50942866300686 
1401	-1.55698616047711 
1402	-1.57874370259258 
1403	-2.36603335402772E-02 
1404	-0.495827314951288 
1405	-1.03769913591968 
1406	-1.45975051136306 
1407	-1.08067594518028 
1408	-3.37983831078714 
1409	-1.09853871989709 
1410	 0.212532732299555 
1411	 0.220754239591088 
1412	-0.240896009921208 
1413	-0.179512903501098 
1414	 0.20264349217787 
1415	 0.165597683463696 
1416	-4.12593093603204E-02 
1417	 1.83318328277809E-02 
1418	 8.41128887831723E-02 
1419	 2.68074361667502E-02 
1420	 1.13974610488385E-03 
1421	 2.63129505354169E-02 
1422	-5.44147024829408E-03 
1423	-2.98223194096639E-02 
1424	 6.53603352925223E-03 
1425	 3.00257370145617E-02 
1426	 2.95024313421684E-02 
1427	 1.42553960475223E-02 
1428	 7.82067746828489E-03 
1429	 1.05993536905445E-02 
1430	-2.05199338969331E-02 
1431	-1.84405479068783E-02 
1432	 4.28624938953595E-02 
1433	 5.60350681676029E-02 
1434	 3.43238634619236E-02 
1435	 3.87765901184857E-02 
1436	 0.046441798348248 
1437	 3.90254477689044E-02 
1438	 0.022585105638389 
1439	 3.49676424733982E-03 
1440	-9.5159971780323E-03 
1441	-7.19119902037016E-03 
1442	 2.68509696353325E-02 
1443	 4.77882134723497E-02 
1444	 3.33162914734275E-02 
1445	 2.23162046979094E-02 
1446	 1.94027017957421E-02 
1447	 0.019961498029186 
1448	 1.68972939859301E-02 
1449	 6.54433894944402E-03 
1450	 6.3734805810093E-03 
1451	 9.81422608240404E-03 
1452	 3.58934812072461E-03 
1453	 4.84775716360167E-03 
1454	 8.76676614587032E-03 
1455	 1.00312660976237E-02 
1456	 7.61098303863744E-03 
1457	 9.36838698823618E-03 
1458	 1.16172827309725E-02 
1459	 7.82851781128972E-03 
1460	 6.72591894851014E-03 
1461	 1.25231451659067E-02 
1462	 1.36101626850853E-02 
1463	 9.51381467379717E-03 
1464	 7.15461919800223E-03 
1465	 5.8097534502565E-03 
1466	 6.13767822743415E-03 
1467	 5.57645840850634E-03 
1468	 4.65343074703512E-03 
1469	 5.98670493708928E-03 
1470	 8.58515516179069E-03 
1471	 1.12851218503964E-02 
1472	 1.09003830100737E-02 
1473	 1.17236615064285E-02 
1474	 1.13312473096596E-02 
1475	 7.03713346490865E-03 
1476	 4.18354876189835E-03 
1477	 2.79263673572895E-03 
1478	 2.54077286072045E-03 
1479	 1.14215437247666E-03 
1480	 1.21906359474208E-03 
1481	 4.04024070700908E-03 
1482	 4.4006834537325E-03 
1483	 3.07615200135636E-03 
1484	 3.4246205361147E-03 
1485	 3.72678936480427E-03 
1486	 4.5476356569504E-03 
1487	 7.21567436401894E-03 
1488	 7.66037792395802E-03 
1489	 6.75981309129222E-03 
1490	 6.4753908638761E-03 
1491	 5.43321120159219E-03 
1492	 5.42021810173759E-03 
1493	 6.52084526217095E-03 
1494	 6.53076258126509E-03 
1495	 6.02643454465081E-03 
1496	 6.43567668156199E-03 
1497	 7.2685243006887E-03 
1498	 7.14019635200471E-03 
1499	 6.77048823857596E-03 
1500	 6.84409081714579E-03 
1501	 6.41948916308287E-03 
1502	 6.15620183485858E-03 
1503	 6.56260043891511E-03 
1504	 6.90632216703191E-03 
1505	 6.66738054279153E-03 
1506	 7.00165698643782E-03 
1507	 8.1959437350992E-03 
1508	 8.43266628580271E-03 
1509	 8.19891388696536E-03 
1510	 8.16805147756504E-03 
1511	 7.96204254723605E-03 
1512	 7.93877211252724E-03 
1513	 8.51694649368383E-03 
1514	 8.97485178409652E-03 
1515	 8.82600161360066E-03 
1516	 8.80281992098134E-03 
1517	 8.78673951144103E-03 
1518	 8.62773497262701E-03 
1519	 8.7088847956395E-03 
1520	 8.9325547464055E-03 
1521	 8.90930767823062E-03 
1522	 8.83861141565868E-03 
1523	 9.05716257862956E-03 
1524	 9.42539738271258E-03 
1525	 9.56699777013268E-03 
1526	 9.2579107423139E-03 
1527	 9.20529061457253E-03 
1528	 9.32265502680338E-03 
1529	 9.20320894426031E-03 
1530	 9.68714555026614E-03 
1531	 1.04121725338503E-02 
1532	 1.02661912446637E-02 
1533	 9.80080900358835E-03 
1534	 9.76234385479318E-03 
1535	 1.00888692759021E-02 
1536	 1.03164463459308E-02 
1537	 9.94978831475268E-03 
1538	 9.84808927788764E-03 
1539	 1.02615197870286E-02 
1540	 1.03050031705355E-02 
1541	 1.07101566434716E-02 
1542	 1.11781375473864E-02 
1543	 1.10531556478229E-02 
1544	 1.13175702157653E-02 
1545	 1.13648702377401E-02 
1546	 1.13225302749828E-02 
1547	 1.15957797762083E-02 
1548	 1.11215500171794E-02 
1549	 1.08329544146893E-02 
1550	 1.13304391722704E-02 
1551	 1.14414643241511E-02 
1552	 1.11677348727672E-02 
1553	 1.11481250421887E-02 
1554	 0.011587598546633 
1555	 1.20503728345676E-02 
1556	 1.18228515214539E-02 
1557	 0.011513054907472 
1558	 1.15863917601905E-02 
1559	 1.18088660727869E-02 
1560	 1.16427218838093E-02 
1561	 1.13762240710518E-02 
1562	 1.20858950344322E-02 
1563	 1.25296197340591E-02 
1564	 1.24004384415942E-02 
1565	 1.26208600029022E-02 
1566	 1.26536660247115E-02 
1567	 1.23690861736605E-02 
1568	 1.22246330775842E-02 
1569	 1.25159620381003E-02 
1570	 1.28075309146212E-02 
1571	 1.27163232680763E-02 
1572	 1.27282241385853E-02 
1573	 1.30864984993504E-02 
1574	 1.32202630525005E-02 
1575	 1.30189137966187E-02 
1576	 1.29678542025232E-02 
1577	 1.33643395998871E-02 
1578	 1.36316155248163E-02 
1579	 1.33484804732062E-02 
1580	 1.35460309523883E-02 
1581	 1.37472018088451E-02 
1582	 1.37755742654186E-02 
1583	 1.40701611545315E-02 
1584	 1.36004616216195E-02 
1585	 1.32822091563772E-02 
1586	 1.33530209404831E-02 
1587	 1.33080306664225E-02 
1588	 1.37377674978573E-02 
1589	 1.37017209045491E-02 
1590	 1.33459154901684E-02 
1591	 1.34644312212676E-02 
1592	 1.38085625807165E-02 
1593	 0.013945562195393 
1594	 1.37342866418749E-02 
1595	 1.34570230141242E-02 
1596	 1.31738533177083E-02 
1597	 1.37325109605179E-02 
1598	 1.39546136386209E-02 
1599	 1.30950833765222E-02 
1600	 1.31880067914333E-02 
1601	 1.37782338843887E-02 
1602	 1.39309641297461E-02 
1603	 1.41021189667771E-02 
1604	 1.40216402846893E-02 
1605	 1.38155819495795E-02 
1606	 1.37888001785983E-02 
1607	 1.36908950039332E-02 
1608	 1.41381368769359E-02 
1609	 1.45638405426193E-02 
1610	 1.46726491663673E-02 
1611	 1.56386166004222E-02 
1612	 1.60590938203265E-02 
1613	 0.015294424093399 
1614	 1.46426050514094E-02 
1615	 1.41811028505723E-02 
1616	 1.40715724752563E-02 
1617	 1.44811782546983E-02 
1618	 1.49339572379973E-02 
1619	 1.50743715932617E-02 
1620	 1.49905129146183E-02 
1621	 1.49177142787676E-02 
1622	 1.46374567939033E-02 
1623	 0.014090475231742 
1624	 1.40478659715043E-02 
1625	 1.44165539007554E-02 
1626	 1.43077287564497E-02 
1627	 1.43848559654237E-02 
1628	 1.47610675723072E-02 
1629	 1.49129332875627E-02 
1630	 1.55013898030844E-02 
1631	 0.015828070227168 
1632	 1.53072819551657E-02 
1633	 1.49080620993324E-02 
1634	 0.014447584800467 
1635	 1.42494848736834E-02 
1636	 0.014800151585385 
1637	 1.48583146437688E-02 
1638	 1.45518104272904E-02 
1639	 1.46144281668445E-02 
1640	 1.46477488492757E-02 
1641	 1.45723287884292E-02 
1642	 1.48632663554033E-02 
1643	 1.54931099497409E-02 
1644	 1.58136898942094E-02 
1645	 1.58927351390243E-02 
1646	 1.57676131261651E-02 
1647	 1.46185406794883E-02 
1648	 1.36314817404093E-02 
1649	 1.42012166207269E-02 
1650	 1.47143074863263E-02 
1651	 1.49264225930437E-02 
1652	 1.51768156370107E-02 
1653	 0.014984259712756 
1654	 1.49315095407074E-02 
1655	 1.50781615814324E-02 
1656	 1.49705007821922E-02 
1657	 1.45752022472784E-02 
1658	 1.44387352322456E-02 
1659	 0.014327366780501 
1660	 1.44343992824489E-02 
1661	 1.48874660048726E-02 
1662	 1.48918227961302E-02 
1663	 1.46675437248344E-02 
1664	 1.48391537215815E-02 
1665	 1.50627081874914E-02 
1666	 1.47931224744463E-02 
1667	 0.014531813483739 
1668	 0.01545445596767 
1669	 1.53606958987244E-02 
1670	 1.54260444674959E-02 
1671	 1.51468186506056E-02 
1672	 1.39390858702275E-02 
1673	 1.39666884881083E-02 
1674	 1.47706263647597E-02 
1675	 1.48618886213806E-02 
1676	 1.50906564721977E-02 
1677	 1.46715959079963E-02 
1678	 1.40815119469405E-02 
1679	 1.48710108878959E-02 
1680	 0.015041636636274 
1681	 1.48962750745145E-02 
1682	 1.58335542835675E-02 
1683	 1.61383525276663E-02 
1684	 1.54072766655211E-02 
1685	 1.51293560261573E-02 
1686	 1.54286384159883E-02 
1687	 1.53920203360666E-02 
1688	 1.52067859238666E-02 
1689	 1.51104689283997E-02 
1690	 1.45915963124079E-02 
1691	 1.35343894295134E-02 
1692	 1.30911862794177E-02 
1693	 1.36923489142443E-02 
1694	 0.013772567943 
1695	 1.33321635118067E-02 
1696	 1.39546847903875E-02 
1697	 1.45963396951581E-02 
1698	 1.40803215854696E-02 
1699	 1.40570795320149E-02 
1700	 1.48211422780076E-02 
1701	 1.51131701907406E-02 
1702	 1.50796461517881E-02 
1703	 1.51523289980646E-02 
1704	 1.52380503408985E-02 
1705	 1.51821606103603E-02 
1706	 1.52590840633813E-02 
1707	 1.54233585768784E-02 
1708	 1.48803007899462E-02 
1709	 1.46054628828975E-02 
1710	 1.49107825033947E-02 
1711	 1.46722710463095E-02 
1712	 1.45998345597864E-02 
1713	 1.37850006177337E-02 
1714	 1.37171324272747E-02 
1715	 1.54043910204518E-02 
1716	 1.52031353608928E-02 
1717	 1.46975753071723E-02 
1718	 1.46214527815333E-02 
1719	 1.37161964550037E-02 
1720	 1.39736264924323E-02 
1721	 1.53602635297361E-02 
1722	 1.52434376571276E-02 
1723	 1.45875197778315E-02 
1724	 1.45232938463361E-02 
1725	 1.37082798746688E-02 
1726	 1.34831098281988E-02 
1727	 1.45868036408396E-02 
1728	 1.44232566339567E-02 
1729	 1.40467418144967E-02 
1730	 1.40127992955725E-02 
1731	 1.30668762871133E-02 
1732	 1.36926655767961E-02 
1733	 1.45600604754426E-02 
1734	 1.39735718461905E-02 
1735	 1.48234386957291E-02 
1736	 1.47514137085884E-02 
1737	 0.012699169743014 
1738	 0.01300995890434 
1739	 0.013426747610062 
1740	 1.23224748098705E-02 
1741	 0.013876156509801 
1742	 1.57734173872821E-02 
1743	 1.47071598655906E-02 
1744	 1.33762628794734E-02 
1745	 1.29485649058839E-02 
1746	 1.40648195149363E-02 
1747	 1.40549156412392E-02 
1748	 0.014378788078623 
1749	 1.42812419423006E-02 
1750	 1.25194684276276E-02 
1751	 0.012022785508967 
1752	 1.29769530298749E-02 
1753	 1.33521642134894E-02 
1754	 1.31186822497489E-02 
1755	 1.29387546163874E-02 
1756	 1.33517117840448E-02 
1757	 1.23494546414154E-02 
1758	 1.16691939748178E-02 
1759	 1.08113094026328E-02 
1760	 0.010889597017449 
1761	 1.14232219900096E-02 
1762	 0.011035815255302 
1763	 1.12089744012489E-02 
1764	 1.10529761635551E-02 
1765	 1.15241826876244E-02 
1766	 1.31607772017599E-02 
1767	 1.30835746174613E-02 
1768	 1.20407193145908E-02 
1769	 0.011115429338767 
1770	 1.03013328737044E-02 
1771	 1.14842272760596E-02 
1772	 1.25028986554587E-02 
1773	 1.19395735406588E-02 
1774	 1.14048590912029E-02 
1775	 0.010431637835111 
1776	 1.08143782841767E-02 
1777	 1.45597647952546E-02 
1778	 1.48425339216262E-02 
1779	 0.012457562366313 
1780	 1.17610802248587E-02 
1781	 8.88923530179038E-03 
1782	 9.13171355058673E-03 
1783	 1.28759205664053E-02 
1784	 0.014942778144658 
1785	 1.95150917363482E-02 
1786	 2.01153981221017E-02 
1787	 1.69902287363846E-02 
1788	 1.65289868661699E-02 
1789	 1.42241075356373E-02 
1790	 1.34236911419519E-02 
1791	 1.69088938244519E-02 
1792	 1.64945080094362E-02 
1793	 1.28450110449952E-02 
1794	 1.34199083219583E-02 
1795	 1.12028147822362E-02 
1796	 1.81580499313983E-02 
1797	 2.64968047121701E-02 
1798	 1.43814218367086E-02 
1799	 1.15437831142914E-02 
1800	-5.02894833582888E-05 
1801	-6.09809178542199E-03 
1802	 2.92321612932381E-02 
1803	 0.039408607967502 
1804	 1.56164055676911E-02 
1805	 9.4622412393791E-03 
1806	-9.99561590786999E-03 
1807	-1.30476162994435E-02 
1808	 5.02911125449557E-02 
1809	 4.55900239709409E-02 
1810	-1.20043904014363E-02 
1811	-0.114211702333161 
1812	-0.382101308623872 
1813	-0.508234386105304 
1814	-0.643809880908221 
1815	-0.604659986593932 
1816	-0.135728603399416 
1817	 0.182096618334777 
1818	 0.924361694570226 
1819	 1.2489743653386 
1820	 0.445859611914782 
1821	-9.34597621212578E-02 
1822	-0.594091339639378 
1823	 1.91398889290854E-02 
1824	 0.528460043801351 
1825	 1.13190754922624 
1826	 1.19857700663845 
1827	 8.61208218005698 
1828	 8.37027156546361 
1829	-1.66337032005379E-02 
1830	-0.253026798421198 
1831	 0.703058711218605 
1832	 0.914858253810899 
1833	 5.84956360819514 
1834	 15.4554501626142 
1835	-5.92306035032133 
1836	 49.37573744207 
1837	 0.214936897440357 
1838	-2.55704149396203E-02 
1839	-0.341695953373954 
1840	-3.69115043502721E-02 
1841	 0.302988031445365 
1842	-7.05034770518734E-02 
1843	 0.323986348565492 
1844	 0.908314393012408 
1845	 0.799343559288226 
1846	 0.507309852296384 
1847	 0.299129731226501 
1848	-1.36816624127402 
1849	-1.70960629418898 
1850	-0.261407868611898 
1851	 0.876939108265258 
1852	-9.16265680941615 
1853	-0.642234866299979 
1854	-0.666755047688976 
1855	-0.531647070112218 
1856	-0.572250812287471 
1857	-2.38304951628887 
1858	-3.92387699510674 
1859	-1.82017610565761 
1860	-1.28867238559996 
1861	-1.09871016146188 
1862	-2.2175726529988 
1863	 2.70530191355604E-02 
1864	 1.31824141194063 
1865	 2.24165191334534 
1866	 10.5893616871857 
1867	 13.9877615850381 
1868	-5.76711037528884 
1869	-34.7497635824579 
1870	-0.651307853982274 
1871	-0.448785150081793 
1872	 0.43402472298473 
1873	 2.92196600908775 
1874	-150.625266041619 
1875	-8.51342944904743 
1876	-7.10562666393059 
1877	-79.8703454098122 
1878	 9.99197504449528 
1879	 0.992495730272371 
1880	 0.703932717732349 
1881	 0.971780864461557 
1882	 2.48956677684025 
1883	-3.96219675074545 
1884	-2.03597017284897 
1885	-1.94841147831664 
1886	-1.38321910890963 
1887	 56.6204399842136 
1888	 1.9793929976545 
1889	-0.127051767049426 
1890	-0.207863201218439 
1891	-0.562335459738306 
1892	 0.958243787645738 
1893	 1.77307143277651 
1894	 9.65118319642739E-02 
1895	-2.72403858887812 
1896	 49.2086495533726 
1897	-1.07967313268853 
1898	-4.27407083708632 
1899	-0.699171625101452 
1900	 0.300535551941832 
1901	 1.1979464644471 
1902	 5.90895266717435 
1903	-3.16097618960411 
1904	-1.75369240529693 
1905	-1.34070108143309 
1906	-1.21555506109721 
1907	-0.872632220746272 
1908	-0.672195300924623 
1909	-1.56998471199445 
1910	-1.85695085682496 
1911	-2.55391447192678 
1912	-5.26431941320545 
1913	-7.28308046802138 
1914	 1.41082973724744 
1915	 0.107520962170373 
1916	 0.222610314455619 
1917	-0.394879280848707 
1918	 0.528326735023946 
1919	-0.66836788012042 
1920	-64.7219307360968 
1921	 15.8929279128613 
1922	-7.93017188171108 
1923	 10.0874703765219 
1924	 4.75980461257362 
1925	 0.76511939996152 
1926	 0.359661603241797 
1927	 0.199355495724367 
1928	-1.06919680384164 
1929	 0.787303981275639 
1930	-0.408038229944276 
1931	-1.76942743885248 
1932	-4.76019852962858 
1933	 29.6775790468362 
1934	-6.8418574696332 
1935	-1.32491931871367 
1936	-0.871390522144246 
1937	-0.325160013951846 
1938	-7.01773170074276E-02 
1939	 2.52298244757614E-02 
1940	 0.105791991129898 
1941	 3.02414816377827E-03 
1942	-0.114889846119822 
1943	-8.63647627137772E-02 
1944	-5.37289773332429E-02 
1945	-0.118899092924935 
1946	-8.63159640671205E-02 
1947	-5.64192899476535E-02 
1948	-8.38588508737364E-02 
1949	-5.64338755866291E-03 
1950	-0.048441072153288 
1951	-0.149816927822336 
1952	-0.172030361047439 
1953	-0.174835753284828 
1954	-0.169559744548206 
1955	-0.115754997459629 
1956	-5.61978495780372E-02 
1957	-1.51197278414611E-02 
1958	-9.7011205056185E-03 
1959	-8.19646037891963E-03 
1960	-2.60185249368215E-02 
1961	-6.04282218397946E-02 
1962	-6.61413701977149E-02 
1963	-5.98917157146558E-02 
1964	-5.31698574953338E-02 
1965	-3.54674880004721E-02 
1966	-2.16257768023198E-02 
1967	-5.44430010223034E-03 
1968	-3.43070827399073E-03 
1969	-4.04214925126396E-03 
1970	-1.36491281006141E-03 
1971	 4.78117382815477E-04 
1972	 2.85519341078693E-03 
1973	 4.31138633373096E-03 
1974	 8.50448884422004E-04 
1975	-5.94881734021497E-03 
1976	-1.46831334138986E-02 
1977	-1.67264436066736E-02 
1978	-1.08428436820614E-02 
1979	-9.9823021313933E-03 
1980	-9.07785937277827E-03 
1981	-9.24544449087989E-03 
1982	-8.15701526229798E-03 
1983	-8.28277119543394E-03 
1984	-8.19235771345089E-03 
1985	-5.96814845452037E-03 
1986	-5.11645590315555E-03 
1987	-7.48024313239864E-03 
1988	-7.1242993771507E-03 
1989	-3.73938668040375E-03 
1990	 1.63293379425449E-04 
1991	 2.90086000663399E-03 
1992	 4.11755252161295E-03 
1993	 4.62282778711794E-03 
1994	 3.86811181762886E-03 
1995	-6.32985734812758E-04 
1996	-3.95173300876005E-03 
1997	-1.17994750612711E-03 
1998	 1.08112758875602E-03 
1999	 4.34379749379341E-03 
2000	 1.04513141978282E-02 
2001	 5.39813262330858E-03 
2002	-7.9183725512468E-03 
2003	-2.24527244854865E-02 
2004	-3.59653971411204E-02 
2005	-4.59168990677358E-02 
2006	-4.90705377543231E-02 
2007	-0.033517476836998 
2008	-1.62684636796445E-02 
2009	-7.49466847621242E-03 
2010	 2.86623381211765E-03 
2011	 8.8588425835388E-03 
2012	 6.61867417373738E-03 
2013	 3.80208316833959E-03 
2014	 2.28188483226009E-03 
2015	-3.06719875085691E-03 
2016	-4.09128826415645E-03 
2017	-1.8634285063367E-03 
2018	-1.21836835517853E-03 
2019	 3.8924912093761E-03 
2020	 7.57525597826111E-03 
2021	 2.48858822210594E-03 
2022	 4.27191590425388E-04 
2023	 4.41337333707477E-03 
2024	 3.75323113348597E-03 
2025	-2.88257181957769E-04 
2026	-2.30797351014559E-04 
2027	 1.46280784049254E-03 
2028	-1.34549920727114E-04 
2029	-3.24526177001191E-04 
2030	 3.42701435151044E-03 
2031	 2.03567742909381E-03 
2032	-4.33955620524661E-04 
2033	-1.14401866064277E-04 
2034	-2.3529513011164E-03 
2035	-4.35220165641737E-03 
2036	-3.49151621172019E-03 
2037	-4.84861196808413E-04 
2038	 3.07255497101829E-03 
2039	 0.004971130810996 
2040	 8.48585790747148E-03 
2041	 9.56071770536502E-03 
2042	 7.8424671379886E-03 
2043	 6.07482700914415E-03 
2044	 3.42768464643057E-03 
2045	 1.23719170056929E-03 
2046	-1.46157694521365E-03 
2047	-3.16069780648715E-03 
2048	-1.31000184599131E-03 
2049	 1.75860480575076E-03 
2050	-7.80443223188347E-04 
2051	-4.01667036173406E-03 
2052	-3.93708306342874E-03 
2053	-7.81422518763737E-03 
2054	-6.08120071972092E-03 
2055	-2.35000775777377E-03 
2056	-3.39513871997982E-04 
2057	 1.74057291592291E-03 
2058	 2.88642718791809E-03 
2059	 2.91354832845255E-03 
2060	 3.01603317002607E-03 
2061	 1.60880392573414E-03 
2062	 2.55268016128009E-04 
2063	 3.02338439308753E-03 
2064	 2.64710859480616E-03 
2065	 3.04555182636535E-03 
2066	 5.15484035193896E-03 
2067	 3.05660229204812E-03 
2068	 2.39284658742561E-03 
2069	 2.92929196181494E-03 
2070	-1.68612349308955E-03 
2071	-4.08763335657832E-03 
2072	-1.12726558542268E-03 
2073	-2.78778986897042E-04 
2074	 2.09745763444948E-03 
2075	 2.75009983594187E-03 
2076	 1.74688833703241E-03 
2077	 3.88885529166378E-04 
2078	-9.47416116595724E-04 
2079	-1.66683985496181E-03 
2080	-2.85800152915586E-03 
2081	-3.95097219500533E-03 
2082	-3.4629495988585E-03 
2083	-2.82589247788684E-03 
2084	-2.47376485006865E-03 
2085	-7.7350579484878E-04 
2086	 1.66012213547222E-03 
2087	 1.25962281863699E-03 
2088	 1.44589378657032E-03 
2089	 2.09261478361121E-03 
2090	 1.23361076714069E-03 
2091	 2.40557238268733E-03 
2092	 3.18223786872555E-03 
2093	 4.03838512960301E-03 
2094	 4.67469655381583E-03 
2095	 5.92032878053599E-03 
2096	 5.82873483930882E-03 
2097	 4.92964220301938E-03 
2098	 4.49728353770671E-03 
2099	 3.86059221127248E-03 
2100	 2.43150765358588E-03 
2101	 2.42724379756359E-03 
2102	 2.96713364143661E-03 
2103	 1.57304340761655E-03 
2104	 1.66521288754027E-03 
2105	 3.97746998227376E-03 
2106	 3.98778588703339E-03 
2107	 4.01104570313402E-03 
2108	 6.03455707174099E-03 
2109	 5.78536047966511E-03 
2110	 4.46742599391537E-03 
2111	 4.19779520761666E-03 
2112	 2.41550457376733E-03 
2113	 2.77593571816387E-03 
2114	 4.76995464062199E-03 
2115	 5.41377544479734E-03 
2116	 6.98852524654271E-03 
2117	 7.39681321853219E-03 
2118	 5.36995953921081E-03 
2119	 4.8982748633665E-03 
2120	 5.2212421631192E-03 
2121	 5.76671792976495E-03 
2122	 6.01509284956269E-03 
2123	 4.18406334419948E-03 
2124	 1.03349445100382E-03 
2125	-1.00161051316225E-03 
2126	-2.84144336519813E-03 
2127	-2.98045386953246E-03 
2128	-7.65946952946635E-04 
2129	 4.42645742827226E-04 
2130	 5.96193869872861E-04 
2131	 1.06394746688448E-03 
2132	 7.52215923927943E-04 
2133	 1.78197383150568E-03 
2134	 2.48644150721135E-03 
2135	 4.66629305897938E-03 
2136	 0.004843714991999 
2137	 3.24556756388492E-03 
2138	 3.48461427348651E-03 
2139	 4.26574153328711E-03 
2140	 4.2265297263525E-03 
2141	 4.97957699685908E-03 
2142	 4.24591325141848E-03 
2143	 6.77001228210912E-04 
2144	 1.25055849280593E-03 
2145	 2.11013262707543E-03 
2146	 1.63319579897407E-03 
2147	 3.47218861026796E-03 
2148	 5.31825206362216E-03 
2149	 3.12714737218038E-03 
2150	 1.43790758014712E-03 
2151	 1.56077329090598E-03 
2152	-2.02495824707736E-04 
2153	 2.6348094082511E-04 
2154	 4.35426881124002E-03 
2155	 6.03433951335763E-03 
2156	 4.67624692618218E-03 
2157	 4.04020122513953E-03 
2158	 1.90686158265508E-03 
2159	 1.08714095759425E-03 
2160	 4.09683498228217E-04 
2161	 1.48683463267008E-03 
2162	 5.4248902695342E-03 
2163	 5.68816889277838E-03 
2164	 3.94833557817939E-03 
2165	 4.4441830388845E-03 
2166	 4.92614542394325E-03 
2167	 4.27655351793567E-03 
2168	 4.27961578572912E-03 
2169	 5.04858135012637E-03 
2170	 5.44990749073303E-03 
2171	 3.38729170661311E-03 
2172	 3.52400123584421E-03 
2173	 4.16252163104417E-03 
2174	 3.6904189528392E-03 
2175	 4.21184608446383E-03 
2176	 6.64406165516929E-03 
2177	 7.35523513504896E-03 
2178	 4.03672211099427E-03 
2179	 2.43348354718369E-03 
2180	 1.50154061211101E-03 
2181	 1.72323884453728E-03 
2182	 5.10748393094355E-03 
2183	 8.45878868975069E-03 
2184	 9.46555290341501E-03 
2185	 7.11259511605553E-03 
2186	 6.34370682498033E-03 
2187	 3.34324251201162E-03 
2188	 2.21913461220933E-03 
2189	 2.68382371975861E-03 
2190	 4.40264490765652E-03 
2191	 8.40089564818687E-03 
2192	 8.77215182458975E-03 
2193	 8.22228152715032E-03 
2194	 8.19560942742633E-03 
2195	 5.31839525746408E-03 
2196	 4.15047133700785E-03 
2197	 5.33442706322626E-03 
2198	 5.34883459805233E-03 
2199	 5.36172305146671E-03 
2200	 3.82694719491601E-03 
2201	 7.01611873947844E-05 
2202	 3.02505398360446E-04 
2203	-2.53364059204336E-03 
2204	-7.11518529004931E-03 
2205	-6.67166011497556E-03 
2206	-8.88042924868352E-03 
2207	-8.1981819654815E-03 
2208	-4.78086502535256E-03 
2209	-5.82205116849265E-03 
2210	-1.3615680577524E-03 
2211	 7.35954696071652E-03 
2212	 9.04805397363358E-03 
2213	 9.48734619083836E-03 
2214	 1.01687684789197E-02 
2215	 6.14782856935024E-03 
2216	 2.69055276341356E-03 
2217	-5.47021357401713E-04 
2218	-4.78182986354341E-03 
2219	-4.67337628341955E-03 
2220	-1.0873776213746E-03 
2221	-2.80658768761948E-04 
2222	 3.20094712997813E-03 
2223	 4.06073366095897E-03 
2224	-8.52260390264475E-04 
2225	-1.22811433375825E-03 
2226	 1.77728584491275E-03 
2227	 5.25886476535278E-03 
2228	 1.24014562910108E-02 
2229	 1.34639274644527E-02 
2230	 1.14784396958408E-02 
2231	 9.02990281425155E-03 
2232	 7.78536678236116E-05 
2233	-1.29091438275822E-03 
2234	 1.00698327100889E-03 
2235	 5.83293075477091E-03 
2236	 8.69134401025936E-03 
2237	 4.16373789491895E-03 
2238	-4.46649102375199E-04 
2239	-2.19015023183983E-03 
2240	 2.6589750359485E-03 
2241	 8.54456298707341E-03 
2242	 6.79873671377645E-03 
2243	 8.54766281607341E-03 
2244	 1.27563129470984E-02 
2245	 1.07322098780742E-02 
2246	 1.22065590212517E-02 
2247	 1.05827808363999E-02 
2248	 2.73172973262919E-03 
2249	-1.96584097896035E-04 
2250	 1.8860556294263E-03 
2251	 5.92441768483159E-03 
2252	 3.33142618842589E-03 
2253	 3.94382187145748E-04 
2254	 1.23170089203138E-03 
2255	-3.37077487857192E-03 
2256	-4.37548129167925E-03 
2257	-3.17076836891544E-03 
2258	-4.61639335893257E-03 
2259	-3.67899170354731E-03 
2260	-5.28267822675731E-03 
2261	-6.76699472521609E-03 
2262	-7.67531586651505E-03 
2263	-0.012582459036079 
2264	-1.20221428122535E-02 
2265	-6.28692458738698E-03 
2266	-3.40523030977384E-03 
2267	-1.29138085956175E-04 
2268	 1.76252515122999E-03 
2269	 3.75303452598101E-03 
2270	 3.6861234754279E-03 
2271	 1.65096022778863E-03 
2272	 1.93827061660375E-03 
2273	 2.44952468071713E-03 
2274	 1.8290702142526E-03 
2275	-5.55877498885741E-04 
2276	 7.86394080825947E-04 
2277	 5.53625465240248E-03 
2278	 4.63788275581939E-03 
2279	 1.87709148878873E-03 
2280	 3.66750970182333E-03 
2281	 4.72456606635089E-03 
2282	 4.03772149023785E-03 
2283	 6.43301438632821E-03 
2284	 9.75860775891224E-03 
2285	 7.03016054398729E-03 
2286	 2.51389318415371E-04 
2287	-2.25134461120825E-03 
2288	-3.99056605046132E-03 
2289	-6.65681084613049E-03 
2290	-4.79272738316652E-03 
2291	-2.86893944511374E-04 
2292	 3.54500123579841E-03 
2293	 5.87280023511673E-03 
2294	-3.31021326237228E-03 
2295	-2.03197924643784E-02 
2296	-2.73054919229617E-02 
2297	-2.48153363355496E-02 
2298	-1.59739247270586E-02 
2299	-3.94887809278803E-03 
2300	 1.89006168732562E-03 
2301	-5.09572627815476E-04 
2302	-4.8327035730909E-03 
2303	-5.76421313309036E-03 
2304	-1.02787724756915E-03 
2305	 1.74666483297699E-03 
2306	 1.99373494570456E-03 
2307	 6.39786447758361E-03 
2308	 5.08568172276522E-03 
2309	-3.50813910283662E-04 
2310	 1.99971046140085E-03 
2311	 6.37887632760423E-04 
2312	-7.51981997025445E-04 
2313	 1.17540076158267E-02 
2314	 9.34751118729229E-03 
2315	-7.1015850775106E-04 
2316	 2.34710209634972E-03 
2317	-1.68581282462908E-02 
2318	-0.040045698586304 
2319	-4.27607362178613E-02 
2320	-4.56242573064543E-02 
2321	-3.07055477651986E-02 
2322	-7.79005368511206E-03 
2323	 1.48929085557679E-03 
2324	 3.57260955319612E-03 
2325	-3.44750030422825E-03 
2326	-0.01858653534752 
2327	-2.20014085800228E-02 
2328	-0.011685224894757 
2329	-1.30824994021703E-02 
2330	-1.16003608636854E-02 
2331	 2.54590416587254E-04 
2332	-9.16450162462279E-03 
2333	-2.79675158913452E-02 
2334	-3.40432095490856E-02 
2335	-0.034111659098442 
2336	-3.31372557752745E-02 
2337	-1.83540956812695E-02 
2338	 1.20322618319408E-02 
2339	 2.96873271866615E-02 
2340	 2.04588587080371E-02 
2341	 9.94292004183298E-03 
2342	 1.72171156673216E-03 
2343	-2.89309428871156E-02 
2344	-4.85207333230427E-02 
2345	-4.61395537760817E-02 
2346	-4.18907710334238E-02 
2347	-4.53392906452928E-03 
2348	 2.83080781726651E-02 
2349	 3.31187057646268E-02 
2350	 3.25219343261598E-02 
2351	 8.7314627996276E-03 
2352	 3.21054107029894E-03 
2353	 2.35885510008084E-02 
2354	 0.016172427320824 
2355	-1.12458339068336E-04 
2356	-1.40955278024577E-02 
2357	-2.01532690919219E-02 
2358	-1.70590390161448E-02 
2359	-1.80688615941077E-02 
2360	-8.42502845012145E-03 
2361	-1.31748656423955E-02 
2362	-2.06968911572474E-02 
2363	-9.23262099595097E-03 
2364	-1.48621475739771E-02 
2365	-7.33731334673328E-03 
2366	 0.001674769110813 
2367	-0.015291222222793 
2368	 1.27867000044194E-03 
2369	 5.67104991628483E-03 
2370	-2.83578729250117E-02 
2371	-3.69272264860657E-02 
2372	-5.76702652588377E-02 
2373	-0.114336246715575 
2374	-0.124667643736895 
2375	-8.51453973826203E-02 
2376	-0.118911252065507 
2377	-0.107742259070633 
2378	-2.62370470337527E-02 
2379	-6.35939750262378E-02 
2380	-7.61611711938772E-02 
2381	-4.46254250359209E-02 
2382	-0.124274134392718 
2383	-0.164049255763254 
2384	-0.107990689984875 
2385	-6.76071884731179E-02 
2386	-6.75586581926769E-02 
2387	-7.70497850828511E-02 
2388	-6.91456092461211E-02 
2389	-8.25403909186584E-02 
2390	-0.12151332131492 
2391	-0.111654981545566 
2392	-0.165760150675187 
2393	-0.148239031867692 
2394	-7.37033288686728E-02 
2395	-0.140919242141813 
2396	-0.143412632056796 
2397	-0.116878329183517 
2398	-0.15186533751586 
2399	-8.29821002359999E-02 
2400	 5.83392491964093E-02 
2401	 4.76315575306414E-02 
2402	-0.017298884799623 
2403	 3.32724853191024E-03 
2404	-2.17523474863205E-02 
2405	-8.05256537639112E-02 
2406	-1.36988432325154E-02 
2407	 0.104827220388089 
2408	 0.183589015307917 
2409	 0.177012353601186 
2410	 0.135107861059624 
2411	-2.63041007858131E-02 
2412	-0.196992359917214 
2413	-7.75793985511317E-02 
2414	 0.073819352953046 
2415	 0.12479834466683 
2416	 9.89306900346142E-02 
2417	 1.23728237306796E-02 
2418	-0.02150759487574 
2419	-7.80528422654646E-02 
2420	-0.328865287229682 
2421	-0.420256851993689 
2422	-0.431963177272039 
2423	-0.478414450905413 
2424	-0.386872673440677 
2425	-0.353938386101303 
2426	-0.432023836030206 
2427	-0.426364279400834 
2428	-0.436977529997392 
2429	-0.518162535935849 
2430	-0.263811960672125 
2431	-0.150937331248332 
2432	-0.315307514087085 
2433	-0.28698809072187 
2434	-0.334043014541199 
2435	-0.360451155982387 
2436	-5.25597361923732E-02 
2437	-2.97892466365405E-02 
2438	-0.214173379864274 
2439	-0.609512616315447 
2440	-0.744166717683977 
2441	-0.494829450230254 
2442	-6.53878468444988E-02 
2443	 0.349675964337101 
2444	 1.18284108489387 
2445	 2.35380618281701 
2446	 2.23930913114125 
2447	 5.64725227180408 
2448	 3.39969277981702 
2449	-0.31435575641324 
2450	-0.882195798868896 
2451	-1.50752660438586 
2452	-1.16315119276709 
2453	-0.188737201230027 
2454	 4.82214339797076E-02 
2455	 0.160846829395995 
2456	-3.75280501393794E-02 
2457	 0.48071246611185 
2458	 0.767298327442475 
2459	 0.784382679446995 
2460	 1.32773225901985 
2461	 0.30723592991012 
2462	 11.7013952748815 
2463	 7.86960902371274 
2464	-2.74327318141871 
2465	-2.2743933979099 
2466	-2.14040814743437 
2467	-0.427792395454686 
2468	 0.152155373664228 
2469	-8.87445451376422E-02 
2470	-0.262648494251794 
2471	-0.468109689131269 
2472	-1.09701962398381 
2473	-1.02693847768582 
2474	-1.05535173001773 
2475	-1.7302494657472 
2476	 0.082239414237514 
2477	 6.75179683628038 
2478	-2.60686947249471 
2479	-2.13418694232689 
2480	-8.85884302342832E-02 
2481	-3.75853357315846 
2482	-1.3576150711457 
2483	-0.800010577876728 
2484	-0.73075385959194 
2485	-0.706027845869684 
2486	-0.913941037749785 
2487	-0.864328332954269 
2488	-0.69198596203952 
2489	-0.684023652671221 
2490	-0.535766509987311 
2491	-0.216817336957459 
2492	-0.252193716140897 
2493	 0.189924914802178 
2494	 0.268286148420151 
2495	 0.122267104375225 
2496	 0.712838630901699 
2497	 1.53042641842086 
2498	 3.00172620889914 
2499	 1.08876463309478 
2500	 0.498420457486988 
