Wavelength	rt0622close00009.asd
350	 2.00332682446764E-02 
351	 2.11252855692261E-02 
352	 2.07910129893948E-02 
353	 0.020216064866404 
354	 2.03037007157814E-02 
355	 2.00926055646412E-02 
356	 0.020312928597043 
357	 2.06785958662036E-02 
358	 2.07796909251681E-02 
359	 2.10656640932576E-02 
360	 2.15427119436672E-02 
361	 2.20325634682771E-02 
362	 2.22358431831932E-02 
363	 2.18069769354472E-02 
364	 2.15035378116448E-02 
365	 2.18146636377222E-02 
366	 2.26595101454382E-02 
367	 2.26379264199399E-02 
368	 2.24710077850225E-02 
369	 2.29275491372583E-02 
370	 0.02271413040949 
371	 2.26754936035926E-02 
372	 2.30510735886824E-02 
373	 2.36176617338505E-02 
374	 0.023732929616958 
375	 2.36459820208188E-02 
376	 2.37445788627697E-02 
377	 2.44255901950209E-02 
378	 2.46153989673188E-02 
379	 2.44657655631198E-02 
380	 2.44796485197057E-02 
381	 2.52237151141151E-02 
382	 2.59035125405673E-02 
383	 2.61982048313667E-02 
384	 2.61267542650326E-02 
385	 2.60817694600834E-02 
386	 2.61346221192133E-02 
387	 0.026383191563223 
388	 0.026955188991008 
389	 2.70098480580109E-02 
390	 2.69585511668059E-02 
391	 2.72264282540793E-02 
392	 2.76212922736248E-02 
393	 0.028254755205023 
394	 2.85048929197644E-02 
395	 2.79124829622472E-02 
396	 2.80794219448007E-02 
397	 2.86731904464268E-02 
398	 2.91399157130432E-02 
399	 2.89433678673082E-02 
400	 2.91886002795744E-02 
401	 2.95422357845205E-02 
402	 2.96691104292293E-02 
403	 2.97021608206288E-02 
404	 3.01456669132306E-02 
405	 3.04699023950457E-02 
406	 3.00934118981215E-02 
407	 3.05532918224921E-02 
408	 0.030890323640876 
409	 3.09076566641774E-02 
410	 3.12711378847915E-02 
411	 3.13798000302028E-02 
412	 3.14392091644003E-02 
413	 0.031674128371886 
414	 3.20254614687696E-02 
415	 3.23039325074656E-02 
416	 3.24855441689238E-02 
417	 3.26513284170302E-02 
418	 3.29985005811805E-02 
419	 0.033402274982203 
420	 3.36962508691416E-02 
421	 3.37173161349193E-02 
422	 3.40154930441043E-02 
423	 0.034486288783336 
424	 3.48952036707347E-02 
425	 0.035056065037429 
426	 3.52867038509712E-02 
427	 3.56578895301459E-02 
428	 0.03609582426926 
429	 0.036503837597062 
430	 3.68694581962654E-02 
431	 3.71861164701584E-02 
432	 3.74440635296187E-02 
433	 3.77807280071357E-02 
434	 3.82123993498644E-02 
435	 3.86777800838056E-02 
436	 3.89668134861107E-02 
437	 3.94091936362254E-02 
438	 3.98572164780843E-02 
439	 3.99879710466226E-02 
440	 4.04565330535713E-02 
441	 4.08532169289644E-02 
442	 4.10526404887151E-02 
443	 0.041520127642366 
444	 4.18890471764143E-02 
445	 4.22101478163403E-02 
446	 4.25988148966247E-02 
447	 4.29780987835224E-02 
448	 4.32720282579616E-02 
449	 4.35032020904351E-02 
450	 4.37682463855528E-02 
451	 4.41054624740086E-02 
452	 4.43119480989377E-02 
453	 4.43576030259588E-02 
454	 4.46348353870352E-02 
455	 4.48687392439915E-02 
456	 4.50769177060714E-02 
457	 4.53342069549042E-02 
458	 4.54538945231321E-02 
459	 4.55732554315268E-02 
460	 4.57903066101725E-02 
461	 4.61241366351876E-02 
462	 4.60520777216181E-02 
463	 4.61749698893377E-02 
464	 4.67978901633221E-02 
465	 4.67759453387307E-02 
466	 0.046798316261509 
467	 4.70204135027467E-02 
468	 4.73016176765804E-02 
469	 4.73263393790954E-02 
470	 4.74599765826651E-02 
471	 4.77513190216737E-02 
472	 4.77421760486538E-02 
473	 0.048109356023001 
474	 4.84938456854089E-02 
475	 4.85288960737364E-02 
476	 4.88294819093386E-02 
477	 4.91072122930155E-02 
478	 0.049346439791936 
479	 0.049700641740109 
480	 4.99403137341082E-02 
481	 5.01474355380384E-02 
482	 0.050416736125167 
483	 5.07992428724975E-02 
484	 5.09703066185224E-02 
485	 5.11494068273562E-02 
486	 5.16395949727834E-02 
487	 5.19951779417601E-02 
488	 5.23377418754261E-02 
489	 5.27207442595018E-02 
490	 5.31067459620139E-02 
491	 5.35899440688564E-02 
492	 5.39916350895158E-02 
493	 5.42495914420565E-02 
494	 5.47757811836338E-02 
495	 5.52306217585273E-02 
496	 5.56018303099494E-02 
497	 5.60357265640694E-02 
498	 5.64828587159283E-02 
499	 5.69880684661634E-02 
500	 5.75531854612706E-02 
501	 5.81046711438552E-02 
502	 5.86083153108125E-02 
503	 5.91002708484498E-02 
504	 5.96084220405839E-02 
505	 6.00048136393159E-02 
506	 6.04908950079448E-02 
507	 6.10849921323473E-02 
508	 6.16486741647281E-02 
509	 6.20959220964465E-02 
510	 6.25113055371355E-02 
511	 6.30125212823931E-02 
512	 6.37566007344061E-02 
513	 6.44001666650195E-02 
514	 6.49415016889617E-02 
515	 6.55245400602403E-02 
516	 6.61604596679763E-02 
517	 0.066804496656155 
518	 6.74356593969828E-02 
519	 6.80738340634259E-02 
520	 6.87396183092394E-02 
521	 6.94210868930493E-02 
522	 7.00983455801753E-02 
523	 7.07195710230415E-02 
524	 7.14481215990858E-02 
525	 7.22507871786788E-02 
526	 0.072966819658068 
527	 7.36903571474641E-02 
528	 7.44319320470859E-02 
529	 7.51805390953623E-02 
530	 7.58988247540692E-02 
531	 7.67273401678854E-02 
532	 7.75404840098527E-02 
533	 7.81961274684322E-02 
534	 7.91256238304818E-02 
535	 7.99792248404557E-02 
536	 8.06562784636837E-02 
537	 8.13844560183922E-02 
538	 8.22445668342664E-02 
539	 8.31020920559112E-02 
540	 8.38616733376213E-02 
541	 8.47632307996844E-02 
542	 8.56253595051307E-02 
543	 8.64320922398672E-02 
544	 8.72694912987734E-02 
545	 8.80688581139717E-02 
546	 8.88973044155518E-02 
547	 8.97554070387147E-02 
548	 9.04775599690604E-02 
549	 9.13056245392998E-02 
550	 9.21798850216441E-02 
551	 9.29676585726203E-02 
552	 9.37772583013036E-02 
553	 9.45784126954302E-02 
554	 9.53854957035411E-02 
555	 9.62623995141615E-02 
556	 9.70338592005427E-02 
557	 0.097810812410752 
558	 9.86678227647792E-02 
559	 9.93406428199084E-02 
560	 0.100094974871568 
561	 0.100912325344202 
562	 0.101610384123432 
563	 0.102260585840105 
564	 0.102900510904141 
565	 0.103556277457869 
566	 0.104252056671363 
567	 0.104802047427891 
568	 0.105292731620793 
569	 0.105870203746166 
570	 0.10638403770069 
571	 0.10678023465652 
572	 0.107138558964447 
573	 0.107663445743462 
574	 0.108072251567381 
575	 0.108393298508575 
576	 0.108714472291791 
577	 0.109088128973701 
578	 0.109329370037978 
579	 0.109556908038775 
580	 0.110016234231665 
581	 0.110220384144209 
582	 0.11030276791039 
583	 0.110392171831978 
584	 0.110461220083354 
585	 0.110540088725715 
586	 0.110520805116711 
587	 0.11030406117945 
588	 0.110191831413576 
589	 0.110024515807814 
590	 0.109850277398981 
591	 0.109930295158809 
592	 0.10988236583852 
593	 0.109613218048653 
594	 0.109171631073709 
595	 0.108827934639056 
596	 0.108341295483534 
597	 0.107744545975574 
598	 0.10722253910487 
599	 0.106807695471671 
600	 0.106227228122825 
601	 0.105556927565224 
602	 0.105547022310264 
603	 0.105405078171353 
604	 0.105270664173684 
605	 0.105441784007263 
606	 0.105386493488467 
607	 0.10547190448545 
608	 0.105685520815649 
609	 0.105602171019936 
610	 0.105641573048035 
611	 0.105757739944694 
612	 0.105840947155347 
613	 0.105894280623817 
614	 0.105950161439231 
615	 0.105930784324464 
616	 0.105766029916679 
617	 0.106026573840785 
618	 0.106212259040818 
619	 0.106091313283836 
620	 0.10603083701717 
621	 0.106147253834042 
622	 0.106278298455842 
623	 0.106231204665063 
624	 0.106223229658159 
625	 0.106223372701107 
626	 0.10621072114434 
627	 0.106179099211872 
628	 0.106040830331702 
629	 0.105968286661042 
630	 0.106089241424776 
631	 0.106334354621333 
632	 0.106340095483355 
633	 0.106240675632318 
634	 0.106364768788253 
635	 0.106435868401539 
636	 0.106463898182553 
637	 0.106459167788116 
638	 0.106390699208162 
639	 0.106376988411975 
640	 0.106431053759417 
641	 0.106492468651364 
642	 0.106357050332446 
643	 0.106281957784039 
644	 0.106227325561671 
645	 0.105941321114127 
646	 0.106073093544328 
647	 0.106097290040127 
648	 0.105738204287899 
649	 0.105836865655826 
650	 0.105802723438193 
651	 0.105622184869147 
652	 0.105466454859102 
653	 0.105199163269046 
654	 0.104811632184034 
655	 0.104318103430011 
656	 0.103827449464068 
657	 0.103437620058299 
658	 0.103065335783265 
659	 0.102674664475149 
660	 0.10253902215289 
661	 0.102451130131062 
662	 0.102303705324865 
663	 0.102089867385536 
664	 0.102136132565771 
665	 0.102147146725991 
666	 0.101965103384502 
667	 0.101803548729842 
668	 0.101838565177647 
669	 0.101947746481973 
670	 0.101934532569473 
671	 0.101840130861765 
672	 0.101714754711218 
673	 0.101656334316143 
674	 0.101785358185179 
675	 0.101840620161431 
676	 0.101868389687985 
677	 0.101942987042234 
678	 0.102050281276469 
679	 0.102189732663843 
680	 0.102301856776271 
681	 0.102332365131721 
682	 0.102463827880721 
683	 0.102536354673669 
684	 0.102515089027737 
685	 0.10257239713569 
686	 0.102535104856948 
687	 0.102371522061841 
688	 0.102197316378127 
689	 0.10234653709188 
690	 0.102182029463243 
691	 0.101714352564716 
692	 0.101333321532496 
693	 0.101096110768478 
694	 0.100642556329998 
695	 0.100012569271907 
696	 0.099905312611559 
697	 9.92677389303894E-02 
698	 9.83239418152403E-02 
699	 9.76374107787442E-02 
700	 9.69817395689214E-02 
701	 9.61927859265463E-02 
702	 9.52934506053659E-02 
703	 9.44136282221518E-02 
704	 9.35105806682903E-02 
705	 9.25811034915805E-02 
706	 9.16160879845962E-02 
707	 9.04925882284021E-02 
708	 8.93976339277362E-02 
709	 8.81460516143382E-02 
710	 8.65313304195419E-02 
711	 8.50089731937042E-02 
712	 8.34239534459237E-02 
713	 8.16841313115601E-02 
714	 7.97596731478588E-02 
715	 7.78967087814743E-02 
716	 7.58530272680939E-02 
717	 7.35497893755453E-02 
718	 7.12779886676979E-02 
719	 6.91552414548698E-02 
720	 6.74508309640393E-02 
721	 6.58908006005365E-02 
722	 6.39779435027779E-02 
723	 6.17460188723784E-02 
724	 5.95879453405436E-02 
725	 5.75288542966183E-02 
726	 5.52764230514396E-02 
727	 5.29831819439312E-02 
728	 0.050698438490848 
729	 0.047740353456808 
730	 4.49843293186542E-02 
731	 4.26812903405907E-02 
732	 4.05623360052312E-02 
733	 3.87342096585908E-02 
734	 3.70932887507544E-02 
735	 3.57227197516508E-02 
736	 3.49150986853622E-02 
737	 3.39729343916483E-02 
738	 3.32644380483318E-02 
739	 3.30813715856709E-02 
740	 3.26833231864335E-02 
741	 0.032194403511866 
742	 3.18988988042692E-02 
743	 3.20497597399305E-02 
744	 3.20084640251245E-02 
745	 3.18186418702211E-02 
746	 3.16795940894149E-02 
747	 3.18923151908008E-02 
748	 3.18340915806446E-02 
749	 0.031700600598127 
750	 3.17515266047697E-02 
751	 3.17202462537537E-02 
752	 3.16635764880306E-02 
753	 3.16610088295169E-02 
754	 3.17648228107958E-02 
755	 0.03167654286036 
756	 3.17845451118295E-02 
757	 3.20346115382129E-02 
758	 3.14895940345015E-02 
759	 3.15248216815809E-02 
760	 3.19389387483225E-02 
761	 3.15490646416506E-02 
762	 3.21388024300215E-02 
763	 3.24032958805968E-02 
764	 0.032360171626217 
765	 3.24338470619291E-02 
766	 3.26035560653629E-02 
767	 3.25799965665343E-02 
768	 0.032512958779804 
769	 3.29351669169244E-02 
770	 3.31855739616906E-02 
771	 3.33325552381228E-02 
772	 3.35237955250979E-02 
773	 3.36880935998689E-02 
774	 0.034022224423138 
775	 3.44128519565628E-02 
776	 3.46521000292633E-02 
777	 3.48562297703457E-02 
778	 3.50843543386991E-02 
779	 0.03540985114922 
780	 3.59051387004025E-02 
781	 3.63704890688954E-02 
782	 3.66437622226755E-02 
783	 3.67729043324488E-02 
784	 3.72518075354258E-02 
785	 0.037716697508614 
786	 3.81833040583438E-02 
787	 3.87380880237161E-02 
788	 3.91271882626845E-02 
789	 3.95276406276497E-02 
790	 4.00277270170965E-02 
791	 4.05977212778048E-02 
792	 4.08652534207944E-02 
793	 4.14189627609031E-02 
794	 4.23384463211165E-02 
795	 4.26451847191648E-02 
796	 4.29452693085004E-02 
797	 4.32705892524613E-02 
798	 4.36230014582753E-02 
799	 4.44488595539285E-02 
800	 4.49079927276786E-02 
801	 4.50694279004762E-02 
802	 4.54611472976287E-02 
803	 0.045561610568773 
804	 4.57012697361338E-02 
805	 4.59855152450087E-02 
806	 4.62010417407927E-02 
807	 4.62083643338823E-02 
808	 4.60904036491673E-02 
809	 4.59608876648007E-02 
810	 4.58877799176849E-02 
811	 0.045587988417242 
812	 4.52291472227063E-02 
813	 4.50360440128388E-02 
814	 4.41246517907235E-02 
815	 4.37960744412426E-02 
816	 0.043904660034739 
817	 4.31433661745607E-02 
818	 0.042355436889133 
819	 4.16963206018449E-02 
820	 0.041102481463866 
821	 0.040407934474776 
822	 3.89428457563537E-02 
823	 3.72820981216356E-02 
824	 3.59676179885612E-02 
825	 0.034448833083825 
826	 3.26297744858251E-02 
827	 3.07917501840391E-02 
828	 2.93752492252352E-02 
829	 2.78388879354665E-02 
830	 2.62694822305549E-02 
831	 2.48937958527265E-02 
832	 2.39896150789253E-02 
833	 2.30713210226894E-02 
834	 2.24579208114315E-02 
835	 2.21496356605112E-02 
836	 2.16586149210109E-02 
837	 2.09657935310438E-02 
838	 2.06610716889454E-02 
839	 2.08745986488933E-02 
840	 2.02428938574917E-02 
841	 1.96347359341859E-02 
842	 0.019390721660002 
843	 1.94875714893284E-02 
844	 1.92125998191864E-02 
845	 1.87570838319156E-02 
846	 1.83959410344508E-02 
847	 1.83908001039456E-02 
848	 0.018669209259188 
849	 1.81307497489649E-02 
850	 1.70449843411151E-02 
851	 1.74104735713248E-02 
852	 1.76971034993959E-02 
853	 1.74022312174575E-02 
854	 1.66572977213939E-02 
855	 1.63817527193896E-02 
856	 1.66122028694147E-02 
857	 1.66268370532009E-02 
858	 1.59594760238109E-02 
859	 1.57888276820796E-02 
860	 1.57536000274079E-02 
861	 1.57698188567039E-02 
862	 1.58242570178447E-02 
863	 1.54900177831874E-02 
864	 1.51187962109032E-02 
865	 0.014966642436774 
866	 1.50574801415997E-02 
867	 1.46736822729191E-02 
868	 1.43549390189648E-02 
869	 1.43090801978586E-02 
870	 1.41002285206024E-02 
871	 1.40202709684357E-02 
872	 1.40057884425123E-02 
873	 1.38410336249195E-02 
874	 0.013092284582716 
875	 1.32113696646582E-02 
876	 1.32950727799354E-02 
877	 1.24300281854836E-02 
878	 1.24996143436735E-02 
879	 1.25941080640188E-02 
880	 0.012277853599372 
881	 1.15689557048205E-02 
882	 1.14389688765033E-02 
883	 1.11599449541922E-02 
884	 1.11470846769753E-02 
885	 1.22696789903685E-02 
886	 1.11456210779836E-02 
887	 1.02914932324346E-02 
888	 1.05542554521809E-02 
889	 1.02315411214533E-02 
890	 1.08684304937854E-02 
891	 1.12951530744836E-02 
892	 1.06793289125993E-02 
893	 9.76817982204264E-03 
894	 0.009884806201648 
895	 1.01062894562838E-02 
896	 9.40163871769367E-03 
897	 9.01625845966769E-03 
898	 9.32516392854107E-03 
899	 1.00046927583831E-02 
900	 1.01945037926808E-02 
901	 8.37452321898496E-03 
902	 8.44894586217202E-03 
903	 9.08139131334172E-03 
904	 8.01923053887236E-03 
905	 9.38044840029846E-03 
906	 8.37871137069153E-03 
907	 6.44054047360153E-03 
908	 8.66426565629818E-03 
909	 7.82488884996505E-03 
910	 7.60236478787353E-03 
911	 8.3749125560428E-03 
912	 7.04190477063691E-03 
913	 6.13555003920861E-03 
914	 6.41761125347895E-03 
915	 7.18849840418863E-03 
916	 6.64766773859321E-03 
917	 6.12687866872948E-03 
918	 6.33938782075478E-03 
919	 6.72243919730123E-03 
920	 5.43040848171279E-03 
921	 6.3769296176592E-03 
922	 7.54223260106475E-03 
923	 6.91876030048152E-03 
924	 4.92854325987389E-03 
925	 6.09680858253993E-03 
926	 7.65022788567037E-03 
927	 6.26575909028367E-03 
928	 6.96050415508913E-03 
929	 4.64528685355607E-03 
930	 3.5489360578799E-03 
931	 1.08446990759557E-02 
932	 7.18455812333255E-03 
933	 8.95734178795222E-04 
934	 1.79957927786775E-03 
935	 9.9174773139828E-03 
936	 8.9886020573025E-04 
937	-1.61454811549596E-03 
938	 4.78836833816049E-03 
939	 1.18825776637996E-02 
940	 2.91052399036481E-03 
941	-1.18854850868667E-03 
942	 3.1833037795816E-03 
943	 8.26498410738787E-03 
944	-2.73226613860886E-04 
945	-4.79795883357624E-03 
946	-2.29459302700843E-03 
947	-6.30216466967005E-04 
948	-1.58546925620623E-03 
949	 5.21488180883207E-03 
950	 1.09594957124079E-02 
951	 1.2536123596726E-03 
952	 4.31065958800678E-04 
953	 2.19473855604839E-03 
954	 1.14730785118187E-04 
955	-6.52180969259402E-03 
956	 6.60668687983024E-03 
957	 9.01658940169256E-03 
958	 9.90891541192994E-04 
959	 3.59702413277658E-03 
960	 8.61844125057749E-03 
961	 5.85572481379423E-03 
962	 4.7241103055234E-05 
963	 3.30205098415859E-03 
964	 5.03037084754722E-03 
965	 3.34584115095464E-03 
966	 1.75666905493402E-03 
967	 5.18849225334796E-03 
968	 5.10348422686204E-03 
969	 4.34053753034735E-03 
970	 4.55174313892463E-03 
971	 5.51186297249044E-03 
972	 8.18738157975062E-03 
973	 6.75522542225597E-03 
974	 3.5985380671696E-03 
975	 7.50916585839925E-03 
976	 5.24099316615051E-03 
977	 4.03348260972411E-03 
978	 4.89687673268308E-03 
979	 2.6923317562378E-03 
980	 4.78835768998998E-03 
981	 6.6321612785382E-03 
982	 6.36687022403941E-03 
983	 5.25862964926978E-03 
984	 2.90201164672154E-03 
985	 2.96486907584537E-03 
986	 4.30956194504731E-03 
987	 2.82158937439131E-03 
988	 2.80166813419602E-03 
989	 4.0042592083136E-03 
990	 4.55340723488324E-03 
991	 2.75842539626792E-03 
992	 4.12547912623018E-03 
993	 5.06612475741507E-03 
994	 4.14472224439564E-03 
995	 2.52315558792752E-03 
996	 2.72834936371272E-03 
997	 4.26613432279517E-03 
998	 4.67329982321591E-03 
999	 2.17657908321966E-03 
1000	 4.16194336733351E-03 
1001	 4.8423990311603E-03 
1002	 4.94963023142457E-03 
1003	 5.00953784448559E-03 
1004	 5.15117862589414E-03 
1005	 4.99258409527742E-03 
1006	 4.60837154905067E-03 
1007	 4.09684542771389E-03 
1008	 3.86031611852559E-03 
1009	 4.01091776754112E-03 
1010	 4.2084069977013E-03 
1011	 4.84830471265617E-03 
1012	 5.29540139265012E-03 
1013	 4.8757746224916E-03 
1014	 4.69848641780746E-03 
1015	 4.49634355995494E-03 
1016	 4.13489220300321E-03 
1017	 3.55961947620032E-03 
1018	 3.09053861210887E-03 
1019	 2.14601972978946E-03 
1020	 2.00572358680093E-03 
1021	 2.29538585736132E-03 
1022	 2.71894465379392E-03 
1023	 3.24849482681051E-03 
1024	 3.41417084608221E-03 
1025	 2.7791264211148E-03 
1026	 2.26906749202225E-03 
1027	 2.35317015095428E-03 
1028	 2.67011839331992E-03 
1029	 3.1722211041903E-03 
1030	 4.49773895795251E-03 
1031	 0.004916663655488 
1032	 5.37774138694201E-03 
1033	 5.12599110494468E-03 
1034	 3.48935941678969E-03 
1035	 3.21980760222502E-03 
1036	 3.30616142567463E-03 
1037	 3.27702482153839E-03 
1038	 4.41645198920581E-03 
1039	 4.52798437473291E-03 
1040	 3.47748551192468E-03 
1041	 3.15320892770135E-03 
1042	 2.91936782451308E-03 
1043	 2.54825397263118E-03 
1044	 2.60202404770891E-03 
1045	 3.25779456804421E-03 
1046	 3.43010339512583E-03 
1047	 3.44546511095116E-03 
1048	 3.6311261813953E-03 
1049	 3.93811998021828E-03 
1050	 4.03196715110917E-03 
1051	 3.85183709246043E-03 
1052	 4.15591143354393E-03 
1053	 4.83585493026208E-03 
1054	 5.00469931586834E-03 
1055	 5.40380637518494E-03 
1056	 5.52859751470965E-03 
1057	 5.3656270100229E-03 
1058	 4.41879206825757E-03 
1059	 4.21290309789687E-03 
1060	 4.34123921573143E-03 
1061	 0.004119195556812 
1062	 3.7984141675947E-03 
1063	 3.67700186011462E-03 
1064	 3.21711872570181E-03 
1065	 3.36955622755258E-03 
1066	 4.72203633844524E-03 
1067	 4.68083976109013E-03 
1068	 3.47007363150894E-03 
1069	 3.49931724503147E-03 
1070	 3.49249888203049E-03 
1071	 3.49746680534185E-03 
1072	 4.71883864306674E-03 
1073	 5.59855959941947E-03 
1074	 5.63836665212629E-03 
1075	 4.53181223236514E-03 
1076	 4.33642088101454E-03 
1077	 4.18931217050065E-03 
1078	 4.01378464583852E-03 
1079	 3.79881763726369E-03 
1080	 4.12038069465199E-03 
1081	 5.17649775267148E-03 
1082	 5.09287527155617E-03 
1083	 4.67729138452585E-03 
1084	 4.45532123805211E-03 
1085	 2.9443819778527E-03 
1086	 2.63556307989439E-03 
1087	 4.09126509753954E-03 
1088	 4.50018641761075E-03 
1089	 4.9593634356499E-03 
1090	 4.45149797939688E-03 
1091	 4.61380153415239E-03 
1092	 4.34513594450757E-03 
1093	 4.41075810828257E-03 
1094	 5.42205393571416E-03 
1095	 5.37230207684858E-03 
1096	 4.12175907323521E-03 
1097	 3.89366454449923E-03 
1098	 3.96424584985049E-03 
1099	 3.89480473442463E-03 
1100	 4.37868808438126E-03 
1101	 4.68943818136981E-03 
1102	 4.64943093546444E-03 
1103	 4.4780504198801E-03 
1104	 4.0882014416519E-03 
1105	 4.15920890418443E-03 
1106	 3.9174969146743E-03 
1107	 4.82054694575846E-03 
1108	 5.0684338235504E-03 
1109	 0.004248896799028 
1110	 4.12442476937315E-03 
1111	 2.68100256852685E-03 
1112	 3.04712860536121E-03 
1113	 7.0998389782632E-03 
1114	 8.24713705639253E-03 
1115	 7.91138602751845E-03 
1116	 8.54271076137102E-03 
1117	 5.51464328296378E-03 
1118	 3.58874831599552E-03 
1119	 9.45273298467505E-03 
1120	 9.40202837547243E-03 
1121	 1.09002338576561E-04 
1122	-7.09341902589856E-03 
1123	 1.26344818377271E-03 
1124	-6.14511036128314E-03 
1125	-5.58267684675655E-03 
1126	 5.65304176572718E-03 
1127	-3.40901494373897E-03 
1128	-1.19980959427522E-02 
1129	-1.05891834916298E-02 
1130	-1.00463038920555E-03 
1131	 4.33506038847155E-04 
1132	 3.98400539546581E-03 
1133	 4.04462067025822E-03 
1134	-3.70700034759978E-03 
1135	-3.08011658281371E-03 
1136	 5.00500739415728E-03 
1137	 5.76785814573158E-03 
1138	 5.48635906824373E-03 
1139	 4.11064054964023E-03 
1140	 3.04089828623585E-03 
1141	 9.49291826486947E-04 
1142	-8.58886968857745E-04 
1143	 1.46980020420398E-03 
1144	 2.84224994406535E-03 
1145	-2.01790849548579E-03 
1146	-2.95483020164859E-03 
1147	 1.55982927603532E-03 
1148	 0.003616766224062 
1149	 4.13773414566461E-03 
1150	 4.54662188339829E-03 
1151	 3.24933736941937E-03 
1152	 2.67112976630491E-03 
1153	 3.09670092952389E-03 
1154	 3.88983448936195E-03 
1155	 4.87703394714476E-03 
1156	 4.8739599122906E-03 
1157	 5.18326459455862E-03 
1158	 4.33129392491568E-03 
1159	 3.6685416013002E-03 
1160	 4.77377252059003E-03 
1161	 6.19458542975689E-03 
1162	 5.48891485266952E-03 
1163	 4.21443679713059E-03 
1164	 3.53025270024044E-03 
1165	 3.31185057271274E-03 
1166	 3.77771588963651E-03 
1167	 4.39341739777349E-03 
1168	 4.53373043849685E-03 
1169	 4.19271597206994E-03 
1170	 3.78138517624667E-03 
1171	 3.67181265392088E-03 
1172	 3.96627014689624E-03 
1173	 4.09728669285922E-03 
1174	 4.1744697034354E-03 
1175	 4.38316942288603E-03 
1176	 4.91715276115555E-03 
1177	 4.55414329703227E-03 
1178	 4.17365222964967E-03 
1179	 4.40311203933666E-03 
1180	 4.05429743115036E-03 
1181	 3.52759223777053E-03 
1182	 3.62267399655312E-03 
1183	 3.74004394471622E-03 
1184	 2.8639401158836E-03 
1185	 2.15793049445732E-03 
1186	 2.61434740952844E-03 
1187	 2.95940190264384E-03 
1188	 2.69780511371444E-03 
1189	 2.49592103166521E-03 
1190	 2.6301529369684E-03 
1191	 2.62305613570421E-03 
1192	 2.60872931710469E-03 
1193	 3.05380560588874E-03 
1194	 3.88304736037897E-03 
1195	 3.3895662761978E-03 
1196	 2.71924970120375E-03 
1197	 3.51434929067655E-03 
1198	 4.16919058229952E-03 
1199	 4.12281346330718E-03 
1200	 3.93406386791533E-03 
1201	 2.57038145760195E-03 
1202	 1.64536849635105E-03 
1203	 3.01173451936638E-03 
1204	 4.05556900306019E-03 
1205	 3.60233157540225E-03 
1206	 3.26703041962063E-03 
1207	 3.04122213366331E-03 
1208	 3.08079568811598E-03 
1209	 3.51285831368407E-03 
1210	 3.43470022447383E-03 
1211	 3.24416543777479E-03 
1212	 3.36366711289561E-03 
1213	 3.49406675663953E-03 
1214	 3.32193687938972E-03 
1215	 3.50382813454665E-03 
1216	 3.07550680857174E-03 
1217	 2.23147048175539E-03 
1218	 2.30291264805004E-03 
1219	 3.31294885257276E-03 
1220	 3.78732354246933E-03 
1221	 3.8824853164177E-03 
1222	 3.93677083507707E-03 
1223	 3.50172804200893E-03 
1224	 3.73880548591551E-03 
1225	 4.34460031912913E-03 
1226	 4.10993961884088E-03 
1227	 3.88546873495757E-03 
1228	 3.96704632334176E-03 
1229	 3.82111691699177E-03 
1230	 3.61774587349529E-03 
1231	 3.65528060893313E-03 
1232	 3.60585210813665E-03 
1233	 3.60520981528462E-03 
1234	 3.85484219286576E-03 
1235	 3.93183730100589E-03 
1236	 3.88221089201987E-03 
1237	 3.89905482733839E-03 
1238	 3.76145086811134E-03 
1239	 4.14225335272989E-03 
1240	 4.11552067318628E-03 
1241	 3.96100246309807E-03 
1242	 4.0645488198258E-03 
1243	 3.77775533855694E-03 
1244	 3.68513516052449E-03 
1245	 3.87004373802545E-03 
1246	 3.62800653547413E-03 
1247	 3.07914509052161E-03 
1248	 2.89623020259572E-03 
1249	 3.33607594424521E-03 
1250	 3.73058022854871E-03 
1251	 3.85327054376766E-03 
1252	 4.0346795791566E-03 
1253	 3.83992228208967E-03 
1254	 3.56349432405847E-03 
1255	 3.71087991386036E-03 
1256	 3.72451088811904E-03 
1257	 3.6321020491303E-03 
1258	 3.7192898002979E-03 
1259	 4.00522908920814E-03 
1260	 3.94047842097684E-03 
1261	 3.4826671445817E-03 
1262	 3.41608247410161E-03 
1263	 3.17765154913729E-03 
1264	 3.91075358507929E-03 
1265	 4.26166029556755E-03 
1266	 4.03443037650501E-03 
1267	 3.98905793321658E-03 
1268	 3.87061512124204E-03 
1269	 3.71263178314045E-03 
1270	 3.8718121802271E-03 
1271	 3.91337082637904E-03 
1272	 3.33745216593052E-03 
1273	 3.02261350798973E-03 
1274	 0.003422491059393 
1275	 3.65086497153258E-03 
1276	 3.55515961539567E-03 
1277	 3.61890219672949E-03 
1278	 3.98961142139995E-03 
1279	 4.20525204582968E-03 
1280	 4.0664223247719E-03 
1281	 4.05279247041938E-03 
1282	 3.88374369317962E-03 
1283	 3.60008653263399E-03 
1284	 3.0803499395696E-03 
1285	 3.2374570162785E-03 
1286	 3.68268094464137E-03 
1287	 3.64128672257744E-03 
1288	 4.02647358911804E-03 
1289	 4.19550228112786E-03 
1290	 3.76174906713139E-03 
1291	 3.42933489404915E-03 
1292	 3.83908347465496E-03 
1293	 4.18181580590314E-03 
1294	 4.06009808059806E-03 
1295	 3.45280973610108E-03 
1296	 2.98835491501015E-03 
1297	 2.89389245096606E-03 
1298	 2.67965894405404E-03 
1299	 2.90349306669387E-03 
1300	 3.41649741762184E-03 
1301	 3.05752377449086E-03 
1302	 2.81352692959063E-03 
1303	 3.17232484656842E-03 
1304	 2.9446188132134E-03 
1305	 3.21350101436629E-03 
1306	 3.36991093296235E-03 
1307	 3.30768337509536E-03 
1308	 3.2936532778837E-03 
1309	 3.6284356126049E-03 
1310	 3.59080055383733E-03 
1311	 3.40376027097733E-03 
1312	 3.65637537885438E-03 
1313	 3.73864945560776E-03 
1314	 3.91071681177936E-03 
1315	 4.73889171272959E-03 
1316	 4.55487136535599E-03 
1317	 3.39090133075292E-03 
1318	 3.25900908660319E-03 
1319	 3.63106381250533E-03 
1320	 3.37061643420156E-03 
1321	 3.07761215005367E-03 
1322	 3.33938293723867E-03 
1323	 3.60382552129298E-03 
1324	 2.27329124544865E-03 
1325	 2.48262114227812E-03 
1326	 3.9994175963354E-03 
1327	 3.79251510095516E-03 
1328	 4.0604070692719E-03 
1329	 4.72496911432143E-03 
1330	 4.2853451177469E-03 
1331	 4.66636631140905E-03 
1332	 4.45046704812072E-03 
1333	 5.03422643599415E-03 
1334	 6.77106813313157E-03 
1335	 6.61394562505989E-03 
1336	 4.91416742932538E-03 
1337	 4.26195251076577E-03 
1338	 2.83743359227484E-03 
1339	 0.002704490910288 
1340	 4.14118163438124E-03 
1341	 4.2822697498445E-03 
1342	 3.46992019560247E-03 
1343	 3.71778787297969E-03 
1344	 5.2130114623671E-03 
1345	 5.24090063388919E-03 
1346	 6.28212300137403E-03 
1347	 7.0043305096233E-03 
1348	-2.15853274866531E-03 
1349	-2.44591532805654E-03 
1350	 2.67069040863071E-02 
1351	 3.37659065596172E-02 
1352	 8.95303976794172E-03 
1353	 7.1177923289831E-05 
1354	-5.15941837241602E-02 
1355	-0.133830673205688 
1356	-7.61572080081446E-02 
1357	 1.99355871837007E-02 
1358	 9.54947123171439E-02 
1359	 0.119890749431636 
1360	 0.281346540157547 
1361	 0.616348277783181 
1362	 0.530518278649932 
1363	 0.28969571749823 
1364	 0.026666602882144 
1365	-3.56834358397557E-02 
1366	 0.170684660358122 
1367	-7.19519416867639E-02 
1368	 2.11040056125408E-02 
1369	-3.97595798375451E-02 
1370	-0.408975956479349 
1371	-0.108646381109455 
1372	 0.235184744826085 
1373	 42.8336144826537 
1374	 3.32263051782241 
1375	 1.26770376467274 
1376	 0.731327454077851 
1377	-0.039463788760824 
1378	 8.05739661362495E-03 
1379	 2.00434596292677E-03 
1380	-0.304259147921627 
1381	-0.616284059691512 
1382	 7.10675014063986E-02 
1383	 0.850456425370304 
1384	 0.371540222125815 
1385	 0.095618375038972 
1386	 0.252826971841398 
1387	-0.816210826419418 
1388	-1.08087007037626 
1389	 1.51918912205057 
1390	 2.51781743095046 
1391	 0.651313675549391 
1392	 0.18039263143207 
1393	 0.459016510924888 
1394	 0.576402312825929 
1395	 0.138170141009396 
1396	 8.84858986225418E-03 
1397	 0.127320461477276 
1398	-0.238569571427474 
1399	-7.2159510295558 
1400	 32.9731892208421 
1401	-0.885567139735503 
1402	-1.00235611670192 
1403	-0.894803956137485 
1404	-0.326266182658253 
1405	 0.467437510865822 
1406	-21.4813872648455 
1407	 89.3201229289269 
1408	 2.15838294733733 
1409	 1.09023795628131 
1410	 0.126032766510992 
1411	 4.43738734028924E-02 
1412	 0.470525856185196 
1413	 0.323315520561578 
1414	-1.00507813050233E-02 
1415	 3.09438217806695E-03 
1416	 0.212292797760337 
1417	 0.162489747288376 
1418	 7.71707157832904E-02 
1419	 5.59374344606976E-02 
1420	 8.31025565259664E-03 
1421	-2.69317682460937E-02 
1422	-6.10893288637933E-02 
1423	-5.00035875678853E-02 
1424	-3.31977514580409E-02 
1425	-2.38807738964597E-02 
1426	 2.68169690157193E-02 
1427	 3.11863559226828E-02 
1428	-1.91772336295455E-02 
1429	-0.017334622858612 
1430	 8.70478478697885E-03 
1431	 1.26745301590373E-02 
1432	 4.40154580759348E-02 
1433	 4.81743116641194E-02 
1434	-3.92538346399652E-03 
1435	-1.12469285849575E-02 
1436	 4.90647121707556E-03 
1437	 1.70753578664262E-02 
1438	 2.44876510762702E-02 
1439	 1.07431881923157E-02 
1440	 1.05897519712308E-03 
1441	-3.89464612158512E-03 
1442	-1.23607500595709E-02 
1443	-4.95868984422176E-03 
1444	 1.41830419866762E-02 
1445	 1.87534068159004E-02 
1446	 1.54417815031422E-02 
1447	 1.75630897922618E-02 
1448	 8.26911469281755E-03 
1449	-2.42028061907865E-03 
1450	-4.88555805340972E-04 
1451	 6.24038403062528E-03 
1452	 9.68592066553895E-03 
1453	 8.43895110315547E-03 
1454	 7.00327459615156E-03 
1455	 2.79973482471747E-03 
1456	 3.76946877822546E-03 
1457	 6.59896402649575E-03 
1458	 5.57565761994496E-03 
1459	 4.88632137173501E-03 
1460	 6.5133111205682E-03 
1461	 6.8787752799202E-03 
1462	 6.09442430455965E-03 
1463	 7.12208274079532E-03 
1464	 9.36885322913407E-03 
1465	 1.21682929489186E-02 
1466	 9.17226615307007E-03 
1467	 3.19430924002602E-03 
1468	 2.87995993860642E-03 
1469	-2.26483466993771E-03 
1470	-4.86501980152389E-03 
1471	 1.7120610838357E-03 
1472	 7.10459767038482E-03 
1473	 9.77658837647747E-03 
1474	 9.64236259389735E-03 
1475	 1.28437398742548E-02 
1476	 1.44593614719809E-02 
1477	 1.15745710366341E-02 
1478	 8.21494174554673E-03 
1479	 5.04697452978961E-03 
1480	 3.35622013456815E-03 
1481	-1.73167525532528E-03 
1482	-1.28441503613946E-03 
1483	 7.28306923382203E-03 
1484	 7.6181163172204E-03 
1485	 3.3273492064303E-03 
1486	 2.78608111786885E-03 
1487	 1.15516473773489E-03 
1488	 7.73777855144552E-04 
1489	 2.65158819396913E-03 
1490	 3.88687701713604E-03 
1491	 5.54315718848476E-03 
1492	 5.23540803796568E-03 
1493	 3.95290358162274E-03 
1494	 3.70063331440698E-03 
1495	 2.8179115585649E-03 
1496	 2.13106283198481E-03 
1497	 1.85423214794389E-03 
1498	 2.14394261949517E-03 
1499	 2.71434820182317E-03 
1500	 2.77722592526055E-03 
1501	 3.4046507815461E-03 
1502	 3.54789169516363E-03 
1503	 2.44097931892228E-03 
1504	 2.3631797906783E-03 
1505	 3.00277962803065E-03 
1506	 3.60688959719434E-03 
1507	 3.39273288367448E-03 
1508	 1.72259232383277E-03 
1509	 2.07680453694026E-04 
1510	 4.98275308532319E-04 
1511	 2.01350251781253E-03 
1512	 2.81189400530041E-03 
1513	 2.8416059615748E-03 
1514	 2.86041152402025E-03 
1515	 2.60525308260494E-03 
1516	 2.09844145267233E-03 
1517	 2.19890506376527E-03 
1518	 2.48838781888866E-03 
1519	 2.53336287006743E-03 
1520	 2.64153982003097E-03 
1521	 2.6468633737612E-03 
1522	 2.46201708837173E-03 
1523	 2.2159998529718E-03 
1524	 2.68729257452198E-03 
1525	 3.3321204953433E-03 
1526	 2.88850165007582E-03 
1527	 2.49535408557002E-03 
1528	 3.01289938326995E-03 
1529	 3.54687340238866E-03 
1530	 3.4039534098109E-03 
1531	 2.66176853017323E-03 
1532	 2.47214687204852E-03 
1533	 2.56528882389615E-03 
1534	 2.33669510915255E-03 
1535	 2.46859797935107E-03 
1536	 2.56691362364886E-03 
1537	 2.53085432404232E-03 
1538	 2.2957477356244E-03 
1539	 1.88837098534311E-03 
1540	 1.76792675776427E-03 
1541	 1.44134834532496E-03 
1542	 1.72290052567724E-03 
1543	 3.0185107211506E-03 
1544	 3.4455266263648E-03 
1545	 3.35030699932706E-03 
1546	 3.56673795063017E-03 
1547	 3.24015374275992E-03 
1548	 2.80215480887362E-03 
1549	 2.68208484928238E-03 
1550	 2.72448466894922E-03 
1551	 3.10023410823028E-03 
1552	 3.43018862511856E-03 
1553	 3.54105397184956E-03 
1554	 3.12669671902827E-03 
1555	 2.06840118928138E-03 
1556	 2.13642796018506E-03 
1557	 3.42355054612119E-03 
1558	 3.53558962814447E-03 
1559	 3.02924195767963E-03 
1560	 3.60261255595164E-03 
1561	 3.14639736164277E-03 
1562	 1.63548331821698E-03 
1563	 1.7963952668066E-03 
1564	 2.06163443374175E-03 
1565	 1.18699448382469E-03 
1566	 1.84822395168559E-03 
1567	 3.51338527365977E-03 
1568	 3.26238864773793E-03 
1569	 2.53798786754974E-03 
1570	 2.51231881262403E-03 
1571	 2.01652129136149E-03 
1572	 1.70749800381472E-03 
1573	 2.31714141640236E-03 
1574	 3.06208491536755E-03 
1575	 2.85667050138393E-03 
1576	 2.45974105777449E-03 
1577	 2.53201100704746E-03 
1578	 2.40009234359547E-03 
1579	 2.34792705410011E-03 
1580	 2.0636192051016E-03 
1581	 1.67480116164353E-03 
1582	 2.09615234537865E-03 
1583	 2.37544374161745E-03 
1584	 2.05148671788857E-03 
1585	 2.21927068015494E-03 
1586	 2.48588566546176E-03 
1587	 2.42809777708084E-03 
1588	 2.59430042076626E-03 
1589	 2.49102573531434E-03 
1590	 2.37210824810781E-03 
1591	 2.71873341127999E-03 
1592	 3.35758012762778E-03 
1593	 3.92755798051436E-03 
1594	 3.71889829088545E-03 
1595	 3.48738611309474E-03 
1596	 3.64634021502085E-03 
1597	 3.91700563838796E-03 
1598	 4.11035727824038E-03 
1599	 3.53478378637998E-03 
1600	 3.44279246136054E-03 
1601	 4.22954035394844E-03 
1602	 4.43870278004101E-03 
1603	 4.41629182303043E-03 
1604	 4.24861860648611E-03 
1605	 3.59104856312284E-03 
1606	 3.27807440499767E-03 
1607	 3.26547692553949E-03 
1608	 2.96004079898915E-03 
1609	 2.58393305123187E-03 
1610	 2.36131595477653E-03 
1611	 2.70805540348426E-03 
1612	 0.003594513996082 
1613	 4.04766619018519E-03 
1614	 4.00896296480832E-03 
1615	 3.72998511041328E-03 
1616	 2.90159268245696E-03 
1617	 1.61248040532932E-03 
1618	 1.11185518741314E-03 
1619	 0.001620725829589 
1620	 1.69885526216866E-03 
1621	 2.1677991970143E-03 
1622	 2.98096959403471E-03 
1623	 2.58848192518435E-03 
1624	 2.23975455765217E-03 
1625	 2.89142592667916E-03 
1626	 3.1114148457782E-03 
1627	 2.86992465445367E-03 
1628	 3.33037441462683E-03 
1629	 3.28599966811252E-03 
1630	 2.50787052138001E-03 
1631	 2.36395271243444E-03 
1632	 2.4747341088044E-03 
1633	 2.51477603746212E-03 
1634	 2.78447515330189E-03 
1635	 3.09878050207759E-03 
1636	 3.33007522726077E-03 
1637	 3.01412784047806E-03 
1638	 2.06129295182594E-03 
1639	 1.91285908579655E-03 
1640	 2.14966405658788E-03 
1641	 1.68404819933649E-03 
1642	 2.06613500721364E-03 
1643	 2.75865512653859E-03 
1644	 2.71586376961539E-03 
1645	 3.15867625731905E-03 
1646	 3.45166334526392E-03 
1647	 2.74089681745215E-03 
1648	 2.39594733260101E-03 
1649	 2.68904253653994E-03 
1650	 2.97071158669161E-03 
1651	 3.14107237128312E-03 
1652	 2.61007204323362E-03 
1653	 2.3496415535212E-03 
1654	 2.14955641849105E-03 
1655	 2.4999431396571E-03 
1656	 2.59069612264867E-03 
1657	 1.9175119586419E-03 
1658	 2.00751635328483E-03 
1659	 3.01812525729064E-03 
1660	 3.02902676226292E-03 
1661	 2.41809201618097E-03 
1662	 2.48849366307692E-03 
1663	 2.32223614831115E-03 
1664	 2.29793588909191E-03 
1665	 3.22109854372363E-03 
1666	 3.4369089105255E-03 
1667	 2.96937093789647E-03 
1668	 3.88708652117119E-03 
1669	 4.10103812795079E-03 
1670	 3.84849430846901E-03 
1671	 3.83622234013784E-03 
1672	 3.51763409777418E-03 
1673	 2.55831475185413E-03 
1674	 2.35194693918719E-03 
1675	 2.93857883743484E-03 
1676	 2.90998123055267E-03 
1677	 3.02738565147019E-03 
1678	 2.72520904460236E-03 
1679	 1.27301077432657E-03 
1680	 1.05806407340555E-03 
1681	 1.88659342461411E-03 
1682	 2.03004969391637E-03 
1683	 2.29971394153654E-03 
1684	 3.32445067109832E-03 
1685	 3.41081441180419E-03 
1686	 2.42565816817993E-03 
1687	 2.96476058804499E-03 
1688	 3.65917690558709E-03 
1689	 3.49995865444913E-03 
1690	 4.24619184387102E-03 
1691	 4.22291690325507E-03 
1692	 3.08632308325625E-03 
1693	 3.07697253435519E-03 
1694	 3.99937475789576E-03 
1695	 4.3879997854181E-03 
1696	 4.10317873715449E-03 
1697	 3.27152816343985E-03 
1698	 2.55992028815432E-03 
1699	 3.49039538193119E-03 
1700	 4.32625460199307E-03 
1701	 3.82089869771905E-03 
1702	 3.30280266610681E-03 
1703	 2.66746466069689E-03 
1704	 2.5598373799349E-03 
1705	 2.75381612856683E-03 
1706	 3.1635923708139E-03 
1707	 0.003577899025464 
1708	 0.003081750452109 
1709	 3.65547321849861E-03 
1710	 3.5302581070918E-03 
1711	 2.07278251303097E-03 
1712	 2.64449924045708E-03 
1713	 3.13792482515074E-03 
1714	 2.61998818786764E-03 
1715	 2.26808373751422E-03 
1716	 1.68796423522642E-03 
1717	 8.60924360900465E-04 
1718	 1.23813842651743E-03 
1719	 2.21522512279292E-03 
1720	 2.24307564248494E-03 
1721	 2.6437166429381E-03 
1722	 3.34585931558236E-03 
1723	 2.99439308940381E-03 
1724	 0.001857199759494 
1725	 1.96042693616213E-03 
1726	 3.69273825370294E-03 
1727	 4.63994746190041E-03 
1728	 4.38802481286155E-03 
1729	 4.26890063318482E-03 
1730	 3.89748804409293E-03 
1731	 3.04915795846279E-03 
1732	 4.29919110252116E-03 
1733	 5.25354302409782E-03 
1734	 3.43559423710414E-03 
1735	 2.64344514452941E-03 
1736	 2.60189577198533E-03 
1737	 1.84215110314492E-03 
1738	 2.78058773159467E-03 
1739	 3.78766096544325E-03 
1740	 2.30759089660052E-03 
1741	 2.17242712060009E-03 
1742	 3.02492388999191E-03 
1743	 2.25114598069807E-03 
1744	 3.60431614124643E-03 
1745	 5.60929457449155E-03 
1746	 4.78657357804428E-03 
1747	 5.10039434941444E-03 
1748	 5.84057919416036E-03 
1749	 5.66320338865856E-03 
1750	 5.58119291188613E-03 
1751	 5.22030654132754E-03 
1752	 3.47837833161537E-03 
1753	 3.23239543006807E-03 
1754	 3.96159223942342E-03 
1755	 4.07749188879744E-03 
1756	 5.09074728881739E-03 
1757	 4.27846905167794E-03 
1758	 2.38179106764646E-03 
1759	 1.14095747192564E-03 
1760	 1.23868925289664E-03 
1761	 2.84911159399914E-03 
1762	 5.5413317756714E-03 
1763	 5.66022083296015E-03 
1764	 4.86549916464399E-03 
1765	 4.91472932396214E-03 
1766	 3.61195148409092E-03 
1767	 3.1611911577027E-03 
1768	 4.93775325101894E-03 
1769	 6.06324949073221E-03 
1770	 5.2523109636501E-03 
1771	 4.32649647985226E-03 
1772	 1.87153528909477E-03 
1773	 5.60426521801463E-04 
1774	 2.24931716312895E-03 
1775	 7.16366511772113E-03 
1776	 9.07474982686064E-03 
1777	 6.94605861106367E-03 
1778	 5.18045916777721E-03 
1779	 8.1437883491934E-04 
1780	-1.07684091557291E-03 
1781	-1.44846186971571E-03 
1782	-7.52258985677225E-04 
1783	 3.95756319223457E-03 
1784	 5.41073877495716E-03 
1785	 5.88303190051201E-03 
1786	 5.36197915371768E-03 
1787	 4.13943666191877E-04 
1788	-1.56550278353744E-03 
1789	-1.81936188835182E-03 
1790	-5.12232762088761E-03 
1791	-1.08582323681528E-03 
1792	 2.2194147228373E-03 
1793	 3.80124129942692E-03 
1794	 0.010711094655142 
1795	 1.05673378920555E-02 
1796	 1.05029264085552E-02 
1797	 3.73540821267677E-03 
1798	-1.92502834801738E-02 
1799	-3.00647442744582E-02 
1800	-3.27757445620647E-02 
1801	-2.81135962719619E-02 
1802	 3.22336982960735E-02 
1803	 5.37132745809784E-02 
1804	 4.84943606586614E-02 
1805	 2.48506719461306E-02 
1806	-0.144848019390971 
1807	-0.215105169605283 
1808	-0.220598160641499 
1809	-0.193468729746647 
1810	 8.34479568252609E-02 
1811	 0.148114033344413 
1812	 4.62618807554593E-02 
1813	 4.92672370017603E-02 
1814	-1.12117252251645E-02 
1815	 0.117801985984777 
1816	 0.611310858453447 
1817	 0.341507283123536 
1818	 0.167138778803166 
1819	-2.31850964846806 
1820	 39.1467235500495 
1821	-1.42056889619779 
1822	-0.978766408752443 
1823	 0.271319742894415 
1824	 1.12015456855166 
1825	-8.32751905218375 
1826	-5.54372061612274 
1827	-0.848216922259921 
1828	-0.65063774740897 
1829	-0.423711820722378 
1830	-0.325040207870874 
1831	-0.234901896538709 
1832	-9.57950265556459E-02 
1833	 0.216493377774404 
1834	 0.279844015994459 
1835	 0.413335667855033 
1836	 0.571233058598669 
1837	 1.99033074767507 
1838	 3.74008382544433 
1839	 1.02614938009997 
1840	 0.166047787476195 
1841	-0.156754936991604 
1842	-0.032318325235465 
1843	-4.03525206180865E-02 
1844	-4.32842595344404E-02 
1845	 8.39804422434278E-02 
1846	 0.345414314958163 
1847	 0.392643920872513 
1848	 0.383370384803082 
1849	 0.350380404635529 
1850	 0.279133495918916 
1851	 0.127325215848383 
1852	 1.41234214927155E-02 
1853	-0.802156760994588 
1854	 0.365331532469478 
1855	 0.830068495401916 
1856	 0.939638022697429 
1857	 1.13167134834396 
1858	 0.873848503355521 
1859	 0.49226354914075 
1860	 8.86651239642935E-02 
1861	-5.92822138032331E-02 
1862	-5.04889496686959E-02 
1863	-0.153670630516403 
1864	-0.222831500377945 
1865	-0.129210535785119 
1866	 7.62585334767018E-02 
1867	 0.126821907014798 
1868	 0.347831890931822 
1869	 0.398348562529622 
1870	 0.244305108014291 
1871	-5.70276278967137E-02 
1872	-0.467184927866795 
1873	-0.467259569250252 
1874	-0.26001308474079 
1875	-0.146723475639363 
1876	-8.71117851855061E-02 
1877	 0.428546688051534 
1878	 0.491888262855194 
1879	-2.21594612619964 
1880	-11.6444400002575 
1881	 2.21459478808333 
1882	 1.19879328812109 
1883	-0.476430766609854 
1884	-0.996133331017077 
1885	-4.20713711910666E-02 
1886	 0.153901350271982 
1887	-0.270008152497247 
1888	-0.204584112999116 
1889	-0.296388107130337 
1890	-1.18247456794557 
1891	-2.02417873764077 
1892	-1.66581473735854 
1893	-3.28873328830696 
1894	 0.826871016727979 
1895	 0.221946310911499 
1896	-0.531916001634611 
1897	-0.581676460102297 
1898	-0.576933995312864 
1899	-0.442838206452997 
1900	-0.336926285097376 
1901	 0.118671568200305 
1902	 0.125299224454705 
1903	-0.245192945565299 
1904	-0.228635230601976 
1905	-0.154715162142936 
1906	-0.056809292162216 
1907	 1.68774125717952 
1908	-0.234995683747421 
1909	 21.1279618087175 
1910	 16.7346196765356 
1911	-10.6729386822129 
1912	 3.74181793509865 
1913	 3.14723744231616 
1914	 5.53886344652082 
1915	 73.0638646029707 
1916	-4.31378097825103 
1917	-1.00832562630057 
1918	-0.491630533500228 
1919	-0.212716826707712 
1920	-0.280896510914938 
1921	-2.45854313854179 
1922	-7.55612737535271 
1923	 8.70843579479193 
1924	 6.94883865661914 
1925	 8.0493401190838 
1926	 11.2461685785538 
1927	-5.7774744184477 
1928	-2353.03338080812 
1929	 2.66273219404843 
1930	 1.46148715217235 
1931	 1.02129553086575 
1932	 0.835021497871165 
1933	 1.05483914357208 
1934	 1.1643955730703 
1935	 0.352270316723244 
1936	 0.349660354857081 
1937	 0.352269316419777 
1938	 0.209873081748375 
1939	 0.126650890265167 
1940	-5.44053595206236E-02 
1941	-0.169541328541814 
1942	-4.58131455817458E-02 
1943	 5.62703161210307E-02 
1944	 2.40660431157316E-03 
1945	-6.59279307592725E-02 
1946	-0.168145424659319 
1947	-0.221447814548643 
1948	-0.212306525051913 
1949	-0.135357243119925 
1950	-8.89988099697804E-02 
1951	-0.211886768549178 
1952	-0.212560470645554 
1953	-0.162930910464523 
1954	-6.15582734400658E-02 
1955	-3.67355736116665E-02 
1956	 6.08168971144738E-02 
1957	 7.58200874680019E-02 
1958	-2.37899186866925E-02 
1959	-5.52377809794937E-02 
1960	-4.59993515040617E-02 
1961	-4.57202745129764E-02 
1962	-0.013621501776538 
1963	 1.65320334534915E-02 
1964	 1.00423920586567E-02 
1965	 2.06830493142895E-03 
1966	 4.06417861852421E-03 
1967	 6.55708177775341E-03 
1968	-4.53833708822218E-04 
1969	 0.006113566002737 
1970	 1.85021848115034E-02 
1971	 0.010112495833814 
1972	 5.87503761764235E-03 
1973	 6.78107283419031E-03 
1974	-1.62273666495815E-03 
1975	-1.67969561490164E-03 
1976	 3.45789947195874E-03 
1977	 6.14310679105954E-03 
1978	 1.00678173103348E-02 
1979	 9.17297927807525E-03 
1980	 7.01421769268536E-03 
1981	 2.55796688236519E-03 
1982	-2.73996130499432E-03 
1983	-4.93352714612104E-03 
1984	 7.13824842132491E-04 
1985	 4.04214297240175E-03 
1986	 2.63771359518928E-03 
1987	-2.37893721502965E-03 
1988	-8.20817575425447E-03 
1989	-7.88674033065756E-03 
1990	-9.28200845975882E-03 
1991	-1.42997954170524E-02 
1992	-0.015647695816437 
1993	-0.016319896917235 
1994	-0.0151341809526 
1995	-9.09402826160487E-03 
1996	 1.77888575549104E-03 
1997	 3.52913496457512E-03 
1998	-2.78773446646346E-03 
1999	-1.77746002226794E-02 
2000	-3.25279331988803E-02 
2001	-3.54281939121172E-02 
2002	-0.03142822320931 
2003	-2.48362920935534E-02 
2004	-1.68948905092047E-02 
2005	-2.15556456337835E-02 
2006	-2.80732340014489E-02 
2007	-2.91632069432114E-02 
2008	-3.18886157404061E-02 
2009	-0.025008951986591 
2010	-2.57061522386038E-03 
2011	 3.05872359229086E-03 
2012	 4.54915504801393E-03 
2013	 1.02257948712026E-02 
2014	 5.45561910861796E-03 
2015	-4.7776543081892E-03 
2016	-1.33909359445102E-02 
2017	-8.89722462597022E-03 
2018	-5.22800435691313E-03 
2019	-7.40553492942865E-03 
2020	-9.25744757259911E-03 
2021	-1.73663314299201E-02 
2022	-1.58248726140668E-02 
2023	-1.36689013241354E-02 
2024	-1.38647814824389E-02 
2025	-0.010139067729859 
2026	-7.17417358157004E-03 
2027	-8.00981025034606E-03 
2028	-9.00419063798439E-03 
2029	 9.24695107813411E-04 
2030	 4.61266505938241E-03 
2031	 3.50619802426756E-03 
2032	 7.84461442846898E-03 
2033	 8.74628512185932E-03 
2034	 4.33502338497119E-03 
2035	 2.3427108441111E-03 
2036	 2.35000506726744E-03 
2037	 2.44360442514397E-04 
2038	-1.91189796607818E-03 
2039	-3.16848946395124E-03 
2040	-4.03448779702148E-03 
2041	-4.76223561224856E-03 
2042	-5.68812958002965E-03 
2043	-4.57431536517912E-03 
2044	-9.8682708642212E-04 
2045	 1.15724432678975E-03 
2046	 1.58961214865675E-03 
2047	 4.09826549056548E-03 
2048	 5.61387632322008E-03 
2049	 5.61427316225918E-03 
2050	 5.74396077567749E-03 
2051	 2.85448919481852E-03 
2052	 1.87510141611755E-03 
2053	 3.13864417715894E-03 
2054	 2.95861167996745E-03 
2055	 4.98892932752697E-03 
2056	 7.65668223843682E-03 
2057	 9.87522670680912E-03 
2058	 1.07433854456172E-02 
2059	 1.46626764421858E-02 
2060	 1.55557287117619E-02 
2061	 0.012859243941472 
2062	 9.03817147365576E-03 
2063	 1.03089187768999E-02 
2064	 9.82693239648882E-03 
2065	 1.01357551402287E-02 
2066	 8.20483369450566E-03 
2067	 4.01279860753675E-03 
2068	 3.1628618689269E-03 
2069	 4.43190430255514E-03 
2070	 4.21340096890994E-03 
2071	 3.18470360796771E-03 
2072	 9.68546178262817E-04 
2073	-1.45601735848313E-03 
2074	-7.45729667106382E-03 
2075	-6.90957243515939E-03 
2076	-2.2237148534725E-03 
2077	-2.07528368865404E-03 
2078	-6.46317535453505E-04 
2079	-5.83080215158858E-04 
2080	-2.82685476928523E-03 
2081	-6.48019662606639E-03 
2082	-6.62887382820792E-03 
2083	-6.60814240786822E-03 
2084	-7.17828542018976E-03 
2085	-2.75415894320166E-03 
2086	 3.27203010915921E-04 
2087	-7.37104343116546E-04 
2088	 2.24333504833349E-03 
2089	 4.05854785829568E-03 
2090	 8.25538655219398E-04 
2091	 4.43340601492711E-04 
2092	-7.05457026628118E-04 
2093	-7.38643005118746E-03 
2094	-8.20754082639832E-03 
2095	-3.4976034250443E-03 
2096	-1.65683253217546E-03 
2097	 4.30277076120371E-04 
2098	 2.16406726562849E-03 
2099	 3.91287770442875E-03 
2100	 4.3832819533422E-03 
2101	 4.89236402574375E-03 
2102	 5.77788211712604E-03 
2103	 5.05194235219488E-03 
2104	 3.22055738568365E-03 
2105	 6.28364735299765E-03 
2106	 7.57997511265677E-03 
2107	 3.11321371921481E-03 
2108	 2.10192958522833E-03 
2109	-1.47571158005914E-03 
2110	-7.43243209952824E-03 
2111	-8.11793126904463E-03 
2112	-6.66833741065773E-03 
2113	-4.7163140035425E-03 
2114	-9.98824863220864E-04 
2115	 1.92724350880214E-03 
2116	 6.53914862760745E-03 
2117	 8.06657843601443E-03 
2118	 6.34194698156519E-03 
2119	 5.84278327506015E-03 
2120	 4.69159908734601E-03 
2121	 5.79812665645193E-03 
2122	 2.59815840323829E-03 
2123	 5.91881560012959E-04 
2124	-4.76637249401434E-04 
2125	-2.9865183713383E-03 
2126	-3.05795343099365E-03 
2127	-8.15558431475536E-04 
2128	 2.43363322019778E-04 
2129	-1.25387761470188E-03 
2130	 7.67920402322405E-04 
2131	 2.3242883585861E-03 
2132	-8.58837584447044E-04 
2133	-1.96207233112722E-04 
2134	 7.26255824041767E-04 
2135	 1.68109007064167E-03 
2136	 1.9343270965823E-03 
2137	 4.04404096033713E-03 
2138	 3.62033580342418E-03 
2139	-4.54966143219368E-04 
2140	-1.95283280054698E-03 
2141	-2.16884741459562E-03 
2142	-1.47352794531932E-03 
2143	 2.45080497312858E-04 
2144	 1.62541935025211E-03 
2145	 4.72802656830169E-03 
2146	 5.9976216918928E-03 
2147	 6.16630652376587E-03 
2148	 8.54677802761426E-03 
2149	 1.04226331368142E-02 
2150	 7.99553963063019E-03 
2151	 4.6331252717299E-03 
2152	 3.19925277475154E-03 
2153	 1.18371059042267E-04 
2154	-3.26825585470201E-03 
2155	-1.52799157158732E-03 
2156	 1.75623446867836E-03 
2157	 4.73778409534105E-03 
2158	 1.26510258408017E-02 
2159	 1.36754641848669E-02 
2160	 9.85278937835878E-03 
2161	 7.83505455719106E-03 
2162	 2.16557103501299E-03 
2163	 8.03171993914558E-04 
2164	 4.12879820373106E-03 
2165	 4.66539862757164E-03 
2166	 4.27375250472281E-03 
2167	 3.45620458512957E-03 
2168	 9.98089942693775E-04 
2169	-9.62515655040471E-05 
2170	-1.66012011492669E-03 
2171	 6.77403711784024E-04 
2172	 3.05711729336329E-03 
2173	 1.36694238014441E-03 
2174	 7.24239675890145E-04 
2175	-1.3355789953065E-03 
2176	-3.26827011729326E-03 
2177	-2.13327993262476E-03 
2178	-1.25045450090391E-03 
2179	 3.95859019023574E-03 
2180	 4.56744465592453E-03 
2181	 0.002387947020882 
2182	 4.65098655951043E-03 
2183	 3.82749235115986E-03 
2184	 3.52400504060704E-03 
2185	 5.48092769599194E-03 
2186	 4.28508205660936E-03 
2187	-3.64242580806573E-03 
2188	-4.77885932894583E-03 
2189	-1.40924666117051E-03 
2190	-2.62268331713453E-03 
2191	-2.76259702795516E-03 
2192	-2.27680284843988E-03 
2193	-6.13566091643727E-03 
2194	-6.31300603357068E-03 
2195	-1.22407731297662E-03 
2196	-7.16389629082362E-04 
2197	-2.16364742804697E-03 
2198	-3.25982146201533E-03 
2199	-6.9779897355535E-03 
2200	-7.69800127412893E-03 
2201	-5.65929205127274E-03 
2202	-5.32642383719505E-03 
2203	-4.55159004008083E-03 
2204	-5.28198279719334E-03 
2205	-6.12622664980644E-03 
2206	-7.19072697017242E-03 
2207	-6.04033690325509E-03 
2208	-6.85011390408864E-04 
2209	-2.57503981462452E-03 
2210	-3.13716082017102E-03 
2211	 1.07692688804351E-03 
2212	-3.1466268282999E-03 
2213	-5.70363766595789E-03 
2214	-2.51823295644629E-03 
2215	-2.71474327317881E-03 
2216	-4.53074606584673E-03 
2217	-6.15280295191469E-03 
2218	-7.16407647444943E-03 
2219	-9.41144031122379E-03 
2220	-1.37447519302034E-02 
2221	-1.59004360592743E-02 
2222	-1.80332906730764E-02 
2223	-1.88427370684116E-02 
2224	-1.93985489885219E-02 
2225	-1.76603226075867E-02 
2226	-0.012997048221895 
2227	-9.70025384081919E-03 
2228	-2.48910261439376E-03 
2229	-6.46824300474888E-05 
2230	-1.49587339018564E-03 
2231	-2.40556262999828E-03 
2232	-7.82040140136019E-03 
2233	-1.00369985926093E-02 
2234	-1.06344177173582E-02 
2235	-9.75915704548134E-03 
2236	-9.24539773134028E-03 
2237	-8.95130593853295E-03 
2238	-1.11602036936174E-02 
2239	-1.06849552570028E-02 
2240	-1.12497470560421E-02 
2241	-1.22995855378954E-02 
2242	-7.90831583854149E-03 
2243	-1.71865009567379E-03 
2244	 1.96372134607373E-03 
2245	 2.89647867482987E-03 
2246	 1.24595459053204E-03 
2247	-3.77946996403419E-03 
2248	-6.86046932821921E-03 
2249	-6.01157268885269E-03 
2250	-5.96888976332698E-03 
2251	-7.81510220962117E-03 
2252	-1.19318758929431E-02 
2253	-1.14489027365523E-02 
2254	-5.11942234326174E-03 
2255	-2.09884175628555E-03 
2256	-2.52721048614345E-03 
2257	-4.78162394453527E-03 
2258	-2.62156552421448E-03 
2259	-1.70476386063157E-03 
2260	-2.64869241417595E-03 
2261	 3.18330915345396E-03 
2262	 3.18094820580274E-03 
2263	-7.99444272418386E-03 
2264	-8.84452150797368E-03 
2265	-2.87978460108568E-03 
2266	-2.74355318084104E-03 
2267	-4.23974769965983E-03 
2268	-3.36057378214788E-03 
2269	-1.34419611365117E-03 
2270	-2.31611272480925E-03 
2271	-1.43102054984259E-03 
2272	-2.25450560171937E-03 
2273	-1.26220872916533E-02 
2274	-0.013653543300957 
2275	-5.49019548995428E-03 
2276	-4.21212158004319E-03 
2277	-4.26483638793466E-03 
2278	-1.21635072323242E-03 
2279	 7.94046854685034E-04 
2280	 3.48974050592327E-03 
2281	 7.67796291477005E-03 
2282	 1.87545369350954E-02 
2283	 2.13279641611436E-02 
2284	 5.61867392783046E-03 
2285	-7.57320201761252E-03 
2286	-1.77120448470919E-02 
2287	-2.88432738273465E-02 
2288	-2.62584324058012E-02 
2289	-1.52319555308495E-02 
2290	-8.52689269237258E-03 
2291	 2.44492020571144E-03 
2292	 8.6507401066793E-03 
2293	 5.26757962764688E-03 
2294	 1.12054440482603E-03 
2295	-2.86411915910248E-03 
2296	-2.44904963764043E-03 
2297	 1.92977805420943E-03 
2298	 6.95157239923456E-03 
2299	 8.22025386609724E-03 
2300	 7.74524358845285E-03 
2301	 1.62197626556375E-02 
2302	 2.07781122599074E-02 
2303	 1.89859678208295E-02 
2304	 1.84802257339875E-02 
2305	 8.36385080219661E-03 
2306	 4.97627901992419E-03 
2307	 1.26345536693065E-02 
2308	 1.00045237995836E-02 
2309	 1.16802529483393E-02 
2310	 1.46994928376304E-02 
2311	 1.34911167578857E-02 
2312	 2.38812934467101E-02 
2313	 3.08175841692958E-02 
2314	 2.75900730133131E-02 
2315	 1.92281146915033E-02 
2316	 7.38361875275093E-03 
2317	-1.30848990489118E-03 
2318	-1.26180418686881E-03 
2319	 7.42177495585627E-04 
2320	-2.57497273419161E-04 
2321	-1.04716426136362E-03 
2322	-6.06476361905791E-03 
2323	-2.29187483439215E-02 
2324	-3.70964338941981E-02 
2325	-3.52287692419784E-02 
2326	-3.93874102988999E-02 
2327	-3.75640852927814E-02 
2328	-2.03379765097427E-02 
2329	-2.91650243410785E-02 
2330	-0.047555748044872 
2331	-4.44313972878029E-02 
2332	-5.28971225599384E-02 
2333	-6.47835759979172E-02 
2334	-5.46089527698855E-02 
2335	-4.54254499612221E-02 
2336	-0.042894765302077 
2337	-3.20906457344509E-02 
2338	-2.17156027279562E-02 
2339	-1.61386946951466E-02 
2340	-7.23667121993324E-03 
2341	-7.9753853795314E-04 
2342	 4.96226556304824E-03 
2343	 1.04501247610283E-02 
2344	-1.25246709016536E-02 
2345	-3.42658984370294E-02 
2346	-3.46667319834594E-02 
2347	-5.94796722782814E-02 
2348	-5.65382008693957E-02 
2349	-4.51596890993429E-02 
2350	-6.54348901917387E-02 
2351	-4.82384367375641E-02 
2352	-5.91119362529208E-02 
2353	-0.08738317785619 
2354	-6.29300766137822E-02 
2355	-3.02043228081974E-02 
2356	-1.26473217803556E-02 
2357	-2.00748703733792E-03 
2358	 1.14840759913613E-02 
2359	-4.98393076573845E-03 
2360	-1.23504994033631E-02 
2361	 5.06106544468579E-03 
2362	-0.016293590950811 
2363	-2.59217344607418E-02 
2364	-1.08845551228209E-03 
2365	 1.91370463497191E-02 
2366	 4.83704469552985E-02 
2367	 5.85996946994906E-02 
2368	 6.05750681357669E-03 
2369	-6.34223712817386E-02 
2370	-0.10515107342034 
2371	-9.85407091851925E-02 
2372	-7.39686294740098E-02 
2373	-6.98388265047072E-02 
2374	-3.97707989321339E-02 
2375	-0.039744221006358 
2376	-5.09366524007826E-02 
2377	 3.46917266376801E-03 
2378	 2.88258954013942E-03 
2379	-2.43823106599208E-02 
2380	-8.92874890166306E-03 
2381	-3.54272567595859E-02 
2382	-5.38504558387912E-02 
2383	-3.49477804004556E-02 
2384	-3.13927788761404E-02 
2385	-0.03158958757039 
2386	-7.88539973604472E-02 
2387	-0.13020394134533 
2388	-0.180790083890884 
2389	-0.272069377467865 
2390	-0.253947005884279 
2391	-0.172285891809437 
2392	-0.102336976920859 
2393	-4.80261808492027E-02 
2394	-5.34935901332423E-02 
2395	-8.93336688564863E-02 
2396	-0.235047154649606 
2397	-0.227079255726934 
2398	-0.158119032712467 
2399	-0.198519909547144 
2400	-0.127972001130846 
2401	-5.32775083398067E-02 
2402	-3.60662158405295E-02 
2403	 2.28390033268933E-02 
2404	-5.76048894412117E-03 
2405	-9.46524690217646E-02 
2406	-0.227581146786627 
2407	-0.290530492239195 
2408	-0.357933596492625 
2409	-0.34173250257679 
2410	-9.89337955952776E-02 
2411	-1.95502213367455E-02 
2412	 7.68195743008303E-02 
2413	 0.302169837798057 
2414	 6.89243518802992E-02 
2415	-9.30250333762507E-02 
2416	-7.75861689723959E-02 
2417	-0.253182801234717 
2418	-0.234111004253578 
2419	-0.221346802836823 
2420	-0.24650498287176 
2421	-0.288526321129841 
2422	-0.371900100077543 
2423	-0.306014311161324 
2424	-0.333671846554824 
2425	-0.433603378883156 
2426	-0.3961235544281 
2427	-0.396714295005051 
2428	-0.424886908542914 
2429	-0.175132692526435 
2430	-0.067092472062655 
2431	-0.142687319540338 
2432	-2.41896289666211E-03 
2433	 3.08224970707081E-02 
2434	 2.95423056407616E-03 
2435	 3.36742557489907E-02 
2436	-8.09008257214417E-02 
2437	-0.183333507982836 
2438	-0.103334050077735 
2439	-3.47616494130283E-02 
2440	-0.174796616850605 
2441	-0.194975805779477 
2442	-3.98469496036817E-02 
2443	 3.56740778942605E-03 
2444	 0.616709817304391 
2445	 0.55262243086645 
2446	 0.112858699494322 
2447	 1.59020648723012E-02 
2448	-0.117091010964076 
2449	-0.145421700244007 
2450	-0.219468430408025 
2451	-0.380126874387184 
2452	-0.413778677845055 
2453	-0.387563532518047 
2454	-0.349505074043473 
2455	-8.05451587058429E-02 
2456	 0.019928567481731 
2457	-7.51452592474604E-02 
2458	 0.29521593703483 
2459	 0.618876183230296 
2460	-4.72345376231805E-02 
2461	-0.315905868655723 
2462	-0.270261717506581 
2463	-0.601251636991367 
2464	-0.518248069799243 
2465	-0.117205965996467 
2466	-0.18762601363979 
2467	-7.37093561293082E-02 
2468	-0.014610981317247 
2469	-0.390333804663651 
2470	-0.919252698643001 
2471	-2.79163301859605 
2472	-23.2254327715456 
2473	-15.6059068532254 
2474	-6.21603035515542 
2475	-2.61924988564598 
2476	-2.08297290907013 
2477	-4.31337764248395 
2478	 0.235498887029105 
2479	-0.259186503831447 
2480	-1.12838663957519 
2481	-2.52358765243032 
2482	 1.37786831678579 
2483	-3.54992661658069 
2484	 0.515614300302105 
2485	 4.89803569419441 
2486	 1.64455945695962 
2487	 3.21284311941744 
2488	-11.2085593492813 
2489	 15.5880095843225 
2490	 7.84698772553448 
2491	-8.68801797295874 
2492	-5.86130192003849 
2493	-0.751804791564329 
2494	-0.952646656216871 
2495	-0.742176134907339 
2496	-7.30640472812057 
2497	 17.6249754575053 
2498	 2.89007834883894 
2499	-3.55469368035183 
2500	-1.70928351433914 
