Wavelength	rt062200006.asd
350	 0.027302268122337 
351	 2.78553699833264E-02 
352	 0.027347388648934 
353	 2.76555914068112E-02 
354	 2.91372259167638E-02 
355	 2.78266073194053E-02 
356	 0.028437111451134 
357	 2.92800095168809E-02 
358	 2.80035972207382E-02 
359	 2.84617074182538E-02 
360	 2.87746234914775E-02 
361	 2.87716162598757E-02 
362	 2.94209197943463E-02 
363	 2.93428435005745E-02 
364	 0.029647166502046 
365	 0.030434247891204 
366	 2.98366039052136E-02 
367	 2.96699353904773E-02 
368	 2.99570167236438E-02 
369	 3.02660836848108E-02 
370	 0.03038109518487 
371	 3.05130499286809E-02 
372	 3.08747726718099E-02 
373	 3.14991111824697E-02 
374	 3.09018427179102E-02 
375	 3.11589878059535E-02 
376	 3.24192409418568E-02 
377	 3.17863057335674E-02 
378	 3.20282413422619E-02 
379	 3.28062236818975E-02 
380	 3.32061278743258E-02 
381	 3.29268334458038E-02 
382	 3.29634402257925E-02 
383	 3.32795498280805E-02 
384	 3.33771286558382E-02 
385	 3.35347182303527E-02 
386	 3.39354068402157E-02 
387	 0.034386494199025 
388	 3.43458526491404E-02 
389	 3.49919569334545E-02 
390	 3.53588152439663E-02 
391	 3.48814712347683E-02 
392	 3.49044380049084E-02 
393	 3.52383267256181E-02 
394	 3.56387972970954E-02 
395	 0.035892144111061 
396	 3.62298687250807E-02 
397	 0.036204303659253 
398	 3.60094581513059E-02 
399	 3.63576969710856E-02 
400	 3.68745753672313E-02 
401	 3.70501319692643E-02 
402	 3.67597028221463E-02 
403	 3.66718503024692E-02 
404	 3.68530044863948E-02 
405	 3.72208201610876E-02 
406	 3.75450024143611E-02 
407	 3.72238076000066E-02 
408	 3.72430643040903E-02 
409	 3.77448032948013E-02 
410	 0.037970346844422 
411	 3.79357202455966E-02 
412	 3.78933417555408E-02 
413	 3.80680230489659E-02 
414	 3.85580592051763E-02 
415	 3.86999043515872E-02 
416	 3.86457209536986E-02 
417	 3.88342577263911E-02 
418	 3.91354337589167E-02 
419	 0.039330292723146 
420	 0.039476706605135 
421	 3.99151779370558E-02 
422	 4.00112077196912E-02 
423	 0.039996528225633 
424	 4.01727613211629E-02 
425	 4.05067545127487E-02 
426	 4.09284292504388E-02 
427	 0.041270809504245 
428	 4.14007921989013E-02 
429	 0.041733095608127 
430	 4.21238922256997E-02 
431	 4.24781749939425E-02 
432	 4.28259729481861E-02 
433	 4.30602714420329E-02 
434	 4.32027646374713E-02 
435	 4.33559080167014E-02 
436	 4.37740143938526E-02 
437	 4.41774622152561E-02 
438	 4.45169662097316E-02 
439	 4.48710371464252E-02 
440	 4.52470631308275E-02 
441	 4.55146322184798E-02 
442	 4.56671333076336E-02 
443	 0.045892348782204 
444	 4.62706499008441E-02 
445	 4.66901072968737E-02 
446	 4.69969762287892E-02 
447	 4.71204252594556E-02 
448	 4.72522050841183E-02 
449	 4.74401673613757E-02 
450	 4.76266596381278E-02 
451	 4.79190958242617E-02 
452	 4.82037810857108E-02 
453	 4.84225302378572E-02 
454	 4.87116549241868E-02 
455	 4.87535937982548E-02 
456	 4.87193262291318E-02 
457	 4.88756184688306E-02 
458	 4.89348964436585E-02 
459	 4.90518765962799E-02 
460	 4.92909219264042E-02 
461	 0.049588813044341 
462	 4.95551686840649E-02 
463	 4.95534022256958E-02 
464	 4.98176707193039E-02 
465	 4.97776138716396E-02 
466	 4.98205954983199E-02 
467	 5.00132996800109E-02 
468	 5.02405729182066E-02 
469	 5.03078742265838E-02 
470	 0.050346900686974 
471	 5.04701104575458E-02 
472	 5.07183940573253E-02 
473	 5.08294407012653E-02 
474	 5.08608868833879E-02 
475	 5.09097742186194E-02 
476	 5.08151593122954E-02 
477	 5.11622685617663E-02 
478	 5.16777954793432E-02 
479	 5.15972379224881E-02 
480	 0.051761579972379 
481	 5.19979960213115E-02 
482	 5.21589898143406E-02 
483	 5.24321441318573E-02 
484	 5.26505573038684E-02 
485	 5.28805720969068E-02 
486	 0.05321126199996 
487	 5.33546264824403E-02 
488	 0.053647592445182 
489	 5.40457051075539E-02 
490	 0.054138184496414 
491	 5.44079903761984E-02 
492	 5.48615939269191E-02 
493	 5.53446514965394E-02 
494	 5.55233953530404E-02 
495	 5.58588778897305E-02 
496	 5.62758497903332E-02 
497	 5.64856281342042E-02 
498	 5.68945886019387E-02 
499	 5.73998677975416E-02 
500	 5.78410948985204E-02 
501	 5.80487021609288E-02 
502	 5.84453313817107E-02 
503	 5.90233361374736E-02 
504	 0.059617888228687 
505	 6.00181896482075E-02 
506	 0.060412044708439 
507	 6.08188163044115E-02 
508	 6.11364881420785E-02 
509	 6.16932488862652E-02 
510	 6.22858412856328E-02 
511	 6.27619747409389E-02 
512	 6.33041728354206E-02 
513	 6.38153547452805E-02 
514	 6.43133043754893E-02 
515	 6.48476355059982E-02 
516	 6.53561180901258E-02 
517	 6.58979206290349E-02 
518	 6.64880877654624E-02 
519	 6.70776960660554E-02 
520	 6.78231635408999E-02 
521	 6.85385239211346E-02 
522	 6.90822345319365E-02 
523	 6.97035515023682E-02 
524	 7.04295453518142E-02 
525	 7.11662888263311E-02 
526	 7.17713082456302E-02 
527	 7.25832536201825E-02 
528	 7.33897555496827E-02 
529	 7.40528616125175E-02 
530	 7.47212889263466E-02 
531	 7.55025056763804E-02 
532	 7.63653450473184E-02 
533	 7.72211630324391E-02 
534	 7.80846007716595E-02 
535	 7.88347103878176E-02 
536	 7.95799359972304E-02 
537	 8.06795986254568E-02 
538	 8.16197995256869E-02 
539	 8.24356137861196E-02 
540	 0.083259905821194 
541	 8.40508269314234E-02 
542	 8.50094687504072E-02 
543	 8.60425574300211E-02 
544	 8.69032315869329E-02 
545	 8.78112945428856E-02 
546	 8.86412961432767E-02 
547	 8.93549193380018E-02 
548	 9.01599346311548E-02 
549	 0.091001713034559 
550	 9.17861760492178E-02 
551	 9.24724456582963E-02 
552	 0.09341530837655 
553	 9.43887840208997E-02 
554	 9.52583258513209E-02 
555	 9.60301133435083E-02 
556	 9.68413737328158E-02 
557	 9.77896235656549E-02 
558	 9.88563402601806E-02 
559	 9.97486056810529E-02 
560	 0.100584236394562 
561	 0.101438114443177 
562	 0.102343034289267 
563	 0.103106876272414 
564	 0.103878278056478 
565	 0.104707488754821 
566	 0.105369699689353 
567	 0.105963610600827 
568	 0.106470886944892 
569	 0.106886716629874 
570	 0.107497147389538 
571	 0.108066621681459 
572	 0.108492530212472 
573	 0.108853060069535 
574	 0.109300290960444 
575	 0.109665129205773 
576	 0.109865308013127 
577	 0.110374631817059 
578	 0.11076359070473 
579	 0.110999713035045 
580	 0.111301493679645 
581	 0.111714288271472 
582	 0.112120908622222 
583	 0.112458916846109 
584	 0.112803675633873 
585	 0.11313093474433 
586	 0.11333740214264 
587	 0.113353346461939 
588	 0.113462328444248 
589	 0.113831740384991 
590	 0.114280049016019 
591	 0.11434137597303 
592	 0.114427877176993 
593	 0.114556481632036 
594	 0.114688106604431 
595	 0.114875160998651 
596	 0.115106597982367 
597	 0.115218334401799 
598	 0.115044215888732 
599	 0.11526330472665 
600	 0.115521070174986 
601	 0.115605404147457 
602	 0.115773298828544 
603	 0.115893322658505 
604	 0.115996748588932 
605	 0.116144280217551 
606	 0.11629195140119 
607	 0.116388138870461 
608	 0.116476801185287 
609	 0.116689272164537 
610	 0.116760708602195 
611	 0.116882384230343 
612	 0.117176679522624 
613	 0.117296504906706 
614	 0.117192310898459 
615	 0.117140013691781 
616	 0.117510099794357 
617	 0.11767567758891 
618	 0.117658409160879 
619	 0.117640537678563 
620	 0.117950566224127 
621	 0.118047809893083 
622	 0.117986145623606 
623	 0.118005902902572 
624	 0.118215784164556 
625	 0.118349181804846 
626	 0.118311784160455 
627	 0.118209050777902 
628	 0.118441849660965 
629	 0.118743178028124 
630	 0.118833791729813 
631	 0.11872681073759 
632	 0.118847898501403 
633	 0.119083871625885 
634	 0.119084586719397 
635	 0.118940719958252 
636	 0.118837561617141 
637	 0.118885439875572 
638	 0.119086293246995 
639	 0.118980852717488 
640	 0.118702063695961 
641	 0.118534269917834 
642	 0.118563609771902 
643	 0.118360811562068 
644	 0.118033520890043 
645	 0.118088706903304 
646	 0.117721408126841 
647	 0.11734239631347 
648	 0.117303684219803 
649	 0.117285879962754 
650	 0.117112101941523 
651	 0.116896158114314 
652	 0.11683674380096 
653	 0.116741243418226 
654	 0.116547114592993 
655	 0.116253862192639 
656	 0.115979878869712 
657	 0.11584906899838 
658	 0.115655061219443 
659	 0.115275030904066 
660	 0.115082011231013 
661	 0.114623956231782 
662	 0.114043675727949 
663	 0.113805961094112 
664	 0.11342942195251 
665	 0.113060199626308 
666	 0.112790027538111 
667	 0.112474262695071 
668	 0.112282716124148 
669	 0.112194859154361 
670	 0.112110174419337 
671	 0.111861179017241 
672	 0.111762323463079 
673	 0.11184441913845 
674	 0.111866121215438 
675	 0.112014925769868 
676	 0.112319579280293 
677	 0.112729898829442 
678	 0.113066522239819 
679	 0.113508994316 
680	 0.114100784370262 
681	 0.114805086217433 
682	 0.115466824001076 
683	 0.116432914776249 
684	 0.117655516181453 
685	 0.118605833841916 
686	 0.1197789751092 
687	 0.121079261749226 
688	 0.122243713250266 
689	 0.123471673910228 
690	 0.124830031888467 
691	 0.125925388719297 
692	 0.126223718980241 
693	 0.127219633998482 
694	 0.128373853603452 
695	 0.12919156028003 
696	 0.129878405442382 
697	 0.130510401112714 
698	 0.130956681970425 
699	 0.131134940482933 
700	 0.131839220475595 
701	 0.132353193795446 
702	 0.132475752937643 
703	 0.132500826180121 
704	 0.13249106439553 
705	 0.132543048065601 
706	 0.132634973762662 
707	 0.132515636178992 
708	 0.132237737053389 
709	 0.131839978520455 
710	 0.131344523928469 
711	 0.130645257921235 
712	 0.129854231417396 
713	 0.129009648839533 
714	 0.12802836307125 
715	 0.126723555845355 
716	 0.125107594745116 
717	 0.123447145570738 
718	 0.121988744510333 
719	 0.121058983289145 
720	 0.120347266636577 
721	 0.119301548577325 
722	 0.118170045606752 
723	 0.116759717902808 
724	 0.11518296554749 
725	 0.11359715716073 
726	 0.112238647215113 
727	 0.110619356504078 
728	 0.108506148633574 
729	 0.106827990739526 
730	 0.10485334226809 
731	 0.102972470873741 
732	 0.101717296649678 
733	 0.100300352296365 
734	 0.099006014044853 
735	 9.79918999131393E-02 
736	 0.097146257372351 
737	 9.66269402279213E-02 
738	 9.63259218974654E-02 
739	 9.61080346284583E-02 
740	 9.59402385340152E-02 
741	 9.57221702899582E-02 
742	 9.56242205246401E-02 
743	 9.58673002758445E-02 
744	 9.59304200561013E-02 
745	 9.58455033640005E-02 
746	 9.57824947935255E-02 
747	 9.60081841138095E-02 
748	 9.63250876442886E-02 
749	 0.096393662068875 
750	 9.60893831116128E-02 
751	 9.60571981695893E-02 
752	 9.61720521289176E-02 
753	 9.62904900630481E-02 
754	 0.096296342774425 
755	 9.64453472324699E-02 
756	 0.096544988082281 
757	 9.64301094864574E-02 
758	 9.58880309759898E-02 
759	 9.55921094455834E-02 
760	 9.51166456065246E-02 
761	 9.41934863644853E-02 
762	 9.46934474998856E-02 
763	 9.54016420779238E-02 
764	 9.59608154499194E-02 
765	 9.64377150635447E-02 
766	 9.68422510545505E-02 
767	 9.72870383888079E-02 
768	 9.77280658119661E-02 
769	 9.79652222240749E-02 
770	 9.83157288735413E-02 
771	 9.85988650865274E-02 
772	 9.87038322673644E-02 
773	 9.89770855019491E-02 
774	 9.92323798333249E-02 
775	 9.95255418073667E-02 
776	 9.99424831921274E-02 
777	 0.100086283412158 
778	 0.100325847120371 
779	 0.100839892389046 
780	 0.101525791608579 
781	 0.101794972278316 
782	 0.10196488643241 
783	 0.102314361212246 
784	 0.102637604818612 
785	 0.102869251002721 
786	 0.1031227541685 
787	 0.103523254385276 
788	 0.103844728391517 
789	 0.104185976488862 
790	 0.104680435394364 
791	 0.105427768316795 
792	 0.106049701372438 
793	 0.106477440364969 
794	 0.106758616724771 
795	 0.107019220746635 
796	 0.107372070532933 
797	 0.107820011886243 
798	 0.108298519671806 
799	 0.108605155384546 
800	 0.108938985674308 
801	 0.109267214489807 
802	 0.109464973920671 
803	 0.109758838231291 
804	 0.109916631965561 
805	 0.110034164210145 
806	 0.110547064073636 
807	 0.110285820657658 
808	 0.109905610522284 
809	 0.109895141538832 
810	 0.109261872047461 
811	 0.10891982043562 
812	 0.10868591118546 
813	 0.108033598964598 
814	 0.107534318102592 
815	 0.106696831985397 
816	 0.105960302701018 
817	 0.10622603622294 
818	 0.105807227353548 
819	 0.105049064560617 
820	 0.104313833914208 
821	 0.103761445015324 
822	 0.102766273084265 
823	 0.101553051875057 
824	 0.100431543779747 
825	 9.91992578496058E-02 
826	 9.74971179144595E-02 
827	 9.56556124523279E-02 
828	 9.41990093912988E-02 
829	 9.20834498323959E-02 
830	 9.05169511837186E-02 
831	 8.95455893241382E-02 
832	 8.83956699388226E-02 
833	 8.75092745257044E-02 
834	 8.67682203817028E-02 
835	 8.61343620352455E-02 
836	 8.57595528277376E-02 
837	 8.53284329238815E-02 
838	 8.51484796393844E-02 
839	 8.52736328617877E-02 
840	 8.47632135493412E-02 
841	 8.43413244588319E-02 
842	 8.41142310314098E-02 
843	 8.39353660688649E-02 
844	 8.36258515774513E-02 
845	 8.32146807133358E-02 
846	 8.29129533556126E-02 
847	 8.29217155051569E-02 
848	 8.22772136747859E-02 
849	 8.16742785220338E-02 
850	 8.16825416842461E-02 
851	 8.23445707405034E-02 
852	 8.14810290892721E-02 
853	 8.09545031268828E-02 
854	 8.16814898900888E-02 
855	 8.07197839957392E-02 
856	 8.01772466077667E-02 
857	 8.01885489859231E-02 
858	 0.080273707701621 
859	 7.98751670556452E-02 
860	 7.93016772272343E-02 
861	 7.89910440295059E-02 
862	 7.92351295247601E-02 
863	 7.91853691951652E-02 
864	 7.90993303153213E-02 
865	 7.90136821161178E-02 
866	 7.87675874430234E-02 
867	 7.90825089663557E-02 
868	 7.86693120587929E-02 
869	 7.75078734643927E-02 
870	 7.74595423493787E-02 
871	 7.72372069350426E-02 
872	 7.69624955666129E-02 
873	 7.67976841518594E-02 
874	 7.63275103571332E-02 
875	 7.61476187528417E-02 
876	 7.58517202050647E-02 
877	 7.51037529760717E-02 
878	 7.49947822985028E-02 
879	 7.47471786933896E-02 
880	 7.41691282066095E-02 
881	 7.35219179096347E-02 
882	 7.36879857657922E-02 
883	 7.38189984171992E-02 
884	 7.33742406458184E-02 
885	 7.23381488518272E-02 
886	 7.21152225855535E-02 
887	 7.18669261837253E-02 
888	 7.14517971609979E-02 
889	 7.17265124327473E-02 
890	 7.16708233353724E-02 
891	 0.071239344386235 
892	 7.06278377569118E-02 
893	 7.01548609670319E-02 
894	 6.91341091578586E-02 
895	 6.84807442615745E-02 
896	 6.88280219757754E-02 
897	 6.82537007938848E-02 
898	 6.74443722125145E-02 
899	 6.70089254260724E-02 
900	 6.71548316407213E-02 
901	 6.69785796399766E-02 
902	 6.67856990156162E-02 
903	 6.63352906407854E-02 
904	 6.54863309586745E-02 
905	 6.56331509255737E-02 
906	 6.52552594480173E-02 
907	 6.45172961546061E-02 
908	 6.46314131027353E-02 
909	 6.39520097361401E-02 
910	 0.063105265436939 
911	 6.23797618734076E-02 
912	 0.061606298770412 
913	 6.13493159741581E-02 
914	 6.09855174146987E-02 
915	 6.05176448247762E-02 
916	 6.07327010679728E-02 
917	 6.12119049773747E-02 
918	 6.17440496863571E-02 
919	 6.17548692678166E-02 
920	 6.02649647112636E-02 
921	 5.92994309807173E-02 
922	 5.86556074184086E-02 
923	 5.83915254824699E-02 
924	 6.01331009351063E-02 
925	 5.89901887442406E-02 
926	 5.68520615729914E-02 
927	 5.65819169034737E-02 
928	 5.53164374792467E-02 
929	 5.73610532637282E-02 
930	 5.98406286941145E-02 
931	 5.65292125535755E-02 
932	 5.56524869812014E-02 
933	 5.38116847093683E-02 
934	 5.17535917229758E-02 
935	 5.16300469595838E-02 
936	 5.14111457381304E-02 
937	 4.67749678220984E-02 
938	 4.54734578690455E-02 
939	 5.20622664137546E-02 
940	 4.56298146184742E-02 
941	 4.71521724033641E-02 
942	 5.48624845218318E-02 
943	 5.59643615174891E-02 
944	 4.95098098388527E-02 
945	 4.74468366246106E-02 
946	 0.049227663120674 
947	 4.73403507159963E-02 
948	 0.047825972095924 
949	 4.90845849768864E-02 
950	 4.87886972310939E-02 
951	 4.60578869154491E-02 
952	 4.85623739324611E-02 
953	 5.00818854081623E-02 
954	 4.87946409011053E-02 
955	 0.047110209020977 
956	 4.79046611136259E-02 
957	 4.74527598446722E-02 
958	 4.45788906890201E-02 
959	 4.09300657484222E-02 
960	 4.02040014599706E-02 
961	 4.12239223624578E-02 
962	 0.043872830023341 
963	 4.84677060734892E-02 
964	 5.23796902989137E-02 
965	 4.72034239470922E-02 
966	 4.04176559744876E-02 
967	 4.68922969844905E-02 
968	 4.73757408444843E-02 
969	 4.63857569035021E-02 
970	 4.56112463420353E-02 
971	 4.33825157935415E-02 
972	 0.046741325779593 
973	 4.63622990123493E-02 
974	 4.33772950237466E-02 
975	 4.83427207170083E-02 
976	 4.67185405593169E-02 
977	 4.58289681168957E-02 
978	 4.85357061462113E-02 
979	 5.11357787207259E-02 
980	 4.97173202299533E-02 
981	 4.71093211897775E-02 
982	 4.69730361466811E-02 
983	 5.10420163679792E-02 
984	 4.81823453787995E-02 
985	 4.50568801602544E-02 
986	 0.045462265092151 
987	 4.83863142375878E-02 
988	 4.79746104275655E-02 
989	 4.66864571552148E-02 
990	 4.74209363174803E-02 
991	 5.12675620103272E-02 
992	 5.13421793850159E-02 
993	 4.67747312794669E-02 
994	 4.38212206159774E-02 
995	 4.96145016846441E-02 
996	 4.92473874950896E-02 
997	 4.88436180471396E-02 
998	 0.048966912379018 
999	 4.71597216081192E-02 
1000	 4.97115346796107E-02 
1001	 4.85048092004373E-02 
1002	 4.87348406586652E-02 
1003	 4.89449564263164E-02 
1004	 4.98284286973492E-02 
1005	 5.02515126662298E-02 
1006	 5.04300625356443E-02 
1007	 5.05464628347161E-02 
1008	 5.06063438373176E-02 
1009	 5.06456241352909E-02 
1010	 5.01321492641197E-02 
1011	 0.050305468786069 
1012	 0.05102718435608 
1013	 5.09332097816703E-02 
1014	 5.10207013539774E-02 
1015	 5.15588021957041E-02 
1016	 5.13290701172204E-02 
1017	 5.03628114746681E-02 
1018	 4.98908207930088E-02 
1019	 4.87845175306451E-02 
1020	 4.88230142264842E-02 
1021	 4.94279212260829E-02 
1022	 5.04108825560765E-02 
1023	 0.052224751109641 
1024	 5.33556423406533E-02 
1025	 5.30636224801952E-02 
1026	 5.30812306889132E-02 
1027	 5.31568447402292E-02 
1028	 5.25814289026742E-02 
1029	 5.26815425633177E-02 
1030	 5.38214069150724E-02 
1031	 5.36879216160215E-02 
1032	 5.28409622211908E-02 
1033	 5.25317755050194E-02 
1034	 5.14685518644553E-02 
1035	 5.13492554112742E-02 
1036	 5.23853910329276E-02 
1037	 5.26249317606925E-02 
1038	 5.24141307513089E-02 
1039	 5.31004534139998E-02 
1040	 5.33746916224813E-02 
1041	 5.33937661902832E-02 
1042	 5.35694969558002E-02 
1043	 5.41080208556278E-02 
1044	 0.054281745522225 
1045	 5.39977570841694E-02 
1046	 5.42408174354143E-02 
1047	 5.47434465318389E-02 
1048	 5.51015417085037E-02 
1049	 0.055683632693177 
1050	 0.056055811611055 
1051	 0.056672902999314 
1052	 5.65766796469132E-02 
1053	 5.55931839757451E-02 
1054	 0.055280251442806 
1055	 5.46496792963862E-02 
1056	 5.43582786498013E-02 
1057	 5.44002865889944E-02 
1058	 5.52313754261812E-02 
1059	 5.55317332139697E-02 
1060	 0.055807335519608 
1061	 5.59430847231964E-02 
1062	 5.59412588149356E-02 
1063	 5.60950553692416E-02 
1064	 5.61627310200486E-02 
1065	 5.63008071273225E-02 
1066	 5.67644428762905E-02 
1067	 5.68773551498743E-02 
1068	 0.056829959317482 
1069	 5.66991935851961E-02 
1070	 0.056289076713633 
1071	 5.59907424591257E-02 
1072	 5.55298901764735E-02 
1073	 5.52412398941154E-02 
1074	 5.52176811014448E-02 
1075	 5.55640367520878E-02 
1076	 5.53582388438167E-02 
1077	 5.51716346535972E-02 
1078	 5.48959283927723E-02 
1079	 5.37674187219758E-02 
1080	 5.39062996655553E-02 
1081	 5.51585718875863E-02 
1082	 5.53492728478374E-02 
1083	 5.59062336881823E-02 
1084	 5.59663806728568E-02 
1085	 5.44510910470699E-02 
1086	 5.42127156288657E-02 
1087	 5.48421193181617E-02 
1088	 5.49773905299696E-02 
1089	 5.51958954758346E-02 
1090	 5.62096977524427E-02 
1091	 5.58730856255289E-02 
1092	 5.45500042729127E-02 
1093	 5.39906962232179E-02 
1094	 5.29819096826579E-02 
1095	 5.25735517317064E-02 
1096	 5.28667204640235E-02 
1097	 5.28282720548313E-02 
1098	 5.28321336139303E-02 
1099	 5.26722246109362E-02 
1100	 5.25101712871724E-02 
1101	 5.24402523221127E-02 
1102	 5.19841424355655E-02 
1103	 5.18546536657301E-02 
1104	 5.24210019276185E-02 
1105	 5.24101706511256E-02 
1106	 5.10407525201677E-02 
1107	 5.07691909838626E-02 
1108	 5.10890518987793E-02 
1109	 5.13429355965525E-02 
1110	 0.050906006059739 
1111	 0.05111176926093 
1112	 0.050633934467268 
1113	 4.73594609554822E-02 
1114	 4.66830759863555E-02 
1115	 0.049475837977324 
1116	 4.97817491072098E-02 
1117	 4.88272859164426E-02 
1118	 4.92208147336036E-02 
1119	 4.84412981466799E-02 
1120	 4.84500577606853E-02 
1121	 5.23972602227401E-02 
1122	 5.57466981424354E-02 
1123	 5.43639842448029E-02 
1124	 5.47694796878109E-02 
1125	 0.049864839003183 
1126	 4.75187199975376E-02 
1127	 5.30924107623398E-02 
1128	 5.49920068892603E-02 
1129	 5.28998113465872E-02 
1130	 4.95246348344049E-02 
1131	 0.049087314858109 
1132	 4.57710390726291E-02 
1133	 0.046083948357569 
1134	 5.35780580727982E-02 
1135	 5.42208371983385E-02 
1136	 5.00323945932005E-02 
1137	 4.77015434820761E-02 
1138	 4.33448487292281E-02 
1139	 4.31892157820134E-02 
1140	 4.40512364714515E-02 
1141	 4.03095013732446E-02 
1142	 4.07422883531228E-02 
1143	 4.35915587772088E-02 
1144	 3.86923291786826E-02 
1145	 3.67923214120053E-02 
1146	 3.96082357160422E-02 
1147	 3.59914365853878E-02 
1148	 3.40167559416119E-02 
1149	 3.68662599967584E-02 
1150	 3.78621461206179E-02 
1151	 3.63173728275853E-02 
1152	 3.69491159878808E-02 
1153	 4.01444776387157E-02 
1154	 4.00743226700911E-02 
1155	 3.92734243490564E-02 
1156	 3.74150096897171E-02 
1157	 3.60226894902803E-02 
1158	 3.64186258943067E-02 
1159	 0.035610447858848 
1160	 3.52191594144452E-02 
1161	 3.57486762453796E-02 
1162	 3.42861962284446E-02 
1163	 3.39203454203965E-02 
1164	 3.53767353025764E-02 
1165	 3.54199478286555E-02 
1166	 3.46632177359708E-02 
1167	 3.45190092699972E-02 
1168	 3.44264276360237E-02 
1169	 3.43530766404864E-02 
1170	 3.50122563489457E-02 
1171	 3.50823160238781E-02 
1172	 3.44804406043486E-02 
1173	 3.42959000194393E-02 
1174	 3.39657890526624E-02 
1175	 3.44707381595873E-02 
1176	 3.41443824804964E-02 
1177	 0.033792300283737 
1178	 3.38430677959063E-02 
1179	 3.35108400806532E-02 
1180	 3.33306395996445E-02 
1181	 3.41034023874277E-02 
1182	 0.03461469204786 
1183	 3.37114054848075E-02 
1184	 3.35289305527816E-02 
1185	 3.47273589027091E-02 
1186	 3.46349400166782E-02 
1187	 3.38867987866154E-02 
1188	 3.43518492723267E-02 
1189	 3.42509066332838E-02 
1190	 3.35979569313425E-02 
1191	 3.40408693076309E-02 
1192	 0.034055562334593 
1193	 3.37882471631464E-02 
1194	 3.26472805885309E-02 
1195	 3.23586740400229E-02 
1196	 3.27202330405543E-02 
1197	 3.32265064866222E-02 
1198	 3.38171466100654E-02 
1199	 3.42792647452362E-02 
1200	 3.44960434898113E-02 
1201	 3.44609951063044E-02 
1202	 3.44300120346205E-02 
1203	 3.44690246675017E-02 
1204	 3.40857349983758E-02 
1205	 3.34479143435648E-02 
1206	 3.36167416808482E-02 
1207	 3.42465699949346E-02 
1208	 3.42414609916079E-02 
1209	 3.42523898416109E-02 
1210	 3.46549055475485E-02 
1211	 0.034641608744548 
1212	 3.45855391453296E-02 
1213	 3.46976604483064E-02 
1214	 3.47556209934156E-02 
1215	 0.034360883188132 
1216	 3.40751200299213E-02 
1217	 3.43443394245875E-02 
1218	 3.46897943594349E-02 
1219	 3.46218795411986E-02 
1220	 3.47341165668044E-02 
1221	 3.51200604343065E-02 
1222	 3.52001900466862E-02 
1223	 3.47456418555685E-02 
1224	 3.42923500008901E-02 
1225	 3.45260506420893E-02 
1226	 3.46298662497393E-02 
1227	 3.46307568307317E-02 
1228	 3.49520036841287E-02 
1229	 3.50905034234899E-02 
1230	 0.035359160315425 
1231	 3.57882167648705E-02 
1232	 3.60134935767692E-02 
1233	 3.58730037924355E-02 
1234	 3.52280423585007E-02 
1235	 3.50953226619438E-02 
1236	 3.56646595937715E-02 
1237	 3.57641724538544E-02 
1238	 3.57050503225903E-02 
1239	 3.57998580507975E-02 
1240	 3.58848170035228E-02 
1241	 3.56211553631271E-02 
1242	 3.56603372605101E-02 
1243	 0.035676581046239 
1244	 3.55141326247859E-02 
1245	 3.54833723569526E-02 
1246	 0.035635918151572 
1247	 3.58005750356362E-02 
1248	 3.54874998993303E-02 
1249	 3.50335249458959E-02 
1250	 3.50590840277968E-02 
1251	 3.52576652475704E-02 
1252	 3.55034161466007E-02 
1253	 3.60237760972867E-02 
1254	 3.61684184054031E-02 
1255	 3.55681601732284E-02 
1256	 3.54847979871272E-02 
1257	 3.58891267387252E-02 
1258	 3.57742672569548E-02 
1259	 3.54481826394743E-02 
1260	 3.55880219642159E-02 
1261	 3.56455963278157E-02 
1262	 3.55717244532013E-02 
1263	 3.58128239737229E-02 
1264	 3.58661367674425E-02 
1265	 0.035348273871895 
1266	 0.034714924074808 
1267	 0.034561387236529 
1268	 3.48862363695698E-02 
1269	 3.51055638293158E-02 
1270	 3.53424407317756E-02 
1271	 3.55405844006137E-02 
1272	 3.53771253271708E-02 
1273	 3.51596991771438E-02 
1274	 0.035208865686342 
1275	 3.55612662031745E-02 
1276	 3.57282983429956E-02 
1277	 3.55057466353237E-02 
1278	 3.54537044701581E-02 
1279	 3.53931072667116E-02 
1280	 3.51140174998901E-02 
1281	 3.49229429836925E-02 
1282	 3.49192700987804E-02 
1283	 3.48789956208123E-02 
1284	 3.46377964537682E-02 
1285	 3.45417672850397E-02 
1286	 3.46266065381343E-02 
1287	 3.47189258164814E-02 
1288	 3.49334538636962E-02 
1289	 3.49279362933619E-02 
1290	 3.48563507835993E-02 
1291	 3.48568612673005E-02 
1292	 3.45772494801059E-02 
1293	 3.43788550847189E-02 
1294	 3.41218787623378E-02 
1295	 3.35798522876806E-02 
1296	 3.35807330167793E-02 
1297	 3.34580283386005E-02 
1298	 3.30319876202121E-02 
1299	 3.32301965359203E-02 
1300	 3.31775254616588E-02 
1301	 3.27539101399018E-02 
1302	 3.28970575584499E-02 
1303	 3.29535389335708E-02 
1304	 3.29751112931135E-02 
1305	 3.29262590678792E-02 
1306	 3.27162174044877E-02 
1307	 3.28786047016355E-02 
1308	 0.032496403006444 
1309	 0.031025098194842 
1310	 3.05913128166457E-02 
1311	 3.06072497682968E-02 
1312	 3.04073533364476E-02 
1313	 3.07493182364441E-02 
1314	 3.07701998059333E-02 
1315	 3.04175857649811E-02 
1316	 3.03717024591191E-02 
1317	 3.05004610676654E-02 
1318	 3.03817515323795E-02 
1319	 3.01727780888586E-02 
1320	 2.97779774998548E-02 
1321	 2.85865564243733E-02 
1322	 2.91251402074658E-02 
1323	 2.84720864992608E-02 
1324	 2.75819412718496E-02 
1325	 2.70602199859068E-02 
1326	 2.68971195474639E-02 
1327	 2.75888527363509E-02 
1328	 2.74199468470631E-02 
1329	 0.027067915422022 
1330	 2.69529394894712E-02 
1331	 2.69366188889255E-02 
1332	 2.84164849179464E-02 
1333	 3.04226484315427E-02 
1334	 2.95346621448166E-02 
1335	 2.92233064794096E-02 
1336	 0.027776005832947 
1337	 2.74097804773275E-02 
1338	 2.76414513824313E-02 
1339	 2.70063431562933E-02 
1340	 2.54169350873409E-02 
1341	 0.025312667778028 
1342	 2.45407844350054E-02 
1343	 2.57527172061946E-02 
1344	 3.33608793806172E-02 
1345	 3.50789841425332E-02 
1346	 3.13791993030534E-02 
1347	 0.033403880680657 
1348	 3.52514283209571E-02 
1349	 3.44235534468757E-02 
1350	 0.038607967791326 
1351	 4.72114690258366E-02 
1352	 5.15126074715617E-02 
1353	 5.32935778155244E-02 
1354	 5.79726610925272E-02 
1355	 9.81941352955417E-02 
1356	 0.142352965821804 
1357	 0.140118801818797 
1358	 0.201887410088079 
1359	 0.293109110566274 
1360	 0.32915877908502 
1361	 0.569605629313135 
1362	 0.431935281390993 
1363	 0.231418921851816 
1364	 0.303685468741048 
1365	 0.240581310087076 
1366	 0.229771947814562 
1367	 0.778460630422601 
1368	 0.978164017657089 
1369	 0.529529255862473 
1370	 0.441927817725659 
1371	 0.401880758950759 
1372	 0.485026175076515 
1373	 0.755779256189149 
1374	 0.893938037036308 
1375	 1.04190244431531 
1376	 1.03028857403506 
1377	 0.913292465400532 
1378	 0.649370893039959 
1379	 0.374550825935881 
1380	 0.416768692650527 
1381	 0.847019494334136 
1382	 0.876485764207922 
1383	 0.657048421260974 
1384	 1.08689642450595 
1385	-6.57612700790119 
1386	-5.13528871607873 
1387	-8.15224729569308 
1388	-4.3181443350149 
1389	 16.3799764974851 
1390	 1.108834143728 
1391	 0.230770189584542 
1392	 0.410306064560137 
1393	 1.75739521592992 
1394	 1.12933681421148 
1395	 5.15011491032212 
1396	-2.37891918275013 
1397	-0.650726931988503 
1398	-2.33854357158654 
1399	-3.2549688673333 
1400	-0.14854529458589 
1401	 0.700472330779298 
1402	 2.67246077335735 
1403	 2.68806202241574 
1404	 2.60363130612423 
1405	 2.45616980686671 
1406	 1.53332121259456 
1407	 1.52168504116113 
1408	 4.15632027638376 
1409	 1.62210563156913 
1410	 0.887918573094592 
1411	 0.684639662162602 
1412	 0.432323140505838 
1413	 0.337728201436311 
1414	 0.204681781252154 
1415	 0.197020148828375 
1416	 0.290103636697265 
1417	 0.260072556216472 
1418	 0.251208968951385 
1419	 0.218914494849106 
1420	 0.162224556419144 
1421	 0.118779278125466 
1422	 7.16320688785536E-02 
1423	 5.45274955398188E-02 
1424	 3.22840931393243E-02 
1425	 2.91343517511961E-02 
1426	 0.063097455090099 
1427	 5.55358336301824E-02 
1428	 1.72907826460738E-02 
1429	 2.16986681152621E-02 
1430	 4.01071413442059E-02 
1431	 3.44735659018804E-02 
1432	 3.29253885437951E-02 
1433	 4.03890234493965E-02 
1434	 3.63276721617969E-02 
1435	 3.44440562353369E-02 
1436	 5.97932280930834E-02 
1437	 6.15841137023208E-02 
1438	 3.37895403094273E-02 
1439	 2.75510085898577E-02 
1440	 4.78410301374591E-02 
1441	 0.041957711099976 
1442	 3.14562127760571E-02 
1443	 2.70059822929434E-02 
1444	 1.86323818445627E-02 
1445	 2.39419331295919E-02 
1446	 1.95769702220581E-02 
1447	 1.12207066121919E-02 
1448	 1.17548044748621E-02 
1449	 1.14459740198465E-02 
1450	 1.61340321347119E-02 
1451	 1.58849387886581E-02 
1452	 0.012254661272232 
1453	 1.07514858114912E-02 
1454	 8.5936663013246E-03 
1455	 9.04702923487424E-03 
1456	 8.67879184172989E-03 
1457	 4.47405959234778E-03 
1458	 5.12254492800461E-03 
1459	 8.40751251851671E-03 
1460	 1.20388923751611E-02 
1461	 2.06352365327625E-02 
1462	 2.27676662940436E-02 
1463	 2.17628560090545E-02 
1464	 2.16314759644918E-02 
1465	 1.70461408089136E-02 
1466	 1.58303298384256E-02 
1467	 1.88038862645046E-02 
1468	 2.02355900075848E-02 
1469	 2.17704743530471E-02 
1470	 1.93876217477241E-02 
1471	 1.45081968070882E-02 
1472	 1.28946895140688E-02 
1473	 8.30593357958885E-03 
1474	 9.64416876864195E-03 
1475	 1.82344932289936E-02 
1476	 1.82348604216394E-02 
1477	 1.58282945552079E-02 
1478	 1.54684401740381E-02 
1479	 1.24088247250349E-02 
1480	 1.15391965134449E-02 
1481	 1.35864473006946E-02 
1482	 1.34243335757771E-02 
1483	 1.23307693436476E-02 
1484	 1.11648233572019E-02 
1485	 9.36355581479902E-03 
1486	 8.75221755675706E-03 
1487	 7.14831952793931E-03 
1488	 8.00144250381368E-03 
1489	 1.17159438013258E-02 
1490	 1.24596789371691E-02 
1491	 1.33917315289955E-02 
1492	 1.31661074484331E-02 
1493	 1.01636655901901E-02 
1494	 9.57210165712455E-03 
1495	 1.07138945612089E-02 
1496	 0.010288478529392 
1497	 8.83637826383303E-03 
1498	 9.05248806225403E-03 
1499	 9.86735186707273E-03 
1500	 0.009834171593245 
1501	 1.07786552205798E-02 
1502	 1.11320424106099E-02 
1503	 1.00443221019391E-02 
1504	 9.58659506152837E-03 
1505	 9.46802975988656E-03 
1506	 9.53613762154393E-03 
1507	 1.00379299036576E-02 
1508	 9.95742158382642E-03 
1509	 9.70568537017208E-03 
1510	 1.01099503468032E-02 
1511	 9.7277863215454E-03 
1512	 8.95138386840259E-03 
1513	 9.08564379045068E-03 
1514	 9.67956885723301E-03 
1515	 1.02453844546041E-02 
1516	 1.06264415375805E-02 
1517	 1.09141269106453E-02 
1518	 0.010935985498143 
1519	 1.11369648774957E-02 
1520	 1.16448873215835E-02 
1521	 1.16659226696501E-02 
1522	 1.13825941729386E-02 
1523	 1.15249094418914E-02 
1524	 1.15543265374219E-02 
1525	 1.08173100938613E-02 
1526	 1.04724077891604E-02 
1527	 1.08007437270912E-02 
1528	 1.12430564273988E-02 
1529	 1.15105100423955E-02 
1530	 0.011615325874183 
1531	 1.16075228544923E-02 
1532	 1.10635818842626E-02 
1533	 1.06931097889029E-02 
1534	 0.011072801307425 
1535	 1.16711964956862E-02 
1536	 1.18128574570382E-02 
1537	 1.22813514644805E-02 
1538	 1.32804785144062E-02 
1539	 1.35124196133627E-02 
1540	 1.32273415944723E-02 
1541	 0.012744195549711 
1542	 1.22726017506912E-02 
1543	 1.20715382775003E-02 
1544	 1.20717632595331E-02 
1545	 1.25236866074655E-02 
1546	 1.30969372330705E-02 
1547	 1.32247156783523E-02 
1548	 1.30002395504644E-02 
1549	 1.27922377723103E-02 
1550	 1.28565710096305E-02 
1551	 1.30750587255932E-02 
1552	 1.28255068936426E-02 
1553	 1.26784148506047E-02 
1554	 1.29511066512849E-02 
1555	 1.32673403787847E-02 
1556	 1.37839094455319E-02 
1557	 1.38244714704089E-02 
1558	 1.36956151249198E-02 
1559	 1.38668071654273E-02 
1560	 1.39895379834568E-02 
1561	 1.42754702321981E-02 
1562	 1.44319719651537E-02 
1563	 1.42907917230705E-02 
1564	 1.40221255815684E-02 
1565	 0.013481225048206 
1566	 1.32935123596742E-02 
1567	 1.35875575992016E-02 
1568	 1.36503941585513E-02 
1569	 1.36655537732563E-02 
1570	 1.39515902819067E-02 
1571	 1.45200393660166E-02 
1572	 1.44166068628448E-02 
1573	 1.36735604329476E-02 
1574	 1.44350128851862E-02 
1575	 1.55669047680436E-02 
1576	 1.52655190502556E-02 
1577	 1.53283175429113E-02 
1578	 1.57465845509628E-02 
1579	 1.54171964632782E-02 
1580	 1.52618736188266E-02 
1581	 1.55538212734093E-02 
1582	 1.56623643434319E-02 
1583	 1.53809069557864E-02 
1584	 1.52838414330355E-02 
1585	 1.59554074836033E-02 
1586	 1.59827736334965E-02 
1587	 1.50366289928686E-02 
1588	 0.015118319211322 
1589	 1.55597057351962E-02 
1590	 1.56410389890969E-02 
1591	 1.64429837030305E-02 
1592	 1.66436730798809E-02 
1593	 1.58464603841501E-02 
1594	 1.56695682272176E-02 
1595	 1.56195225132755E-02 
1596	 1.52198209914359E-02 
1597	 1.56604304287368E-02 
1598	 0.016407927451304 
1599	 1.60352573403915E-02 
1600	 1.58699805625632E-02 
1601	 1.64435133901491E-02 
1602	 1.67407161174334E-02 
1603	 1.71125290900803E-02 
1604	 1.73699366275358E-02 
1605	 1.67430421064189E-02 
1606	 1.60034240199582E-02 
1607	 1.61455062173041E-02 
1608	 1.65191228452629E-02 
1609	 1.70764287214242E-02 
1610	 1.76491371850307E-02 
1611	 1.72209455961421E-02 
1612	 1.68570152587359E-02 
1613	 1.71923896922727E-02 
1614	 1.72363729855561E-02 
1615	 1.72405798603585E-02 
1616	 1.75215288528393E-02 
1617	 1.75536350230138E-02 
1618	 1.68693510037098E-02 
1619	 1.62040676625361E-02 
1620	 1.66845829149529E-02 
1621	 1.71821748658888E-02 
1622	 1.70553744017157E-02 
1623	 1.75402217250594E-02 
1624	 0.018022511414104 
1625	 1.75197716879112E-02 
1626	 1.70643527190735E-02 
1627	 1.72523009562231E-02 
1628	 0.017734983011678 
1629	 0.017648618624448 
1630	 1.76537447502499E-02 
1631	 1.81696950701664E-02 
1632	 0.017792800396511 
1633	 1.77762014734337E-02 
1634	 1.82099380888439E-02 
1635	 1.79432496222337E-02 
1636	 1.77148268048822E-02 
1637	 1.79299614358475E-02 
1638	 1.85253684668874E-02 
1639	 1.86512532347384E-02 
1640	 1.83393755295462E-02 
1641	 1.80445030197009E-02 
1642	 1.77965504997912E-02 
1643	 1.80166533650172E-02 
1644	 1.84629274933294E-02 
1645	 1.88799770748163E-02 
1646	 1.93418031841851E-02 
1647	 1.93547020118183E-02 
1648	 1.88443580700458E-02 
1649	 1.82915465983362E-02 
1650	 1.79701041977806E-02 
1651	 1.80728946753561E-02 
1652	 1.82282915009514E-02 
1653	 1.79891904818649E-02 
1654	 1.79956397552124E-02 
1655	 1.81678672864925E-02 
1656	 1.82861918134343E-02 
1657	 1.86423536086169E-02 
1658	 1.87478109474182E-02 
1659	 1.85304018718725E-02 
1660	 1.84881203938087E-02 
1661	 1.85502383424742E-02 
1662	 1.85933056221897E-02 
1663	 1.88081993662546E-02 
1664	 1.83640461012326E-02 
1665	 1.70684174430333E-02 
1666	 0.016981330269244 
1667	 1.73158689498268E-02 
1668	 1.68517493910601E-02 
1669	 1.73902939750016E-02 
1670	 1.71811640816857E-02 
1671	 1.76133301026415E-02 
1672	 1.90809846854147E-02 
1673	 1.88901304465429E-02 
1674	 1.80744506352205E-02 
1675	 1.81046361662842E-02 
1676	 1.81087566375624E-02 
1677	 1.80960893774936E-02 
1678	 1.86013825491076E-02 
1679	 0.018640251810174 
1680	 1.84239139345787E-02 
1681	 1.91291480714824E-02 
1682	 1.99986535352358E-02 
1683	 1.95216752000759E-02 
1684	 1.86304290670588E-02 
1685	 1.88596199581035E-02 
1686	 1.92358635783539E-02 
1687	 1.91381567934308E-02 
1688	 0.018915808689522 
1689	 1.86414759394643E-02 
1690	 0.018273235611362 
1691	 1.81228028326411E-02 
1692	 0.018722353416934 
1693	 1.87289580021912E-02 
1694	 1.82088282961698E-02 
1695	 0.018621135684714 
1696	 1.89596040416667E-02 
1697	 1.87800058384588E-02 
1698	 1.84540649028593E-02 
1699	 1.74801088059546E-02 
1700	 1.69629709584627E-02 
1701	 1.80586401523444E-02 
1702	 1.91742982759048E-02 
1703	 1.93786750939801E-02 
1704	 1.87658315306459E-02 
1705	 0.01773660781868 
1706	 1.73285119924873E-02 
1707	 1.78582199974189E-02 
1708	 1.93479357453163E-02 
1709	 1.97813403046127E-02 
1710	 1.87416460855148E-02 
1711	 1.87366979389231E-02 
1712	 1.84639933093776E-02 
1713	 1.91822647697013E-02 
1714	 0.019590964630644 
1715	 1.88595908240787E-02 
1716	 1.88835176328268E-02 
1717	 1.87446000584062E-02 
1718	 1.76898256583616E-02 
1719	 1.77665213213566E-02 
1720	 1.82232852086806E-02 
1721	 1.79925800586518E-02 
1722	 1.79973226895615E-02 
1723	 1.81550398233393E-02 
1724	 1.73023477699346E-02 
1725	 1.67673536445157E-02 
1726	 1.72390671681699E-02 
1727	 1.67516115454111E-02 
1728	 0.016375253255157 
1729	 1.74681708676811E-02 
1730	 0.017887081119257 
1731	 1.72008991103275E-02 
1732	 1.71581069387659E-02 
1733	 1.64649890737581E-02 
1734	 1.55064248603516E-02 
1735	 1.69892967438694E-02 
1736	 1.80825945340714E-02 
1737	 0.017311648610622 
1738	 1.67949812762042E-02 
1739	 1.59164820351152E-02 
1740	 1.63470086394104E-02 
1741	 1.89445279842267E-02 
1742	 1.95820496078233E-02 
1743	 1.83771267895162E-02 
1744	 1.68523587814648E-02 
1745	 1.47025204987269E-02 
1746	 1.59716321801948E-02 
1747	 1.64734265978903E-02 
1748	 1.79945810356193E-02 
1749	 1.77620685970021E-02 
1750	 1.49059367204213E-02 
1751	 1.49900467928059E-02 
1752	 1.68690392602757E-02 
1753	 1.63972413625432E-02 
1754	 1.60695927988462E-02 
1755	 1.58727208214784E-02 
1756	 1.32762772626326E-02 
1757	 0.015078905467123 
1758	 1.66016736253548E-02 
1759	 1.52243222575128E-02 
1760	 1.49707878024071E-02 
1761	 1.66735538030161E-02 
1762	 1.70893062993372E-02 
1763	 0.015469480681245 
1764	 1.40385843924987E-02 
1765	 0.013814429646923 
1766	 1.27226866995991E-02 
1767	 1.44878617021964E-02 
1768	 1.79964778495353E-02 
1769	 1.45691521445537E-02 
1770	 1.19852847371683E-02 
1771	 1.45123101367787E-02 
1772	 1.33912001750636E-02 
1773	 0.013704507312678 
1774	 0.016600052428235 
1775	 1.52140799263144E-02 
1776	 1.59470952754326E-02 
1777	 1.97349127789588E-02 
1778	 2.02535381778772E-02 
1779	 1.84517878428932E-02 
1780	 1.84179901592933E-02 
1781	 1.84733625663597E-02 
1782	 1.77956448793383E-02 
1783	 1.68713806635988E-02 
1784	 1.67431413789356E-02 
1785	 1.50187523324429E-02 
1786	 1.62705277024488E-02 
1787	 2.30754621938244E-02 
1788	 2.44393236781997E-02 
1789	 2.30302358033569E-02 
1790	 2.48635886293043E-02 
1791	 2.37439900457028E-02 
1792	 1.94634722846248E-02 
1793	 1.67282283826272E-02 
1794	 1.81901293863743E-02 
1795	 1.76075321279255E-02 
1796	 2.14564249296099E-02 
1797	 0.026265844570615 
1798	 1.41041708978893E-02 
1799	 7.20395411435748E-04 
1800	 2.66147378696898E-02 
1801	 3.99896523886737E-02 
1802	 6.55688649487098E-02 
1803	 8.11216096084351E-02 
1804	 4.20821429457751E-02 
1805	 3.99232447572032E-02 
1806	 7.06858101545647E-02 
1807	 9.99555083294094E-02 
1808	 0.215510142601872 
1809	 0.256117198755575 
1810	 0.179364495763088 
1811	 0.151339360172422 
1812	-9.4716849382282E-03 
1813	-1.50443431042485E-02 
1814	 0.190237382938227 
1815	 0.270714455676396 
1816	 0.465089787989528 
1817	 0.348998805794775 
1818	 0.357655553270001 
1819	 1.11097482247825 
1820	 0.671005669674034 
1821	 1.06224116667109 
1822	 1.24764102527515 
1823	 0.67394890600252 
1824	 0.847310895514519 
1825	 1.04139499472901 
1826	 1.18646997863076 
1827	 8.65673714230937 
1828	 9.65287498234976 
1829	 0.990459693140265 
1830	 0.942018112273202 
1831	-0.530779787929291 
1832	-0.750686713383287 
1833	-4.29656822289584 
1834	-11.7589710575892 
1835	 6.04693654943274 
1836	-74.627884972914 
1837	-0.986037187675912 
1838	-0.782851581425316 
1839	-1.02183614708943 
1840	-0.941188880641968 
1841	-0.883720492604979 
1842	-1.28646094416744 
1843	-0.999100745879958 
1844	-0.1436469361854 
1845	-0.042305184265447 
1846	-2.46890492258212E-02 
1847	 0.133067211950772 
1848	 0.48804768267456 
1849	-9.90980302376466E-02 
1850	-0.937707093663224 
1851	-0.577051570692041 
1852	-1.43696420511797 
1853	 8.72816521711535E-02 
1854	 0.105963559686377 
1855	-0.257868179299088 
1856	-0.16581021222448 
1857	 1.40674119729727 
1858	 2.1650385427069 
1859	 7.63387172203966E-02 
1860	 0.276439654274717 
1861	 0.281605640221425 
1862	-0.403242918766376 
1863	-0.828668177391858 
1864	-2.84618080048165 
1865	-3.35093742511913 
1866	-4.23151642518754 
1867	-4.78831458328707 
1868	 2.67065399399095 
1869	 7.72814366113156 
1870	 8.62392961411363E-02 
1871	 0.135445066896863 
1872	 0.43319690116694 
1873	 2.82904077957192 
1874	-86.1397077494024 
1875	-2.6613441132286 
1876	-1.331642152198 
1877	-7.48823312431924E-02 
1878	-2.48643868670729 
1879	-1.74863566066461 
1880	-1.64190030533537 
1881	-0.736669208844853 
1882	-0.683591248807508 
1883	 2.14769127096771 
1884	 1.18650297368191 
1885	 1.2159139948228 
1886	 1.34144191676184 
1887	-55.076728217974 
1888	-1.38639192236512 
1889	 0.132815082766305 
1890	-0.321819750391368 
1891	-3.88448018030834E-02 
1892	 0.225078634312128 
1893	 1.12521468391151 
1894	 0.796602959498846 
1895	 0.033987073923988 
1896	 41.2006588384418 
1897	 1.89170414219397 
1898	 19.2340413816552 
1899	-7.95528074551412 
1900	-13.4229151508733 
1901	 0.348718542666559 
1902	 1.9702748091531 
1903	-0.654183144915401 
1904	-0.650902313064909 
1905	-0.294834771901461 
1906	-0.186923402978136 
1907	-1.15990958799353 
1908	-2.09079316861793 
1909	-2.63687912685704 
1910	-1.3173372524868 
1911	-0.694066483403714 
1912	 1.023521347987 
1913	 3.4285348862897 
1914	-1.41121617254842 
1915	-0.929855396935749 
1916	-0.925528458538081 
1917	 1.38116322571516 
1918	 0.46477090956127 
1919	 0.645517563588283 
1920	 54.9004939831544 
1921	-3.57794451910586 
1922	 2.26147600758888 
1923	-4.63713410919563 
1924	 2.23854509742604 
1925	 0.151198313207861 
1926	 0.192629137424785 
1927	 0.122794324618627 
1928	 4.68500233197857 
1929	-0.59937346738338 
1930	-1.37999448669303 
1931	-2.64091341353518 
1932	-4.94084523755323 
1933	 18.0554585263672 
1934	-0.814046067374296 
1935	 0.260430384866265 
1936	 0.186373693394979 
1937	 3.41985546030639E-02 
1938	-0.121353283922004 
1939	-0.154899039849999 
1940	-0.204839328712597 
1941	-9.01530532915183E-02 
1942	-6.85594381730501E-03 
1943	 3.26080490037775E-02 
1944	-2.78984374801246E-03 
1945	-4.31628967074934E-02 
1946	-0.109740930506043 
1947	-0.137049709503576 
1948	-6.64346076315533E-02 
1949	-7.63191461632892E-02 
1950	-9.97902662104321E-02 
1951	-4.26827385845202E-02 
1952	-9.15164442578926E-03 
1953	-1.42412503387071E-02 
1954	 1.95962935975122E-02 
1955	 8.12916371100826E-02 
1956	 5.50524853613174E-02 
1957	 1.54680585737013E-02 
1958	 1.55001182995034E-02 
1959	 3.38451032352418E-03 
1960	 1.46429253060367E-02 
1961	 2.10781135295883E-02 
1962	 9.6148141047948E-03 
1963	 2.36537310494809E-03 
1964	-0.019800079662815 
1965	-3.09179453093135E-02 
1966	-2.92843390014049E-02 
1967	-0.022118289748106 
1968	-1.46560982065497E-02 
1969	-4.39977034177735E-03 
1970	-7.48068467547469E-04 
1971	-5.79842279518457E-04 
1972	-4.47402016541074E-03 
1973	-1.02427726680537E-02 
1974	-7.25787443860134E-03 
1975	-3.4382673043191E-03 
1976	-6.81893670419258E-04 
1977	 4.70318541353051E-03 
1978	 3.66517557996384E-03 
1979	 2.80681958229613E-03 
1980	-1.83216881629743E-03 
1981	-6.49457971453966E-04 
1982	-2.89104797172557E-03 
1983	-4.34496081009401E-03 
1984	 2.15050729192953E-04 
1985	 7.7789750428483E-04 
1986	 4.6489853964974E-03 
1987	 1.00182877128987E-02 
1988	 8.95583657383351E-03 
1989	 8.05268552235196E-03 
1990	 8.34389715753782E-03 
1991	 9.13411677773977E-03 
1992	 7.02866772921799E-03 
1993	 4.15882921450153E-03 
1994	 4.12995866978716E-03 
1995	 3.91279440992295E-03 
1996	 3.13468936189036E-03 
1997	 5.41870291164378E-03 
1998	 8.58444242080074E-03 
1999	 9.55452985805213E-03 
2000	 0.010960830411358 
2001	 8.6215259226839E-03 
2002	-2.51759426685381E-06 
2003	-1.11348578134247E-02 
2004	-2.80975466225856E-02 
2005	-4.27375487622628E-02 
2006	-3.62813835258494E-02 
2007	-2.30686051911476E-02 
2008	-2.27074195929288E-02 
2009	-2.40638227019782E-02 
2010	-3.03317428006715E-02 
2011	-2.72184392248796E-02 
2012	-2.80035199485969E-02 
2013	-1.78441115623975E-02 
2014	-6.50233368929611E-03 
2015	 3.17283986548891E-03 
2016	 6.96661618498833E-03 
2017	 3.33061689218888E-03 
2018	-1.92834810695336E-03 
2019	-3.49193523602174E-03 
2020	-6.40774477705925E-03 
2021	-3.50414931378903E-03 
2022	 0.004347107561243 
2023	 3.9948161094224E-03 
2024	 3.43172518440929E-03 
2025	-4.57278558964812E-04 
2026	-1.3749337278971E-03 
2027	-4.26808572439376E-03 
2028	-1.34357388789637E-03 
2029	 3.90002621324355E-03 
2030	 5.29806458154324E-03 
2031	 6.01765502624654E-03 
2032	 8.56245012256659E-03 
2033	 9.01102179648549E-03 
2034	 8.05781089925602E-03 
2035	 9.15385299314493E-03 
2036	 8.04591187329247E-03 
2037	 4.48413800941434E-03 
2038	 3.63345297104699E-03 
2039	 3.09587721398467E-03 
2040	 2.14830072267885E-03 
2041	 0.002597028541671 
2042	 5.2148907281698E-03 
2043	 5.47181543401346E-03 
2044	 5.17300261162702E-03 
2045	 4.58694474849113E-03 
2046	 2.78376357346468E-03 
2047	 5.57409008581322E-03 
2048	 9.07452772703126E-03 
2049	 9.42997520060177E-03 
2050	 9.61546977434941E-03 
2051	 7.29550344556798E-03 
2052	 4.05816418934102E-03 
2053	 4.66780908535014E-03 
2054	 5.48622591806367E-03 
2055	 6.05184919717656E-03 
2056	 6.90336768397507E-03 
2057	 8.94985694361068E-03 
2058	 8.85110914064044E-03 
2059	 6.55634606163324E-03 
2060	 6.48874396403695E-03 
2061	 7.50830247384084E-03 
2062	 5.27046406604698E-03 
2063	 5.99374610482449E-03 
2064	 8.11445092361773E-03 
2065	 5.64147184057323E-03 
2066	 5.48828113571152E-03 
2067	 8.40970100238498E-03 
2068	 9.48507598869961E-03 
2069	 9.92147425447575E-03 
2070	 1.06890438252948E-02 
2071	 8.88360931012961E-03 
2072	 6.99845315724266E-03 
2073	 5.75778016737618E-03 
2074	 5.86756386969117E-03 
2075	 5.6082084764719E-03 
2076	 4.1811814000569E-03 
2077	 3.84889006772899E-03 
2078	 5.01413786286281E-03 
2079	 5.52311111411344E-03 
2080	 6.33030942296707E-03 
2081	 5.75505942889757E-03 
2082	 4.8263967374044E-03 
2083	 6.51326129646258E-03 
2084	 7.14833293918403E-03 
2085	 8.18806291716903E-03 
2086	 9.26746813415943E-03 
2087	 7.22533131836132E-03 
2088	 5.97902322950946E-03 
2089	 4.81040106017173E-03 
2090	 3.08103403050447E-03 
2091	 3.91100323767781E-03 
2092	 4.43380589961404E-03 
2093	 4.01972371712703E-03 
2094	 4.60356579271021E-03 
2095	 7.8244065435957E-03 
2096	 8.67992347619634E-03 
2097	 8.43557942965365E-03 
2098	 8.35769427562056E-03 
2099	 7.67403467105766E-03 
2100	 6.60186531947073E-03 
2101	 7.09460985039721E-03 
2102	 7.76026708288613E-03 
2103	 8.82092739089279E-03 
2104	 6.81922982486657E-03 
2105	 5.17060704646964E-03 
2106	 5.9823459913349E-03 
2107	 5.43117976095735E-03 
2108	 5.91820681051402E-03 
2109	 5.75450190753307E-03 
2110	 2.85891131241396E-03 
2111	 1.95722636627285E-03 
2112	 2.11603634059217E-03 
2113	 3.22898348630646E-03 
2114	 6.46014897214883E-03 
2115	 7.7735252283625E-03 
2116	 9.94849082465286E-03 
2117	 1.06240566796847E-02 
2118	 8.37413663649147E-03 
2119	 7.29954389560291E-03 
2120	 5.71162440281818E-03 
2121	 6.03602902135653E-03 
2122	 6.99047338942281E-03 
2123	 7.77056512079904E-03 
2124	 8.38819744194307E-03 
2125	 8.03338014089457E-03 
2126	 6.58446499936903E-03 
2127	 6.54048304807657E-03 
2128	 8.32715731470329E-03 
2129	 8.59895940111046E-03 
2130	 8.72827080589583E-03 
2131	 1.03340467317256E-02 
2132	 1.07146031203779E-02 
2133	 1.02602559639057E-02 
2134	 9.5095321172296E-03 
2135	 7.66470121041783E-03 
2136	 6.93305524773498E-03 
2137	 6.04725684971429E-03 
2138	 5.13539067386538E-03 
2139	 5.03874389112395E-03 
2140	 5.10690362016428E-03 
2141	 4.01596281961371E-03 
2142	 4.69815059539292E-03 
2143	 7.04367926538282E-03 
2144	 0.009208304018407 
2145	 0.011572038204952 
2146	 1.36451220349164E-02 
2147	 1.28758809428682E-02 
2148	 9.05046763744178E-03 
2149	 8.42375375984071E-03 
2150	 9.55964491673516E-03 
2151	 1.14438639387164E-02 
2152	 1.42043957262033E-02 
2153	 1.19883791110479E-02 
2154	 9.53981073127121E-03 
2155	 1.01891697894674E-02 
2156	 9.08855336079583E-03 
2157	 7.8526727311209E-03 
2158	 5.8089878839735E-03 
2159	 6.45727748472596E-03 
2160	 8.25480478713943E-03 
2161	 8.68668258767096E-03 
2162	 1.15167575686401E-02 
2163	 0.011949029943775 
2164	 7.96750805361464E-03 
2165	 7.57280900452564E-03 
2166	 9.54000159662625E-03 
2167	 9.2311646967146E-03 
2168	 9.1889010980957E-03 
2169	 9.48232800503075E-03 
2170	 9.08099489106873E-03 
2171	 8.25258631794477E-03 
2172	 8.32021544274419E-03 
2173	 6.29535987694524E-03 
2174	 7.24116867053521E-03 
2175	 1.11378094842287E-02 
2176	 1.14826433138862E-02 
2177	 1.31047305457868E-02 
2178	 1.35693141056993E-02 
2179	 8.68987208720667E-03 
2180	 7.09574565788559E-03 
2181	 8.95682111243558E-03 
2182	 8.25518596636929E-03 
2183	 7.10708961555718E-03 
2184	 6.06787964442942E-03 
2185	 4.85893907139666E-03 
2186	 4.90084319508552E-03 
2187	 6.00505345332859E-03 
2188	 6.35210533086585E-03 
2189	 6.47731686027058E-03 
2190	 0.008106586626677 
2191	 1.11130044103922E-02 
2192	 1.23881439475275E-02 
2193	 1.51656784882319E-02 
2194	 1.58406877328817E-02 
2195	 1.27743955991805E-02 
2196	 1.12674413700116E-02 
2197	 8.94605920184817E-03 
2198	 9.69908941556865E-03 
2199	 1.26819617836299E-02 
2200	 1.48029132091647E-02 
2201	 1.76477154392356E-02 
2202	 1.92510874147933E-02 
2203	 0.015061970940108 
2204	 1.17474146586832E-02 
2205	 1.20249513150381E-02 
2206	 8.94524866375938E-03 
2207	 6.32077480739179E-03 
2208	 6.99174908397053E-03 
2209	 7.05192811290062E-03 
2210	 5.27869277818143E-03 
2211	 8.32962139922293E-03 
2212	 1.28170024504173E-02 
2213	 1.15260557116789E-02 
2214	 1.33781904743265E-02 
2215	 1.13047596817345E-02 
2216	 5.82136529167625E-03 
2217	 3.78474430662877E-03 
2218	 1.63208979711825E-03 
2219	 1.32241087161288E-03 
2220	 3.37930605644221E-03 
2221	 3.98431211551506E-03 
2222	 7.4268229788963E-03 
2223	 8.63438398634902E-03 
2224	 7.72253688277714E-03 
2225	 8.85021492919391E-03 
2226	 8.1243400566576E-03 
2227	 1.00046298066092E-02 
2228	 1.58263904435646E-02 
2229	 1.69407310823235E-02 
2230	 1.82767970179422E-02 
2231	 1.76594979464739E-02 
2232	 1.16457343327755E-02 
2233	 1.03929865830896E-02 
2234	 1.25846681570685E-02 
2235	 1.06776113899192E-02 
2236	 6.65012613541213E-03 
2237	 7.18753640127255E-03 
2238	 7.05115919815322E-03 
2239	 6.75386993588734E-03 
2240	 9.49384567884349E-03 
2241	 1.02705891913472E-02 
2242	 1.23912378476588E-02 
2243	 9.85145078031892E-03 
2244	 6.09469895741255E-03 
2245	 4.67225196972312E-03 
2246	 3.02598563649445E-03 
2247	 3.78167558122565E-03 
2248	 2.64143800530305E-03 
2249	 1.65640064218522E-03 
2250	 1.78794940015245E-03 
2251	 3.34973698566398E-03 
2252	 6.67961748928116E-03 
2253	 7.85217855755256E-03 
2254	 6.78551355014797E-03 
2255	 7.57400522278187E-03 
2256	 9.49645215936564E-03 
2257	 7.36044897331841E-03 
2258	 4.40767103636977E-03 
2259	 1.85917265008165E-03 
2260	 2.93954626828194E-03 
2261	 1.00819262354783E-02 
2262	 1.28676505003037E-02 
2263	 1.69890404052519E-02 
2264	 1.68985365530826E-02 
2265	 9.82645772664842E-03 
2266	 6.77204842561977E-03 
2267	 6.52617198664761E-03 
2268	 4.73968478031042E-03 
2269	-7.88455190836116E-04 
2270	 2.07972697810635E-03 
2271	 9.25482631066824E-03 
2272	 1.03414708152361E-02 
2273	 1.82796967581879E-02 
2274	 1.94897011367011E-02 
2275	 0.010873408896125 
2276	 8.65513603172007E-03 
2277	 7.54581783856829E-03 
2278	 4.18134242400899E-03 
2279	 7.54584014050333E-04 
2280	-7.88509225718919E-04 
2281	-3.01833342682031E-03 
2282	-3.98937045138033E-03 
2283	-1.69438296087955E-03 
2284	-2.91996385731425E-03 
2285	-1.04768650150915E-03 
2286	 4.68034984813386E-03 
2287	 1.14138455160983E-02 
2288	 1.91704168402803E-02 
2289	 2.84787154955616E-02 
2290	 0.02784688228325 
2291	 1.95447399003309E-02 
2292	 2.00177791838287E-02 
2293	 1.87402120925109E-02 
2294	 1.76126378231938E-02 
2295	 1.78616788904795E-02 
2296	 1.37135114250234E-02 
2297	 0.010139389310501 
2298	 5.62381254093422E-03 
2299	 8.81344394095592E-03 
2300	 0.013178988959771 
2301	 8.79786837684077E-03 
2302	 7.23000683977862E-03 
2303	 2.23473928055395E-03 
2304	-4.14359926333586E-03 
2305	-3.0977397779381E-03 
2306	-1.68352288788514E-03 
2307	 1.11274923675273E-03 
2308	 6.36268813070502E-03 
2309	 6.9468811767939E-03 
2310	 5.89383817678131E-03 
2311	 7.0296310591716E-03 
2312	 8.79120671835766E-03 
2313	 1.60460625529651E-02 
2314	 2.33083433715641E-02 
2315	 2.78034823164503E-02 
2316	 2.90194666912805E-02 
2317	 2.66580816616736E-02 
2318	 1.88159176420595E-02 
2319	 1.1988213569317E-03 
2320	 3.31478290724821E-04 
2321	 9.29062887351699E-03 
2322	 6.37568215970376E-03 
2323	 2.11005146361849E-02 
2324	 2.99666141818812E-02 
2325	 4.4247144940993E-03 
2326	-9.04197695261875E-03 
2327	-7.65773335393712E-03 
2328	-1.18059076340717E-02 
2329	 1.10054280346652E-05 
2330	 2.03063260117511E-02 
2331	 1.78529523855628E-02 
2332	 1.51089596562601E-02 
2333	 2.82205030921269E-02 
2334	 3.39722979518053E-02 
2335	 0.038284267767447 
2336	 3.52223910629877E-02 
2337	 0.026449511563724 
2338	 1.38429679321643E-02 
2339	-5.46900307627683E-03 
2340	-3.92083231986298E-03 
2341	 9.16206953197547E-04 
2342	-1.24581105402937E-02 
2343	-3.38515119777246E-02 
2344	-3.81404217297047E-02 
2345	-2.59174766124364E-02 
2346	-2.92549577158827E-02 
2347	-2.53900355495892E-02 
2348	-2.78517046069272E-02 
2349	-7.28431591825683E-02 
2350	-9.29534691239191E-02 
2351	-6.46514396648452E-02 
2352	-3.03551670688693E-02 
2353	 1.05129156243809E-02 
2354	 4.32519201640468E-02 
2355	 0.033800108161146 
2356	 0.016127100736429 
2357	 0.01267980279276 
2358	 1.12956252729521E-02 
2359	 3.35333148541656E-02 
2360	 3.48435426280372E-02 
2361	 1.59672065860931E-02 
2362	 3.94933316368341E-03 
2363	-0.022884121747532 
2364	-2.64567110563637E-02 
2365	-2.24538569464844E-02 
2366	-4.22425585122944E-02 
2367	-5.03410921481066E-02 
2368	-2.73925420355667E-02 
2369	-6.13101719695774E-03 
2370	 1.66720519519948E-02 
2371	 2.76804559457737E-02 
2372	 5.40487612186316E-03 
2373	 1.43898576870097E-02 
2374	 5.19678452187579E-02 
2375	 8.16269710005385E-02 
2376	 6.65566606870472E-02 
2377	 5.48661632375009E-02 
2378	 3.45602301737382E-02 
2379	-1.16667982077574E-02 
2380	-1.01280630095166E-03 
2381	 1.61027301926491E-02 
2382	 2.78748242814668E-02 
2383	 5.38216072774065E-02 
2384	 8.66796512744937E-02 
2385	 9.66364959640429E-02 
2386	 0.017129931670819 
2387	 1.81474044572579E-03 
2388	 4.96226162014223E-02 
2389	-4.85675787339443E-03 
2390	-6.69500495953549E-02 
2391	-0.079309609806211 
2392	-0.170473726268484 
2393	-0.222929178154592 
2394	-0.164450390389162 
2395	-0.167244183838332 
2396	-0.166842143448182 
2397	-0.168551026844987 
2398	-0.191489445805399 
2399	-7.89630482711738E-02 
2400	-7.29162407465773E-03 
2401	-2.28218251773636E-02 
2402	 4.05513715308079E-03 
2403	-2.76469125394271E-02 
2404	-0.123915596980919 
2405	-9.15057778978335E-02 
2406	-4.26884693395265E-02 
2407	-0.161575908528157 
2408	-0.270367261040432 
2409	-0.303517687595794 
2410	-0.234869799256847 
2411	-2.83674062072735E-02 
2412	 0.203504789270853 
2413	 0.176470365921987 
2414	-8.96153859780906E-02 
2415	-0.248941559520553 
2416	-0.198391181256749 
2417	-0.291367818975892 
2418	-0.377317294901639 
2419	-0.137141783917327 
2420	-0.206994194137964 
2421	-0.367931373478477 
2422	-0.192083441702488 
2423	-0.207853634905388 
2424	-0.185970502255637 
2425	 8.05461880674778E-02 
2426	 0.170961283059797 
2427	 0.147149642108264 
2428	 0.266194812780821 
2429	 0.198994568372265 
2430	 0.107729337032541 
2431	 0.149441230418996 
2432	-0.425994151905934 
2433	-0.526918917280581 
2434	-0.305612288026613 
2435	-0.357533756721471 
2436	-0.164059980543888 
2437	 7.85259467348696E-02 
2438	-4.65113125395367E-02 
2439	-0.157892978386234 
2440	 6.09348396584816E-02 
2441	-0.111706826555441 
2442	-0.437163319828892 
2443	-0.163474640022706 
2444	-0.120163961475881 
2445	 2.63406695019805E-02 
2446	 0.518185915069974 
2447	-3.2209513563418 
2448	-3.31738168805922 
2449	-1.14497496121632 
2450	-0.954956038389655 
2451	-0.119795073487027 
2452	-0.504960280277654 
2453	-0.533553761845947 
2454	-0.340006122161685 
2455	 0.329052396466893 
2456	 1.19382876216216 
2457	 0.550669186787382 
2458	 0.622720371559945 
2459	 0.730035518818012 
2460	 0.268721071365972 
2461	-0.120311529299623 
2462	-2.08539447568041 
2463	-1.56524759312259 
2464	 1.71372412823168 
2465	 1.6651135719939 
2466	-0.440372532248564 
2467	-1.05545218299993 
2468	-1.4693926373429 
2469	-2.81532103686954 
2470	-0.513326306011646 
2471	 0.15855286896368 
2472	 0.464568254316677 
2473	 0.547878779323246 
2474	 0.779664400740728 
2475	 1.29448032317611 
2476	-2.60583078652787E-02 
2477	-2.43748906765519 
2478	 1.17962229069413 
2479	 1.59841572021548 
2480	 12.2273037465033 
2481	-2.3206944627089 
2482	-0.712761535115381 
2483	-0.496761911359727 
2484	-0.392090266276466 
2485	-0.217023275343623 
2486	-0.397626391985886 
2487	-0.442959587432115 
2488	-4.89802515554307E-02 
2489	 1.61131528523943E-02 
2490	-1.71007527845602E-02 
2491	 5.25917691061423E-02 
2492	-0.065478940168172 
2493	-5.87305937210563E-02 
2494	 0.167573815975245 
2495	 0.548625006522203 
2496	 0.467771252411005 
2497	 0.936931248036582 
2498	 5.4120131936156 
2499	 0.895585363572818 
2500	 1.0615029047091 
