Wavelength	rt062200009.asd
350	 2.37408225261599E-02 
351	 2.45336274409102E-02 
352	 2.50013151303276E-02 
353	 2.53156352078818E-02 
354	 2.57196893474211E-02 
355	 2.58022453840882E-02 
356	 2.65350710872813E-02 
357	 2.66941242050492E-02 
358	 2.54119085264973E-02 
359	 2.62609009785652E-02 
360	 2.69239508113601E-02 
361	 2.70755017265611E-02 
362	 2.77416837470751E-02 
363	 2.75438568736264E-02 
364	 2.71932282526641E-02 
365	 2.71504423306966E-02 
366	 0.027085247788933 
367	 2.78702121231306E-02 
368	 2.83112505635441E-02 
369	 2.76328005373261E-02 
370	 2.85278645422639E-02 
371	 0.029071118777624 
372	 2.90274414361305E-02 
373	 2.91801370053056E-02 
374	 2.94366431139071E-02 
375	 2.99699619931514E-02 
376	 3.06058903068267E-02 
377	 3.07065074972899E-02 
378	 3.04734930918141E-02 
379	 3.05858035514212E-02 
380	 3.13208761636434E-02 
381	 3.14040136265397E-02 
382	 3.14970844627737E-02 
383	 3.17455556731615E-02 
384	 3.19940326916854E-02 
385	 3.17932596182529E-02 
386	 3.22623070794026E-02 
387	 3.31369807711284E-02 
388	 3.26289771679931E-02 
389	 0.033641938172635 
390	 3.43414577705684E-02 
391	 3.35185680465278E-02 
392	 0.03364385175619 
393	 3.40957445026107E-02 
394	 3.47164117904084E-02 
395	 3.53744232175518E-02 
396	 3.53547375499218E-02 
397	 3.53366432925152E-02 
398	 0.035547326426347 
399	 3.57456570141605E-02 
400	 3.57491915909267E-02 
401	 3.57815125513528E-02 
402	 3.59271994811358E-02 
403	 3.57852887876056E-02 
404	 3.58531475742976E-02 
405	 3.62203893794557E-02 
406	 3.66989419392608E-02 
407	 0.036514232664704 
408	 3.65348894441912E-02 
409	 3.69598015079266E-02 
410	 3.72369619205055E-02 
411	 3.72367522019284E-02 
412	 3.72585205114658E-02 
413	 0.037512223427289 
414	 3.78230433651038E-02 
415	 0.037959131317631 
416	 3.80306098277794E-02 
417	 3.82391633641448E-02 
418	 0.038333417276873 
419	 3.84922209609246E-02 
420	 3.87985167286654E-02 
421	 3.91970242132977E-02 
422	 0.039530890123328 
423	 3.95900087620024E-02 
424	 3.94448573437879E-02 
425	 3.99680824908622E-02 
426	 4.02928150329712E-02 
427	 4.04650817052623E-02 
428	 4.08966051641585E-02 
429	 4.11432995894589E-02 
430	 0.041463927604584 
431	 4.18921944382992E-02 
432	 0.042131538004261 
433	 4.24486094692051E-02 
434	 4.26850603726216E-02 
435	 4.27856053672771E-02 
436	 4.33008954104177E-02 
437	 0.043665324914509 
438	 4.38801691613458E-02 
439	 0.044240211524205 
440	 4.46492228563688E-02 
441	 4.49150899574455E-02 
442	 4.50594262364354E-02 
443	 4.54274933090822E-02 
444	 4.58634968350943E-02 
445	 4.62274594046486E-02 
446	 4.64342494365635E-02 
447	 4.65856156544359E-02 
448	 4.68193806171276E-02 
449	 0.047115521255197 
450	 0.047343342704364 
451	 4.75592143527045E-02 
452	 4.78160442699436E-02 
453	 4.80979449690768E-02 
454	 4.82425221564755E-02 
455	 4.84306996695248E-02 
456	 4.85948216543965E-02 
457	 4.86368615622131E-02 
458	 4.87995105122206E-02 
459	 4.89467306985924E-02 
460	 4.90412269577548E-02 
461	 0.049160464675406 
462	 0.049240670201631 
463	 4.93188025180512E-02 
464	 4.94414931671889E-02 
465	 4.96384213916585E-02 
466	 4.97689742207408E-02 
467	 4.98859644883669E-02 
468	 5.00902990400101E-02 
469	 0.050025285603321 
470	 5.01333487662414E-02 
471	 5.04753610323885E-02 
472	 5.05133606380001E-02 
473	 5.06419625306697E-02 
474	 5.07934640967841E-02 
475	 5.08512987813194E-02 
476	 5.09337938786874E-02 
477	 5.11756502793234E-02 
478	 5.14784925911804E-02 
479	 5.16154826068633E-02 
480	 5.18560100948748E-02 
481	 5.20419972450204E-02 
482	 5.21415059867187E-02 
483	 5.25125615520999E-02 
484	 5.26321698348788E-02 
485	 5.26896927584132E-02 
486	 5.30342445084758E-02 
487	 5.33192748287073E-02 
488	 5.36060636797539E-02 
489	 5.39103612580598E-02 
490	 5.41857610768242E-02 
491	 5.43741418783934E-02 
492	 5.47173727067841E-02 
493	 5.52768982053489E-02 
494	 5.54532955117157E-02 
495	 5.58306345421826E-02 
496	 5.63139416220981E-02 
497	 5.65360730471434E-02 
498	 5.69813846924121E-02 
499	 5.73699192670203E-02 
500	 5.76607581676776E-02 
501	 5.83048072551553E-02 
502	 5.86898597841053E-02 
503	 5.90556283272859E-02 
504	 5.97020192083387E-02 
505	 6.01253890388739E-02 
506	 6.04780883444932E-02 
507	 6.08925949490487E-02 
508	 0.061449526528715 
509	 6.18892245049983E-02 
510	 6.23202383052109E-02 
511	 6.28428507974608E-02 
512	 0.063399696046706 
513	 6.40170872997116E-02 
514	 6.46183161077727E-02 
515	 6.51089505613979E-02 
516	 6.56516083512378E-02 
517	 6.61569206873117E-02 
518	 6.66648754184692E-02 
519	 6.73968526094937E-02 
520	 6.80487439849612E-02 
521	 6.86182638868215E-02 
522	 6.91987390626289E-02 
523	 6.99248005610428E-02 
524	 7.07103635305776E-02 
525	 0.071399451933025 
526	 7.18566229667289E-02 
527	 7.27329475854298E-02 
528	 7.35437453042149E-02 
529	 7.40367895011117E-02 
530	 7.47253930079648E-02 
531	 7.55249215600434E-02 
532	 7.63700435918535E-02 
533	 7.71962734122827E-02 
534	 7.80532682596846E-02 
535	 7.88561250902338E-02 
536	 7.96317050430564E-02 
537	 8.05329171234984E-02 
538	 8.14786922410698E-02 
539	 0.08234494413177 
540	 0.083092004121899 
541	 8.39921668849381E-02 
542	 0.08485492779628 
543	 8.56562605232235E-02 
544	 8.64896479266253E-02 
545	 8.74792072311689E-02 
546	 8.83976409029446E-02 
547	 8.91259925960612E-02 
548	 8.98214666531316E-02 
549	 9.06301214222201E-02 
550	 9.14793467815369E-02 
551	 9.22378809697657E-02 
552	 9.29658205680425E-02 
553	 9.38053539009553E-02 
554	 9.47229630616997E-02 
555	 9.54841637390778E-02 
556	 9.63120652957178E-02 
557	 9.72241245644411E-02 
558	 9.81456254854717E-02 
559	 9.88998461848576E-02 
560	 0.099685041059911 
561	 0.100553154909773 
562	 0.101449626210784 
563	 0.102209412807503 
564	 0.102913683262876 
565	 0.103608447856705 
566	 0.104201733136866 
567	 0.104772279397405 
568	 0.10530727563479 
569	 0.105769885561943 
570	 0.106186502993638 
571	 0.106658093870596 
572	 0.107135239716825 
573	 0.107412947427995 
574	 0.107836704932112 
575	 0.108313823453335 
576	 0.108705452916327 
577	 0.109090669427668 
578	 0.109394056641338 
579	 0.109631089366499 
580	 0.109896704283004 
581	 0.110462483584953 
582	 0.110965585903266 
583	 0.111209004171931 
584	 0.111416141900443 
585	 0.111766213912862 
586	 0.112158207158358 
587	 0.112401349486886 
588	 0.112513390844515 
589	 0.112678890189324 
590	 0.112942557051203 
591	 0.11319765456551 
592	 0.113492679224474 
593	 0.113847605483067 
594	 0.114217589389353 
595	 0.114421264900924 
596	 0.114443366344004 
597	 0.114427654034217 
598	 0.114587676688466 
599	 0.114835996258769 
600	 0.115107645723857 
601	 0.115342286400837 
602	 0.115488200607218 
603	 0.115549713271297 
604	 0.115710624921437 
605	 0.116085586707847 
606	 0.116141752549004 
607	 0.116178228654015 
608	 0.116330836232029 
609	 0.11651998157278 
610	 0.116632761897654 
611	 0.116791426991086 
612	 0.117061815060542 
613	 0.117197306047244 
614	 0.117228281804095 
615	 0.117296650763903 
616	 0.117559082185306 
617	 0.117663749733395 
618	 0.117734489911502 
619	 0.117877529063233 
620	 0.118091480827798 
621	 0.118130507021962 
622	 0.11820177273233 
623	 0.118507072369193 
624	 0.118444552140404 
625	 0.118383798308377 
626	 0.118500643552567 
627	 0.118737367250157 
628	 0.118925746927694 
629	 0.119063972515142 
630	 0.119178069779566 
631	 0.119247780599986 
632	 0.119333503414793 
633	 0.119392709890691 
634	 0.119344719976512 
635	 0.119202519703571 
636	 0.119243599402526 
637	 0.119470484327746 
638	 0.119474173609044 
639	 0.119326903309018 
640	 0.119186518680589 
641	 0.119153171891884 
642	 0.118928616303936 
643	 0.118732989893575 
644	 0.118585204641097 
645	 0.118336511161444 
646	 0.118035805168346 
647	 0.117717265908763 
648	 0.117460812047315 
649	 0.117451731206699 
650	 0.117353716110021 
651	 0.117135820391506 
652	 0.116920905225922 
653	 0.116910269111454 
654	 0.116838792501785 
655	 0.116605135997001 
656	 0.116412015672269 
657	 0.116072334799294 
658	 0.11567765765725 
659	 0.115344348157639 
660	 0.115187690235183 
661	 0.114828461070024 
662	 0.114301605347257 
663	 0.113897952927887 
664	 0.113512732239423 
665	 0.113145339828366 
666	 0.112782687169743 
667	 0.112366756789786 
668	 0.11215158323525 
669	 0.112073601620348 
670	 0.111955872999493 
671	 0.111640938930432 
672	 0.111507152926711 
673	 0.111599927563311 
674	 0.111642388696513 
675	 0.111802089895306 
676	 0.112068000152515 
677	 0.112389306627061 
678	 0.11266958339577 
679	 0.113201610468346 
680	 0.113917260481438 
681	 0.114619452411095 
682	 0.115509616911539 
683	 0.116520706747568 
684	 0.117580778206221 
685	 0.118745775187289 
686	 0.120086487028332 
687	 0.121494386460716 
688	 0.122802202823227 
689	 0.12423237214029 
690	 0.125640776070373 
691	 0.126804759538684 
692	 0.127535519856632 
693	 0.128729641419487 
694	 0.129957978837791 
695	 0.13086553980423 
696	 0.13165712300936 
697	 0.132469244153154 
698	 0.133085753571518 
699	 0.133320258871164 
700	 0.134126322096696 
701	 0.13459815696073 
702	 0.134716640497795 
703	 0.135175786591279 
704	 0.135252198484011 
705	 0.135168118716874 
706	 0.135146615286779 
707	 0.135106825899003 
708	 0.135021682566778 
709	 0.134820988325929 
710	 0.134428808526705 
711	 0.133814919874366 
712	 0.13304930241043 
713	 0.132127889043097 
714	 0.130938800415045 
715	 0.1297171878458 
716	 0.128330724134537 
717	 0.126772966801021 
718	 0.125360845021151 
719	 0.124255338657552 
720	 0.123423136686319 
721	 0.122540280508533 
722	 0.1214750486859 
723	 0.119824818228527 
724	 0.117953945264166 
725	 0.116862675339093 
726	 0.115307726790451 
727	 0.113531375536597 
728	 0.11187739297535 
729	 0.109892979385763 
730	 0.108066091825971 
731	 0.106379415438969 
732	 0.104576490411002 
733	 0.103248838759237 
734	 0.10213105056378 
735	 0.101030983722795 
736	 9.98946539222919E-02 
737	 0.099422277059315 
738	 9.93282482466155E-02 
739	 0.099183340120751 
740	 9.88488133979518E-02 
741	 9.87456992634031E-02 
742	 9.89019529386692E-02 
743	 9.90943117409026E-02 
744	 9.89911087535275E-02 
745	 9.89243702218041E-02 
746	 9.90154178492509E-02 
747	 9.90102541887006E-02 
748	 9.91157574175534E-02 
749	 9.92198828258308E-02 
750	 9.92140155943809E-02 
751	 9.92618179256776E-02 
752	 9.93750810094387E-02 
753	 9.94413630430313E-02 
754	 9.93358945875269E-02 
755	 9.94226346340051E-02 
756	 9.95701984777115E-02 
757	 9.95721430889881E-02 
758	 9.90320379772418E-02 
759	 9.84976843048896E-02 
760	 9.78118915419573E-02 
761	 9.71786315119861E-02 
762	 9.77805310922365E-02 
763	 0.098476608632045 
764	 9.91196926110449E-02 
765	 0.09983969559693 
766	 9.99774903000461E-02 
767	 0.100289540832313 
768	 0.100869221437041 
769	 0.101207561854662 
770	 0.101458463759033 
771	 0.10171443317339 
772	 0.102008502127009 
773	 0.102237180312461 
774	 0.10232337155903 
775	 0.102552431078192 
776	 0.10318349844445 
777	 0.103290074002186 
778	 0.103498061439194 
779	 0.104050245339691 
780	 0.104673215365592 
781	 0.105029866422118 
782	 0.105339433561439 
783	 0.105731217739634 
784	 0.105858512924105 
785	 0.106080645539637 
786	 0.106484877194553 
787	 0.106977303430698 
788	 0.107119245232165 
789	 0.107359642901802 
790	 0.107912990999589 
791	 0.108708767232985 
792	 0.109362999137864 
793	 0.10984129998947 
794	 0.110148954380666 
795	 0.110222631952382 
796	 0.110610629991975 
797	 0.111197286903831 
798	 0.111684594148095 
799	 0.111792999270759 
800	 0.112185839076243 
801	 0.112694739345036 
802	 0.112787549092374 
803	 0.113099924890676 
804	 0.113523997084447 
805	 0.113860072656132 
806	 0.113903458639776 
807	 0.113784414636453 
808	 0.113629095695852 
809	 0.113423022717593 
810	 0.112738040890012 
811	 0.112334694501088 
812	 0.112073483337192 
813	 0.111455223391532 
814	 0.110521638829413 
815	 0.109686904290554 
816	 0.109311663111955 
817	 0.109450192005419 
818	 0.109242874032826 
819	 0.108772634212806 
820	 0.108064520410342 
821	 0.106920028293515 
822	 0.105571340054455 
823	 0.104635565514348 
824	 0.104042365871756 
825	 0.10192974617257 
826	 0.10061593784279 
827	 9.95010157020288E-02 
828	 9.72947942536568E-02 
829	 9.53286598018857E-02 
830	 9.35393715579381E-02 
831	 9.21363762843917E-02 
832	 9.14675646245615E-02 
833	 9.03903913650556E-02 
834	 8.98606389322531E-02 
835	 8.99006883084453E-02 
836	 8.91018286688451E-02 
837	 8.86454558698005E-02 
838	 8.83414883200425E-02 
839	 8.79289141938901E-02 
840	 8.77539900825729E-02 
841	 8.73849230896843E-02 
842	 8.69994109692102E-02 
843	 0.086879130487344 
844	 8.66698027829782E-02 
845	 8.63869391932309E-02 
846	 8.60021276470014E-02 
847	 8.55064895523303E-02 
848	 8.53994845966612E-02 
849	 8.51538791289629E-02 
850	 8.47136818934497E-02 
851	 8.47157293761648E-02 
852	 8.41673773549419E-02 
853	 8.38381677419823E-02 
854	 8.40437697881012E-02 
855	 0.083342720983763 
856	 8.33622600548045E-02 
857	 0.083361933265721 
858	 8.25363609387162E-02 
859	 8.22073991346355E-02 
860	 8.23022930427468E-02 
861	 8.24681250152956E-02 
862	 8.22729722559161E-02 
863	 8.18302591209661E-02 
864	 8.14937044327015E-02 
865	 8.13916966780984E-02 
866	 8.14078638471885E-02 
867	 8.16349472011362E-02 
868	 8.10774219778762E-02 
869	 8.00263304074197E-02 
870	 0.080461211898924 
871	 7.97836319668289E-02 
872	 7.93524474503329E-02 
873	 7.99656643399898E-02 
874	 7.92461934523046E-02 
875	 0.078822028016419 
876	 7.86351517361173E-02 
877	 7.82095668812249E-02 
878	 7.74600059658263E-02 
879	 7.74420941844789E-02 
880	 7.75606401938822E-02 
881	 0.07671907830828 
882	 7.58590801360058E-02 
883	 7.55644263544894E-02 
884	 7.56437719865859E-02 
885	 7.53609274360106E-02 
886	 7.46810612478794E-02 
887	 7.42115205323816E-02 
888	 7.41548313146941E-02 
889	 7.41617474160169E-02 
890	 7.41873853202278E-02 
891	 7.39065421614751E-02 
892	 0.073165762427718 
893	 7.22274300851135E-02 
894	 7.15510906246931E-02 
895	 7.11144927898491E-02 
896	 7.05967616172679E-02 
897	 6.93295055800218E-02 
898	 6.86488367640743E-02 
899	 0.069072380637255 
900	 0.070003484574305 
901	 6.89606585916844E-02 
902	 6.82985703157015E-02 
903	 6.80226085131048E-02 
904	 6.73816777853769E-02 
905	 6.67804198613006E-02 
906	 6.63669397493792E-02 
907	 6.65255174079376E-02 
908	 6.73606385361999E-02 
909	 6.59739083160251E-02 
910	 6.48541511988099E-02 
911	 6.43778626475879E-02 
912	 6.28093225800245E-02 
913	 6.24108271610298E-02 
914	 6.22839917363718E-02 
915	 6.20614183079803E-02 
916	 6.23726502972011E-02 
917	 6.27593894530107E-02 
918	 6.25348898944668E-02 
919	 6.19450381193306E-02 
920	 6.23144728865656E-02 
921	 6.13593578623261E-02 
922	 0.060195852381536 
923	 5.99391926517425E-02 
924	 6.03311669777548E-02 
925	 6.00306501004087E-02 
926	 5.90384585842097E-02 
927	 5.76698856499038E-02 
928	 5.53340809798757E-02 
929	 5.75312193918111E-02 
930	 5.94550918363611E-02 
931	 5.26493870004193E-02 
932	 5.73822377101825E-02 
933	 5.34294598806875E-02 
934	 4.61325260273495E-02 
935	 4.99796321406924E-02 
936	 4.52495853020554E-02 
937	 4.49471172041804E-02 
938	 4.51601994021756E-02 
939	 4.09999564428023E-02 
940	 4.47608433271651E-02 
941	 4.95384570515724E-02 
942	 5.43768150216022E-02 
943	 5.90263625300215E-02 
944	 4.86041558675177E-02 
945	 4.55094673974323E-02 
946	 5.06244157121915E-02 
947	 5.06645740772129E-02 
948	 4.66261637043556E-02 
949	 4.20939488789124E-02 
950	 3.95112395144677E-02 
951	 3.97129395066269E-02 
952	 4.22936257761534E-02 
953	 4.26452141007355E-02 
954	 3.96300537941242E-02 
955	 3.63209604279102E-02 
956	 4.39106302904225E-02 
957	 4.75842184709578E-02 
958	 4.38708993755636E-02 
959	 4.00183189743827E-02 
960	 4.52187297384508E-02 
961	 4.34830488404541E-02 
962	 3.84384398694848E-02 
963	 4.48404832505157E-02 
964	 4.77782041278695E-02 
965	 4.55027595063828E-02 
966	 4.25068434092649E-02 
967	 4.51756093396289E-02 
968	 4.68976131587971E-02 
969	 4.49233606721774E-02 
970	 4.25279822318401E-02 
971	 4.62131767110106E-02 
972	 4.70922203391804E-02 
973	 4.58791530052334E-02 
974	 4.55954274647035E-02 
975	 4.88712460011254E-02 
976	 4.54425158489699E-02 
977	 4.34970993792859E-02 
978	 0.044826829008637 
979	 4.45602210092762E-02 
980	 4.73823960236768E-02 
981	 4.85134622729772E-02 
982	 4.69207669073939E-02 
983	 4.54362760074043E-02 
984	 4.60784720067755E-02 
985	 4.72082137936844E-02 
986	 4.70835211091136E-02 
987	 4.50485175443018E-02 
988	 4.51521844829771E-02 
989	 4.66556274927173E-02 
990	 4.84570563032887E-02 
991	 4.94930984773394E-02 
992	 4.87750049516911E-02 
993	 4.49964967064749E-02 
994	 4.28818810132796E-02 
995	 4.80158582464984E-02 
996	 4.64102930438374E-02 
997	 4.44342987132056E-02 
998	 0.045111411092094 
999	 4.76084933478193E-02 
1000	 4.92415607164012E-02 
1001	 4.94679413822295E-02 
1002	 4.93610990463847E-02 
1003	 4.99199832618194E-02 
1004	 5.09269250056336E-02 
1005	 0.051483428053522 
1006	 5.24038843374213E-02 
1007	 5.28052858451515E-02 
1008	 5.32705721525433E-02 
1009	 5.27175343014992E-02 
1010	 0.051220132583548 
1011	 5.08144302657051E-02 
1012	 5.02524154280215E-02 
1013	 5.00810791997997E-02 
1014	 5.04851420533987E-02 
1015	 5.22910675099492E-02 
1016	 5.30888427429349E-02 
1017	 5.39139546781055E-02 
1018	 5.42527273526457E-02 
1019	 5.43639699911822E-02 
1020	 5.41048625570108E-02 
1021	 5.31544188891787E-02 
1022	 5.24817813482766E-02 
1023	 5.17064430086709E-02 
1024	 0.051446949840033 
1025	 0.051707360223393 
1026	 5.22386677814231E-02 
1027	 5.29765268764286E-02 
1028	 5.44329473898817E-02 
1029	 5.49224618207311E-02 
1030	 5.52410876302007E-02 
1031	 5.54489705018975E-02 
1032	 5.50646289729747E-02 
1033	 5.51306644857485E-02 
1034	 5.51541623740506E-02 
1035	 5.55039933552682E-02 
1036	 5.66310667660368E-02 
1037	 0.056751724127887 
1038	 5.61763995135442E-02 
1039	 5.64498385091381E-02 
1040	 5.57173646051315E-02 
1041	 5.52566932800353E-02 
1042	 5.55562768676632E-02 
1043	 5.68896074627978E-02 
1044	 5.71814060825862E-02 
1045	 0.05744726619903 
1046	 5.75956015273098E-02 
1047	 5.71693428623502E-02 
1048	 5.71998110062717E-02 
1049	 5.75548526383363E-02 
1050	 5.77810387139421E-02 
1051	 5.81214814737837E-02 
1052	 5.82259716937213E-02 
1053	 5.82077332516567E-02 
1054	 5.81894905266169E-02 
1055	 5.77582011881719E-02 
1056	 5.77083940287161E-02 
1057	 5.78343895544823E-02 
1058	 5.80698732498066E-02 
1059	 5.85721970869928E-02 
1060	 0.059698609256522 
1061	 6.00063244670104E-02 
1062	 6.03161832390715E-02 
1063	 6.01878130423906E-02 
1064	 5.91828498240597E-02 
1065	 5.88042590923809E-02 
1066	 5.83388464443287E-02 
1067	 5.82380034418443E-02 
1068	 5.86039568546549E-02 
1069	 5.87880471771005E-02 
1070	 5.95781783226753E-02 
1071	 5.95485101150575E-02 
1072	 0.058660446224465 
1073	 5.81927302819732E-02 
1074	 5.79447630190278E-02 
1075	 5.72874312966986E-02 
1076	 5.73665099534157E-02 
1077	 5.83511315733483E-02 
1078	 5.86792069666258E-02 
1079	 5.91080124510722E-02 
1080	 5.90434756686333E-02 
1081	 0.058550024620334 
1082	 5.82901363586991E-02 
1083	 0.057492671232265 
1084	 5.73415821226112E-02 
1085	 5.81400719135789E-02 
1086	 5.80790900735362E-02 
1087	 5.74266543787879E-02 
1088	 5.72843813503771E-02 
1089	 5.69724217281208E-02 
1090	 5.68161986754947E-02 
1091	 5.65179982284532E-02 
1092	 5.68133098370741E-02 
1093	 5.65848753387884E-02 
1094	 5.56562061949897E-02 
1095	 5.51353926129973E-02 
1096	 0.054572618865073 
1097	 5.46088657487826E-02 
1098	 5.51681752305388E-02 
1099	 5.51569209232985E-02 
1100	 5.55095060786455E-02 
1101	 5.55287700245153E-02 
1102	 5.49722891577852E-02 
1103	 5.45404903647511E-02 
1104	 5.42118863136067E-02 
1105	 0.053683995510505 
1106	 5.36895213320858E-02 
1107	 5.19816006492251E-02 
1108	 5.02703403089218E-02 
1109	 5.15342778268492E-02 
1110	 5.15416108002465E-02 
1111	 5.14856215724354E-02 
1112	 5.13831408337105E-02 
1113	 0.050571290205046 
1114	 5.04767002161248E-02 
1115	 5.26592327956281E-02 
1116	 5.26184488414201E-02 
1117	 5.08813221431503E-02 
1118	 5.00155792523036E-02 
1119	 4.44920259609553E-02 
1120	 4.19316509879103E-02 
1121	 4.20203247510453E-02 
1122	 0.05006430038583 
1123	 5.68452179974467E-02 
1124	 5.54377268727784E-02 
1125	 5.29659872412317E-02 
1126	 0.050215743358167 
1127	 0.048674196545464 
1128	 0.049303540720068 
1129	 0.047457522158378 
1130	 4.40350110333695E-02 
1131	 4.44308126589023E-02 
1132	 4.65150461706493E-02 
1133	 4.53011694022306E-02 
1134	 4.55928266346916E-02 
1135	 4.54570797278294E-02 
1136	 4.18865847373882E-02 
1137	 4.00559190944053E-02 
1138	 4.00716357013588E-02 
1139	 3.95429854066043E-02 
1140	 3.61262138557715E-02 
1141	 3.47130127294483E-02 
1142	 3.57854366367789E-02 
1143	 0.033773705031626 
1144	 0.035842304192936 
1145	 4.03663585983532E-02 
1146	 3.70560385663271E-02 
1147	 3.53557660635313E-02 
1148	 3.60477124498821E-02 
1149	 3.43342061893187E-02 
1150	 3.45900938975798E-02 
1151	 4.02762578934873E-02 
1152	 3.98633232765774E-02 
1153	 3.52512621301069E-02 
1154	 3.42814464231293E-02 
1155	 3.36548381310254E-02 
1156	 3.28560707867643E-02 
1157	 3.37055109304054E-02 
1158	 3.51226525042814E-02 
1159	 3.54543637775631E-02 
1160	 3.48461183626181E-02 
1161	 0.034054949599664 
1162	 3.42453550342115E-02 
1163	 3.39447486505427E-02 
1164	 3.40279468122662E-02 
1165	 3.52654000480932E-02 
1166	 3.49060449143063E-02 
1167	 3.43398226890752E-02 
1168	 3.52436394611419E-02 
1169	 3.52005967715259E-02 
1170	 3.42325024615562E-02 
1171	 3.41930266880651E-02 
1172	 3.47019824932218E-02 
1173	 0.03478658295403 
1174	 3.46649771538141E-02 
1175	 3.56889003449921E-02 
1176	 3.59318828766458E-02 
1177	 3.47682482259609E-02 
1178	 3.46394563934543E-02 
1179	 3.44452190321576E-02 
1180	 3.36053752385631E-02 
1181	 3.39381943258206E-02 
1182	 3.43189703421631E-02 
1183	 3.39937018216361E-02 
1184	 3.43070746340481E-02 
1185	 3.46920589151969E-02 
1186	 3.41879140922871E-02 
1187	 3.38870646456219E-02 
1188	 3.38767147216874E-02 
1189	 3.35618745861113E-02 
1190	 0.033803756357949 
1191	 3.42756539574445E-02 
1192	 3.42978745679792E-02 
1193	 3.42500740634218E-02 
1194	 3.41809203521788E-02 
1195	 3.37892390496898E-02 
1196	 0.033609049500132 
1197	 3.39076675230746E-02 
1198	 3.39402306379057E-02 
1199	 3.37641535928007E-02 
1200	 3.36277239030604E-02 
1201	 3.37312342747322E-02 
1202	 3.40438897675982E-02 
1203	 3.39015450664827E-02 
1204	 3.37917808610954E-02 
1205	 3.40101628006087E-02 
1206	 3.40510806571214E-02 
1207	 3.41858305337023E-02 
1208	 3.43132452465073E-02 
1209	 3.41707520749112E-02 
1210	 3.38147425637131E-02 
1211	 3.39137211436582E-02 
1212	 3.46964358317918E-02 
1213	 3.50233529858278E-02 
1214	 3.50923730670962E-02 
1215	 3.50474185979119E-02 
1216	 3.52146714778879E-02 
1217	 3.48638163734577E-02 
1218	 3.46212924647939E-02 
1219	 3.48219616614586E-02 
1220	 3.50067240543909E-02 
1221	 3.51890333320453E-02 
1222	 3.51679355982632E-02 
1223	 3.49805694217157E-02 
1224	 3.48353764198003E-02 
1225	 3.48084796298764E-02 
1226	 3.52484436011316E-02 
1227	 0.035584626310584 
1228	 3.52639047159595E-02 
1229	 3.53134117161355E-02 
1230	 3.54767250357483E-02 
1231	 3.47990536419709E-02 
1232	 3.46238124863507E-02 
1233	 3.53872452188301E-02 
1234	 3.54507766136642E-02 
1235	 3.52980472231556E-02 
1236	 3.55329102684246E-02 
1237	 3.58001703621871E-02 
1238	 0.035621323393794 
1239	 3.50853135015251E-02 
1240	 3.55819686324962E-02 
1241	 3.59582974419921E-02 
1242	 3.56931993082687E-02 
1243	 3.57325865240227E-02 
1244	 3.59191703951819E-02 
1245	 3.60224440383298E-02 
1246	 0.035826780978098 
1247	 3.58860181748267E-02 
1248	 3.59222160040946E-02 
1249	 0.035624432041719 
1250	 3.55541549860866E-02 
1251	 3.54936306535673E-02 
1252	 3.56295422530426E-02 
1253	 0.035907677348682 
1254	 0.035957371914752 
1255	 3.56769004496822E-02 
1256	 3.56577738321177E-02 
1257	 3.57358376549592E-02 
1258	 3.55674694334885E-02 
1259	 3.52551946591903E-02 
1260	 3.52881141206364E-02 
1261	 3.52101780222538E-02 
1262	 3.50762924738891E-02 
1263	 3.51539478698897E-02 
1264	 3.54885844342031E-02 
1265	 3.55211032707887E-02 
1266	 3.54828395092074E-02 
1267	 3.56712846637728E-02 
1268	 3.63016377685317E-02 
1269	 0.036342340612204 
1270	 0.035881572693783 
1271	 0.035878265647866 
1272	 3.61328611332702E-02 
1273	 3.63046504687819E-02 
1274	 3.65088154367905E-02 
1275	 3.65845534033829E-02 
1276	 3.61938224001304E-02 
1277	 3.57857987434734E-02 
1278	 3.54383207781892E-02 
1279	 3.52097996421949E-02 
1280	 0.03519498459997 
1281	 3.51641204962828E-02 
1282	 3.54959206250701E-02 
1283	 3.55224870286127E-02 
1284	 3.52406221960375E-02 
1285	 3.51013465115153E-02 
1286	 3.49844868469602E-02 
1287	 3.47415804147231E-02 
1288	 3.45149449582058E-02 
1289	 3.44501634660563E-02 
1290	 3.44053473327875E-02 
1291	 3.40983611426317E-02 
1292	 3.42992943488324E-02 
1293	 0.034366163408552 
1294	 3.36360481111307E-02 
1295	 3.35472084481376E-02 
1296	 3.37496521125037E-02 
1297	 3.33765722674457E-02 
1298	 3.32365074593446E-02 
1299	 3.31610422539727E-02 
1300	 3.30679759431178E-02 
1301	 3.29825245114024E-02 
1302	 3.27704276304855E-02 
1303	 3.25835713863161E-02 
1304	 3.22730415076857E-02 
1305	 3.19484935404359E-02 
1306	 3.16578416815051E-02 
1307	 3.16627857240886E-02 
1308	 0.031604596367059 
1309	 3.14400628162082E-02 
1310	 3.11540918648577E-02 
1311	 3.10244980378078E-02 
1312	 3.08616142111758E-02 
1313	 3.03866261807772E-02 
1314	 2.99019585734217E-02 
1315	 2.95196968810904E-02 
1316	 2.92518162312205E-02 
1317	 2.88206802269495E-02 
1318	 2.86524668254509E-02 
1319	 2.91848460840584E-02 
1320	 2.88978143883478E-02 
1321	 2.80234682733286E-02 
1322	 0.027319644412236 
1323	 2.66823485400016E-02 
1324	 2.65858108814783E-02 
1325	 2.72370284971382E-02 
1326	 2.69774737437379E-02 
1327	 2.67888154500253E-02 
1328	 2.69485730511192E-02 
1329	 2.65806809098033E-02 
1330	 2.72532353123519E-02 
1331	 2.74058819074637E-02 
1332	 2.61056795788089E-02 
1333	 2.60798314672474E-02 
1334	 2.57278952529283E-02 
1335	 2.49258209043891E-02 
1336	 2.43929099862028E-02 
1337	 2.34367492668669E-02 
1338	 2.06131631131733E-02 
1339	 0.020060868040632 
1340	 0.02067161240998 
1341	 2.15848366749331E-02 
1342	 2.55083651788074E-02 
1343	 2.62267136405743E-02 
1344	 2.49757630336732E-02 
1345	 2.46600879636203E-02 
1346	 2.07380630994404E-02 
1347	 1.90879438525454E-02 
1348	 2.07624141052669E-02 
1349	 2.20414186282313E-02 
1350	 3.17278561601763E-02 
1351	 3.48710837020547E-02 
1352	 1.67383308568608E-02 
1353	 1.16815198800556E-02 
1354	 6.86188605597436E-03 
1355	 9.50588718070518E-04 
1356	-2.31953067403513E-02 
1357	 3.55906946843153E-02 
1358	 0.169088172353888 
1359	 0.145685154605562 
1360	 9.02461581013634E-02 
1361	 0.142321576652755 
1362	-0.07357921150699 
1363	-0.186767547228628 
1364	-0.126090976457219 
1365	 0.144773673911121 
1366	 0.24033006779187 
1367	 8.46509122139563E-02 
1368	 0.179770100247495 
1369	 0.362819721717343 
1370	 0.22604046190238 
1371	-0.046176713931709 
1372	 4.11689766411185E-02 
1373	 0.128267029432848 
1374	 2.13543132744953E-02 
1375	 2.62539793408301E-02 
1376	 0.135610130191252 
1377	-3.66508629934077E-02 
1378	-0.225717693539244 
1379	 0.177497889699892 
1380	 0.254805237112421 
1381	-0.166238786391943 
1382	-0.289053717621725 
1383	-2.2328129285828E-03 
1384	-0.300446524120267 
1385	 7.93320908972209 
1386	 5.99115401467863 
1387	 4.05175695083416 
1388	 1.82900149065354 
1389	-2.41524573352181 
1390	-9.90665053613815E-02 
1391	-0.358348816272938 
1392	-1.15292145700279 
1393	-2.10140688381641 
1394	 0.121530088075357 
1395	 5.35059304881787E-02 
1396	-0.254369502405018 
1397	-1.44998325764358 
1398	-4.65731378044177 
1399	 1.4786842189801 
1400	-0.852720076736997 
1401	 0.500095696330848 
1402	-0.123142183452873 
1403	-8.69771834148917E-02 
1404	 0.724846212784866 
1405	 0.790596901386224 
1406	-1.20252031889768 
1407	-1.48689485564954 
1408	-1.14542464312261 
1409	-0.311328219346793 
1410	-0.22267936611273 
1411	-0.222744763301489 
1412	-0.236428023020324 
1413	-0.123440789498596 
1414	 6.36319398277326E-02 
1415	 0.101815100168436 
1416	 0.217298403664993 
1417	 0.156461253347432 
1418	-0.081968804079787 
1419	-0.101694837788569 
1420	-4.68847777973215E-02 
1421	-4.65166248247481E-02 
1422	-3.62283104685886E-02 
1423	-2.45050785045125E-02 
1424	-0.040981174497655 
1425	-0.031246689714358 
1426	 3.40015764546655E-02 
1427	 3.09592214697753E-02 
1428	-2.40634991751831E-02 
1429	-3.21134787812141E-02 
1430	-4.03397193031555E-02 
1431	-4.21496086617494E-02 
1432	-1.81905745200119E-02 
1433	-3.72948351042272E-03 
1434	 1.33775339826636E-02 
1435	 1.87779208498623E-02 
1436	 1.99132521976614E-02 
1437	 1.42117410146403E-02 
1438	 1.49421317990147E-02 
1439	 1.46962927202864E-02 
1440	 0.019729368945289 
1441	 1.16357277066514E-02 
1442	 4.06797579676985E-03 
1443	-0.010194169546453 
1444	-2.19334472576667E-02 
1445	-3.54440650842277E-03 
1446	 1.57311676101037E-02 
1447	 8.94061317472894E-03 
1448	-7.2337665225136E-04 
1449	 5.5414520882581E-03 
1450	 0.011498645505383 
1451	 8.42658030125199E-03 
1452	 4.67327975352626E-03 
1453	 6.83563624266909E-03 
1454	 8.01326480627224E-03 
1455	 8.44573420496827E-03 
1456	 6.58920847274778E-03 
1457	 5.67830297058906E-03 
1458	 5.16157107987182E-03 
1459	 1.87961077833437E-03 
1460	 8.78789430083883E-04 
1461	 2.90382237865612E-03 
1462	 3.46056924546463E-03 
1463	 2.94022576216319E-03 
1464	 1.18691650529361E-03 
1465	-3.10599828779038E-03 
1466	 5.65600438393945E-05 
1467	 9.01645248861916E-03 
1468	 8.28819459604651E-03 
1469	 7.90239817446755E-03 
1470	 8.47795008896032E-03 
1471	-4.19263471029329E-04 
1472	-2.72566690628682E-03 
1473	 3.94512540190483E-03 
1474	 6.57908277390922E-03 
1475	 5.64841365063565E-03 
1476	 4.4895787537145E-03 
1477	 4.23572490622163E-03 
1478	 4.9929941738701E-03 
1479	 5.55696171865133E-03 
1480	 4.18922553231261E-03 
1481	 2.74852571724545E-03 
1482	 3.34018197839214E-03 
1483	 2.23060557014234E-03 
1484	 1.87992302179767E-03 
1485	 3.62131802321305E-03 
1486	 5.37233031475991E-03 
1487	 7.76406221666852E-03 
1488	 7.4913715367087E-03 
1489	 5.60126867618519E-03 
1490	 6.38293427811995E-03 
1491	 7.41603546374377E-03 
1492	 7.08351026406754E-03 
1493	 7.38924888881773E-03 
1494	 8.22978810001239E-03 
1495	 8.85057116586307E-03 
1496	 8.18127004464431E-03 
1497	 6.91652301481008E-03 
1498	 7.29948950380571E-03 
1499	 7.57783534025822E-03 
1500	 7.27908991041816E-03 
1501	 8.32231438543856E-03 
1502	 8.92514177866446E-03 
1503	 8.07015697715876E-03 
1504	 7.73365651378454E-03 
1505	 8.39230006121018E-03 
1506	 8.40905810821521E-03 
1507	 7.30987214769527E-03 
1508	 7.23439976858478E-03 
1509	 7.70390139104054E-03 
1510	 7.96979696215121E-03 
1511	 8.51707954852671E-03 
1512	 8.94585146186032E-03 
1513	 8.49298370176241E-03 
1514	 8.43890824576103E-03 
1515	 9.13373506745446E-03 
1516	 8.89930225417586E-03 
1517	 8.57309465051797E-03 
1518	 9.1000410466162E-03 
1519	 9.13385209880788E-03 
1520	 8.80565124902502E-03 
1521	 8.89839051666443E-03 
1522	 9.12131020648163E-03 
1523	 9.55908861542105E-03 
1524	 9.59311635706933E-03 
1525	 9.21321453898782E-03 
1526	 9.32823920675178E-03 
1527	 9.81657743066039E-03 
1528	 1.00913522368783E-02 
1529	 1.00391876125813E-02 
1530	 1.01921996971716E-02 
1531	 1.02572336628058E-02 
1532	 1.00734728413679E-02 
1533	 0.010459049695519 
1534	 1.05822587163382E-02 
1535	 9.91873858710003E-03 
1536	 1.01228897749094E-02 
1537	 1.07772207716635E-02 
1538	 1.11825875453941E-02 
1539	 0.011384148907196 
1540	 1.09660919635255E-02 
1541	 1.08170839111198E-02 
1542	 1.07281351195794E-02 
1543	 1.05395011351508E-02 
1544	 1.07781195365313E-02 
1545	 1.09316651592018E-02 
1546	 1.06683149200817E-02 
1547	 1.05560686329658E-02 
1548	 1.09129731761749E-02 
1549	 1.09418938290311E-02 
1550	 1.08347791208988E-02 
1551	 1.12910633612081E-02 
1552	 1.16265879037407E-02 
1553	 1.16491954135897E-02 
1554	 1.19517128099648E-02 
1555	 1.21067629563983E-02 
1556	 1.20095130881895E-02 
1557	 1.22715660021198E-02 
1558	 1.23228948319739E-02 
1559	 1.21369549581332E-02 
1560	 1.22312348841129E-02 
1561	 1.19074458532832E-02 
1562	 1.18065751976451E-02 
1563	 1.30104694854283E-02 
1564	 1.40749920773941E-02 
1565	 1.38469795495902E-02 
1566	 1.36446995784409E-02 
1567	 1.36414975088268E-02 
1568	 1.30627829891273E-02 
1569	 0.013076535717712 
1570	 1.35302674079672E-02 
1571	 1.34200641004678E-02 
1572	 1.32310308560676E-02 
1573	 1.28960310136938E-02 
1574	 1.27832952008947E-02 
1575	 1.28560436762502E-02 
1576	 1.25512125805547E-02 
1577	 1.29930321752341E-02 
1578	 1.39229661698485E-02 
1579	 1.40342303669394E-02 
1580	 1.34614981125333E-02 
1581	 1.29615947477597E-02 
1582	 0.013292285611846 
1583	 1.39009289157822E-02 
1584	 1.40861258282578E-02 
1585	 1.46325195446473E-02 
1586	 1.50419318242288E-02 
1587	 1.44278760031875E-02 
1588	 1.40445500580037E-02 
1589	 1.40774541869908E-02 
1590	 1.38835020986519E-02 
1591	 1.40506630417323E-02 
1592	 0.014601373570705 
1593	 1.48043533628696E-02 
1594	 0.014422781997148 
1595	 1.41952083596628E-02 
1596	 1.47997076151957E-02 
1597	 1.56043775140608E-02 
1598	 1.56835142682573E-02 
1599	 1.56411031664806E-02 
1600	 1.55744457026587E-02 
1601	 1.50229199995793E-02 
1602	 0.014998619740342 
1603	 1.51997913554675E-02 
1604	 0.015062354513946 
1605	 1.49987001727993E-02 
1606	 1.49263452651791E-02 
1607	 1.49031487720813E-02 
1608	 0.014920264061386 
1609	 1.51313211729763E-02 
1610	 1.53703376843664E-02 
1611	 1.53638069849387E-02 
1612	 1.57822404945254E-02 
1613	 1.58780135534909E-02 
1614	 1.48782984718945E-02 
1615	 1.47355172910635E-02 
1616	 1.54349249015097E-02 
1617	 1.55072937157577E-02 
1618	 1.57961821233237E-02 
1619	 1.58947647608645E-02 
1620	 1.55124206135035E-02 
1621	 1.59270016665013E-02 
1622	 1.63699409987092E-02 
1623	 0.0162941245197 
1624	 1.60965689151644E-02 
1625	 0.015879907204848 
1626	 1.60641299474851E-02 
1627	 1.64220165705722E-02 
1628	 1.61957907093944E-02 
1629	 1.55949881802615E-02 
1630	 1.54713671039934E-02 
1631	 1.57746408832679E-02 
1632	 1.61073637760115E-02 
1633	 1.61126200940164E-02 
1634	 1.57698259053158E-02 
1635	 1.58485259749637E-02 
1636	 1.58812534696173E-02 
1637	 1.54984131910329E-02 
1638	 1.55487275068304E-02 
1639	 1.57703654001631E-02 
1640	 1.61568388643735E-02 
1641	 1.65959500024661E-02 
1642	 1.67216579271673E-02 
1643	 1.67686273837839E-02 
1644	 1.67657598397935E-02 
1645	 1.67195330500131E-02 
1646	 1.64916500356171E-02 
1647	 1.58880432510803E-02 
1648	 0.015363989649579 
1649	 1.57799090957465E-02 
1650	 1.66213602006749E-02 
1651	 1.69965481355499E-02 
1652	 1.70064253855764E-02 
1653	 1.69004011137929E-02 
1654	 1.66348287571064E-02 
1655	 1.61595160904137E-02 
1656	 1.60620760043288E-02 
1657	 0.015938499485002 
1658	 1.57767834350738E-02 
1659	 1.62111714878579E-02 
1660	 1.62624282728912E-02 
1661	 1.55370535090338E-02 
1662	 1.52917882929981E-02 
1663	 1.54337237036237E-02 
1664	 0.015577741997596 
1665	 1.57969854128428E-02 
1666	 1.58252619792592E-02 
1667	 1.59302752722911E-02 
1668	 0.016443258424469 
1669	 0.016208174376121 
1670	 1.65701619547764E-02 
1671	 0.016973487414563 
1672	 1.59007380773319E-02 
1673	 0.016018313819285 
1674	 1.73253323758832E-02 
1675	 1.69884280168142E-02 
1676	 1.71003209976206E-02 
1677	 1.78027971617099E-02 
1678	 1.66107834123741E-02 
1679	 1.61159618277023E-02 
1680	 1.73584973141024E-02 
1681	 1.77550024316024E-02 
1682	 1.79791272167062E-02 
1683	 1.81540208853228E-02 
1684	 1.73623617491162E-02 
1685	 1.65199056008139E-02 
1686	 1.70123268630826E-02 
1687	 1.83267991732504E-02 
1688	 1.77286114430391E-02 
1689	 1.65597251549358E-02 
1690	 1.65519411321622E-02 
1691	 1.61403351828591E-02 
1692	 1.60957165018113E-02 
1693	 1.63446240239041E-02 
1694	 1.56647544232834E-02 
1695	 1.53042636004512E-02 
1696	 1.58077492807023E-02 
1697	 0.016844321757223 
1698	 1.79221571343872E-02 
1699	 0.017427863169474 
1700	 1.62561452605823E-02 
1701	 0.016237795385514 
1702	 1.60116520040937E-02 
1703	 1.57707606081702E-02 
1704	 1.64546017604259E-02 
1705	 1.66554238513599E-02 
1706	 1.59767333300264E-02 
1707	 1.59203131347317E-02 
1708	 1.67138334116636E-02 
1709	 1.70659797287306E-02 
1710	 1.74645391582335E-02 
1711	 1.75259081443347E-02 
1712	 0.016526338189956 
1713	 1.60377086476359E-02 
1714	 1.57629313400058E-02 
1715	 1.61250205791742E-02 
1716	 1.65122067650694E-02 
1717	 1.63690547012905E-02 
1718	 1.64983386714887E-02 
1719	 1.73299150728537E-02 
1720	 1.72586448524056E-02 
1721	 1.63260152330246E-02 
1722	 0.015995577330979 
1723	 1.55849221734982E-02 
1724	 1.49281315586159E-02 
1725	 1.46430921378189E-02 
1726	 1.50295612109363E-02 
1727	 1.51823065928891E-02 
1728	 1.50905144891585E-02 
1729	 1.59634524147273E-02 
1730	 0.016466815659878 
1731	 1.58008334293891E-02 
1732	 1.48774855440135E-02 
1733	 1.42279223264453E-02 
1734	 1.44286923077593E-02 
1735	 1.47033936402401E-02 
1736	 1.43196587835443E-02 
1737	 1.39769889556291E-02 
1738	 1.30309081861913E-02 
1739	 1.25969255193475E-02 
1740	 1.42282721595103E-02 
1741	 1.51553847004412E-02 
1742	 1.48122250155557E-02 
1743	 1.40619827372052E-02 
1744	 0.013749653165061 
1745	 1.46881188932508E-02 
1746	 1.58584345928547E-02 
1747	 1.62620486767196E-02 
1748	 1.45131542982375E-02 
1749	 1.39373630471983E-02 
1750	 0.015257554572762 
1751	 1.48054420434487E-02 
1752	 0.013323677069161 
1753	 1.33456734603985E-02 
1754	 1.23216234330214E-02 
1755	 1.24225796800591E-02 
1756	 1.54191004567366E-02 
1757	 0.015830348232626 
1758	 1.33357665799413E-02 
1759	 1.06629184386411E-02 
1760	 1.10585084686081E-02 
1761	 1.14215216770192E-02 
1762	 1.29460291099068E-02 
1763	 0.015441928026905 
1764	 1.29523055920853E-02 
1765	 0.010163459217526 
1766	 1.13388100077992E-02 
1767	 1.18913665517199E-02 
1768	 1.15868070423315E-02 
1769	 1.06900866161835E-02 
1770	 8.03723373526961E-03 
1771	 6.17439923363954E-03 
1772	 6.08243519394769E-03 
1773	 1.09446922744246E-02 
1774	 1.59101635844441E-02 
1775	 1.47394855934749E-02 
1776	 1.47499497727983E-02 
1777	 8.48638295540871E-03 
1778	 6.83976370658358E-03 
1779	 1.08428803094515E-02 
1780	 1.13174730458436E-02 
1781	 1.20779606947677E-02 
1782	 0.013011818157486 
1783	 1.34931357087577E-02 
1784	 1.33416501450467E-02 
1785	 0.012146091818304 
1786	 0.01057507318721 
1787	 6.35605360347108E-03 
1788	 5.32265229390029E-03 
1789	 7.25214077088811E-03 
1790	 9.4346849202195E-03 
1791	 0.012980535402757 
1792	 1.16452993074952E-02 
1793	 7.60027831828259E-03 
1794	 4.07149514532925E-03 
1795	-7.92832157769348E-03 
1796	-1.03423223655703E-02 
1797	 3.90774453234302E-03 
1798	 1.85496780977667E-02 
1799	 3.01480127741212E-02 
1800	 2.75572081214443E-02 
1801	 2.08833453658315E-02 
1802	-1.96197993005469E-02 
1803	-0.029506280013863 
1804	-7.0900100400685E-04 
1805	 9.99910115476817E-03 
1806	 7.47838166324088E-02 
1807	 0.100394189235906 
1808	 1.02236529131906E-02 
1809	-3.23719125251614E-02 
1810	-9.41669650998608E-02 
1811	-0.087556847079139 
1812	 0.113042394658973 
1813	 0.138158152336719 
1814	 9.61918933730904E-02 
1815	 7.53028792331279E-02 
1816	-0.231507558522239 
1817	-0.217283834820933 
1818	-0.138313085020766 
1819	-0.47038031738727 
1820	-0.31953008328352 
1821	-0.389847075909511 
1822	-1.94026930439674E-02 
1823	 0.516261091121418 
1824	 0.69902879029074 
1825	 0.332540487613381 
1826	 8.08123180025432E-02 
1827	-4.70493407659453 
1828	-7.01028619853511 
1829	-0.646261156551229 
1830	-0.786733455269879 
1831	-1.12117670155324 
1832	-0.978955225760576 
1833	 1.66955623140598 
1834	 8.27302505961103 
1835	-8.63112396756326 
1836	 108.14741545564 
1837	 0.392134399394758 
1838	 0.246653138325551 
1839	 0.904087442547274 
1840	 1.00713897107422 
1841	 0.939699906655416 
1842	 1.44117669965389 
1843	 1.39148625885596 
1844	-4.53219111344753E-02 
1845	-3.07758161563051E-02 
1846	 1.29199968218829 
1847	 1.84360685244856 
1848	 2.48521740387085 
1849	 1.96597641430952 
1850	 1.45170709923371 
1851	 0.767912175635227 
1852	-1.86521202901973 
1853	-7.69542492690636E-02 
1854	-0.189139369979086 
1855	-0.774867802820147 
1856	-0.749516713886737 
1857	-1.3546737943068 
1858	-1.74102428015819 
1859	-3.75065975941614E-02 
1860	 0.322680620764689 
1861	 0.610040154921188 
1862	-0.572660293937149 
1863	 1.13830536638011 
1864	 1.55423806070106 
1865	 1.38769718091797 
1866	-1.28520823222818 
1867	-2.63121130344464 
1868	 1.95303611217351 
1869	 20.1042790868351 
1870	-0.299291199241437 
1871	 0.583185290385529 
1872	 1.13025052229002 
1873	 3.63767446235312 
1874	-165.030987880021 
1875	-7.1794149113606 
1876	-4.45781433412575 
1877	 8.36912207307879 
1878	-3.1532799613327 
1879	-1.08972351881098 
1880	-0.568364927668602 
1881	 1.93670096513102 
1882	 2.92246295660793 
1883	-3.2925075154803 
1884	-2.06418706587128 
1885	-1.41973457277711 
1886	-0.600111310965355 
1887	 13.6245313480575 
1888	-0.798582217182958 
1889	-1.74934502283601 
1890	-1.27437920460101 
1891	-1.51543367385378 
1892	 3.09812810899883 
1893	 10.621620479218 
1894	-1.69623251065095 
1895	-0.379767168546223 
1896	-27.8238408023876 
1897	-0.117267537045738 
1898	 1.14568915517379 
1899	-2.32000114150403 
1900	-7.84807096335131 
1901	-0.786660467230652 
1902	 0.422463655127277 
1903	-0.143783312143854 
1904	 9.38866586198893E-02 
1905	-9.47191698662124E-02 
1906	 0.20485443443205 
1907	 0.200279559863342 
1908	-0.270794494062048 
1909	-0.704313161845807 
1910	-1.00275191486678 
1911	-1.54155235808369 
1912	-1.72734569260766 
1913	-3.18775900883263 
1914	 3.60433967866456 
1915	 2.60318939958462 
1916	 5.81155785306421 
1917	-4.05174921502791 
1918	-0.851811216456246 
1919	-0.442184003212082 
1920	-45.6495036142913 
1921	 5.79308445327214 
1922	-9.65291215913503 
1923	 14.1795544876223 
1924	 2.32430863505088 
1925	 1.49081408082831 
1926	 1.70816187628975 
1927	 1.19631194012952 
1928	 6.00555653028909 
1929	-1.92808880887259 
1930	-1.63279793678816 
1931	-2.00561507666944 
1932	-5.11658791828005 
1933	 15.8106076964315 
1934	-0.757489638259839 
1935	 0.165269191390059 
1936	-2.16916006820977E-02 
1937	-0.221893992766895 
1938	-0.229382580622442 
1939	-0.21075496701256 
1940	-0.205571197669138 
1941	-9.20624713290309E-03 
1942	 8.15730847029649E-02 
1943	 0.109793967660002 
1944	 9.87530217046542E-02 
1945	 7.31494593628284E-02 
1946	 6.53555319114557E-02 
1947	 8.38728379055969E-02 
1948	 0.179058757361701 
1949	 0.212550396655455 
1950	 0.161871711239632 
1951	 9.46832674775411E-02 
1952	 5.67395826858897E-02 
1953	-1.55773072895309E-02 
1954	-1.23652716976574E-02 
1955	 1.42019034154335E-02 
1956	 1.76786409692886E-03 
1957	-4.18479622325469E-02 
1958	-6.84418510314145E-02 
1959	-7.70643575714861E-02 
1960	-7.99716957399745E-02 
1961	-5.18801304474685E-02 
1962	-0.027777898486472 
1963	-2.17196099838034E-02 
1964	-7.40660526332169E-03 
1965	 3.2570319082255E-04 
1966	 1.81468473438043E-03 
1967	-4.86450521681764E-03 
1968	-1.97522768625335E-03 
1969	 2.04514219072743E-03 
1970	-6.94042031190387E-04 
1971	 1.06161031473555E-03 
1972	 7.60195698035096E-03 
1973	 8.47070931071608E-03 
1974	 7.08948740034189E-03 
1975	 5.65792882268779E-03 
1976	-4.56754464058364E-04 
1977	-7.40705463429524E-03 
1978	-1.15286544901493E-02 
1979	-0.012164619841538 
1980	-9.61688687268657E-03 
1981	-8.63099252755557E-03 
1982	-7.81747326898397E-03 
1983	-7.87758107777263E-04 
1984	 1.56262219316703E-03 
1985	-5.00386208424933E-05 
1986	 1.8794360739616E-03 
1987	-3.2324984245744E-03 
1988	-4.65104951388657E-03 
1989	 2.64389126271767E-04 
1990	-1.00768363753274E-03 
1991	-8.73692584164239E-04 
1992	-1.49802163787741E-03 
1993	-6.45280579358717E-03 
1994	-8.74182908928708E-03 
1995	-9.27122969184607E-03 
1996	-7.47895052377125E-03 
1997	-7.03087855429737E-03 
1998	-2.63071574711329E-03 
1999	 6.78823987599731E-05 
2000	 7.03879440702934E-04 
2001	 1.05221606940115E-02 
2002	 1.11870221735966E-02 
2003	-4.92019560516767E-04 
2004	-1.69636087809641E-03 
2005	-1.28574407076563E-02 
2006	-2.78762138062121E-02 
2007	-1.83406345917186E-02 
2008	-1.32031367885526E-02 
2009	-1.16191003158411E-02 
2010	-1.25390888924154E-02 
2011	-7.86823503513515E-03 
2012	-3.38010304280593E-03 
2013	-1.4035116491465E-03 
2014	 5.31929189975829E-03 
2015	 1.48099478147263E-02 
2016	 5.89008143335611E-03 
2017	-3.83984516738814E-03 
2018	-6.63543731634148E-04 
2019	 3.18235332025912E-03 
2020	 1.63284510331601E-03 
2021	 9.1187532263698E-04 
2022	 9.0871241758885E-04 
2023	-6.54843146219456E-03 
2024	-8.16964456745507E-03 
2025	-3.20771351066797E-03 
2026	-6.22959118239727E-04 
2027	 1.30560296578866E-03 
2028	 1.61481036989173E-03 
2029	 3.9877840641671E-03 
2030	 5.09738575931687E-03 
2031	 3.62170404561062E-03 
2032	 2.86152383802375E-03 
2033	 3.72657407369914E-03 
2034	 2.10412416705108E-03 
2035	-1.27379852979345E-03 
2036	-1.92998015128795E-03 
2037	-5.49495479268336E-04 
2038	-4.400504497285E-04 
2039	-9.81512398565488E-04 
2040	 7.6279369475222E-04 
2041	 3.10940247588108E-04 
2042	-4.94172093163554E-03 
2043	-6.31088598881675E-03 
2044	-5.43298362993421E-03 
2045	-5.20391654805599E-03 
2046	-4.1054473884593E-03 
2047	-2.59028236064935E-03 
2048	-4.37987499095125E-03 
2049	-5.8190783224675E-03 
2050	-7.72151212632019E-03 
2051	-8.66013546534968E-03 
2052	-8.72012589415585E-03 
2053	-7.4578449142967E-03 
2054	-4.31106158048871E-03 
2055	-5.8013286682697E-03 
2056	-5.37764363171156E-03 
2057	-3.52522738930482E-03 
2058	-9.26731621674141E-04 
2059	 2.7990495069565E-03 
2060	 3.29409504677971E-03 
2061	 3.80896975008724E-03 
2062	 2.18400907984037E-03 
2063	-1.44237251417503E-03 
2064	-0.001886322303246 
2065	-1.22681286986001E-03 
2066	 1.39557797080821E-04 
2067	 1.17103621649673E-04 
2068	-1.77262723370538E-03 
2069	-1.26890604748587E-03 
2070	-1.40864144789908E-03 
2071	-1.55667822006768E-03 
2072	 5.69594112645862E-04 
2073	 2.41556545778968E-03 
2074	 6.79235059610802E-03 
2075	 6.7746732464587E-03 
2076	 4.37153183797876E-03 
2077	 4.03747641806564E-03 
2078	 2.06059561954711E-03 
2079	 9.85430554152032E-04 
2080	 1.55660767731187E-03 
2081	 1.73237623670675E-03 
2082	-5.18515270029171E-04 
2083	-4.76758328363739E-04 
2084	-5.78125895839054E-04 
2085	-2.23070417120859E-03 
2086	-5.21761534535601E-04 
2087	 1.07867256660945E-03 
2088	 3.44963263484324E-04 
2089	 1.20517101266344E-03 
2090	 1.42039229004539E-03 
2091	 1.09214084501427E-04 
2092	-5.59638310615889E-04 
2093	-2.15128742810175E-04 
2094	 5.49939440073625E-04 
2095	 1.12841603395683E-03 
2096	 6.05030236470947E-04 
2097	 7.75216479911925E-05 
2098	 3.99314309418452E-04 
2099	-7.9905554434732E-04 
2100	 3.91320431133133E-04 
2101	 4.0621007285008E-03 
2102	 5.04686169923516E-03 
2103	 3.64104830928291E-03 
2104	 3.12697287734868E-03 
2105	 2.42966708068002E-03 
2106	 1.36476890498456E-03 
2107	 3.22840888476638E-03 
2108	 6.00204980029443E-03 
2109	 3.90385359795925E-03 
2110	 1.65254463603417E-03 
2111	 1.34205054591162E-04 
2112	-2.93233526043728E-03 
2113	-3.50378071860509E-03 
2114	-8.32501237232913E-05 
2115	 1.24461517928136E-03 
2116	 1.63618987545569E-03 
2117	 3.18726953229245E-03 
2118	 5.63849792743896E-03 
2119	 6.8555359932983E-03 
2120	 8.59769968739174E-03 
2121	 9.72958896182529E-03 
2122	 7.03272129184869E-03 
2123	 5.03569037045243E-03 
2124	 3.89833868038215E-03 
2125	 4.19538790946478E-03 
2126	 3.97843900300822E-03 
2127	 3.53230334921604E-03 
2128	 4.47142744157653E-03 
2129	 3.24346398941581E-03 
2130	 2.61294290776579E-03 
2131	 3.98909322016137E-03 
2132	 3.60879939426611E-03 
2133	 1.17864064801995E-03 
2134	 3.14713855013548E-05 
2135	-1.67028839987119E-03 
2136	-9.48664659342752E-04 
2137	 2.6705200924603E-03 
2138	 3.13741555444281E-03 
2139	 2.8523726938099E-03 
2140	 3.12211428561604E-03 
2141	 1.5030326099028E-03 
2142	 8.81022635264683E-04 
2143	 5.23510137050411E-04 
2144	 3.21920551222676E-03 
2145	 6.45848130982316E-03 
2146	 7.44510678493471E-03 
2147	 1.08689479871008E-02 
2148	 1.40894478644492E-02 
2149	 1.09596159710285E-02 
2150	 8.51452653163193E-03 
2151	 7.46580134459524E-03 
2152	 4.82506260120274E-03 
2153	 3.73811783345322E-03 
2154	 3.63092276919171E-03 
2155	 4.34577404144653E-03 
2156	 2.85220951802856E-03 
2157	 2.73008639240419E-03 
2158	 5.81252408834284E-03 
2159	 4.7438675417757E-03 
2160	 3.93252404246347E-05 
2161	-1.55997650552354E-04 
2162	 5.56811900934321E-04 
2163	-8.6399239064131E-04 
2164	-1.98819395571958E-03 
2165	-1.46877747375601E-03 
2166	-1.69034720401171E-03 
2167	-2.06973428353271E-03 
2168	 1.01619556712386E-03 
2169	 2.10416343655826E-03 
2170	 3.24556982450461E-05 
2171	-1.1656979378185E-03 
2172	 1.28922231526285E-03 
2173	 2.35393312199127E-03 
2174	 3.13296558177291E-03 
2175	 2.92265426051696E-03 
2176	 2.39995621889171E-03 
2177	 2.18893226830192E-03 
2178	 4.71231918247372E-04 
2179	 3.1526460949367E-04 
2180	 3.55226469084499E-03 
2181	 3.81191459810957E-03 
2182	 2.88421216710666E-03 
2183	 5.06003665248543E-03 
2184	 5.22362861080333E-03 
2185	 6.42555671271805E-03 
2186	 6.54421983529691E-03 
2187	 8.95295104242527E-03 
2188	 7.6206265506915E-03 
2189	 1.6899244670323E-03 
2190	-5.19320081513699E-04 
2191	-1.55327913358721E-03 
2192	-1.57910895729193E-03 
2193	-1.23290807745662E-03 
2194	 1.64509708247936E-04 
2195	 5.10723194532964E-03 
2196	 5.24835034813699E-03 
2197	 3.76858121779362E-03 
2198	 2.8067867355875E-03 
2199	-1.09393867615137E-03 
2200	-4.24698343761801E-03 
2201	-6.28669094424803E-03 
2202	-7.01791486636427E-03 
2203	-6.8062528821366E-03 
2204	-9.96481503977738E-03 
2205	-1.20874859912529E-02 
2206	-9.09579289818945E-03 
2207	-6.60701938852803E-03 
2208	-2.38504326778521E-03 
2209	 1.17334988614914E-03 
2210	-2.14133932552605E-05 
2211	-1.66700687220531E-03 
2212	-1.63601406087543E-03 
2213	 2.07547431011513E-04 
2214	 2.09157133107586E-03 
2215	 0.005262058839109 
2216	 7.15574398670983E-03 
2217	 7.00523241201663E-03 
2218	 6.06814387022878E-03 
2219	 5.98596596504417E-03 
2220	 3.36594742359522E-03 
2221	 0.002498773719799 
2222	 5.07075551821786E-03 
2223	 4.03835519472217E-03 
2224	 1.41346729076136E-04 
2225	-2.37080095773195E-03 
2226	-7.94238819194465E-03 
2227	-8.33505536655172E-03 
2228	-4.60190149064937E-03 
2229	-1.93424744143486E-03 
2230	 4.08099639691471E-03 
2231	 7.96552094699175E-03 
2232	 1.15015860325111E-02 
2233	 0.012229995118144 
2234	 1.11681701688336E-02 
2235	 9.9667606504964E-03 
2236	 6.20451397664017E-03 
2237	 3.04019777329108E-03 
2238	 1.01578768961281E-03 
2239	-3.01145007983659E-03 
2240	-3.81760694042874E-03 
2241	-2.59892160035878E-03 
2242	-5.58992892785102E-03 
2243	-7.16220225185162E-03 
2244	-5.46588341016435E-03 
2245	-5.44224402400691E-03 
2246	-3.27747571374879E-03 
2247	 1.41225143027417E-03 
2248	 4.0634115899545E-03 
2249	 3.98077402856149E-03 
2250	 1.74325962682414E-03 
2251	 1.44763551441379E-03 
2252	 1.04310279020332E-03 
2253	-2.14048263436374E-03 
2254	-3.16037651451743E-04 
2255	 3.4285499207831E-03 
2256	 2.59592608133931E-03 
2257	 5.23583100138849E-03 
2258	 5.25750798961602E-03 
2259	 1.34375242563947E-03 
2260	 2.44326025662374E-03 
2261	 4.4522875079159E-03 
2262	 7.74896751440409E-03 
2263	 0.020324804158563 
2264	 2.01405261312383E-02 
2265	 1.39390566390732E-02 
2266	 0.007540876304247 
2267	-1.16511058071581E-02 
2268	-1.63284461615917E-02 
2269	-1.51406091915082E-02 
2270	-1.08121693530997E-02 
2271	 7.16281153823444E-03 
2272	 1.13301278958722E-02 
2273	 1.12040515135394E-02 
2274	 1.26208133223907E-02 
2275	 4.34653266180051E-03 
2276	 3.16805440754298E-03 
2277	 1.14084290007219E-02 
2278	 1.21304324487622E-02 
2279	 8.77039595050056E-03 
2280	 9.64950387344842E-03 
2281	 1.12956829706326E-02 
2282	 7.64738662567537E-03 
2283	 8.10497655361321E-03 
2284	 5.89085296593522E-03 
2285	-4.4561566533746E-04 
2286	-8.03426216995289E-03 
2287	-1.27596467428975E-02 
2288	-8.88985434615374E-03 
2289	-7.78792693286196E-03 
2290	-4.45303124454304E-03 
2291	 7.14532059744372E-03 
2292	 9.66410981353925E-03 
2293	 4.45345324167433E-03 
2294	 4.11882340585384E-03 
2295	-4.75788579615625E-03 
2296	-1.24734600290537E-02 
2297	-8.6645499639336E-03 
2298	-9.72457190032935E-03 
2299	-8.35491979720715E-03 
2300	-1.06326958291902E-02 
2301	-1.72720127491426E-02 
2302	-1.31629146050826E-02 
2303	-9.63734531061699E-03 
2304	-8.93223529020753E-03 
2305	-8.77374861299611E-03 
2306	-1.44884810769938E-02 
2307	-1.94961701699749E-02 
2308	-2.41516610674868E-02 
2309	-2.07783424867445E-02 
2310	-8.32429795597214E-03 
2311	-5.29971476656714E-03 
2312	-6.26837774473805E-03 
2313	-8.16172484428048E-03 
2314	-1.21133667609813E-02 
2315	-2.10419901871542E-02 
2316	-2.63135526900023E-02 
2317	-1.87885981583911E-02 
2318	-2.47955711281583E-02 
2319	-3.17857213640443E-02 
2320	-2.54384745020697E-02 
2321	-2.72993848840873E-02 
2322	-3.28372554526135E-02 
2323	-0.016273457800427 
2324	-2.47349395751823E-03 
2325	-1.84322844747515E-02 
2326	-1.80901477207031E-02 
2327	-1.77014055062244E-02 
2328	-2.94431544921552E-02 
2329	-1.33923238941964E-02 
2330	 2.88584464954009E-03 
2331	 7.81453411440184E-04 
2332	-6.1144617184162E-05 
2333	-8.38486119239321E-03 
2334	-2.49163724308493E-02 
2335	-3.15351517709938E-02 
2336	-3.32242912307837E-02 
2337	-3.21751433903551E-02 
2338	-3.69054079451122E-02 
2339	-4.69566132647402E-02 
2340	-5.16612940807928E-02 
2341	-0.051313380355609 
2342	-3.68161447147448E-02 
2343	-2.31704269852276E-02 
2344	-8.04489248627023E-03 
2345	-1.06968207030685E-03 
2346	-1.05400967212598E-02 
2347	 4.8450013494177E-03 
2348	 0.01678953755053 
2349	 1.02453911361397E-02 
2350	 1.68175059321556E-02 
2351	 2.39445168458429E-04 
2352	-3.15990886081227E-02 
2353	-3.50224771043233E-02 
2354	-3.46888370181347E-02 
2355	-3.42034297028274E-02 
2356	-0.037879683848351 
2357	-3.77677812500593E-02 
2358	-2.20365115857497E-02 
2359	-7.67103128023583E-03 
2360	 1.41252487500489E-02 
2361	 2.27498990258378E-02 
2362	 1.12417844191908E-02 
2363	-1.04881418463549E-02 
2364	-2.66992341415117E-02 
2365	-1.27755484861975E-02 
2366	 7.98335808019155E-03 
2367	 4.10124519112179E-02 
2368	 6.49084579965761E-02 
2369	 4.30753055319487E-02 
2370	 3.92130887246274E-02 
2371	 3.46232200235114E-02 
2372	 2.17925650545628E-02 
2373	 0.060896990167328 
2374	 6.59415328532616E-02 
2375	 4.65419410080872E-02 
2376	 7.37805827924806E-02 
2377	 6.79231841148039E-02 
2378	 5.62878574353186E-02 
2379	 5.64160026979332E-02 
2380	 2.13312301643953E-03 
2381	-6.86216824649698E-02 
2382	-9.48897327036368E-02 
2383	-0.088620646191227 
2384	-7.15495094015648E-02 
2385	-4.41995775108137E-02 
2386	-3.53674473094574E-02 
2387	-0.114702865646052 
2388	-0.193090854588566 
2389	-0.210493393557447 
2390	-0.252363360294394 
2391	-0.258989293268792 
2392	-0.218368996842206 
2393	-0.12057471284233 
2394	-4.55551114138089E-02 
2395	-3.44258894906101E-03 
2396	 3.99647273007134E-02 
2397	-2.63526155803533E-02 
2398	-6.55896119568256E-02 
2399	-8.92826287771611E-03 
2400	 1.37135967556956E-02 
2401	 1.72062995529847E-02 
2402	 1.13096191232642E-02 
2403	-4.63307698205157E-02 
2404	-5.23501009239743E-02 
2405	 7.89119128823406E-02 
2406	 0.134008943219446 
2407	 0.11128611472277 
2408	 0.128810654584442 
2409	 0.154667398255354 
2410	 0.084281645236074 
2411	 1.10341338891733E-02 
2412	-7.00393310892465E-02 
2413	-0.267057559353312 
2414	-0.265998647130887 
2415	-0.300651380541441 
2416	-0.411784037453394 
2417	-0.508569409770108 
2418	-0.685552842219947 
2419	-0.658913709948205 
2420	-0.608744399021866 
2421	-0.573575657325483 
2422	-0.491594187974881 
2423	-0.326033189518513 
2424	-0.13469152629339 
2425	-0.095258147524494 
2426	-0.137019599685775 
2427	-0.130073785552984 
2428	-0.248664598100855 
2429	-0.473323157012136 
2430	-0.326009243826547 
2431	-0.205769027154268 
2432	-0.144842943885751 
2433	 7.87409046634465E-02 
2434	 0.245145860561313 
2435	 0.132432541733561 
2436	-0.339925128517042 
2437	-0.56857937457642 
2438	-1.38781107081589 
2439	-1.57822231353752 
2440	-0.7305129057169 
2441	-8.08201237509837E-02 
2442	 0.318546582840705 
2443	-4.34728306008193E-02 
2444	-0.587630922480051 
2445	-1.39168819233749 
2446	-2.19702608000681 
2447	-0.749737930268002 
2448	 0.149540655209698 
2449	-0.6367448945864 
2450	-0.389360901687584 
2451	 6.72557803842346E-02 
2452	 3.90358540604841E-02 
2453	 5.12231818804582E-02 
2454	-0.501335022729424 
2455	-1.12684773107351 
2456	-1.72690018744531 
2457	-1.0164048482527 
2458	-0.610072408593703 
2459	-1.05742573723964 
2460	-1.42051171622795 
2461	-1.61071614976866 
2462	 6.42264484374236 
2463	 4.71149491234678 
2464	-2.4315562690803 
2465	-1.82215446225423 
2466	-2.81512075005562 
2467	-0.868708587265046 
2468	-0.524327943767286 
2469	-2.61217664778792 
2470	-0.958013105824156 
2471	-0.758730412180025 
2472	-0.954529982221409 
2473	-0.37000564986542 
2474	-0.556219544389042 
2475	-2.11831684140066 
2476	-2.79655978792299 
2477	-5.15326875000128 
2478	 1.21064666929966 
2479	 0.391205248253763 
2480	 6.14077833572825 
2481	-0.510813190108204 
2482	 0.36669489820022 
2483	-2.12573541543651E-02 
2484	-0.162407131840767 
2485	-0.710593312923519 
2486	-1.35331947805449 
2487	-1.28359336075879 
2488	-0.976746050720518 
2489	-0.709965900724069 
2490	-0.963501492601584 
2491	-0.698378307054459 
2492	-0.403346772153383 
2493	-4.47754216863493E-02 
2494	-0.341866469199963 
2495	-1.09391951941483 
2496	-1.70779631486353 
2497	-4.14490199820051 
2498	-30.0449324293676 
2499	-3.02060162604377 
2500	-1.84080295426693 
