Wavelength	rt0622clean00007.asd
350	 3.54645683841257E-02 
351	 3.62087333351363E-02 
352	 3.64561917738211E-02 
353	 3.66330625125224E-02 
354	 3.69795159976757E-02 
355	 3.67476309359885E-02 
356	 3.67990696132507E-02 
357	 3.64933616158736E-02 
358	 3.54560263498302E-02 
359	 0.036456774080259 
360	 3.72454487831498E-02 
361	 0.037202556792059 
362	 3.69886720920266E-02 
363	 3.67218985054877E-02 
364	 3.69680262856914E-02 
365	 3.76494847859229E-02 
366	 3.77109433955249E-02 
367	 3.73984220315023E-02 
368	 3.70402215992525E-02 
369	 3.70007918148967E-02 
370	 3.76920542740445E-02 
371	 3.77603712715133E-02 
372	 3.76164499372415E-02 
373	 3.84296360510023E-02 
374	 3.79263317688163E-02 
375	 3.79823127617244E-02 
376	 0.039035594932786 
377	 3.90186966958627E-02 
378	 0.038672107372303 
379	 3.86691272556207E-02 
380	 3.93371344003124E-02 
381	 4.00800155563459E-02 
382	 3.98091651324218E-02 
383	 3.93227570259078E-02 
384	 0.040002912872853 
385	 0.040061635629952 
386	 4.03226737070843E-02 
387	 4.08437103646989E-02 
388	 0.040662169106769 
389	 4.08825291542005E-02 
390	 4.11598311491653E-02 
391	 4.11519026633865E-02 
392	 4.12436117601455E-02 
393	 4.11126511143377E-02 
394	 4.11424410351051E-02 
395	 4.17558932005287E-02 
396	 4.23295015477409E-02 
397	 4.23001569297217E-02 
398	 4.19555150010862E-02 
399	 4.22219102293854E-02 
400	 4.26176952118042E-02 
401	 0.042784171099285 
402	 4.26364027537601E-02 
403	 4.25777977524011E-02 
404	 4.26974989153899E-02 
405	 4.29900332374483E-02 
406	 4.33234988947797E-02 
407	 4.31648239018248E-02 
408	 4.32380885148193E-02 
409	 4.35936592431848E-02 
410	 0.043581245940673 
411	 4.35634424679204E-02 
412	 4.37739187244256E-02 
413	 4.42001212433257E-02 
414	 4.43248298381504E-02 
415	 0.044342606507975 
416	 4.44743279165904E-02 
417	 4.48430064407809E-02 
418	 4.48751283404381E-02 
419	 0.044937304966348 
420	 4.52233514809886E-02 
421	 4.56568287810444E-02 
422	 4.57874946605608E-02 
423	 0.045839337944974 
424	 4.60725698929367E-02 
425	 4.64312858347055E-02 
426	 4.67464252706827E-02 
427	 4.69963693073072E-02 
428	 4.72553544567884E-02 
429	 4.76641195024094E-02 
430	 4.80936635256002E-02 
431	 0.048414643844946 
432	 4.85375532153435E-02 
433	 4.88846934563528E-02 
434	 4.91535868035534E-02 
435	 4.91719523497662E-02 
436	 4.96538395540373E-02 
437	 5.01586369590187E-02 
438	 5.05305586241015E-02 
439	 5.08064577483471E-02 
440	 5.12471580043516E-02 
441	 5.15508823445115E-02 
442	 5.16827637984795E-02 
443	 0.052090537486336 
444	 5.23852989433804E-02 
445	 5.27146452219313E-02 
446	 5.31955547948097E-02 
447	 5.32377528644299E-02 
448	 0.053368955255217 
449	 5.36921114147172E-02 
450	 5.39732919804824E-02 
451	 5.41461040807275E-02 
452	 5.43672768955217E-02 
453	 5.46734466871879E-02 
454	 5.47739744643175E-02 
455	 5.49510072934131E-02 
456	 5.51586954109145E-02 
457	 5.52669145896885E-02 
458	 5.53623445924968E-02 
459	 5.55359044062084E-02 
460	 5.57235314113073E-02 
461	 0.055723983689717 
462	 5.58992219248759E-02 
463	 5.61132712839828E-02 
464	 5.62255417640344E-02 
465	 0.056371162293371 
466	 5.64764026418577E-02 
467	 5.66114104152922E-02 
468	 5.68676500261601E-02 
469	 5.69519087205466E-02 
470	 5.70427892202552E-02 
471	 5.72335908041141E-02 
472	 5.74442112577688E-02 
473	 5.75971313006792E-02 
474	 5.76823001632502E-02 
475	 5.77555554213984E-02 
476	 5.79979222457569E-02 
477	 5.84111168824944E-02 
478	 5.87550515445534E-02 
479	 5.87064237951623E-02 
480	 5.89070107761803E-02 
481	 5.92030766199259E-02 
482	 5.94547567813722E-02 
483	 5.97858229522239E-02 
484	 6.00073956588698E-02 
485	 6.02409582629418E-02 
486	 6.06524620156967E-02 
487	 6.09818252085294E-02 
488	 6.12782830604849E-02 
489	 6.15744113645404E-02 
490	 6.18706734815908E-02 
491	 6.21602758741324E-02 
492	 6.25711645317094E-02 
493	 6.31242881424501E-02 
494	 6.34979231085755E-02 
495	 6.38544882300406E-02 
496	 6.42600418089739E-02 
497	 6.47370355461166E-02 
498	 6.53577396415838E-02 
499	 6.57921510819585E-02 
500	 6.60621606731082E-02 
501	 6.67909500444801E-02 
502	 6.72756153070078E-02 
503	 6.76511067109895E-02 
504	 6.82104740354819E-02 
505	 6.88681971538825E-02 
506	 6.92682856750376E-02 
507	 6.95552768109909E-02 
508	 7.02309536922732E-02 
509	 7.08449242426279E-02 
510	 7.13021831011707E-02 
511	 7.16871602918596E-02 
512	 7.23733537901488E-02 
513	 7.30526448902693E-02 
514	 7.36607437316105E-02 
515	 7.42418010370236E-02 
516	 7.48623611504793E-02 
517	 0.07554362423943 
518	 7.62715857419183E-02 
519	 7.70021935775021E-02 
520	 7.77246969422261E-02 
521	 7.83927617259758E-02 
522	 7.90202837693385E-02 
523	 0.079826774569222 
524	 8.06642908000004E-02 
525	 8.14336385310347E-02 
526	 8.21020749375765E-02 
527	 0.08289326178233 
528	 8.36653201440901E-02 
529	 0.084364939218779 
530	 8.52350255260541E-02 
531	 8.60245020095954E-02 
532	 8.68089836110835E-02 
533	 8.77335690029064E-02 
534	 0.08861505925017 
535	 8.94353340476045E-02 
536	 9.02531400876292E-02 
537	 9.11919408108382E-02 
538	 9.21062692107862E-02 
539	 9.29618300270302E-02 
540	 9.37884506811835E-02 
541	 9.47270419777374E-02 
542	 9.56991227676796E-02 
543	 9.66109762035379E-02 
544	 9.73930908323854E-02 
545	 0.098289265095099 
546	 9.91408319243093E-02 
547	 9.98851818786615E-02 
548	 0.100746446990164 
549	 0.101628945914716 
550	 0.102465083100532 
551	 0.103226277236272 
552	 0.104054652950188 
553	 0.104913519196641 
554	 0.105736809091322 
555	 0.106438100002765 
556	 0.107243428189065 
557	 0.108118285102576 
558	 0.108980318695903 
559	 0.109860125797873 
560	 0.110692035125942 
561	 0.111456495293031 
562	 0.112174521919567 
563	 0.112885043885578 
564	 0.113555927289981 
565	 0.114182036695255 
566	 0.114841123543542 
567	 0.11537066930472 
568	 0.115808547245279 
569	 0.116258030965584 
570	 0.11672783394216 
571	 0.11710064010377 
572	 0.117362057772896 
573	 0.117613831572855 
574	 0.117862137030025 
575	 0.118036158329041 
576	 0.118120423077542 
577	 0.118356308367915 
578	 0.118481292388239 
579	 0.118488863354526 
580	 0.118524768379005 
581	 0.118520318151874 
582	 0.118513058636691 
583	 0.118442320150423 
584	 0.118033357710828 
585	 0.117566548338458 
586	 0.117178790199238 
587	 0.11688652617746 
588	 0.116304346121144 
589	 0.115934482235118 
590	 0.115793126530795 
591	 0.115311475420915 
592	 0.114747994278824 
593	 0.114111728604503 
594	 0.113422858172786 
595	 0.112864410376044 
596	 0.112004574986673 
597	 0.11087439774774 
598	 0.109773758664988 
599	 0.108687319681613 
600	 0.107707745016926 
601	 0.106941475299035 
602	 0.106511057102084 
603	 0.10614116691081 
604	 0.105905141359021 
605	 0.105915266050746 
606	 0.105860261579018 
607	 0.105749642672772 
608	 0.105668205147213 
609	 0.105745579877233 
610	 0.10555981862919 
611	 0.105418482447225 
612	 0.105551319270419 
613	 0.10550734266043 
614	 0.105334179659652 
615	 0.105207504296108 
616	 0.105326175705959 
617	 0.105295906678842 
618	 0.105206830703508 
619	 0.105180111287365 
620	 0.105313429947991 
621	 0.105209197262326 
622	 0.105010402499615 
623	 0.104951322165022 
624	 0.104731506500685 
625	 0.104608522717967 
626	 0.104593252575146 
627	 0.104452497080459 
628	 0.10430810164604 
629	 0.104258507472623 
630	 0.104302840290033 
631	 0.104197271055715 
632	 0.104159017392602 
633	 0.104124292739352 
634	 0.103918011079484 
635	 0.103599203956473 
636	 0.103406442449141 
637	 0.103400478331251 
638	 0.103379208753397 
639	 0.103118957998044 
640	 0.102758334165116 
641	 0.102517472660828 
642	 0.102431167799112 
643	 0.102119389053351 
644	 0.101696992391792 
645	 0.101650030776109 
646	 0.10131469976458 
647	 0.100823951067936 
648	 0.100428686962964 
649	 0.100289513695455 
650	 9.99508319694285E-02 
651	 9.94000662106196E-02 
652	 9.88360919334505E-02 
653	 9.84103911824826E-02 
654	 9.79558971106894E-02 
655	 9.73406774418847E-02 
656	 9.66043301627997E-02 
657	 9.58650934141154E-02 
658	 9.51939299944738E-02 
659	 9.46113081161118E-02 
660	 9.41375067167281E-02 
661	 9.36626089159924E-02 
662	 9.32045131504707E-02 
663	 9.28561566389748E-02 
664	 9.24837914227839E-02 
665	 9.21653202227536E-02 
666	 9.19262136784327E-02 
667	 9.16637665139411E-02 
668	 9.13203020437491E-02 
669	 9.10921558558453E-02 
670	 9.11176275078095E-02 
671	 9.07837709443579E-02 
672	 9.05488268515557E-02 
673	 9.05693957989494E-02 
674	 9.06566003865668E-02 
675	 9.04070027845145E-02 
676	 9.03209340376786E-02 
677	 9.06510699478039E-02 
678	 9.05559863025703E-02 
679	 0.090687860267506 
680	 9.09691328596399E-02 
681	 9.10600970716697E-02 
682	 9.12538481355486E-02 
683	 9.15631944229987E-02 
684	 9.19549863078792E-02 
685	 9.24074678276636E-02 
686	 9.28246362020396E-02 
687	 9.31069092536638E-02 
688	 9.32305389337542E-02 
689	 9.33473163330009E-02 
690	 9.35492098857485E-02 
691	 9.35486175796203E-02 
692	 9.29106138380757E-02 
693	 9.26187281043003E-02 
694	 9.23190197700207E-02 
695	 9.17988942294267E-02 
696	 0.091345565497058 
697	 0.090753668647335 
698	 8.99696482868211E-02 
699	 8.90609111945506E-02 
700	 8.81752877159492E-02 
701	 8.73724934981898E-02 
702	 8.65591230167095E-02 
703	 8.55141588009779E-02 
704	 8.42966962041128E-02 
705	 8.29334923013944E-02 
706	 8.15497872173236E-02 
707	 8.04110003497944E-02 
708	 7.90331793611422E-02 
709	 7.74259570016984E-02 
710	 7.57749867889761E-02 
711	 7.40802321556403E-02 
712	 7.21822204694983E-02 
713	 0.070156606799934 
714	 6.82738099368065E-02 
715	 6.61981065896373E-02 
716	 6.39593650625673E-02 
717	 6.18572804713386E-02 
718	 5.96933427847128E-02 
719	 5.77086932361803E-02 
720	 0.056108914266581 
721	 5.46057555407867E-02 
722	 5.30631191754262E-02 
723	 5.11812195352482E-02 
724	 4.92208773441042E-02 
725	 4.76147782930839E-02 
726	 4.60301017826485E-02 
727	 4.43010393302891E-02 
728	 4.24551078340843E-02 
729	 4.09119822332365E-02 
730	 3.90031026277612E-02 
731	 0.037195614773206 
732	 0.036113441461945 
733	 3.51142774801713E-02 
734	 3.42200497664903E-02 
735	 3.34696343387592E-02 
736	 3.28421223654828E-02 
737	 3.23994826759385E-02 
738	 3.21885683056187E-02 
739	 3.21493933098658E-02 
740	 3.19089097728738E-02 
741	 3.17151472694084E-02 
742	 3.16209704851242E-02 
743	 3.15727435901587E-02 
744	 3.15995526606276E-02 
745	 3.15365443236581E-02 
746	 3.13950618925362E-02 
747	 3.14391434129171E-02 
748	 3.15261656937399E-02 
749	 3.15142262904785E-02 
750	 3.13671266907421E-02 
751	 3.13955694635414E-02 
752	 3.13437749597877E-02 
753	 3.12589266961371E-02 
754	 3.13186258086906E-02 
755	 3.12869938390485E-02 
756	 3.12833200789211E-02 
757	 3.12988804243702E-02 
758	 3.10244098270607E-02 
759	 3.09373462882129E-02 
760	 0.030738609217538 
761	 3.01819439652217E-02 
762	 3.06768680461462E-02 
763	 3.07423155467979E-02 
764	 3.06394020741228E-02 
765	 3.09258662190284E-02 
766	 3.07655292979015E-02 
767	 3.08993385388348E-02 
768	 3.12966009200153E-02 
769	 3.12239656814636E-02 
770	 3.13357988107902E-02 
771	 3.13949771110757E-02 
772	 3.12716565200329E-02 
773	 3.16501919347695E-02 
774	 3.16230868360013E-02 
775	 3.14874154204337E-02 
776	 3.18639195478254E-02 
777	 3.18393750678062E-02 
778	 3.19381529365521E-02 
779	 0.032251339622111 
780	 3.23579150921812E-02 
781	 3.25294104574267E-02 
782	 3.27463191893679E-02 
783	 3.29071722111943E-02 
784	 3.28042930932578E-02 
785	 3.30663555953273E-02 
786	 3.34560288018746E-02 
787	 3.35354394821219E-02 
788	 3.37236920013767E-02 
789	 3.37236516712927E-02 
790	 0.033771336444733 
791	 3.44313475846738E-02 
792	 3.47944156705874E-02 
793	 3.50006177710414E-02 
794	 3.51825556465042E-02 
795	 3.51944365627873E-02 
796	 3.54182941714163E-02 
797	 3.57074254756817E-02 
798	 3.58521356145451E-02 
799	 3.59279664722199E-02 
800	 3.61932079030637E-02 
801	 3.65231226594792E-02 
802	 3.66331828900098E-02 
803	 3.68671285076643E-02 
804	 3.70051397344338E-02 
805	 0.037017219478222 
806	 3.71106305821358E-02 
807	 3.69337095041698E-02 
808	 0.036764950439285 
809	 3.67589366641317E-02 
810	 3.63755638556199E-02 
811	 3.62596063459521E-02 
812	 3.63370681630749E-02 
813	 3.62379828730842E-02 
814	 3.60146963729133E-02 
815	 3.51240433791823E-02 
816	 3.41937072880852E-02 
817	 3.44944287808208E-02 
818	 3.47082941816756E-02 
819	 3.45093005204821E-02 
820	 3.38994926881277E-02 
821	 3.30720194466787E-02 
822	 3.24243027934736E-02 
823	 3.19228838335679E-02 
824	 3.13963458399355E-02 
825	 3.06824359440901E-02 
826	 0.030092856542261 
827	 2.94984467973167E-02 
828	 2.86868725712134E-02 
829	 2.78063300452669E-02 
830	 2.69549194289794E-02 
831	 2.63891467152331E-02 
832	 2.63966627262376E-02 
833	 2.63606760574601E-02 
834	 2.61938134161871E-02 
835	 0.02592507694003 
836	 2.56337652166609E-02 
837	 2.55646213058796E-02 
838	 2.56297742875889E-02 
839	 2.56455091144061E-02 
840	 2.53909676107844E-02 
841	 2.51237063883613E-02 
842	 2.48756563752825E-02 
843	 2.46460089041231E-02 
844	 0.024692429298061 
845	 2.46663744629651E-02 
846	 2.44700642529067E-02 
847	 0.024226849395494 
848	 2.41950923278727E-02 
849	 2.41617107301918E-02 
850	 2.41526931502394E-02 
851	 2.45128203742894E-02 
852	 0.023969766379081 
853	 2.37096675908068E-02 
854	 2.43002650236517E-02 
855	 2.39077950421241E-02 
856	 2.36604535193075E-02 
857	 2.37214317353017E-02 
858	 2.38390721366335E-02 
859	 2.32347276857559E-02 
860	 2.32105045142009E-02 
861	 0.023575303731961 
862	 2.34772858371582E-02 
863	 2.32527691153196E-02 
864	 2.33102037245521E-02 
865	 2.34987195420481E-02 
866	 2.32603853654948E-02 
867	 2.35740694804148E-02 
868	 2.34749404544709E-02 
869	 2.29644326021231E-02 
870	 2.35289996758958E-02 
871	 2.31738638487771E-02 
872	 2.28255083726634E-02 
873	 2.31941910003084E-02 
874	 2.30779808101167E-02 
875	 0.022992170173887 
876	 2.28542272937934E-02 
877	 2.25830390412351E-02 
878	 2.27381992580934E-02 
879	 0.022682161964837 
880	 2.24242602185172E-02 
881	 2.22390381083292E-02 
882	 2.18307632348866E-02 
883	 2.19904035509305E-02 
884	 2.22658670013502E-02 
885	 2.15345341698776E-02 
886	 2.16343584138957E-02 
887	 2.20299479138729E-02 
888	 2.21484547066146E-02 
889	 2.17748004401941E-02 
890	 2.19644972787924E-02 
891	 2.20391209419744E-02 
892	 2.17044365000878E-02 
893	 2.20140009863577E-02 
894	 2.15876064096512E-02 
895	 0.02106584810878 
896	 2.12499551177866E-02 
897	 2.12632966072738E-02 
898	 2.14260071632561E-02 
899	 2.14136421446414E-02 
900	 0.021089119747331 
901	 2.16503550021498E-02 
902	 2.12872800162013E-02 
903	 2.03770732124091E-02 
904	 2.00299261981735E-02 
905	 2.04002506481264E-02 
906	 2.14064685847336E-02 
907	 2.19835142108216E-02 
908	 2.08358072433539E-02 
909	 2.07147542760788E-02 
910	 2.10352967832488E-02 
911	 2.06464532372851E-02 
912	 1.87099244593237E-02 
913	 0.018746238476547 
914	 1.95613065323069E-02 
915	 1.97854240019382E-02 
916	 1.89966130555331E-02 
917	 2.05110139749069E-02 
918	 2.06895394397772E-02 
919	 1.90157042497163E-02 
920	 1.99375362850143E-02 
921	 1.94887164811635E-02 
922	 1.87470544921198E-02 
923	 1.94647789539989E-02 
924	 2.28435084052216E-02 
925	 2.22770074337434E-02 
926	 1.97397231972966E-02 
927	 1.89012345352397E-02 
928	 1.79441627593377E-02 
929	 1.89374738207107E-02 
930	 2.05041269220655E-02 
931	 0.020065438006793 
932	 0.024466398077636 
933	 0.023473790217321 
934	 1.81802944169855E-02 
935	 1.61363798012358E-02 
936	 1.27491271748977E-02 
937	 1.76724651824144E-02 
938	 2.11375978709816E-02 
939	 1.39603865809203E-02 
940	 9.43212534064833E-03 
941	 1.17244843332938E-02 
942	 1.98597674503573E-02 
943	 0.027708209532183 
944	 1.85104960603881E-02 
945	 1.78366729038562E-02 
946	 2.56838864263515E-02 
947	 2.61329888669665E-02 
948	 2.19226801928547E-02 
949	 1.67634221096061E-02 
950	 1.39390942837809E-02 
951	 1.52924602281733E-02 
952	 2.05583868428562E-02 
953	 1.83464528162891E-02 
954	 1.22976538313498E-02 
955	 1.47212166457479E-02 
956	 2.25098878540472E-02 
957	 2.55771901932848E-02 
958	 1.99779489491672E-02 
959	 9.80416322115833E-03 
960	 1.45626272140538E-02 
961	 0.017664615577728 
962	 1.59855663722573E-02 
963	 1.76537933327796E-02 
964	 2.27822033244469E-02 
965	 1.96106648136184E-02 
966	 1.28110035844019E-02 
967	 1.65037886457057E-02 
968	 1.98504246319129E-02 
969	 2.00816596332343E-02 
970	 1.67255029378685E-02 
971	 1.18130040044678E-02 
972	 1.67641629711235E-02 
973	 1.71679835196235E-02 
974	 1.32911384643121E-02 
975	 1.95551484275967E-02 
976	 1.95315510764636E-02 
977	 1.67558646594857E-02 
978	 1.59236913609453E-02 
979	 1.91872076554395E-02 
980	 2.10701696767704E-02 
981	 1.97109037298377E-02 
982	 1.69122421302064E-02 
983	 1.64506934227455E-02 
984	 1.72960664792144E-02 
985	 1.57840023548195E-02 
986	 1.38923583805443E-02 
987	 1.65329228357358E-02 
988	 1.54476116110718E-02 
989	 1.51986305246049E-02 
990	 1.70479504695782E-02 
991	 1.87868530261614E-02 
992	 1.99339842145373E-02 
993	 1.70168635391177E-02 
994	 1.44215060108164E-02 
995	 1.89157987279682E-02 
996	 1.70145451896588E-02 
997	 1.56133239435158E-02 
998	 1.54179117941128E-02 
999	 1.35775733588694E-02 
1000	 1.57259177590529E-02 
1001	 1.80436101727069E-02 
1002	 1.85867579262722E-02 
1003	 1.84893291087411E-02 
1004	 1.77414845264622E-02 
1005	 1.76338485365562E-02 
1006	 1.76606385740269E-02 
1007	 1.72125431791613E-02 
1008	 1.78457752212168E-02 
1009	 1.89213581089473E-02 
1010	 1.92681485976033E-02 
1011	 2.00573516903843E-02 
1012	 2.01062185657213E-02 
1013	 1.94268439994645E-02 
1014	 1.92777683863214E-02 
1015	 1.92465300401179E-02 
1016	 1.88169992901389E-02 
1017	 1.83478297226779E-02 
1018	 1.80459296999652E-02 
1019	 1.71208632418823E-02 
1020	 1.70029804827307E-02 
1021	 1.76949750757025E-02 
1022	 1.79986784191218E-02 
1023	 1.81850629209445E-02 
1024	 1.84159149939379E-02 
1025	 1.82623554295283E-02 
1026	 1.81612415951048E-02 
1027	 0.01792682035005 
1028	 1.75647397242761E-02 
1029	 1.74922653201999E-02 
1030	 1.71584273385009E-02 
1031	 1.73162744095629E-02 
1032	 1.82225051001145E-02 
1033	 1.86112164349494E-02 
1034	 1.91703578847578E-02 
1035	 1.92464788771869E-02 
1036	 1.88297826834045E-02 
1037	 1.85367872608243E-02 
1038	 1.77541388026953E-02 
1039	 1.75148453510609E-02 
1040	 1.74400474080321E-02 
1041	 1.69330470091174E-02 
1042	 1.71053900048187E-02 
1043	 1.77235918628548E-02 
1044	 1.78302500249023E-02 
1045	 1.80860453140757E-02 
1046	 0.018283582367889 
1047	 0.018056802323945 
1048	 1.81639219623196E-02 
1049	 1.89551289470762E-02 
1050	 1.88892327654142E-02 
1051	 1.81771931260533E-02 
1052	 1.78666675715704E-02 
1053	 1.71829671719435E-02 
1054	 1.68110917957912E-02 
1055	 1.67165045968081E-02 
1056	 1.68072806056383E-02 
1057	 1.70543486507247E-02 
1058	 1.74292746250726E-02 
1059	 1.78125510158428E-02 
1060	 1.86463774900811E-02 
1061	 1.88824904770478E-02 
1062	 1.89910724274623E-02 
1063	 0.018744755588031 
1064	 1.81415759125237E-02 
1065	 0.017476132091105 
1066	 1.57156659977024E-02 
1067	 1.54402636033414E-02 
1068	 1.62615028906644E-02 
1069	 1.63544829162783E-02 
1070	 1.70349374488556E-02 
1071	 0.0174488090381 
1072	 1.69830781856445E-02 
1073	 0.016815306508835 
1074	 1.69900234365832E-02 
1075	 1.78938476442536E-02 
1076	 1.78951308093722E-02 
1077	 1.74937796783074E-02 
1078	 1.73578678855403E-02 
1079	 1.66813108058863E-02 
1080	 1.68043565753867E-02 
1081	 1.77823359284168E-02 
1082	 1.82098412410869E-02 
1083	 1.91782410352325E-02 
1084	 1.90525174496128E-02 
1085	 1.74848209679548E-02 
1086	 1.70009187299024E-02 
1087	 0.016505527098875 
1088	 1.61805289971735E-02 
1089	 1.67476317501595E-02 
1090	 1.71619785454058E-02 
1091	 1.69866731685765E-02 
1092	 1.56838839832482E-02 
1093	 1.60182772946959E-02 
1094	 1.71782415417159E-02 
1095	 1.75420448357769E-02 
1096	 1.90511403245386E-02 
1097	 1.91288272795153E-02 
1098	 1.70750050131136E-02 
1099	 1.63534830549402E-02 
1100	 1.56835626750881E-02 
1101	 0.015428450017157 
1102	 1.63030308888593E-02 
1103	 1.66311338879801E-02 
1104	 1.77949309192889E-02 
1105	 1.67671845973985E-02 
1106	 1.57158121182986E-02 
1107	 1.59485184509806E-02 
1108	 1.48107199195156E-02 
1109	 1.45805089907849E-02 
1110	 1.51487606395798E-02 
1111	 1.65792117737455E-02 
1112	 1.69962459261617E-02 
1113	 1.90972801190085E-02 
1114	 1.96736119511951E-02 
1115	 1.73613074197594E-02 
1116	 1.59787153950325E-02 
1117	 1.31612298934542E-02 
1118	 0.012533706712908 
1119	 1.62517271265201E-02 
1120	 1.71365250472259E-02 
1121	 2.22561294528679E-02 
1122	 0.017551821670304 
1123	 8.03423179382346E-03 
1124	 3.58529989798279E-03 
1125	 3.24759689920706E-03 
1126	 1.59348949016691E-02 
1127	 3.15901677808704E-02 
1128	 2.32156055098771E-02 
1129	 1.90944306607941E-02 
1130	 9.57987918026061E-03 
1131	 9.12169353150094E-03 
1132	 8.50266152946289E-03 
1133	 1.21555373196343E-02 
1134	 2.28577503626853E-02 
1135	 2.33701630331588E-02 
1136	 2.12279717678451E-02 
1137	 2.01851651563398E-02 
1138	 1.69280902459115E-02 
1139	 1.27645456599947E-02 
1140	 9.92063275690838E-03 
1141	 1.00074395215666E-02 
1142	 1.26346985134506E-02 
1143	 1.33112930708064E-02 
1144	 1.58712065050456E-02 
1145	 1.83771537373565E-02 
1146	 1.42370573506641E-02 
1147	 1.04667832284924E-02 
1148	 9.78276186618127E-03 
1149	 8.15105016885927E-03 
1150	 8.67314624456658E-03 
1151	 1.37214558146729E-02 
1152	 0.014107392148049 
1153	 1.19044288960716E-02 
1154	 1.19814456848278E-02 
1155	 1.15653732712982E-02 
1156	 1.19506660621738E-02 
1157	 1.48167786988408E-02 
1158	 1.68639829293889E-02 
1159	 1.59263614244988E-02 
1160	 1.50206116438775E-02 
1161	 1.50134647995957E-02 
1162	 1.46400499994279E-02 
1163	 1.43445137574004E-02 
1164	 1.46187321524142E-02 
1165	 1.43872497169935E-02 
1166	 1.37793370036965E-02 
1167	 1.40986032490406E-02 
1168	 1.46452477873943E-02 
1169	 1.45351388712774E-02 
1170	 1.42122865962387E-02 
1171	 1.40806100520886E-02 
1172	 1.42569230439779E-02 
1173	 1.43172655988178E-02 
1174	 1.43423152455194E-02 
1175	 1.39902855385937E-02 
1176	 1.42253043020901E-02 
1177	 1.46450940086277E-02 
1178	 1.48342541120891E-02 
1179	 1.52617388865108E-02 
1180	 1.58369817823458E-02 
1181	 1.54284820293859E-02 
1182	 1.46629302261185E-02 
1183	 1.51376003303494E-02 
1184	 1.54190131057258E-02 
1185	 1.50021634522235E-02 
1186	 1.56963749887851E-02 
1187	 1.58703122814169E-02 
1188	 1.47259197370397E-02 
1189	 1.43775375445622E-02 
1190	 1.42189212579396E-02 
1191	 1.38666707516068E-02 
1192	 1.38498023443733E-02 
1193	 1.45523168171028E-02 
1194	 1.49282612233806E-02 
1195	 1.45650610786277E-02 
1196	 1.45422101936875E-02 
1197	 1.47396848517863E-02 
1198	 1.44712498748083E-02 
1199	 1.42973460969012E-02 
1200	 1.43270516841076E-02 
1201	 1.40133387786265E-02 
1202	 1.42551777950905E-02 
1203	 1.49018216150652E-02 
1204	 1.48672066489926E-02 
1205	 1.46072774379747E-02 
1206	 1.42961147504661E-02 
1207	 1.37851150555892E-02 
1208	 1.40077433681402E-02 
1209	 1.48722285865597E-02 
1210	 1.46346812444706E-02 
1211	 1.39914256361197E-02 
1212	 1.41286437068999E-02 
1213	 1.41428456584813E-02 
1214	 1.41430329186942E-02 
1215	 1.46040809296274E-02 
1216	 1.55812867268316E-02 
1217	 1.54629860835036E-02 
1218	 1.47147515996825E-02 
1219	 1.48298631898729E-02 
1220	 1.50659527838684E-02 
1221	 1.48591270519783E-02 
1222	 1.49219844579715E-02 
1223	 1.46919984953772E-02 
1224	 1.42865341437475E-02 
1225	 1.44354279851367E-02 
1226	 1.44608160006596E-02 
1227	 1.40365292728427E-02 
1228	 1.40593800826947E-02 
1229	 1.43583687051244E-02 
1230	 0.014377520825259 
1231	 1.46934062390493E-02 
1232	 1.48471148821188E-02 
1233	 1.46258054805194E-02 
1234	 1.48415476739331E-02 
1235	 1.48420352409908E-02 
1236	 1.46388784453528E-02 
1237	 1.46032453277793E-02 
1238	 1.45554871635168E-02 
1239	 1.47499671489234E-02 
1240	 1.48930067049346E-02 
1241	 1.48092883997993E-02 
1242	 1.47160112873895E-02 
1243	 1.47880729119185E-02 
1244	 1.48785833987254E-02 
1245	 1.48747753262171E-02 
1246	 0.014864048947607 
1247	 1.50503371864319E-02 
1248	 1.49196001499951E-02 
1249	 0.014786153000056 
1250	 1.56590584219207E-02 
1251	 1.57516399712488E-02 
1252	 1.48554525132936E-02 
1253	 0.015214195000972 
1254	 1.53099416669519E-02 
1255	 1.45001004505316E-02 
1256	 1.42638284147686E-02 
1257	 1.45130575631655E-02 
1258	 1.46327973753903E-02 
1259	 0.014954283148958 
1260	 1.47635983658671E-02 
1261	 1.41484613590277E-02 
1262	 1.41893351663631E-02 
1263	 1.41461883576995E-02 
1264	 1.41787374898637E-02 
1265	 1.49556200347195E-02 
1266	 1.56921496323546E-02 
1267	 1.51110986494433E-02 
1268	 1.44154366518859E-02 
1269	 1.49103455649847E-02 
1270	 1.48700150766051E-02 
1271	 1.40155430311065E-02 
1272	 1.41186453481209E-02 
1273	 1.43949428203715E-02 
1274	 1.38634831437115E-02 
1275	 1.35073050179754E-02 
1276	 1.42092619208389E-02 
1277	 1.48172353366694E-02 
1278	 0.014244768137363 
1279	 1.43262117965209E-02 
1280	 1.51142317099483E-02 
1281	 1.52117177900104E-02 
1282	 1.46164954472364E-02 
1283	 0.014563639054487 
1284	 1.46144048263799E-02 
1285	 1.45511007229474E-02 
1286	 1.44763229324217E-02 
1287	 1.45084756138856E-02 
1288	 1.47230302078684E-02 
1289	 1.47612649060567E-02 
1290	 1.46434966543754E-02 
1291	 1.47194352972197E-02 
1292	 1.47855857474898E-02 
1293	 1.43542654563289E-02 
1294	 1.41686433755728E-02 
1295	 1.42599947610463E-02 
1296	 1.37534340227983E-02 
1297	 0.013486604137279 
1298	 1.35376977001706E-02 
1299	 1.35140787163255E-02 
1300	 1.44384747897502E-02 
1301	 1.49031637296477E-02 
1302	 1.42221733352029E-02 
1303	 1.38562946390493E-02 
1304	 1.35535202205533E-02 
1305	 1.37022870121672E-02 
1306	 1.35651601261431E-02 
1307	 1.34367201259869E-02 
1308	 1.36575674001195E-02 
1309	 1.39601342454145E-02 
1310	 0.014055085391676 
1311	 1.49626769201975E-02 
1312	 1.51251597758109E-02 
1313	 1.40769814632573E-02 
1314	 0.013902511005141 
1315	 1.41075893359982E-02 
1316	 1.40250480786126E-02 
1317	 1.42844576841637E-02 
1318	 0.014206908450156 
1319	 1.33654649641903E-02 
1320	 1.33018976115333E-02 
1321	 1.38103183032844E-02 
1322	 1.39068290703867E-02 
1323	 1.40865051167167E-02 
1324	 1.45797621006646E-02 
1325	 1.46265778950986E-02 
1326	 1.34168529882702E-02 
1327	 1.27148965093451E-02 
1328	 1.27987977140018E-02 
1329	 1.16415033698645E-02 
1330	 1.16850551383325E-02 
1331	 1.34143121538078E-02 
1332	 1.36017019964933E-02 
1333	 1.34716832330808E-02 
1334	 1.31112160769224E-02 
1335	 1.28235537388321E-02 
1336	 1.08147632864186E-02 
1337	 1.09535571299067E-02 
1338	 1.34045077616532E-02 
1339	 1.37149585395459E-02 
1340	 1.30114371660143E-02 
1341	 1.21074738175883E-02 
1342	 1.01855165141876E-02 
1343	 9.01587060767954E-03 
1344	 7.74327083532134E-03 
1345	 7.00681932094354E-03 
1346	 6.1318808334874E-03 
1347	 5.37646549601399E-03 
1348	 6.04107812821626E-03 
1349	 7.58236336451072E-03 
1350	 0.011251265770749 
1351	 1.72107754809074E-02 
1352	 0.035924576748153 
1353	 5.53081249207302E-02 
1354	 0.084546202641923 
1355	 7.86231146783177E-02 
1356	 7.03479265756053E-02 
1357	 8.74796726093564E-02 
1358	 0.106032863729876 
1359	 0.142331839877712 
1360	 0.236939956914724 
1361	 0.354879473520153 
1362	 0.267115016939877 
1363	 0.19208416579652 
1364	 0.275761461270455 
1365	 0.226611842829442 
1366	 0.100399232308829 
1367	 0.220836885752631 
1368	 0.272368624610797 
1369	 0.23628637991262 
1370	 0.138347768963671 
1371	-1.18811438360841E-02 
1372	 0.134775461597508 
1373	 0.410405020641443 
1374	 0.43445157197567 
1375	 0.421379946080707 
1376	 0.515863216647583 
1377	 0.839816851379481 
1378	 0.649867663303725 
1379	 0.255149874844109 
1380	 0.422319190380828 
1381	 1.0744307043835 
1382	 0.775729160058728 
1383	-6.84818087369824E-02 
1384	 0.272304857622153 
1385	-9.43381868092053 
1386	-4.09427921250574 
1387	 0.119547171722414 
1388	-1.19985683915638 
1389	 15.3847914526968 
1390	 0.617967831305985 
1391	 1.13171486249055E-02 
1392	 0.902258255721386 
1393	 4.58668452854001 
1394	 0.328617832624288 
1395	-1.38350232569657 
1396	 9.35057454050888E-02 
1397	 9.27965880803766E-02 
1398	 3.85399427851774 
1399	 1.02687409337252 
1400	 2.04907559915791 
1401	 0.623099207875172 
1402	 0.531553971821688 
1403	 0.67065128255128 
1404	 0.849716828877764 
1405	 1.24533758241905 
1406	 1.95789515130352 
1407	 1.669432892627 
1408	 1.65594159692097 
1409	 0.72518892869398 
1410	 0.452044835123527 
1411	 0.273719196116861 
1412	 0.172024585743846 
1413	 0.16549525133242 
1414	 5.53435604943989E-02 
1415	-2.31336557110522E-02 
1416	 3.41648875951326E-02 
1417	 4.01114445937514E-02 
1418	-7.62923807825734E-03 
1419	-3.18407218059847E-02 
1420	-2.97246349994006E-02 
1421	-0.012360242470518 
1422	-2.48317969776224E-02 
1423	-1.58768541577824E-02 
1424	 6.40435831496991E-02 
1425	 0.053411243658095 
1426	-4.60298291105851E-02 
1427	-0.039395446387605 
1428	 1.90852290879615E-02 
1429	 7.45921672996064E-03 
1430	-6.71884278654918E-03 
1431	 5.07054666327449E-03 
1432	-1.41075836232021E-02 
1433	-2.71331562075658E-02 
1434	 9.3957117707091E-03 
1435	 2.59522515114959E-02 
1436	 1.68043951669005E-02 
1437	-1.14174110134506E-02 
1438	-2.20396444363933E-02 
1439	-1.53154425157967E-02 
1440	-1.13870203771846E-02 
1441	-2.08515247194879E-02 
1442	-1.72767486298586E-02 
1443	-7.27839387921084E-06 
1444	 3.06074565657657E-03 
1445	 7.50689823404948E-03 
1446	 0.012275209316114 
1447	 1.13664932265151E-02 
1448	 1.74003603542364E-02 
1449	 1.50456783714748E-02 
1450	 5.52127132413914E-03 
1451	 7.26345856389253E-03 
1452	 6.86507100891363E-03 
1453	 4.32249251266865E-03 
1454	 5.71377453597011E-03 
1455	 1.18023112048614E-02 
1456	 1.27580007321218E-02 
1457	 1.28792713600241E-02 
1458	 1.01886951638586E-02 
1459	 3.02110375585016E-03 
1460	 5.29296022595274E-03 
1461	 0.013130281737005 
1462	 1.16124165740079E-02 
1463	 8.24399156659176E-03 
1464	 1.09024251839077E-02 
1465	 1.13049981641264E-02 
1466	 8.37850908562175E-03 
1467	 1.00549374557181E-02 
1468	 1.31545508400438E-02 
1469	 1.03806503455029E-02 
1470	 6.60567550854159E-03 
1471	 9.54651903738042E-03 
1472	 0.01186007544094 
1473	 6.42959299914239E-03 
1474	 3.25667353177916E-03 
1475	 5.35653903126828E-03 
1476	 8.94887842595997E-03 
1477	 1.10477538762819E-02 
1478	 1.03771043465737E-02 
1479	 0.014121384833358 
1480	 1.40853415712963E-02 
1481	 6.13156464315385E-03 
1482	 4.50864705027466E-03 
1483	 7.89426192175629E-03 
1484	 7.39728305395459E-03 
1485	 4.93098533840162E-03 
1486	 5.36376295909293E-03 
1487	 6.16663790457465E-03 
1488	 6.58915022344193E-03 
1489	 8.79535923093504E-03 
1490	 9.20141121797653E-03 
1491	 7.70727060493766E-03 
1492	 7.45680486150632E-03 
1493	 8.0845343308851E-03 
1494	 8.09405559164506E-03 
1495	 7.72414155770712E-03 
1496	 7.73268238247894E-03 
1497	 7.30679895374913E-03 
1498	 7.38000906132832E-03 
1499	 8.80106007034432E-03 
1500	 8.91524217238184E-03 
1501	 7.94528297508055E-03 
1502	 7.83280288368677E-03 
1503	 7.51972597143671E-03 
1504	 7.41113679742123E-03 
1505	 8.12684172778198E-03 
1506	 8.44846876555696E-03 
1507	 8.01099507514301E-03 
1508	 7.7995933495671E-03 
1509	 8.24672132729955E-03 
1510	 8.72234252774881E-03 
1511	 8.65700415831969E-03 
1512	 8.82233266378739E-03 
1513	 8.90250731416428E-03 
1514	 8.35299140229593E-03 
1515	 8.32419789122872E-03 
1516	 8.53906856002817E-03 
1517	 8.26681003834196E-03 
1518	 8.28437727380787E-03 
1519	 8.5005242682789E-03 
1520	 8.2406743643661E-03 
1521	 7.73218177263117E-03 
1522	 7.72017271639053E-03 
1523	 7.9402141038195E-03 
1524	 7.67294990185306E-03 
1525	 8.07596982634229E-03 
1526	 9.03490462016365E-03 
1527	 8.98608907941896E-03 
1528	 8.54550594472215E-03 
1529	 8.19129834568506E-03 
1530	 7.93451116595353E-03 
1531	 8.40216953761873E-03 
1532	 8.96578668116704E-03 
1533	 9.23787688900602E-03 
1534	 9.32424638333698E-03 
1535	 0.009087625606899 
1536	 9.32896681858839E-03 
1537	 9.57192979024795E-03 
1538	 9.03233207393349E-03 
1539	 8.53699852634506E-03 
1540	 8.63273757324917E-03 
1541	 9.07156471020357E-03 
1542	 9.19626890730174E-03 
1543	 9.01170999433028E-03 
1544	 9.28658884942334E-03 
1545	 9.73917188562777E-03 
1546	 9.74798815823497E-03 
1547	 9.50085364694573E-03 
1548	 9.46174416751777E-03 
1549	 9.83581580401398E-03 
1550	 9.67805845713104E-03 
1551	 9.6156234943515E-03 
1552	 1.00072609436753E-02 
1553	 9.57120571965176E-03 
1554	 9.35561655662568E-03 
1555	 9.25546790471125E-03 
1556	 9.08102645723892E-03 
1557	 9.59122146935858E-03 
1558	 9.70178288543795E-03 
1559	 9.45056779289694E-03 
1560	 9.72333156618134E-03 
1561	 1.03235148638689E-02 
1562	 1.03895878932044E-02 
1563	 9.95845565358651E-03 
1564	 9.84658980001879E-03 
1565	 9.8661763496062E-03 
1566	 9.47934532527985E-03 
1567	 9.33977718041238E-03 
1568	 9.96181538639856E-03 
1569	 1.01384022184934E-02 
1570	 9.46523286812217E-03 
1571	 9.27426616771571E-03 
1572	 0.009520017895179 
1573	 9.46149159511647E-03 
1574	 9.63109863038484E-03 
1575	 1.00262917864091E-02 
1576	 9.82742450083276E-03 
1577	 9.58114422672623E-03 
1578	 9.98658388897788E-03 
1579	 9.87952919291467E-03 
1580	 9.34081694777835E-03 
1581	 9.06283914629424E-03 
1582	 8.96221104936949E-03 
1583	 9.49338949015275E-03 
1584	 1.01207709538103E-02 
1585	 1.06447400849922E-02 
1586	 1.04085053521643E-02 
1587	 9.3111062391904E-03 
1588	 9.56987943379954E-03 
1589	 1.02223302574152E-02 
1590	 9.66484844632072E-03 
1591	 9.63005059911987E-03 
1592	 9.97500802441081E-03 
1593	 9.48319445650657E-03 
1594	 0.009456846968065 
1595	 1.01325055383948E-02 
1596	 1.03424654592611E-02 
1597	 9.95527782505345E-03 
1598	 9.38463131900038E-03 
1599	 9.46468953996635E-03 
1600	 9.86602261226734E-03 
1601	 9.76906422903084E-03 
1602	 1.00640151583772E-02 
1603	 1.01146556653718E-02 
1604	 9.3578048105579E-03 
1605	 9.61084261942236E-03 
1606	 1.00654490982883E-02 
1607	 1.00965022863337E-02 
1608	 1.03797091101413E-02 
1609	 1.00164607282277E-02 
1610	 9.71095002500194E-03 
1611	 1.02362415793835E-02 
1612	 1.05337617706321E-02 
1613	 9.98901586291387E-03 
1614	 9.90502836408411E-03 
1615	 1.04421933766632E-02 
1616	 9.57613347036716E-03 
1617	 9.03995731680602E-03 
1618	 0.010336758678742 
1619	 1.03540131986932E-02 
1620	 9.62181928561267E-03 
1621	 1.07749912256527E-02 
1622	 0.011543069412519 
1623	 1.06448492376221E-02 
1624	 1.04723355513437E-02 
1625	 1.05628124343575E-02 
1626	 9.71292752065102E-03 
1627	 9.35252111557326E-03 
1628	 9.85719566340301E-03 
1629	 1.01308450808393E-02 
1630	 0.010069523153036 
1631	 1.03787351502127E-02 
1632	 0.01034417292205 
1633	 1.01178027986771E-02 
1634	 0.010317301111386 
1635	 9.81282091798022E-03 
1636	 9.7815482916528E-03 
1637	 1.07991298021696E-02 
1638	 1.06073345818462E-02 
1639	 1.02704787011017E-02 
1640	 1.07489649026228E-02 
1641	 0.010265536371339 
1642	 9.7965996778739E-03 
1643	 9.97762082087263E-03 
1644	 9.93589702093889E-03 
1645	 1.00900243070651E-02 
1646	 1.05881153371964E-02 
1647	 1.12789942805351E-02 
1648	 1.16423610711777E-02 
1649	 1.13450826043327E-02 
1650	 1.03912257883302E-02 
1651	 9.69677240938536E-03 
1652	 1.00924370249322E-02 
1653	 1.04485786692381E-02 
1654	 1.04698012843991E-02 
1655	 1.00047211435613E-02 
1656	 9.90136855913982E-03 
1657	 1.00788675761509E-02 
1658	 1.02918348812985E-02 
1659	 1.07186372051032E-02 
1660	 1.07007415668897E-02 
1661	 1.07178511037954E-02 
1662	 1.08238951994641E-02 
1663	 1.04121092019491E-02 
1664	 1.04045620408553E-02 
1665	 1.06675592311462E-02 
1666	 1.03881502944577E-02 
1667	 1.01130322563845E-02 
1668	 1.13681284293033E-02 
1669	 1.11823510910953E-02 
1670	 1.07714902418323E-02 
1671	 1.06266422221774E-02 
1672	 9.80430039548248E-03 
1673	 9.74147998052833E-03 
1674	 1.08981815932411E-02 
1675	 1.11626953860557E-02 
1676	 1.05101937466629E-02 
1677	 1.03817343918314E-02 
1678	 1.01131731397884E-02 
1679	 9.62101575320539E-03 
1680	 1.02188612529282E-02 
1681	 1.04743157721283E-02 
1682	 9.80848500403601E-03 
1683	 9.89370685993354E-03 
1684	 0.010308692087206 
1685	 1.03175361586229E-02 
1686	 0.010223314028111 
1687	 1.02228805630316E-02 
1688	 9.77852003184034E-03 
1689	 9.25229623888236E-03 
1690	 1.00501417202868E-02 
1691	 1.07727824447275E-02 
1692	 1.02937979570039E-02 
1693	 1.02383006102364E-02 
1694	 1.06683857633231E-02 
1695	 1.08621928341159E-02 
1696	 1.10316952481386E-02 
1697	 1.05146210984524E-02 
1698	 9.24022977416164E-03 
1699	 8.70916556586174E-03 
1700	 8.86791947862058E-03 
1701	 9.16955309698577E-03 
1702	 9.79088479651897E-03 
1703	 9.49842169829072E-03 
1704	 8.95131063476704E-03 
1705	 9.49664796293127E-03 
1706	 0.009648745061889 
1707	 9.90534074663136E-03 
1708	 1.08143335351404E-02 
1709	 1.07800287689831E-02 
1710	 0.010202321239837 
1711	 9.48076329501237E-03 
1712	 8.73374357401887E-03 
1713	 1.00393785877862E-02 
1714	 1.02021976160407E-02 
1715	 9.92735413697992E-03 
1716	 8.88038508764612E-03 
1717	 8.03483715340955E-03 
1718	 8.28901524402512E-03 
1719	 9.49423851262322E-03 
1720	 9.70914465874793E-03 
1721	 9.37461079398102E-03 
1722	 9.37537674310199E-03 
1723	 9.00717739854829E-03 
1724	 9.10800563909586E-03 
1725	 9.52425821289888E-03 
1726	 9.20572884832187E-03 
1727	 9.1918924028872E-03 
1728	 9.33170587251629E-03 
1729	 9.74239166494948E-03 
1730	 1.03055078196449E-02 
1731	 9.9684509596035E-03 
1732	 9.70338771619594E-03 
1733	 9.49261945919769E-03 
1734	 9.17207117896648E-03 
1735	 9.94640692482942E-03 
1736	 1.13069106110222E-02 
1737	 1.12748162267461E-02 
1738	 9.43291176297865E-03 
1739	 7.49874150370205E-03 
1740	 6.63601513477497E-03 
1741	 7.37107791042909E-03 
1742	 8.76461761247371E-03 
1743	 9.12130220258153E-03 
1744	 8.54002593683545E-03 
1745	 8.02105818593839E-03 
1746	 1.05007140250148E-02 
1747	 1.10130180219834E-02 
1748	 1.05494086747061E-02 
1749	 1.08005931651479E-02 
1750	 1.03347968724528E-02 
1751	 9.70805877867842E-03 
1752	 9.51170032155529E-03 
1753	 9.62299005048822E-03 
1754	 9.31431835613636E-03 
1755	 8.65245560451237E-03 
1756	 8.23461817840318E-03 
1757	 8.46149793573758E-03 
1758	 8.95851595339163E-03 
1759	 9.86704925677367E-03 
1760	 1.12707388154739E-02 
1761	 1.13349804005169E-02 
1762	 1.03024688910058E-02 
1763	 1.03243559464641E-02 
1764	 9.58089118224413E-03 
1765	 9.01088793206759E-03 
1766	 1.01044045403445E-02 
1767	 0.00896009900038 
1768	 8.64424027183955E-03 
1769	 8.80787161839272E-03 
1770	 6.24594047102305E-03 
1771	 7.20577868650892E-03 
1772	 9.39847784674099E-03 
1773	 9.94614921538841E-03 
1774	 1.06620949539526E-02 
1775	 5.66655091974056E-03 
1776	 4.30137253986901E-03 
1777	 3.38238596884004E-03 
1778	 2.04446019788192E-03 
1779	 3.83042512331698E-03 
1780	 4.88660076639671E-03 
1781	 4.44216409698144E-03 
1782	 4.02988103377083E-03 
1783	 5.10064730332334E-03 
1784	 5.55158519629006E-03 
1785	 3.32177274400483E-03 
1786	 3.74834365658226E-03 
1787	 7.26739785391384E-03 
1788	 8.91640000010659E-03 
1789	 1.13610377475457E-02 
1790	 9.6129401178795E-03 
1791	 4.9819714327739E-03 
1792	 3.98715692197669E-03 
1793	 0.004552076374251 
1794	 1.18351245228434E-02 
1795	 1.58362863190611E-02 
1796	 4.69830860222774E-03 
1797	 4.54112118875157E-03 
1798	 6.59092001612376E-03 
1799	 5.81923805473462E-03 
1800	 2.55491240737953E-03 
1801	 8.11512328736348E-03 
1802	 2.42913860830837E-02 
1803	 0.026311048652956 
1804	 4.16523461017352E-02 
1805	 4.60012495615834E-02 
1806	-2.21827809292866E-02 
1807	-6.29200454471765E-02 
1808	-7.47223565909415E-02 
1809	-8.18008083822128E-02 
1810	-4.66001779266519E-02 
1811	-2.46494164952707E-02 
1812	 9.13743224546857E-02 
1813	 0.035787680091664 
1814	-0.343699525540433 
1815	-0.445463599041437 
1816	-0.477507365888961 
1817	-0.344606882852115 
1818	 0.203512129138199 
1819	 0.490002991025704 
1820	 0.278976592117499 
1821	-0.490484602318562 
1822	-0.674663096072648 
1823	-0.041489327947126 
1824	-5.96017485209338E-02 
1825	 0.379464323726637 
1826	 0.356985975817923 
1827	-3.73816457945689 
1828	-4.89793506840862 
1829	-3.87790397471242E-02 
1830	-0.111179647632621 
1831	 1.09033964425444 
1832	 1.57164798301406 
1833	 6.19584496411245 
1834	 16.5826236408577 
1835	-9.30846117465186 
1836	 96.5685373012728 
1837	 0.859857420697285 
1838	 0.532336616011794 
1839	 0.339060243548903 
1840	 0.101619027447828 
1841	 1.16202814494509 
1842	 1.41523993876648 
1843	 1.14738644673135 
1844	 0.121794870922418 
1845	 0.234840122188391 
1846	 0.655891345088498 
1847	 0.857748542538409 
1848	 2.40032825794554 
1849	 2.41530423940462 
1850	 1.73735579986769 
1851	 0.177589347184972 
1852	-3.00412455281128 
1853	-0.309746253812459 
1854	-0.278888020088073 
1855	-0.661314649494929 
1856	-0.554209293535349 
1857	 0.616066086735508 
1858	 0.608864820008972 
1859	-0.977316773512031 
1860	-1.36308964734215 
1861	-2.10716516464843 
1862	-9.35411985918127 
1863	 2.68776574871337 
1864	 3.57668349953303 
1865	 2.88061205654629 
1866	 4.74445828998368 
1867	 4.18024698064632 
1868	 5.43326664694557 
1869	 67.0259673910503 
1870	-0.42953204625691 
1871	-0.248917656207148 
1872	 2.93164989260078E-02 
1873	 1.85167201075574 
1874	-91.7020957702976 
1875	-7.71288647529018 
1876	-6.53095764760573 
1877	-58.9748104638695 
1878	 8.30290071943229 
1879	 1.85987644110536 
1880	 1.2082325553204 
1881	 1.01317538439746 
1882	 1.61978222217933 
1883	-1.45312565891092 
1884	-0.13586564343272 
1885	-0.14933414237287 
1886	-0.332176965565423 
1887	 29.5841128061579 
1888	 4.79863261561239 
1889	 3.19386771966265 
1890	 2.70692745311863 
1891	 3.03098857976769 
1892	-5.40511039086282 
1893	-15.4306408300531 
1894	 2.85647559992587 
1895	 4.30336975583105 
1896	-57.1785955144081 
1897	-2.10250843099976 
1898	-16.2375618711657 
1899	 4.67698971375674 
1900	 12.6087443518248 
1901	 6.17815822233879 
1902	 10.936552099895 
1903	-0.59803579153065 
1904	-0.458108360944627 
1905	-0.61321553918744 
1906	-0.488511113331652 
1907	-0.456348046820013 
1908	-1.05126044780811 
1909	-1.05824520434306 
1910	 0.354283692676593 
1911	 1.06457086514538 
1912	 1.58370276244861 
1913	 2.73820188454961 
1914	-1.15165351807098 
1915	-0.98826623353565 
1916	-3.49722560898683 
1917	 3.26265934920212 
1918	 1.92674972126217 
1919	 1.21380315310902 
1920	-5.63891397268476 
1921	 9.90780032501555 
1922	-8.53403554207472 
1923	 14.9873346151387 
1924	 8.56179354892693 
1925	 2.5761848634431 
1926	 2.33920742355328 
1927	 0.898677948784307 
1928	 5.76589866407118 
1929	-0.830787816073941 
1930	-0.697781987035226 
1931	-1.52572735043641 
1932	-2.88024320994499 
1933	 9.40334619077202 
1934	-2.41265993986398 
1935	-0.339625490962269 
1936	-5.90677862767099E-02 
1937	 9.53797084008223E-02 
1938	 5.44477225729619E-02 
1939	 3.38944973330597E-02 
1940	-9.10883186986654E-02 
1941	-9.95879359047789E-02 
1942	-4.06343304737933E-02 
1943	-2.40119962027492E-02 
1944	-0.136540255552192 
1945	-0.202328352727556 
1946	-0.226303449500508 
1947	-0.251844463731956 
1948	-0.183992261021787 
1949	-0.142125647962366 
1950	-0.14906340072677 
1951	-9.42982387172709E-02 
1952	-3.83282170114471E-02 
1953	 5.78118538952783E-02 
1954	 8.69284414941365E-02 
1955	 0.060130305066564 
1956	 5.39910939428323E-02 
1957	 1.70565463988645E-02 
1958	-3.46356567922271E-03 
1959	 2.40395315422862E-02 
1960	 1.20110470179786E-02 
1961	-1.02704267514821E-02 
1962	-6.63907908824568E-03 
1963	-8.4479579461915E-03 
1964	-1.07766277235448E-02 
1965	-1.43757502109947E-03 
1966	 2.01375714341204E-03 
1967	 3.53237322970375E-03 
1968	 2.43935525740434E-03 
1969	 6.12293857752418E-03 
1970	 7.88951416197505E-03 
1971	 9.0249866337084E-03 
1972	 7.3505592795707E-03 
1973	 1.71515017442304E-03 
1974	-2.90085240063529E-03 
1975	-7.16830599331849E-03 
1976	-4.6824226621158E-03 
1977	 2.82629013717229E-03 
1978	 5.12918867557612E-03 
1979	 5.29330456478855E-03 
1980	 4.85766046636766E-03 
1981	 2.24153782021318E-03 
1982	-6.34454433583131E-04 
1983	-7.09490973447396E-04 
1984	-8.47910756399593E-04 
1985	-9.46262100622451E-04 
1986	 2.65393295838382E-04 
1987	 8.82015040843875E-04 
1988	 5.29435934851151E-04 
1989	 2.24886009544806E-03 
1990	 3.80983048326196E-03 
1991	 1.52009948498853E-03 
1992	 8.08831813368596E-04 
1993	 3.0109780463835E-03 
1994	 3.89871072761697E-03 
1995	 1.65844096466184E-03 
1996	 4.65969368259172E-03 
1997	 8.70875006539935E-03 
1998	 5.52280230431698E-03 
1999	 6.00619077691431E-03 
2000	 5.38050069775504E-03 
2001	-2.32766141398675E-03 
2002	-0.008362351897819 
2003	-8.4766200911419E-03 
2004	-1.41622551376774E-02 
2005	-1.97956414881961E-02 
2006	-8.51002769256633E-03 
2007	-6.08775399500206E-03 
2008	-6.61089131406778E-03 
2009	-6.97009107245292E-03 
2010	-1.13223528963659E-02 
2011	-1.33015406237441E-02 
2012	-1.50272745836602E-02 
2013	-1.05425040358166E-02 
2014	-1.44952872433699E-02 
2015	-8.86705342216525E-03 
2016	-8.1610801861274E-03 
2017	-2.00124760725438E-02 
2018	-2.04001491295261E-02 
2019	-9.61029147202438E-03 
2020	-5.35591917661614E-03 
2021	-4.09145409761089E-04 
2022	 6.45874608354804E-03 
2023	 5.72604345915967E-03 
2024	 5.31080360075153E-03 
2025	 4.77820751356299E-03 
2026	 4.57300219342686E-03 
2027	 2.83935151338792E-03 
2028	 2.23984855314172E-03 
2029	 3.03463660882192E-03 
2030	 4.81624711207235E-03 
2031	 2.79952356533724E-03 
2032	-1.56632150528812E-03 
2033	-2.48043870680091E-03 
2034	-2.71825208141442E-03 
2035	-1.32423060530375E-03 
2036	 1.96318140734174E-03 
2037	 2.45790108172485E-03 
2038	 2.45297811214122E-03 
2039	 1.65147365097574E-03 
2040	-1.13368049121042E-03 
2041	-1.57872096777613E-03 
2042	-1.08781404320024E-03 
2043	-1.26912970471775E-03 
2044	 2.90094466829565E-04 
2045	-1.63224594671489E-03 
2046	-2.81233973908665E-03 
2047	-4.0277689493065E-03 
2048	-5.29439524935069E-03 
2049	-9.19257850753252E-04 
2050	 1.54249650589585E-03 
2051	 1.08018826509087E-03 
2052	 1.32798806464255E-03 
2053	 7.47817862145993E-04 
2054	 1.38606781490851E-03 
2055	 3.03849280621847E-03 
2056	 4.23534544469898E-03 
2057	 6.57332793245345E-03 
2058	 7.27502087945086E-03 
2059	 5.42838478163657E-03 
2060	 4.67821703413955E-03 
2061	 4.41623821013491E-03 
2062	 1.97177559303631E-03 
2063	 3.13283125560481E-04 
2064	 2.45566499199731E-03 
2065	-5.81751479087651E-04 
2066	-3.61487629058123E-03 
2067	-4.44481250393495E-03 
2068	-5.33322349907547E-03 
2069	-2.29121502159607E-03 
2070	 1.87947734888332E-04 
2071	 7.4574335443766E-05 
2072	 1.09143669470824E-03 
2073	 1.34658270615734E-03 
2074	 4.13448779669974E-04 
2075	 1.41723314516126E-06 
2076	-3.27980034176888E-04 
2077	-5.68208172576598E-04 
2078	-2.04739662257813E-04 
2079	 2.37963549589106E-04 
2080	 9.91599245853624E-04 
2081	 4.46784684563283E-04 
2082	 7.4461805776221E-04 
2083	 3.56056561913874E-04 
2084	 1.32146907120355E-03 
2085	 1.69830258842335E-03 
2086	 1.08827538294125E-03 
2087	 4.36357442802201E-04 
2088	-1.18721293816175E-03 
2089	-2.86436421998165E-03 
2090	-3.96195529707236E-03 
2091	-2.53053665172843E-03 
2092	-4.9836486076083E-04 
2093	 3.40535995929625E-03 
2094	 5.53698671716426E-03 
2095	 8.57493882633626E-03 
2096	 9.65570626071209E-03 
2097	 8.4978106991361E-03 
2098	 8.54095244844524E-03 
2099	 9.1771301414799E-03 
2100	 8.41570375632761E-03 
2101	 7.70124140039296E-03 
2102	 7.2563303413274E-03 
2103	 5.84774750458342E-03 
2104	 6.02879330348018E-03 
2105	 5.71191118749451E-03 
2106	 1.21324172037523E-03 
2107	-6.64071628515364E-04 
2108	-1.23291508096167E-03 
2109	-2.10263242073692E-03 
2110	 3.04433694588685E-03 
2111	 4.66291848772301E-03 
2112	 3.37717474621429E-03 
2113	 4.02415026639222E-03 
2114	 3.97669502084675E-03 
2115	 4.09596893358399E-03 
2116	 5.78745047972233E-03 
2117	 6.52084337698657E-03 
2118	 7.26161937356876E-03 
2119	 6.27302337970036E-03 
2120	 4.21494874783241E-03 
2121	 2.10957301749677E-03 
2122	-6.02946499129059E-04 
2123	-3.19708167680374E-03 
2124	-4.22948802567855E-03 
2125	-2.54562370200017E-03 
2126	-4.0064741693412E-04 
2127	 6.06543083302027E-04 
2128	 2.28037083274812E-03 
2129	 3.96892576670441E-03 
2130	 4.86676886130353E-03 
2131	 4.38265154178761E-03 
2132	 2.43479271330914E-03 
2133	 1.21267533453841E-03 
2134	 2.87234992204636E-04 
2135	-1.44205569140754E-03 
2136	-1.59892268787286E-03 
2137	-2.5349857958883E-04 
2138	 2.47445804278405E-04 
2139	 9.08349666125534E-04 
2140	 2.00940583483097E-03 
2141	 3.59690382979699E-03 
2142	 4.60066684914832E-03 
2143	 6.04564334123214E-03 
2144	 5.86218141006273E-03 
2145	 7.61471818076427E-03 
2146	 6.32200871726172E-03 
2147	 3.80301704442177E-03 
2148	 5.93933720209566E-03 
2149	 5.48886460073695E-03 
2150	 7.35243641691535E-03 
2151	 8.08660106606068E-03 
2152	 4.49852730083404E-03 
2153	 2.37027649092166E-03 
2154	 9.42899845741353E-04 
2155	 2.74648461038719E-03 
2156	 5.36296387625552E-03 
2157	 5.96056152599293E-03 
2158	 5.04564373075073E-03 
2159	 5.29056295422576E-03 
2160	 4.92661807213494E-03 
2161	 4.89195633572614E-03 
2162	 6.58469872107466E-03 
2163	 6.85011760177146E-03 
2164	 5.82279777125066E-03 
2165	 4.63388546347159E-03 
2166	 2.21609405908286E-03 
2167	 1.68466368130251E-03 
2168	 2.81464389898736E-03 
2169	 2.86104107270596E-03 
2170	 5.29188343114896E-03 
2171	 1.72586906327017E-03 
2172	 2.90760514578686E-04 
2173	-1.09197672875101E-03 
2174	-2.14418707440852E-03 
2175	 2.02003773321968E-03 
2176	 3.04162018560982E-03 
2177	 1.51543442340197E-03 
2178	 1.67846380711707E-03 
2179	 4.15014503074427E-04 
2180	-6.69200147590646E-04 
2181	-1.36853457352764E-04 
2182	 2.34733262286233E-03 
2183	 5.02974903059885E-03 
2184	 5.76357583191224E-03 
2185	 8.8239785112766E-03 
2186	 8.88457726150991E-03 
2187	 3.68154893407001E-03 
2188	 2.99451243941218E-03 
2189	 4.0418876437929E-03 
2190	 3.86393380969538E-03 
2191	 6.56129373578691E-03 
2192	 7.46211212764544E-03 
2193	 6.59271239011591E-03 
2194	 3.92700872715495E-03 
2195	-3.80550981342916E-03 
2196	-5.89344730307622E-03 
2197	-4.36454807765405E-03 
2198	-3.41871893734839E-03 
2199	 3.24837320007433E-04 
2200	 6.04130424782474E-03 
2201	 7.60089855147782E-03 
2202	 9.95199706694059E-04 
2203	-1.61955880598092E-03 
2204	-3.69536106039674E-03 
2205	-7.05657966961623E-03 
2206	-6.37447582031456E-03 
2207	-2.95414441490897E-03 
2208	-6.85467939078556E-05 
2209	 1.42031520101553E-03 
2210	 4.47593900646494E-03 
2211	 2.08162475104651E-03 
2212	-2.28207017622132E-03 
2213	-2.76925461407234E-03 
2214	-7.78780056835822E-03 
2215	-1.05012839046847E-02 
2216	-6.87103245712204E-03 
2217	-4.72858798899193E-03 
2218	 8.87281666245709E-05 
2219	 9.44508389699032E-04 
2220	 1.19027965220428E-04 
2221	-3.43231515663565E-04 
2222	-4.57473778751232E-03 
2223	-6.13017987782165E-03 
2224	-5.66159160303356E-03 
2225	-4.82880662739892E-03 
2226	-1.94666284702912E-03 
2227	-1.37618123826548E-04 
2228	 1.09384014422733E-03 
2229	 4.31140683223965E-03 
2230	 0.010255959356883 
2231	 9.06180080773923E-03 
2232	 2.53810039752454E-03 
2233	 2.64210138564836E-03 
2234	 5.37748670666651E-04 
2235	 2.03702634650075E-03 
2236	 6.97632042963584E-03 
2237	 1.04204152817215E-02 
2238	 1.22234346341664E-02 
2239	 5.33360467992556E-03 
2240	 1.47315969961081E-03 
2241	 3.88309233759666E-03 
2242	 7.36231805207539E-04 
2243	 3.99678256696685E-04 
2244	 1.22506114750235E-03 
2245	-8.80120442917736E-04 
2246	-2.00468468699088E-03 
2247	-6.76567390298502E-04 
2248	 2.20763422541891E-03 
2249	 2.36933412995902E-03 
2250	 2.08776272772211E-03 
2251	 2.31820226454936E-03 
2252	-4.14792357295837E-04 
2253	 8.14283420071825E-04 
2254	 4.59178655613913E-03 
2255	 1.54403966257666E-03 
2256	 6.94297741458707E-04 
2257	 2.85611744121416E-03 
2258	-2.10950831206145E-03 
2259	-7.9957717763913E-03 
2260	-7.81426663119994E-03 
2261	-4.46229286990282E-03 
2262	-2.21728811898233E-03 
2263	 5.48344409460839E-03 
2264	 7.6526142522497E-03 
2265	 6.83654182104088E-03 
2266	 3.67231630503234E-03 
2267	-3.66857072585794E-03 
2268	-4.7377738125312E-03 
2269	-7.06489356791416E-03 
2270	-7.26733916628774E-03 
2271	-3.01271014959435E-04 
2272	 1.40092860825005E-03 
2273	 2.33710442121622E-03 
2274	 7.64200537198722E-04 
2275	-6.75182742961862E-03 
2276	-7.9566794447156E-03 
2277	-6.82559148842093E-03 
2278	-6.34522629643462E-03 
2279	-3.16576788007964E-03 
2280	-1.21640685192182E-03 
2281	 2.71083482227852E-03 
2282	-3.40650679050258E-03 
2283	-1.00516695424089E-02 
2284	-2.2103767750298E-03 
2285	 1.58698766920003E-04 
2286	 6.15284875404934E-04 
2287	 1.04292525199076E-02 
2288	 1.15024361035381E-02 
2289	-1.56526805682502E-04 
2290	-1.40565547429982E-03 
2291	-7.21884290719686E-04 
2292	-9.61977875725149E-03 
2293	-2.66591504222057E-03 
2294	 7.47286256288679E-03 
2295	-1.46684691088174E-04 
2296	-3.48547597999626E-04 
2297	 4.18369885708098E-04 
2298	-1.71968963923995E-03 
2299	 0.0029475128587 
2300	 3.04799831257645E-03 
2301	 1.57857154565355E-03 
2302	-1.05776991136097E-02 
2303	-0.019293096454778 
2304	-0.013731576930332 
2305	-6.32474223326267E-03 
2306	 3.91219899056112E-03 
2307	 7.35810603966542E-03 
2308	 8.72473931863219E-03 
2309	 4.30433220351305E-03 
2310	-1.39410631912129E-03 
2311	 5.33815966943785E-03 
2312	 6.71677531973562E-03 
2313	-3.49392605613354E-03 
2314	-1.27545295092359E-02 
2315	-1.47682331037854E-02 
2316	-2.06405633839491E-02 
2317	-2.28107778667104E-02 
2318	-2.40155568092513E-02 
2319	-4.14782543207667E-02 
2320	-5.07338136218635E-02 
2321	-5.46702313918073E-02 
2322	-5.23624291704039E-02 
2323	-3.07052190275278E-02 
2324	-1.10196170458214E-02 
2325	-5.99143963346417E-03 
2326	-2.22844503836148E-03 
2327	 3.64064595967088E-03 
2328	-3.02661490898446E-03 
2329	-5.70973155678735E-03 
2330	-3.45751090053612E-03 
2331	-1.97583243530332E-02 
2332	-3.90150463677669E-02 
2333	-4.87679263743998E-02 
2334	-5.22295252978167E-02 
2335	-0.046553256699406 
2336	-3.24463234555925E-02 
2337	-0.013228128573098 
2338	-1.45831885350962E-02 
2339	-2.56613127267467E-02 
2340	-2.35977473590128E-02 
2341	-0.038181805699672 
2342	-4.40451163057034E-02 
2343	-2.50757627494192E-02 
2344	-1.98771154508844E-02 
2345	-1.85478293279832E-02 
2346	 4.76054625354772E-03 
2347	 3.42630526145681E-02 
2348	 3.95169188019372E-02 
2349	 3.71876259575153E-02 
2350	 2.97884701679958E-02 
2351	 2.17301954687159E-03 
2352	-1.10472614741213E-02 
2353	-1.60845883836895E-02 
2354	-3.62985320058263E-02 
2355	-5.46106727517809E-02 
2356	-0.077889612314729 
2357	-9.46043722905252E-02 
2358	-8.22538423058799E-02 
2359	-5.34937416428768E-02 
2360	-2.73645224088678E-02 
2361	-2.73333140189313E-02 
2362	-4.19511033138508E-02 
2363	-5.06585686796346E-02 
2364	-6.68665111750777E-02 
2365	-5.52610801255776E-02 
2366	-2.45276584034049E-02 
2367	-4.31418752832343E-02 
2368	-5.33892278517612E-02 
2369	-6.20365643044414E-02 
2370	-7.89342628259495E-02 
2371	-6.89071069641212E-02 
2372	-5.83142489002421E-02 
2373	-0.066686737682938 
2374	-0.105753592919247 
2375	-0.103755581407857 
2376	-0.110074257302661 
2377	-0.14067817701245 
2378	-0.126388912159306 
2379	-0.118140098816407 
2380	-0.112004578753028 
2381	-0.129730552914714 
2382	-0.157859749380285 
2383	-0.134587313893593 
2384	-0.126753572526988 
2385	-9.28947147528378E-02 
2386	 3.01307751519745E-02 
2387	 0.098538162489358 
2388	 3.58112357084795E-02 
2389	 2.53801462062747E-02 
2390	 7.57958461082602E-02 
2391	 4.21489781067194E-02 
2392	 1.26812078218008E-02 
2393	-3.99144310753227E-02 
2394	-7.31116494206677E-02 
2395	-3.85349472266284E-02 
2396	-4.76793016515643E-02 
2397	-2.08881581757902E-02 
2398	 3.31739421746396E-02 
2399	 2.61956703362681E-02 
2400	-3.83555209004372E-03 
2401	 1.28703952258275E-02 
2402	 1.67367035008222E-02 
2403	-5.72344909654959E-02 
2404	-5.08402458690594E-02 
2405	 1.29382368524244E-02 
2406	-0.117077987160729 
2407	-0.241510635209197 
2408	-0.25200202913223 
2409	-0.41788096035784 
2410	-0.564187503725202 
2411	-0.441689728030783 
2412	-0.449934977669802 
2413	-0.256426842693655 
2414	-3.51645909805419E-02 
2415	-4.98197912840406E-02 
2416	-0.114325986782095 
2417	-4.51479367749823E-02 
2418	-5.31723736560879E-03 
2419	-0.155939215378255 
2420	-0.118346984346582 
2421	-0.225832546823929 
2422	-0.484652085654601 
2423	-0.243925021717807 
2424	-4.29327669314229E-02 
2425	-0.182763094833486 
2426	-0.19172037704362 
2427	-0.19822299792269 
2428	-0.31077891319467 
2429	-0.295466150660287 
2430	-0.19752955056218 
2431	-8.78146924952413E-02 
2432	-0.239290683773315 
2433	-0.292712620927039 
2434	-0.258431714564364 
2435	-0.666189112396697 
2436	-0.932144995363302 
2437	-0.902745013516841 
2438	-1.31580525874288 
2439	-0.939351054783823 
2440	-0.325002432715274 
2441	-0.335802487497607 
2442	-0.354849171199762 
2443	-0.3201926034154 
2444	-0.506498067815173 
2445	 6.67671310031904E-02 
2446	 1.61490490793197 
2447	 3.42852029091029 
2448	 2.72724441796406 
2449	 0.538816749243135 
2450	 7.30641053820489E-02 
2451	-0.448347665322627 
2452	-0.4798121646303 
2453	-1.24484688758563 
2454	-0.863208134999916 
2455	-0.315130059072589 
2456	 0.081945356641177 
2457	 0.186805394370351 
2458	 0.480329452309411 
2459	 0.692295026250249 
2460	 0.945030507893843 
2461	 2.43877838190838 
2462	-12.972565796551 
2463	-3.50333701474466 
2464	-0.591578257363912 
2465	-0.839098843682615 
2466	-0.971374432114112 
2467	-0.45285029733385 
2468	 0.174777032174122 
2469	-4.25412655491737E-02 
2470	-0.871483493561157 
2471	-1.08192126125477 
2472	-1.33288428170132 
2473	-0.83141864026044 
2474	-0.571121572453148 
2475	-0.822241739914982 
2476	-1.22378457786098 
2477	-3.38600294674198 
2478	 2.35730418810812 
2479	 2.88780556514296 
2480	 16.2704137999379 
2481	-3.91857606296578 
2482	-1.02471345547165 
2483	 7.21865616798987E-02 
2484	 4.31633707995901E-02 
2485	 6.12676851614502E-02 
2486	-0.213822840937734 
2487	-0.83170429801003 
2488	-0.69261365480169 
2489	-0.316021526902 
2490	-0.205168691367143 
2491	 2.78396280931807E-02 
2492	 8.27508634618018E-02 
2493	 7.39378155619339E-02 
2494	 0.098240251667622 
2495	 0.802491716322984 
2496	 1.22632508486773 
2497	 2.07534114367243 
2498	 8.96200873000956 
2499	-2.64650520455395E-02 
2500	-0.298150304169516 
