Wavelength	rt0622far00008.asd
350	 3.82584562690463E-02 
351	 3.96594368392938E-02 
352	 3.95314728208408E-02 
353	 3.91275685830798E-02 
354	 3.94680725188693E-02 
355	 3.94778229523557E-02 
356	 0.039705906542911 
357	 3.97794850453807E-02 
358	 3.94219740516165E-02 
359	 3.99140821344427E-02 
360	 4.05280273945358E-02 
361	 4.07203314033874E-02 
362	 4.02779262143627E-02 
363	 4.03001746952354E-02 
364	 4.03937489952405E-02 
365	 4.04756485507113E-02 
366	 4.12537957236086E-02 
367	 4.13545336301415E-02 
368	 4.11940361324186E-02 
369	 4.14054679115241E-02 
370	 4.15716012826892E-02 
371	 4.15397464831991E-02 
372	 4.16940905455061E-02 
373	 4.25037731358699E-02 
374	 4.22476997585111E-02 
375	 4.22885602542989E-02 
376	 4.29799556221308E-02 
377	 4.28768566845043E-02 
378	 4.26155742475517E-02 
379	 4.27341582538126E-02 
380	 4.33768903606281E-02 
381	 4.35405473204331E-02 
382	 4.39541346434639E-02 
383	 4.44885402676068E-02 
384	 4.46405585608868E-02 
385	 0.044418774534005 
386	 4.45247398166737E-02 
387	 4.49631154376058E-02 
388	 4.49449380487889E-02 
389	 4.52011788025127E-02 
390	 4.56114486562351E-02 
391	 4.59595051004366E-02 
392	 4.62168655394333E-02 
393	 4.64936275606918E-02 
394	 4.67253199270038E-02 
395	 4.68020135655555E-02 
396	 4.66947050094733E-02 
397	 4.67512409448806E-02 
398	 4.70264424302727E-02 
399	 4.73098007444788E-02 
400	 4.74916349879202E-02 
401	 4.75928301731406E-02 
402	 4.77048267270144E-02 
403	 4.80125872682979E-02 
404	 4.84641128811329E-02 
405	 4.85982911651986E-02 
406	 4.81288771516373E-02 
407	 4.86402520653756E-02 
408	 4.89831196320824E-02 
409	 4.88956662653194E-02 
410	 4.91278096082009E-02 
411	 4.93975596774984E-02 
412	 0.049523476081924 
413	 4.95662247861711E-02 
414	 5.01709116193296E-02 
415	 5.05282547231972E-02 
416	 5.06151908106087E-02 
417	 0.050738642152563 
418	 0.051013943237127 
419	 5.12576734388703E-02 
420	 0.051498947404712 
421	 5.19987169028809E-02 
422	 5.19997895176442E-02 
423	 0.052104432700856 
424	 5.27397435025178E-02 
425	 5.30465862202651E-02 
426	 5.33586070871167E-02 
427	 5.36981295878756E-02 
428	 5.39832868056717E-02 
429	 5.44700632291162E-02 
430	 5.48924053298489E-02 
431	 5.51406941533971E-02 
432	 5.53480767522751E-02 
433	 5.58263917806124E-02 
434	 5.63624494240043E-02 
435	 5.67343192493729E-02 
436	 5.70429001471642E-02 
437	 5.75546285680618E-02 
438	 5.80713257421475E-02 
439	 5.82255894800064E-02 
440	 5.86250692891211E-02 
441	 5.90931182168348E-02 
442	 5.94703153290911E-02 
443	 5.97497163869638E-02 
444	 6.01219224527163E-02 
445	 6.05938849168029E-02 
446	 6.10797915386696E-02 
447	 6.13876703245878E-02 
448	 6.16331548797869E-02 
449	 6.18880228966667E-02 
450	 6.21828491049331E-02 
451	 6.25248006393086E-02 
452	 6.27643068110266E-02 
453	 6.28989466612435E-02 
454	 0.063272358454294 
455	 6.36066877086526E-02 
456	 6.38705265931036E-02 
457	 6.41147633661865E-02 
458	 0.064349334289875 
459	 6.44390498045543E-02 
460	 0.064487770598775 
461	 6.48166787958268E-02 
462	 6.48893645292052E-02 
463	 6.50667348340592E-02 
464	 6.55748873677455E-02 
465	 6.57894909522816E-02 
466	 6.58501598333287E-02 
467	 6.59843187493961E-02 
468	 6.63780680945062E-02 
469	 6.64332715171867E-02 
470	 6.66003279647681E-02 
471	 6.69798617779571E-02 
472	 6.70792032338453E-02 
473	 6.73905295945799E-02 
474	 6.77823426745795E-02 
475	 0.068032150282646 
476	 0.068178744242457 
477	 6.84482660572824E-02 
478	 6.88408219416593E-02 
479	 6.91972094229043E-02 
480	 6.95012370876481E-02 
481	 6.97435549758778E-02 
482	 6.99910108279763E-02 
483	 7.04773059810847E-02 
484	 7.07314952204582E-02 
485	 7.08931571254591E-02 
486	 7.12847360735339E-02 
487	 0.07184534232248 
488	 7.23522941954528E-02 
489	 7.27153564479625E-02 
490	 7.29976608803568E-02 
491	 7.34874426513507E-02 
492	 7.40618332485523E-02 
493	 7.45434210942851E-02 
494	 0.074822436495067 
495	 7.53429560721993E-02 
496	 7.59245019161436E-02 
497	 7.61656219602972E-02 
498	 7.67468866595087E-02 
499	 7.74583053933872E-02 
500	 7.80723587526957E-02 
501	 7.84767747854716E-02 
502	 7.90770216278036E-02 
503	 7.97706549782211E-02 
504	 8.03516612979719E-02 
505	 0.080853202897534 
506	 8.13697419128254E-02 
507	 0.081908648240331 
508	 8.24112339617523E-02 
509	 8.29833978747817E-02 
510	 8.34855093284294E-02 
511	 8.39046491402043E-02 
512	 8.46307134822844E-02 
513	 8.53594581268341E-02 
514	 8.59626983431447E-02 
515	 8.64467411393622E-02 
516	 8.72382203392539E-02 
517	 8.80613340513352E-02 
518	 8.87660634045949E-02 
519	 8.94459030488322E-02 
520	 9.02464052458482E-02 
521	 9.10760582703326E-02 
522	 9.18188877271015E-02 
523	 9.24260054681868E-02 
524	 9.32944388738527E-02 
525	 0.094257480866858 
526	 9.48199200661577E-02 
527	 9.56812555436665E-02 
528	 9.65627462992365E-02 
529	 9.72868145760518E-02 
530	 9.81600246199659E-02 
531	 9.90258735415486E-02 
532	 9.98853721831157E-02 
533	 0.100777542443051 
534	 0.101656997405723 
535	 0.102514458729603 
536	 0.103321443311295 
537	 0.104020454783804 
538	 0.104961488260707 
539	 0.105947470835572 
540	 0.10678278963986 
541	 0.107760020759407 
542	 0.108668669944832 
543	 0.109509250154503 
544	 0.110402782413721 
545	 0.111176925171175 
546	 0.112048449897981 
547	 0.113039348633569 
548	 0.113687932745205 
549	 0.114549897042126 
550	 0.11551248628562 
551	 0.116299623838523 
552	 0.117157544462367 
553	 0.118005632970489 
554	 0.11883892775873 
555	 0.119749171225541 
556	 0.120637893131398 
557	 0.12149482989263 
558	 0.122320326681386 
559	 0.123100892159162 
560	 0.123924103276411 
561	 0.124700991724181 
562	 0.125279517264157 
563	 0.126041523623843 
564	 0.126769429503658 
565	 0.127352858533611 
566	 0.128059911035907 
567	 0.128576009100608 
568	 0.129055119051657 
569	 0.129723433740568 
570	 0.130179317286223 
571	 0.130541955193764 
572	 0.130894178503456 
573	 0.131239815990068 
574	 0.131510960591999 
575	 0.131737876261169 
576	 0.131958149769302 
577	 0.132175275644529 
578	 0.13222528611475 
579	 0.132233116429014 
580	 0.132439985538619 
581	 0.132335234669315 
582	 0.132123801931846 
583	 0.131963758636982 
584	 0.13176688353314 
585	 0.131528813642471 
586	 0.13123299301842 
587	 0.130855931079095 
588	 0.130374770794918 
589	 0.129903418890522 
590	 0.129496300194991 
591	 0.129085483463086 
592	 0.128518789339299 
593	 0.127769380255316 
594	 0.126877235444074 
595	 0.125950264830834 
596	 0.124788232321233 
597	 0.123459302141209 
598	 0.122186182470326 
599	 0.120993106275368 
600	 0.119792913942757 
601	 0.118727303833681 
602	 0.118391249576692 
603	 0.11779222322485 
604	 0.117235316025995 
605	 0.117255391882996 
606	 0.11722343975965 
607	 0.117196773622063 
608	 0.117199703095753 
609	 0.117192485932303 
610	 0.117143953415373 
611	 0.117111808016568 
612	 0.117110864138733 
613	 0.116950590353476 
614	 0.116945573251928 
615	 0.117018583283101 
616	 0.116903852494689 
617	 0.11683434449511 
618	 0.116821449955589 
619	 0.116821354771021 
620	 0.116742829535478 
621	 0.116643134352851 
622	 0.116578121469696 
623	 0.116567563456585 
624	 0.116456879005673 
625	 0.116333668291729 
626	 0.116277659678372 
627	 0.116334847148691 
628	 0.11618274513992 
629	 0.115997347633573 
630	 0.115963935737511 
631	 0.116059568438151 
632	 0.115950855063612 
633	 0.115774549625254 
634	 0.115832870520022 
635	 0.11575835284473 
636	 0.115584474235289 
637	 0.115395504485909 
638	 0.115287900799345 
639	 0.115196793102148 
640	 0.115097259443146 
641	 0.114972302720286 
642	 0.114776968855239 
643	 0.114678291525322 
644	 0.114646391591213 
645	 0.114498358109012 
646	 0.11443284227025 
647	 0.114183027512016 
648	 0.113697715606313 
649	 0.113620781489101 
650	 0.113277549969037 
651	 0.112792033861171 
652	 0.112510726042475 
653	 0.111989796535818 
654	 0.11131831989484 
655	 0.110504895371289 
656	 0.109528737726995 
657	 0.108718407101809 
658	 0.108093295600157 
659	 0.107568331992501 
660	 0.107049310076865 
661	 0.106553633713658 
662	 0.10615633368054 
663	 0.105945705310731 
664	 0.105645283895756 
665	 0.105427928589486 
666	 0.105318743800874 
667	 0.104974182850255 
668	 0.104688604342091 
669	 0.104610516928248 
670	 0.104719135228636 
671	 0.104427600546662 
672	 0.10418209259237 
673	 0.104114832093549 
674	 0.104024408478205 
675	 0.10402744680906 
676	 0.104011486413077 
677	 0.103939015361661 
678	 0.104088150937961 
679	 0.104068794727658 
680	 0.103974934633684 
681	 0.104075264506834 
682	 0.104172002421244 
683	 0.104098034815919 
684	 0.103960198163544 
685	 0.104240141557832 
686	 0.104318262221951 
687	 0.104058951306001 
688	 0.103653627146416 
689	 0.103506545653731 
690	 0.103099864694382 
691	 0.102508212038548 
692	 0.102124681853208 
693	 0.101745790429512 
694	 0.1007991518472 
695	 9.94439109816053E-02 
696	 9.88338169895181E-02 
697	 9.80716306381461E-02 
698	 9.69989907286464E-02 
699	 9.57859173491222E-02 
700	 9.47710975202315E-02 
701	 9.34810560411754E-02 
702	 9.19817653270807E-02 
703	 9.06954232880206E-02 
704	 8.92966475248994E-02 
705	 8.78737754800406E-02 
706	 8.64650233242291E-02 
707	 8.47225520017706E-02 
708	 8.30504908271098E-02 
709	 8.12661594742337E-02 
710	 7.91215862996962E-02 
711	 7.72539074040379E-02 
712	 7.52562800869423E-02 
713	 7.30898516747586E-02 
714	 7.11107467453239E-02 
715	 6.92521813126676E-02 
716	 6.73751984625783E-02 
717	 6.54079278534014E-02 
718	 0.062823578992248 
719	 6.02051497176913E-02 
720	 5.81078830926336E-02 
721	 5.62857888819932E-02 
722	 5.45527815243855E-02 
723	 5.26945737283742E-02 
724	 5.07968978497572E-02 
725	 4.86680637554713E-02 
726	 4.67464556860497E-02 
727	 4.48088399305475E-02 
728	 4.26861258354087E-02 
729	 4.07356066544957E-02 
730	 3.86466289696761E-02 
731	 3.66593021347811E-02 
732	 3.50476093141337E-02 
733	 3.38741112603744E-02 
734	 3.28283767581303E-02 
735	 3.18680211122378E-02 
736	 3.12828260256661E-02 
737	 0.030764920834455 
738	 3.04479367023165E-02 
739	 3.03679316483402E-02 
740	 2.99194524975493E-02 
741	 2.95759397859918E-02 
742	 2.94522561277893E-02 
743	 2.94362081310367E-02 
744	 2.93187444947108E-02 
745	 2.92120776494655E-02 
746	 2.91679010516807E-02 
747	 2.91089001349989E-02 
748	 2.91135422925097E-02 
749	 0.029107395705522 
750	 2.90403572459943E-02 
751	 2.90792715764242E-02 
752	 2.90305507319899E-02 
753	 2.89187870360247E-02 
754	 2.88789225404328E-02 
755	 2.88378487589635E-02 
756	 2.89407893752828E-02 
757	 2.91734838929013E-02 
758	 2.92797236462844E-02 
759	 0.029963830113779 
760	 0.030715665062844 
761	 3.03116993343945E-02 
762	 3.08843623684623E-02 
763	 3.07652456019719E-02 
764	 3.02214338140575E-02 
765	 2.99403203825393E-02 
766	 2.94895800833277E-02 
767	 2.91381833383829E-02 
768	 2.90402839973929E-02 
769	 2.92628644175691E-02 
770	 2.93229672914155E-02 
771	 2.92343576107232E-02 
772	 2.91690267685813E-02 
773	 2.94343241120017E-02 
774	 2.96109194829037E-02 
775	 2.96890108725744E-02 
776	 2.98075404809285E-02 
777	 0.029776359492472 
778	 2.98449531559445E-02 
779	 3.01131377159527E-02 
780	 3.04803941919042E-02 
781	 3.06601874946391E-02 
782	 3.06394904641602E-02 
783	 3.06057377620912E-02 
784	 0.031077775889404 
785	 3.14606419915624E-02 
786	 3.17460180687873E-02 
787	 3.20877229709433E-02 
788	 3.22817518672426E-02 
789	 3.25710225070561E-02 
790	 0.032919727792601 
791	 3.30727818889922E-02 
792	 3.30566073094904E-02 
793	 0.033345006650081 
794	 3.39823572733584E-02 
795	 3.42162683875496E-02 
796	 3.45116044626319E-02 
797	 0.034684487927511 
798	 3.46601633582677E-02 
799	 3.53182636365641E-02 
800	 3.57965947289068E-02 
801	 3.58308969472388E-02 
802	 3.56381746949375E-02 
803	 3.58621082540381E-02 
804	 3.61049119606317E-02 
805	 3.62026947370401E-02 
806	 3.63459950594857E-02 
807	 3.63264053932332E-02 
808	 3.62972443189813E-02 
809	 3.64081438780644E-02 
810	 3.66338773007346E-02 
811	 0.036611996502457 
812	 3.65238868064905E-02 
813	 3.66654510689846E-02 
814	 3.62807309627293E-02 
815	 3.61833689766419E-02 
816	 3.62219882607466E-02 
817	 3.55190660823545E-02 
818	 3.48128364363987E-02 
819	 0.03431065545691 
820	 3.40247153926838E-02 
821	 3.38962988706608E-02 
822	 3.32023160261122E-02 
823	 3.20916363819154E-02 
824	 3.10367383965807E-02 
825	 3.03614590899983E-02 
826	 2.97793019763212E-02 
827	 2.91729639853976E-02 
828	 2.84941391679754E-02 
829	 2.75325411647348E-02 
830	 2.67792954383442E-02 
831	 2.64023723451348E-02 
832	 2.62451661934835E-02 
833	 2.55709541245151E-02 
834	 2.52578438634768E-02 
835	 2.54460216465215E-02 
836	 2.51400491989017E-02 
837	 2.46709445070101E-02 
838	 2.45704594859984E-02 
839	 2.49068486210923E-02 
840	 2.44658377115285E-02 
841	 2.40218434210403E-02 
842	 2.39561318373755E-02 
843	 2.42528500346368E-02 
844	 2.37778368082076E-02 
845	 2.36617599902022E-02 
846	 2.39712931827907E-02 
847	 0.023988171146767 
848	 2.35209620447781E-02 
849	 2.31221664511628E-02 
850	 2.31616318140975E-02 
851	 2.36045594904548E-02 
852	 2.39284223252472E-02 
853	 2.38678595838156E-02 
854	 2.34491802104596E-02 
855	 2.30939199072553E-02 
856	 2.32233604606052E-02 
857	 2.35497382270609E-02 
858	 2.36146657025662E-02 
859	 2.31125288342325E-02 
860	 2.29186168607618E-02 
861	 2.30651311651936E-02 
862	 2.31194180792504E-02 
863	 2.28553820013134E-02 
864	 2.28886408677351E-02 
865	 2.30876679469349E-02 
866	 2.27023789122736E-02 
867	 2.25550573044908E-02 
868	 2.25162166141139E-02 
869	 0.022453246342227 
870	 2.24112431755144E-02 
871	 2.26171654710331E-02 
872	 2.28733860540936E-02 
873	 2.28572146999001E-02 
874	 2.21518274814049E-02 
875	 2.20188794790078E-02 
876	 2.23351287736694E-02 
877	 2.25459688459791E-02 
878	 2.23712820887599E-02 
879	 2.22974876298404E-02 
880	 2.22630412115286E-02 
881	 2.19883159355539E-02 
882	 2.15468618153898E-02 
883	 2.17775136419183E-02 
884	 2.25445297522318E-02 
885	 2.29160415026932E-02 
886	 2.22258311739257E-02 
887	 2.18699674117199E-02 
888	 2.20731556632996E-02 
889	 2.16112461975521E-02 
890	 2.28502829384784E-02 
891	 2.33979451546113E-02 
892	 0.022252374565711 
893	 2.27363521945402E-02 
894	 2.29642574648569E-02 
895	 2.27141670381505E-02 
896	 2.23550794587829E-02 
897	 2.25027604516598E-02 
898	 2.35259307325751E-02 
899	 0.024047660139166 
900	 2.31816318548457E-02 
901	 2.36814444301065E-02 
902	 2.29977349759069E-02 
903	 2.26054975375752E-02 
904	 2.42600450194428E-02 
905	 2.33258858281046E-02 
906	 2.19831398864326E-02 
907	 2.17713747836576E-02 
908	 2.30899455762418E-02 
909	 2.25837026587608E-02 
910	 2.27930884631718E-02 
911	 2.37750790902578E-02 
912	 2.31891660405376E-02 
913	 2.34410305077446E-02 
914	 2.32948211485997E-02 
915	 2.27742147232855E-02 
916	 2.34673044104192E-02 
917	 2.20366248700687E-02 
918	 2.17883156990792E-02 
919	 2.32596542836814E-02 
920	 2.25116205750726E-02 
921	 2.21124185246644E-02 
922	 2.21110182631442E-02 
923	 2.20988570967989E-02 
924	 2.16510264196142E-02 
925	 0.023653203313658 
926	 2.51486433084099E-02 
927	 2.32995571640401E-02 
928	 2.37985992103177E-02 
929	 2.40109616722722E-02 
930	 2.48599831514455E-02 
931	 2.81063224774021E-02 
932	 2.72151770158668E-02 
933	 1.92246835515303E-02 
934	 2.04707291889019E-02 
935	 3.87548318783126E-02 
936	 2.44478531493014E-02 
937	 1.59215427306593E-02 
938	 1.95366998503204E-02 
939	 2.69081231677629E-02 
940	 2.55159511771912E-02 
941	 2.08627674275256E-02 
942	 2.07340970573131E-02 
943	 2.90022259426273E-02 
944	 1.83744600862217E-02 
945	 1.39374381520728E-02 
946	 1.90597956584643E-02 
947	 2.13653119659499E-02 
948	 1.82487531065085E-02 
949	 2.54130881456439E-02 
950	 3.24325066754128E-02 
951	 2.05857725963471E-02 
952	 2.22648813450856E-02 
953	 2.15269343183966E-02 
954	 1.87507186629466E-02 
955	 2.46177922569476E-02 
956	 2.63655135910127E-02 
957	 2.52513068443257E-02 
958	 2.45228381574932E-02 
959	 0.026615712093744 
960	 2.66396982529297E-02 
961	 2.23328169376007E-02 
962	 1.91616382473535E-02 
963	 2.43810354057832E-02 
964	 2.39628308590308E-02 
965	 2.14368239900656E-02 
966	 2.00431194609362E-02 
967	 2.11361399014376E-02 
968	 2.29852256795416E-02 
969	 2.25701055862108E-02 
970	 2.11303182224942E-02 
971	 2.29207230177386E-02 
972	 2.56732621727718E-02 
973	 2.48502588132001E-02 
974	 2.19909324545296E-02 
975	 2.35635390427007E-02 
976	 2.30081693835377E-02 
977	 2.20052049299622E-02 
978	 2.23244166667679E-02 
979	 2.43299931294806E-02 
980	 2.52351545577722E-02 
981	 2.39601984286594E-02 
982	 2.20926040385129E-02 
983	 2.21620540687884E-02 
984	 1.87560415480959E-02 
985	 1.89921349857033E-02 
986	 2.15674869648043E-02 
987	 0.01934899543981 
988	 1.90519676055293E-02 
989	 1.93059159509848E-02 
990	 1.93288425601305E-02 
991	 1.93091208214932E-02 
992	 1.91055304488203E-02 
993	 1.95443243690264E-02 
994	 1.94472075684465E-02 
995	 1.76342300577185E-02 
996	 2.16614077996151E-02 
997	 2.27151584187604E-02 
998	 2.09497863872921E-02 
999	 2.17974036839083E-02 
1000	 2.15946777698971E-02 
1001	 2.47767697151783E-02 
1002	 2.47052643096612E-02 
1003	 2.44233435647267E-02 
1004	 2.41098472848356E-02 
1005	 2.37948744654097E-02 
1006	 2.35811068614069E-02 
1007	 0.022926551248425 
1008	 0.022946929301166 
1009	 2.28284070659862E-02 
1010	 0.022265674888629 
1011	 2.26074799114963E-02 
1012	 2.28704814276233E-02 
1013	 2.29243933072645E-02 
1014	 2.25021725932672E-02 
1015	 2.14696609827677E-02 
1016	 2.13567110124076E-02 
1017	 0.021024104462594 
1018	 2.10632709922745E-02 
1019	 2.23556126907991E-02 
1020	 2.31612436181961E-02 
1021	 2.39696178529125E-02 
1022	 2.40748649002148E-02 
1023	 2.46690894352492E-02 
1024	 2.41118190902433E-02 
1025	 2.29687050495157E-02 
1026	 2.24288481627933E-02 
1027	 2.21193648393093E-02 
1028	 2.19300408396533E-02 
1029	 0.022116155886869 
1030	 2.27600335734598E-02 
1031	 2.32303054588416E-02 
1032	 2.42346607188766E-02 
1033	 2.42125253110776E-02 
1034	 2.35744944237126E-02 
1035	 2.33540227761715E-02 
1036	 2.23028786601699E-02 
1037	 2.21988836854224E-02 
1038	 2.34130658206349E-02 
1039	 2.36867052441107E-02 
1040	 2.35053938495503E-02 
1041	 2.33231020998971E-02 
1042	 2.31330296619125E-02 
1043	 2.22419984578955E-02 
1044	 2.20884330839508E-02 
1045	 2.24256841902557E-02 
1046	 2.26711116857353E-02 
1047	 2.30632849277063E-02 
1048	 2.33184050341898E-02 
1049	 2.37844107161881E-02 
1050	 2.39722212966657E-02 
1051	 2.39153059988143E-02 
1052	 2.38425918661039E-02 
1053	 2.34270658531396E-02 
1054	 2.34213391322809E-02 
1055	 2.37949044830765E-02 
1056	 0.023838031255473 
1057	 2.38455069906786E-02 
1058	 2.40766860946098E-02 
1059	 2.39831995495169E-02 
1060	 2.35991604009433E-02 
1061	 2.31007897153674E-02 
1062	 2.22518095885327E-02 
1063	 2.19834020175052E-02 
1064	 2.16325372009843E-02 
1065	 2.15694623232267E-02 
1066	 2.22770395778477E-02 
1067	 2.25241738913378E-02 
1068	 2.24239466838756E-02 
1069	 2.25856856828962E-02 
1070	 2.30578062225717E-02 
1071	 2.31590021574694E-02 
1072	 2.30477564959612E-02 
1073	 2.32204836715396E-02 
1074	 2.29591437606809E-02 
1075	 2.20576648984052E-02 
1076	 2.19900345449366E-02 
1077	 0.022154781461021 
1078	 2.23852885765604E-02 
1079	 0.023372213296349 
1080	 2.34566406596041E-02 
1081	 2.30560562717247E-02 
1082	 2.27914369985468E-02 
1083	 2.18759114311523E-02 
1084	 2.16562611104449E-02 
1085	 2.17262149573407E-02 
1086	 2.19758169930428E-02 
1087	 0.023222078001435 
1088	 2.35663960221638E-02 
1089	 2.33473139955481E-02 
1090	 2.33583086637705E-02 
1091	 2.34455089531334E-02 
1092	 2.30656803174038E-02 
1093	 2.29766135181427E-02 
1094	 2.36680261772911E-02 
1095	 2.34817990824719E-02 
1096	 2.21175497034626E-02 
1097	 2.20876860601614E-02 
1098	 2.25029722133292E-02 
1099	 2.28470313310895E-02 
1100	 2.45733797601857E-02 
1101	 0.025058105413084 
1102	 2.40181226509678E-02 
1103	 2.40173309327328E-02 
1104	 0.023804059201195 
1105	 2.45169307974475E-02 
1106	 2.51807424194257E-02 
1107	 2.65529161748467E-02 
1108	 2.73804980269842E-02 
1109	 2.67001796601508E-02 
1110	 2.62366173908015E-02 
1111	 2.45698423657684E-02 
1112	 2.48102232087519E-02 
1113	 0.025799769091031 
1114	 2.68159153235384E-02 
1115	 3.13891654495651E-02 
1116	 3.32051372394459E-02 
1117	 3.13294184505805E-02 
1118	 3.19379210577233E-02 
1119	 3.37855903663516E-02 
1120	 3.37680536202957E-02 
1121	 3.37503276970667E-02 
1122	 3.12105871091199E-02 
1123	 3.17628350650363E-02 
1124	 2.93316622560098E-02 
1125	 3.63384685244209E-02 
1126	 5.25226025283514E-02 
1127	 0.051016896013081 
1128	 3.97463326503944E-02 
1129	 3.87000450781358E-02 
1130	 3.70879175234459E-02 
1131	 3.44381558979877E-02 
1132	 0.035301313578705 
1133	 3.58721730802805E-02 
1134	 3.13469622360495E-02 
1135	 3.18586085040098E-02 
1136	 0.040485360563106 
1137	 4.26663171902792E-02 
1138	 4.49178157582928E-02 
1139	 3.93853406730471E-02 
1140	 3.62233585474468E-02 
1141	 3.60118856347523E-02 
1142	 3.41674461298024E-02 
1143	 3.48828658388043E-02 
1144	 3.71679209676039E-02 
1145	 0.033969118005801 
1146	 3.06892687871946E-02 
1147	 3.23472977992533E-02 
1148	 3.45374758416335E-02 
1149	 3.52202186438724E-02 
1150	 3.36403982678639E-02 
1151	 3.13105210285706E-02 
1152	 2.98689794747114E-02 
1153	 2.62233023094094E-02 
1154	 2.55441581568186E-02 
1155	 2.70314060505754E-02 
1156	 2.76740659573278E-02 
1157	 0.026872372133507 
1158	 2.60038745955504E-02 
1159	 2.64045238331723E-02 
1160	 2.69580175652474E-02 
1161	 2.67056876311426E-02 
1162	 2.59498076761423E-02 
1163	 2.41469444768207E-02 
1164	 2.34803470137978E-02 
1165	 2.46010981391846E-02 
1166	 2.50818825552564E-02 
1167	 2.50365546152142E-02 
1168	 2.49443150028386E-02 
1169	 2.47887785136455E-02 
1170	 2.50107855199825E-02 
1171	 2.47724269723107E-02 
1172	 2.45247140814344E-02 
1173	 2.43460598024507E-02 
1174	 0.023720392745809 
1175	 2.34692248057921E-02 
1176	 2.33892196698337E-02 
1177	 2.39347487663429E-02 
1178	 2.41368185318558E-02 
1179	 2.34982636816707E-02 
1180	 2.36862246399552E-02 
1181	 2.42185517456057E-02 
1182	 2.37065880166219E-02 
1183	 2.31411684731748E-02 
1184	 2.34859121428194E-02 
1185	 2.36144254502157E-02 
1186	 2.34469831338113E-02 
1187	 2.34620155148568E-02 
1188	 0.02278511526345 
1189	 2.24389574853221E-02 
1190	 2.27342523252019E-02 
1191	 2.27578640079172E-02 
1192	 2.30590232018675E-02 
1193	 2.38308642039706E-02 
1194	 2.38709087141829E-02 
1195	 0.023106491535073 
1196	 2.36302978232097E-02 
1197	 2.41816570942005E-02 
1198	 2.37221103951669E-02 
1199	 2.39048912372401E-02 
1200	 2.41324526496719E-02 
1201	 0.023611669941795 
1202	 2.35688804966547E-02 
1203	 2.38953905699287E-02 
1204	 2.35847843623037E-02 
1205	 2.32934168632884E-02 
1206	 2.32981163287224E-02 
1207	 2.30493571870642E-02 
1208	 2.29895337854836E-02 
1209	 2.31469478539088E-02 
1210	 2.31962662884595E-02 
1211	 2.32366066230355E-02 
1212	 2.33271005902375E-02 
1213	 2.35246111481058E-02 
1214	 0.02335529445898 
1215	 2.28501746845708E-02 
1216	 2.23030770190189E-02 
1217	 2.23068786262394E-02 
1218	 2.23539652349112E-02 
1219	 2.24159086829425E-02 
1220	 2.25290429916603E-02 
1221	 2.22983567816434E-02 
1222	 2.22038476004916E-02 
1223	 2.27700810651188E-02 
1224	 2.30943366365304E-02 
1225	 2.30007095410487E-02 
1226	 2.29872839103606E-02 
1227	 2.28051134339851E-02 
1228	 2.26489483329384E-02 
1229	 2.26982199835986E-02 
1230	 2.26693339991271E-02 
1231	 2.24988113645026E-02 
1232	 2.23888873601072E-02 
1233	 2.23637574752294E-02 
1234	 2.24283512924322E-02 
1235	 2.24106650502737E-02 
1236	 2.21540257949161E-02 
1237	 2.19297147072812E-02 
1238	 2.17921597447564E-02 
1239	 2.15527264764207E-02 
1240	 2.14693736488507E-02 
1241	 2.17164328194789E-02 
1242	 0.021950968775438 
1243	 2.22804636107196E-02 
1244	 2.25462237632623E-02 
1245	 2.22526311430152E-02 
1246	 2.19010851286716E-02 
1247	 2.19016092530497E-02 
1248	 2.19605001146454E-02 
1249	 2.19323254952121E-02 
1250	 0.021966982199785 
1251	 2.21677013171316E-02 
1252	 2.20205318111557E-02 
1253	 2.18040696319106E-02 
1254	 2.23124318038408E-02 
1255	 2.26319195559508E-02 
1256	 2.24934577338693E-02 
1257	 2.18763734155725E-02 
1258	 2.18537741152661E-02 
1259	 2.17550024634415E-02 
1260	 2.16957347029482E-02 
1261	 2.18797191457993E-02 
1262	 2.20710643643937E-02 
1263	 2.21155464746305E-02 
1264	 2.25041597600312E-02 
1265	 2.27117661130822E-02 
1266	 2.28481531788457E-02 
1267	 2.26908620290977E-02 
1268	 2.20439141477013E-02 
1269	 2.22159817572801E-02 
1270	 2.28652022631113E-02 
1271	 0.022694246924279 
1272	 2.26369765838995E-02 
1273	 2.24257200044042E-02 
1274	 2.16612933828866E-02 
1275	 2.15692093842056E-02 
1276	 2.16635029602217E-02 
1277	 2.14832714098306E-02 
1278	 2.15891514387468E-02 
1279	 0.022020395830422 
1280	 2.26641105904631E-02 
1281	 2.26345760006784E-02 
1282	 2.18210724603589E-02 
1283	 2.17891742192993E-02 
1284	 2.19233796146418E-02 
1285	 2.16214849078472E-02 
1286	 2.13901607767772E-02 
1287	 2.17140311569799E-02 
1288	 2.19462584898252E-02 
1289	 2.18979686261169E-02 
1290	 2.21015597493866E-02 
1291	 2.29082917928076E-02 
1292	 2.24571173177668E-02 
1293	 2.15439148461506E-02 
1294	 2.16982940030658E-02 
1295	 2.18395642763813E-02 
1296	 2.17477020579425E-02 
1297	 2.25615381839116E-02 
1298	 2.33321353542553E-02 
1299	 2.31841338514404E-02 
1300	 2.28022719145135E-02 
1301	 2.24926289306325E-02 
1302	 2.27003999499029E-02 
1303	 2.27848872104338E-02 
1304	 2.24607711940227E-02 
1305	 2.27668737694614E-02 
1306	 2.30526291148437E-02 
1307	 2.32992156139757E-02 
1308	 2.29489865568804E-02 
1309	 2.25171908773613E-02 
1310	 2.24176781045542E-02 
1311	 0.021588342055927 
1312	 2.16282311784681E-02 
1313	 2.29139969426849E-02 
1314	 2.31613098322311E-02 
1315	 2.27490317851434E-02 
1316	 2.30071938700286E-02 
1317	 0.023570063201454 
1318	 0.023787596799868 
1319	 2.44868048084603E-02 
1320	 2.46755472418536E-02 
1321	 2.37117513978081E-02 
1322	 2.36990722259178E-02 
1323	 0.024324973066288 
1324	 2.43751784624679E-02 
1325	 2.43643503459667E-02 
1326	 2.42541362806699E-02 
1327	 2.50593643346009E-02 
1328	 2.51362951330167E-02 
1329	 2.51595373318162E-02 
1330	 2.58091183177986E-02 
1331	 2.62984351390466E-02 
1332	 2.78441623276891E-02 
1333	 2.79330515279312E-02 
1334	 2.75003998645898E-02 
1335	 2.88847964905706E-02 
1336	 3.14209834997633E-02 
1337	 3.11836016284891E-02 
1338	 3.11169530815148E-02 
1339	 3.07693059523135E-02 
1340	 2.63698101285681E-02 
1341	 2.49467310099041E-02 
1342	 2.53800096926913E-02 
1343	 2.71977381847145E-02 
1344	 3.25774470579908E-02 
1345	 3.56198085240125E-02 
1346	 4.34497967653894E-02 
1347	 4.89481470261207E-02 
1348	 4.57903937505702E-02 
1349	 4.54181517233783E-02 
1350	 4.11720420398582E-02 
1351	 3.47476592172659E-02 
1352	 2.06600478387437E-02 
1353	 1.74558156585181E-02 
1354	 2.05623604978988E-02 
1355	 8.69538772152285E-02 
1356	 0.13682717512028 
1357	 0.105343006848148 
1358	 0.208466409290208 
1359	 0.334419676641701 
1360	 0.22829905461247 
1361	 0.35735552524627 
1362	 0.4804383821383 
1363	 0.247809865269333 
1364	 0.212836883199185 
1365	 0.542574775625069 
1366	 0.762692763389872 
1367	 0.294770367156442 
1368	 9.66980605291844E-04 
1369	 6.48014619426331E-02 
1370	 0.161293249531919 
1371	 0.36697111757523 
1372	 0.218495878734963 
1373	-13.8901117600235 
1374	-4.91688059742621 
1375	 0.307936947910188 
1376	 0.232307334212523 
1377	 0.324171060692113 
1378	 0.363466923253306 
1379	 0.320282938368215 
1380	 0.219020744404405 
1381	 7.07962126647626E-02 
1382	 0.364404834761674 
1383	 4.05010458943478E-02 
1384	 0.233326761915996 
1385	 0.843481645789135 
1386	 1.40831540424003 
1387	 2.54442432481691 
1388	 2.67007849987133 
1389	 4.370645413372 
1390	 3.23185621908257 
1391	 0.861036290357627 
1392	 0.273940313455225 
1393	-0.166267398764026 
1394	 8.29779888574405E-02 
1395	-3.33151799464122E-02 
1396	 0.1577765352271 
1397	 0.282386790104718 
1398	-0.126066999977768 
1399	-0.80373878229126 
1400	 61.7030241722982 
1401	-0.29147152730315 
1402	 0.207186735893335 
1403	-0.128493223729088 
1404	 0.10893480848602 
1405	 0.110913851976703 
1406	-0.17342148852174 
1407	 9.35331139141884 
1408	 0.535550719254107 
1409	 0.582696646461747 
1410	 0.633602599016213 
1411	 0.477704100185106 
1412	 0.184195840494825 
1413	-3.45754517234993E-02 
1414	-0.337995249531119 
1415	-0.335405243161145 
1416	-7.08635876822849E-02 
1417	 4.10973527622426E-02 
1418	 0.182597456335063 
1419	 0.20400086978157 
1420	 0.179145672668095 
1421	 0.146269135932217 
1422	 6.14337810989931E-02 
1423	 3.18803723229455E-02 
1424	 1.32966714145605E-02 
1425	 0.012489781985517 
1426	 4.97494184755537E-02 
1427	 4.28177379020086E-02 
1428	 4.07298634423745E-03 
1429	 4.84627940751405E-03 
1430	-4.5289307867055E-03 
1431	 2.32881371466784E-03 
1432	 6.69073165365262E-02 
1433	 8.88408030007736E-02 
1434	 7.86483473298329E-02 
1435	 7.97099258935839E-02 
1436	 6.47131419547363E-02 
1437	 7.92501946417085E-02 
1438	 5.81868552164461E-02 
1439	 4.28587372185428E-02 
1440	 0.060612367600947 
1441	 5.87145201614858E-02 
1442	 5.97827645695505E-02 
1443	 6.74618772074299E-02 
1444	 6.98390948290834E-02 
1445	 6.29368853811962E-02 
1446	 5.71029303704746E-02 
1447	 5.75588523971193E-02 
1448	 4.41519493058226E-02 
1449	 3.53089179138835E-02 
1450	 3.93457984349852E-02 
1451	 4.29835028852793E-02 
1452	 4.39404661538675E-02 
1453	 3.56147701598224E-02 
1454	 3.42097373052007E-02 
1455	 3.28261189949135E-02 
1456	 3.07757482740174E-02 
1457	 2.84975188975646E-02 
1458	 3.06698071132849E-02 
1459	 0.032812669828996 
1460	 3.37451118078512E-02 
1461	 4.19630797564086E-02 
1462	 0.041535942599794 
1463	 3.08983941062142E-02 
1464	 2.86755990324515E-02 
1465	 2.66868540215993E-02 
1466	 2.66719983033012E-02 
1467	 3.46117012711453E-02 
1468	 3.66168476924661E-02 
1469	 0.035799314218375 
1470	 3.57977162831897E-02 
1471	 3.29589009999384E-02 
1472	 0.032062040816899 
1473	 3.31391072040203E-02 
1474	 3.23194909273692E-02 
1475	 3.01207589220299E-02 
1476	 2.92739865432672E-02 
1477	 2.92417789238301E-02 
1478	 2.92412489521927E-02 
1479	 2.86164696676308E-02 
1480	 3.00596239521171E-02 
1481	 3.27390163966071E-02 
1482	 3.34309970287856E-02 
1483	 3.61804962602824E-02 
1484	 3.51557628232764E-02 
1485	 3.07688454305251E-02 
1486	 0.028650196389211 
1487	 2.55332435174049E-02 
1488	 0.02525960217105 
1489	 2.75136474122899E-02 
1490	 2.74507302310552E-02 
1491	 2.66184042673507E-02 
1492	 0.026863345096575 
1493	 2.80120585825865E-02 
1494	 2.72410695955509E-02 
1495	 2.51659886082113E-02 
1496	 2.53034190762829E-02 
1497	 0.025817891700484 
1498	 2.51102549263099E-02 
1499	 0.024843115376553 
1500	 2.52052740480363E-02 
1501	 2.52337649832123E-02 
1502	 2.46032911407214E-02 
1503	 2.45251327620965E-02 
1504	 2.44781602551511E-02 
1505	 2.36908640002713E-02 
1506	 2.21605765032493E-02 
1507	 2.21512688871969E-02 
1508	 2.26505063494662E-02 
1509	 2.18111229971021E-02 
1510	 2.17303067833976E-02 
1511	 2.17507249976755E-02 
1512	 0.021527514845483 
1513	 2.23902915824542E-02 
1514	 2.28650138676673E-02 
1515	 2.25515568508424E-02 
1516	 2.23517104499722E-02 
1517	 2.18950176047855E-02 
1518	 2.16911023040529E-02 
1519	 2.21623802056985E-02 
1520	 2.28327889345436E-02 
1521	 2.28461454123992E-02 
1522	 2.17848531748888E-02 
1523	 2.11234772102703E-02 
1524	 2.14182983484358E-02 
1525	 2.18495960003277E-02 
1526	 2.21536179902218E-02 
1527	 2.28220350551936E-02 
1528	 2.33762122424512E-02 
1529	 2.29147126377669E-02 
1530	 2.25913567013989E-02 
1531	 2.23046127672785E-02 
1532	 2.12746917704983E-02 
1533	 2.10841330362075E-02 
1534	 2.13056705484006E-02 
1535	 2.10016377002789E-02 
1536	 2.10935760845299E-02 
1537	 2.07120620754718E-02 
1538	 2.03489985709827E-02 
1539	 2.06155548749508E-02 
1540	 2.08619195484817E-02 
1541	 2.19994248939391E-02 
1542	 2.23757736871188E-02 
1543	 2.16550002163177E-02 
1544	 2.15621322319782E-02 
1545	 2.12805871728351E-02 
1546	 2.12613904138434E-02 
1547	 2.15718812719681E-02 
1548	 2.13652089881083E-02 
1549	 2.11771234102595E-02 
1550	 2.11044962670743E-02 
1551	 2.09095958038904E-02 
1552	 0.020695737891296 
1553	 2.02491833045092E-02 
1554	 0.01956297143744 
1555	 1.95164523229708E-02 
1556	 2.01927349500313E-02 
1557	 2.13282728257297E-02 
1558	 2.18656583746795E-02 
1559	 2.17390040899226E-02 
1560	 2.23029404608857E-02 
1561	 2.22449034674968E-02 
1562	 2.15863058370128E-02 
1563	 2.14808190258635E-02 
1564	 0.021063272922688 
1565	 2.07840612163214E-02 
1566	 2.12116038277476E-02 
1567	 2.12502676505432E-02 
1568	 2.10226934716431E-02 
1569	 2.09263188440538E-02 
1570	 2.04419688600544E-02 
1571	 0.020471578211399 
1572	 2.11653150886233E-02 
1573	 2.09891289395535E-02 
1574	 2.03590817807268E-02 
1575	 2.05706941983992E-02 
1576	 2.06822105628958E-02 
1577	 2.03647768311208E-02 
1578	 2.06663024620076E-02 
1579	 2.06241708183346E-02 
1580	 2.00967880480092E-02 
1581	 2.02120730071321E-02 
1582	 2.02561992693453E-02 
1583	 2.02597810411355E-02 
1584	 2.02550268834332E-02 
1585	 1.98197141140896E-02 
1586	 2.03681457419525E-02 
1587	 2.11502819060903E-02 
1588	 2.08789967265605E-02 
1589	 2.04639568296036E-02 
1590	 2.03643173489344E-02 
1591	 0.020703040153826 
1592	 2.08272307197924E-02 
1593	 2.06733151237474E-02 
1594	 2.08461305564243E-02 
1595	 2.09602503454493E-02 
1596	 2.03935215872385E-02 
1597	 2.01181425672984E-02 
1598	 2.06577793474951E-02 
1599	 2.08576221197308E-02 
1600	 2.08801544368011E-02 
1601	 2.09401146136234E-02 
1602	 2.12317793432859E-02 
1603	 2.12979469058919E-02 
1604	 2.08130076054336E-02 
1605	 2.08483002177948E-02 
1606	 2.07502736169595E-02 
1607	 0.020287821768787 
1608	 0.020396586557528 
1609	 2.12010271251122E-02 
1610	 2.18255371101221E-02 
1611	 2.15402476273291E-02 
1612	 2.16061202885643E-02 
1613	 0.022044134092575 
1614	 2.19680030098155E-02 
1615	 2.14390387238408E-02 
1616	 2.11367234025801E-02 
1617	 2.09501171155312E-02 
1618	 1.99635672516286E-02 
1619	 1.99367415454283E-02 
1620	 2.03417545706201E-02 
1621	 1.97216952862263E-02 
1622	 1.93779033630702E-02 
1623	 1.89289652625017E-02 
1624	 0.018382065648947 
1625	 1.83439978285395E-02 
1626	 1.87438453387874E-02 
1627	 1.91907239598357E-02 
1628	 1.87991968097308E-02 
1629	 1.86700229752309E-02 
1630	 1.89888004078752E-02 
1631	 1.86513665775603E-02 
1632	 1.84428951276113E-02 
1633	 1.80994724638839E-02 
1634	 1.75421164579836E-02 
1635	 1.77753784157548E-02 
1636	 0.018437032386733 
1637	 1.91237002760226E-02 
1638	 1.94287019765176E-02 
1639	 1.90222109743713E-02 
1640	 1.89036107895719E-02 
1641	 1.90425304538571E-02 
1642	 1.89349219032969E-02 
1643	 1.90947584701956E-02 
1644	 1.91954188053181E-02 
1645	 1.95036433712792E-02 
1646	 1.93281084477172E-02 
1647	 1.87414845111783E-02 
1648	 1.92976273430329E-02 
1649	 1.96286528744082E-02 
1650	 1.97230749611697E-02 
1651	 2.03906314257775E-02 
1652	 2.05167911124351E-02 
1653	 2.00493340465091E-02 
1654	 2.01504303910932E-02 
1655	 0.020872652193034 
1656	 2.11109081580871E-02 
1657	 2.09556965551021E-02 
1658	 2.12453656222727E-02 
1659	 2.18535411933494E-02 
1660	 2.14224881733069E-02 
1661	 2.05383351135587E-02 
1662	 2.04145075898078E-02 
1663	 1.99701039338731E-02 
1664	 0.019630582626014 
1665	 1.99616715062115E-02 
1666	 2.00497969441973E-02 
1667	 1.97897853926287E-02 
1668	 0.019777656622219 
1669	 0.020068829945855 
1670	 2.01557625631115E-02 
1671	 1.98262353643078E-02 
1672	 2.02125962356691E-02 
1673	 2.06422719566548E-02 
1674	 2.03276235146009E-02 
1675	 1.99545651120792E-02 
1676	 1.98865084813982E-02 
1677	 0.019321491395213 
1678	 1.93920066319455E-02 
1679	 1.98423556407033E-02 
1680	 1.84121134246426E-02 
1681	 1.74337643029311E-02 
1682	 1.82331872355136E-02 
1683	 0.01869636198123 
1684	 1.93625637791073E-02 
1685	 1.98519022093308E-02 
1686	 1.93587490999664E-02 
1687	 1.92856485001082E-02 
1688	 1.96205074208849E-02 
1689	 1.97813195902011E-02 
1690	 1.92376935050833E-02 
1691	 1.79628551489166E-02 
1692	 1.74783649992942E-02 
1693	 1.85583954545593E-02 
1694	 1.94171711871134E-02 
1695	 1.95456549995185E-02 
1696	 0.020300651698685 
1697	 1.99958304869497E-02 
1698	 1.89316206843296E-02 
1699	 1.94317930787005E-02 
1700	 1.91696395666511E-02 
1701	 1.84146458384888E-02 
1702	 0.019445084411062 
1703	 1.98891590961521E-02 
1704	 1.88681579389996E-02 
1705	 1.86569135316277E-02 
1706	 1.92512535906869E-02 
1707	 0.019294350372425 
1708	 1.96790415979395E-02 
1709	 2.00223654929076E-02 
1710	 1.95581904716763E-02 
1711	 1.93615727475633E-02 
1712	 1.93283540197869E-02 
1713	 1.96935416296791E-02 
1714	 1.95672166896385E-02 
1715	 0.018699815479008 
1716	 1.95350538841844E-02 
1717	 1.94019577537401E-02 
1718	 1.93775765940662E-02 
1719	 0.019878504303831 
1720	 1.95978379076879E-02 
1721	 1.99424948385953E-02 
1722	 2.04348155961022E-02 
1723	 1.90700245479236E-02 
1724	 1.83869696942947E-02 
1725	 1.86377023379616E-02 
1726	 1.81174159816956E-02 
1727	 1.92959588623875E-02 
1728	 2.00735433233367E-02 
1729	 1.83698895986316E-02 
1730	 1.76678759852913E-02 
1731	 1.86877071316458E-02 
1732	 2.07603003357312E-02 
1733	 2.17756995148476E-02 
1734	 2.09586186658993E-02 
1735	 2.00787358305185E-02 
1736	 1.76049207881125E-02 
1737	 1.68499679085357E-02 
1738	 1.99760323721099E-02 
1739	 2.04767292897695E-02 
1740	 2.01613226952268E-02 
1741	 2.09686791501269E-02 
1742	 1.86312666428534E-02 
1743	 1.72307102681535E-02 
1744	 1.76437733494974E-02 
1745	 1.75682341853918E-02 
1746	 2.08428710440064E-02 
1747	 2.17436122230225E-02 
1748	 2.15861021762681E-02 
1749	 2.13695671929184E-02 
1750	 1.89386127302285E-02 
1751	 1.90658820352785E-02 
1752	 2.20723378833578E-02 
1753	 2.25967576839932E-02 
1754	 2.23201385981562E-02 
1755	 2.23822309260588E-02 
1756	 2.07157705888372E-02 
1757	 1.99352722185848E-02 
1758	 2.12331817811797E-02 
1759	 2.18183268627068E-02 
1760	 2.19361831141666E-02 
1761	 2.23014428214469E-02 
1762	 2.21233943409419E-02 
1763	 2.20046830292124E-02 
1764	 2.08279756426469E-02 
1765	 2.00351415529748E-02 
1766	 2.18267396491506E-02 
1767	 2.23618921822022E-02 
1768	 0.022920478863758 
1769	 2.47929390213527E-02 
1770	 2.33556905006635E-02 
1771	 2.19787808345199E-02 
1772	 2.38445884392058E-02 
1773	 2.46012654217404E-02 
1774	 2.39390294206417E-02 
1775	 2.41248983028368E-02 
1776	 2.27359654398461E-02 
1777	 1.77691752820439E-02 
1778	 1.69925873464283E-02 
1779	 1.83338514968922E-02 
1780	 1.84604902173754E-02 
1781	 2.08592406837048E-02 
1782	 2.37144142004411E-02 
1783	 2.70469761259695E-02 
1784	 2.92006000071802E-02 
1785	 3.28147966296462E-02 
1786	 0.0316406025458 
1787	 2.32924317080981E-02 
1788	 2.18829562645612E-02 
1789	 2.31123194999853E-02 
1790	 0.025853600620962 
1791	 2.60331653842232E-02 
1792	 1.97481122668413E-02 
1793	 1.26922020928664E-02 
1794	 2.01126739665313E-02 
1795	 0.030231793999704 
1796	 2.83262085013778E-02 
1797	 3.78363291734984E-02 
1798	 3.29783222953796E-02 
1799	 1.18501407999201E-02 
1800	 3.37852291696775E-02 
1801	 4.65406373084224E-02 
1802	 8.47020875796336E-02 
1803	 0.106706624413812 
1804	 0.101824140332843 
1805	 9.51919230228786E-02 
1806	 2.18093482653938E-02 
1807	-2.77282799610166E-02 
1808	-0.154760964284049 
1809	-0.138326329168826 
1810	 0.162810893407754 
1811	 0.224466760990936 
1812	 0.291372804358524 
1813	 0.255059159436363 
1814	-0.271537478741818 
1815	-0.516718428923121 
1816	-0.610307913945541 
1817	-0.425242081833971 
1818	 0.184887117430161 
1819	-0.14157722652834 
1820	-11.3314657037282 
1821	 2.83932460559964 
1822	 3.46577289402394 
1823	-3.21004350603245 
1824	-4.29603332548026 
1825	-3.42571206729678 
1826	-2.38896687912625 
1827	 0.576454992917084 
1828	 0.802777844468921 
1829	 2.73087563439867 
1830	 8.01993519758996 
1831	 0.577641004081677 
1832	 0.554752567325117 
1833	 0.158100270359076 
1834	 9.28501519212828E-02 
1835	 0.560993847835963 
1836	 0.710301782967359 
1837	-4.05134797847817E-02 
1838	-1.48935275615963 
1839	-0.167838725500768 
1840	-0.171340735167444 
1841	 0.12024126334682 
1842	 0.091285304462397 
1843	 1.89704938570447E-02 
1844	-0.234550351807027 
1845	-0.254132660592336 
1846	-0.566750532125278 
1847	-0.413096420764712 
1848	 0.383913083940828 
1849	 0.433791553977524 
1850	 0.475025873820031 
1851	 0.804963868223404 
1852	 0.710547581826427 
1853	-0.559938453213576 
1854	-4.4005625023912 
1855	-0.650051666445998 
1856	-0.263831410255264 
1857	 0.673116243418729 
1858	 0.874129557692202 
1859	 1.5147644483636 
1860	 2.01311983305423 
1861	 1.49788285094631 
1862	 0.679975848910037 
1863	 0.122281006011653 
1864	-0.104899311345773 
1865	-0.188925494308264 
1866	-0.25772854006787 
1867	-0.318812424980671 
1868	-0.168969598812101 
1869	-5.49545916431766E-02 
1870	 0.118355184221161 
1871	-0.131560670823615 
1872	 5.32802809810127E-02 
1873	 0.245475081764229 
1874	 5.06164969589077E-05 
1875	 4.36415828238283E-02 
1876	-0.129613435055457 
1877	-0.984630326152453 
1878	-1.10510411906824 
1879	 5.4773734312413E-03 
1880	 6.18070404700369 
1881	-29.1116146346313 
1882	-8.89996856305445 
1883	-0.815777740988315 
1884	 0.530270872551918 
1885	 1.40732183596378 
1886	 1.73493485033473 
1887	 1.73447736284155 
1888	 1.5440998946666 
1889	 1.15223429045329 
1890	 0.237408346143597 
1891	-0.528988035946196 
1892	-1.56102683416109 
1893	-4.29618180583964 
1894	 1.53428129808564 
1895	 1.87826944781308 
1896	 1.84363636892471 
1897	 0.612213098592508 
1898	 0.336324239677636 
1899	 0.330547460213052 
1900	 0.225994164169244 
1901	 0.2983379478262 
1902	 0.366466782129404 
1903	 0.410797397411895 
1904	 0.192394098825462 
1905	 0.135115175568007 
1906	-0.325664631317701 
1907	-4.46606915229706 
1908	-9.66325174583223 
1909	 5.00338678433723 
1910	-1.98907439695855 
1911	 2.88449899099484 
1912	 0.175964866565111 
1913	 0.326366397788348 
1914	 0.775179063587765 
1915	 0.165861352437374 
1916	 1.76653503770292 
1917	 0.775488974875245 
1918	 0.79079611298346 
1919	 0.53449491781068 
1920	 0.34078552619765 
1921	-1.61201674903439 
1922	-3.76759178277828 
1923	 8.0840567796292 
1924	 4.90686520079604 
1925	 2.82639382812623 
1926	 3.81194621829252 
1927	-2.31461115980923 
1928	-1027.07180565852 
1929	 1.84119794076744 
1930	 1.41642225899124 
1931	 0.781516296993794 
1932	 0.48308101403984 
1933	 0.478901137164974 
1934	 8.53718183903341E-02 
1935	-0.504524406148982 
1936	-0.348458530785325 
1937	-0.308026762801265 
1938	-0.275848003637331 
1939	-0.249130675230321 
1940	-0.199135175505058 
1941	-0.211088715759484 
1942	-0.103638025359714 
1943	-5.61799382151979E-02 
1944	-2.47538231049209E-02 
1945	 0.153336816053375 
1946	 0.146638452461461 
1947	 0.152642964729556 
1948	 0.161834882217802 
1949	 0.150604274948216 
1950	 0.188469360881411 
1951	 0.118998485819847 
1952	 9.30702033739904E-02 
1953	 7.97382800548644E-02 
1954	 9.61168249275556E-02 
1955	 3.86702529713558E-02 
1956	 6.36930718109167E-02 
1957	 0.116676577019892 
1958	 6.55041929514787E-02 
1959	 2.41368574262328E-02 
1960	 4.04856948942519E-02 
1961	 3.95843704812662E-02 
1962	 3.16421492937906E-02 
1963	 6.23523314958683E-02 
1964	 8.54835974121427E-02 
1965	 0.070401990960026 
1966	 6.10918785628216E-02 
1967	 5.32527356942259E-02 
1968	 4.00273781397992E-02 
1969	 2.89963584436746E-02 
1970	 3.56422156894168E-02 
1971	 4.28291617035439E-02 
1972	 4.03858963456374E-02 
1973	 3.18792077488241E-02 
1974	 2.93089316475402E-02 
1975	 2.50223024255979E-02 
1976	 1.86456730245905E-02 
1977	 2.19338931015253E-02 
1978	 0.025272666282946 
1979	 2.61007043055556E-02 
1980	 2.51431974140185E-02 
1981	 3.07585674537139E-02 
1982	 3.54533005088347E-02 
1983	 3.64814948799091E-02 
1984	 3.68820205878043E-02 
1985	 0.035998672364528 
1986	 0.031722493250469 
1987	 2.20001539738734E-02 
1988	 1.56151962929996E-02 
1989	 1.50371307082796E-02 
1990	 1.44434037648365E-02 
1991	 1.51200220894132E-02 
1992	 1.55124821810101E-02 
1993	 1.62764400108226E-02 
1994	 1.88845023535357E-02 
1995	 2.37463619012346E-02 
1996	 2.86737574802538E-02 
1997	 3.18750154936723E-02 
1998	 3.02156514023247E-02 
1999	 2.77586119799228E-02 
2000	 2.80307073722108E-02 
2001	 3.22347900501935E-02 
2002	 0.038946023101644 
2003	 3.06716295365748E-02 
2004	 0.03249108675111 
2005	 5.36371643874759E-02 
2006	 6.99013951938761E-02 
2007	 8.30757626915536E-02 
2008	 8.29881060738493E-02 
2009	 8.04151672858536E-02 
2010	 5.79257005919637E-02 
2011	 4.22503981546423E-02 
2012	 2.82225945584603E-02 
2013	 2.06363880609699E-02 
2014	 1.50468588698097E-02 
2015	 2.52375757456264E-02 
2016	 2.99808042453829E-02 
2017	 3.51563846715708E-02 
2018	 3.20682933650944E-02 
2019	 1.77614629504599E-02 
2020	 1.70399976688743E-02 
2021	 2.66488582425048E-02 
2022	 3.15491301106083E-02 
2023	 3.14060381119769E-02 
2024	 3.11574299599011E-02 
2025	 2.75049407135764E-02 
2026	 2.52764305462544E-02 
2027	 2.13607339140326E-02 
2028	 2.31163855322813E-02 
2029	 2.61034718066025E-02 
2030	 2.46392622072158E-02 
2031	 2.46859825564016E-02 
2032	 2.61744904820859E-02 
2033	 2.40326887136253E-02 
2034	 2.48284984743437E-02 
2035	 2.75933979604418E-02 
2036	 2.67135834736897E-02 
2037	 2.46038378044043E-02 
2038	 2.54970307801151E-02 
2039	 2.52772564960835E-02 
2040	 2.34571551339454E-02 
2041	 2.15500739217071E-02 
2042	 2.01382151095971E-02 
2043	 1.82082225675031E-02 
2044	 1.39848063170907E-02 
2045	 1.25006013134194E-02 
2046	 1.29686930571002E-02 
2047	 1.17986894332815E-02 
2048	 8.8734093538003E-03 
2049	 6.13184148862752E-03 
2050	 7.07053703099099E-03 
2051	 1.24664884755608E-02 
2052	 1.86493027318527E-02 
2053	 2.35678431847775E-02 
2054	 2.59909189033807E-02 
2055	 2.41004985580527E-02 
2056	 2.29285254017273E-02 
2057	 2.01754891931573E-02 
2058	 1.95505358015214E-02 
2059	 1.79715575414976E-02 
2060	 1.78129723016438E-02 
2061	 1.77951129510996E-02 
2062	 2.24249907789046E-02 
2063	 2.51176168473087E-02 
2064	 2.78757892691682E-02 
2065	 2.90837501296939E-02 
2066	 2.36865839159791E-02 
2067	 2.10469024856763E-02 
2068	 2.28491174470409E-02 
2069	 0.023937168815036 
2070	 2.71776998823691E-02 
2071	 2.73655089125392E-02 
2072	 0.021880370266583 
2073	 1.93236615925629E-02 
2074	 1.74069854774752E-02 
2075	 1.41977487674585E-02 
2076	 9.17910140429626E-03 
2077	 7.94244950579725E-03 
2078	 6.16538399874724E-03 
2079	 7.19980893624912E-03 
2080	 1.22993194607895E-02 
2081	 1.61198249400179E-02 
2082	 1.80742241303157E-02 
2083	 2.04686197736537E-02 
2084	 2.03339515210396E-02 
2085	 2.24763001173407E-02 
2086	 2.35196693093941E-02 
2087	 1.99384959606438E-02 
2088	 1.83937745040495E-02 
2089	 1.59336145547044E-02 
2090	 1.31977618711136E-02 
2091	 1.47504430191943E-02 
2092	 1.58533891886092E-02 
2093	 1.73032521497888E-02 
2094	 1.79997095547876E-02 
2095	 2.01266946043322E-02 
2096	 2.13022254983773E-02 
2097	 2.04396369052038E-02 
2098	 2.07207843894648E-02 
2099	 2.32395854890796E-02 
2100	 2.23219951501698E-02 
2101	 1.95159210089467E-02 
2102	 1.82773938352106E-02 
2103	 1.62773514427147E-02 
2104	 0.016438889578017 
2105	 0.019638430811165 
2106	 2.26832757781718E-02 
2107	 0.022240104821157 
2108	 2.24811862893369E-02 
2109	 0.023355842793825 
2110	 2.10389609605472E-02 
2111	 2.17791319906301E-02 
2112	 2.45805678138992E-02 
2113	 2.50683092154183E-02 
2114	 2.47146312215545E-02 
2115	 2.38938929205998E-02 
2116	 2.08645672713627E-02 
2117	 1.88664617184228E-02 
2118	 1.50106602876629E-02 
2119	 1.42470226897946E-02 
2120	 1.54362807629448E-02 
2121	 1.88388208555688E-02 
2122	 0.019333731089508 
2123	 2.17051500336865E-02 
2124	 2.14972603909523E-02 
2125	 1.96500077147114E-02 
2126	 2.00199457011762E-02 
2127	 2.02516714763256E-02 
2128	 2.20547695911085E-02 
2129	 2.34332712817103E-02 
2130	 2.27430339785796E-02 
2131	 2.09770788031915E-02 
2132	 1.79667141372944E-02 
2133	 1.61429139917015E-02 
2134	 1.64250130392816E-02 
2135	 0.019840981507946 
2136	 2.13510744353885E-02 
2137	 2.46183441021849E-02 
2138	 2.46360484204426E-02 
2139	 2.07348824591459E-02 
2140	 0.020263626943611 
2141	 2.01512243824347E-02 
2142	 2.01318469734231E-02 
2143	 2.12304360934035E-02 
2144	 0.024381474680926 
2145	 2.57519078529863E-02 
2146	 0.02534779283043 
2147	 2.33819857685932E-02 
2148	 2.21295331959039E-02 
2149	 2.10155752609796E-02 
2150	 2.00184555913513E-02 
2151	 2.10871032772251E-02 
2152	 2.05923978507665E-02 
2153	 2.07364008269659E-02 
2154	 2.24258634737823E-02 
2155	 2.32916397208212E-02 
2156	 2.47803936508273E-02 
2157	 2.45598831220419E-02 
2158	 2.07457962612147E-02 
2159	 2.14216251390927E-02 
2160	 2.48883035259857E-02 
2161	 2.45978933082052E-02 
2162	 0.024194748583545 
2163	 0.023738598418793 
2164	 2.05357743262501E-02 
2165	 1.99331237210567E-02 
2166	 2.34032761423103E-02 
2167	 2.25313968179772E-02 
2168	 1.75221233774723E-02 
2169	 1.56462068093363E-02 
2170	 1.32343732746648E-02 
2171	 1.19079585217581E-02 
2172	 1.62166018092424E-02 
2173	 1.92475704200886E-02 
2174	 1.89636710185263E-02 
2175	 1.94289589490414E-02 
2176	 1.47551055286804E-02 
2177	 1.03905908089853E-02 
2178	 8.94514755156829E-03 
2179	 7.84145495807208E-03 
2180	 1.07767860702853E-02 
2181	 1.45751266951002E-02 
2182	 2.10162160044814E-02 
2183	 2.75748660138745E-02 
2184	 0.027129729178572 
2185	 2.89585885473431E-02 
2186	 3.08603511537326E-02 
2187	 2.87919593692624E-02 
2188	 2.96252632473024E-02 
2189	 3.66864076801101E-02 
2190	 3.65005640326554E-02 
2191	 3.11273440343932E-02 
2192	 2.83419235862285E-02 
2193	 2.34130931954044E-02 
2194	 2.08014581426416E-02 
2195	 2.10246443332378E-02 
2196	 2.02384433848324E-02 
2197	 1.93220972867988E-02 
2198	 1.67736418927961E-02 
2199	 0.014195707121962 
2200	 8.68481261573288E-03 
2201	 1.75563843234672E-03 
2202	 7.15394872928817E-04 
2203	 2.24141691668673E-03 
2204	 9.35640943502909E-03 
2205	 2.06676073419637E-02 
2206	 2.71170046762085E-02 
2207	 2.27870025139989E-02 
2208	 0.02142763248127 
2209	 2.40217009129473E-02 
2210	 1.86913254984845E-02 
2211	 1.89957664499698E-02 
2212	 0.018642899557156 
2213	 1.20369700359803E-02 
2214	 1.31651247274673E-02 
2215	 0.015306918550441 
2216	 0.019141094763751 
2217	 2.32120248001831E-02 
2218	 2.89002497882545E-02 
2219	 2.97406107127348E-02 
2220	 3.04346930916712E-02 
2221	 2.86652758516915E-02 
2222	 2.20017303305946E-02 
2223	 0.018103492013736 
2224	 1.30921655235856E-02 
2225	 1.13566220834176E-02 
2226	 1.18098074404387E-02 
2227	 1.11929638438731E-02 
2228	 1.22918783211554E-02 
2229	 1.23490158490124E-02 
2230	 0.011714268611044 
2231	 1.19707171936196E-02 
2232	 1.22676300746638E-02 
2233	 1.37999376165056E-02 
2234	 1.87080391995757E-02 
2235	 0.015057427901816 
2236	 1.44859115693983E-02 
2237	 1.84330938986663E-02 
2238	 0.016939834146859 
2239	 1.64250253305288E-02 
2240	 1.95687791307474E-02 
2241	 2.19873134073344E-02 
2242	 1.81926849285102E-02 
2243	 2.00711548056049E-02 
2244	 2.45249244452795E-02 
2245	 2.24294813224426E-02 
2246	 3.04938731858406E-02 
2247	 3.63363103111541E-02 
2248	 2.28807875467399E-02 
2249	 1.34527579138524E-02 
2250	 1.10999859065682E-02 
2251	 3.9548595226748E-03 
2252	 6.38878342955003E-03 
2253	 1.35037104594617E-02 
2254	 1.65199503224348E-02 
2255	 2.08405457346355E-02 
2256	 2.75974469797055E-02 
2257	 0.038101385481105 
2258	 4.28487792182124E-02 
2259	 4.23725449456525E-02 
2260	 3.90118625611942E-02 
2261	 2.60354504209728E-02 
2262	 2.30173834707319E-02 
2263	 2.39133017167603E-02 
2264	 0.020894069186688 
2265	 1.95406898394155E-02 
2266	 2.08052168771099E-02 
2267	 1.82238245728525E-02 
2268	 1.65665501427847E-02 
2269	 2.30542662501692E-02 
2270	 2.59833241882965E-02 
2271	 2.53477894670748E-02 
2272	 2.46799195168695E-02 
2273	 2.47688333703457E-02 
2274	 0.022991946272281 
2275	 1.61969175214389E-02 
2276	 0.012143850366975 
2277	 9.64122504154639E-03 
2278	 7.62896087634292E-03 
2279	 6.46969269318046E-03 
2280	 3.78366829948495E-03 
2281	-3.36514271698108E-04 
2282	 2.09859141967211E-04 
2283	 5.26547415403486E-03 
2284	 1.52099348701527E-02 
2285	 2.32011137077369E-02 
2286	 2.18234738562908E-02 
2287	 0.01434487827437 
2288	 5.99141825695931E-03 
2289	 3.29249672147519E-04 
2290	 7.00220454197163E-04 
2291	 3.40727197077253E-03 
2292	 4.29753195999445E-03 
2293	 1.05048100312542E-02 
2294	 2.64857447792775E-02 
2295	 3.09964406171617E-02 
2296	 2.41949343858352E-02 
2297	 1.78735642786595E-02 
2298	 1.19964136914205E-02 
2299	 1.56193387055762E-02 
2300	 2.05147571743549E-02 
2301	 2.31891954501772E-02 
2302	 2.26507762868978E-02 
2303	 1.98287433330983E-02 
2304	 2.00091764107652E-02 
2305	 1.44107211039681E-02 
2306	 9.53425188260536E-03 
2307	 7.56203797805755E-04 
2308	-8.51277067535003E-03 
2309	-8.14225694565021E-03 
2310	-5.99238416942298E-03 
2311	 6.66559649507218E-03 
2312	 1.35487979243918E-02 
2313	 1.38448031018517E-02 
2314	 1.91534972712358E-02 
2315	 2.41838411875606E-02 
2316	 3.00322910908301E-02 
2317	 2.80393555685675E-02 
2318	 2.93255383761429E-02 
2319	 2.40149301844283E-02 
2320	 1.23347129605203E-02 
2321	 0.01802976590468 
2322	 2.59943691463276E-02 
2323	 0.024011855807949 
2324	 3.26051171985746E-02 
2325	 5.46420250209005E-02 
2326	 6.52438369469799E-02 
2327	 0.061405686004389 
2328	 5.90740422082443E-02 
2329	 5.20483512900235E-02 
2330	 3.12432721105884E-02 
2331	 1.68174095188743E-02 
2332	 1.37019595609786E-02 
2333	-5.69443598675124E-03 
2334	-2.89209620786936E-02 
2335	-2.40864777855583E-02 
2336	-0.02986501540471 
2337	-0.033128780845239 
2338	 4.43547942908331E-03 
2339	 0.019499548060943 
2340	 1.32288650045338E-02 
2341	 0.027429680376875 
2342	 2.81156382768149E-02 
2343	 1.01364465292572E-02 
2344	 0.029786249677761 
2345	 0.056113996303946 
2346	 4.54198338999659E-02 
2347	 6.50206291220121E-02 
2348	 8.78218737179152E-02 
2349	 6.91890308436241E-02 
2350	 5.77229156448769E-02 
2351	 5.56604970032996E-02 
2352	 6.06186651334025E-02 
2353	 6.49810147602432E-02 
2354	 6.42812492713807E-02 
2355	 5.55723119436117E-02 
2356	 2.32520220361209E-02 
2357	-5.93786109312822E-03 
2358	-0.013163481040117 
2359	-2.55591461018954E-02 
2360	-3.69919998183991E-02 
2361	-3.04000074667061E-02 
2362	-0.03895691047076 
2363	-5.21336056056904E-02 
2364	-5.07131522849011E-02 
2365	-6.63470950010273E-02 
2366	-4.39330786417105E-02 
2367	-2.87156409586339E-03 
2368	 1.57226575813501E-02 
2369	 5.96248356704491E-02 
2370	 0.048378172824608 
2371	 5.07361987784344E-02 
2372	 0.100297513527978 
2373	 9.03323825897341E-02 
2374	 0.112144201343565 
2375	 0.100363445862844 
2376	 5.21101758784525E-02 
2377	 5.83610619674709E-02 
2378	 0.070590347362716 
2379	 5.14177162844663E-02 
2380	 5.55529329274896E-03 
2381	-3.09647149244387E-02 
2382	-0.113187345179458 
2383	-0.123997871256129 
2384	-0.067931299326063 
2385	-8.42952942476678E-02 
2386	-5.33293494762954E-02 
2387	-4.06025433200344E-03 
2388	 0.084018011072792 
2389	 0.103384467509124 
2390	 0.12976893527818 
2391	 0.184119153499454 
2392	 6.29401763910736E-02 
2393	-2.42214738061368E-02 
2394	-6.25317919165727E-02 
2395	-0.086445048149237 
2396	-0.124900289609411 
2397	-0.102939457765718 
2398	-2.92670464293819E-02 
2399	-3.79257763687554E-03 
2400	 2.02312277744558E-02 
2401	 1.38115113795671E-02 
2402	 2.40544284034087E-02 
2403	 7.9850686904712E-03 
2404	-6.5208166415733E-03 
2405	 0.149033386484136 
2406	 0.190273761258713 
2407	 0.183727894399614 
2408	 0.221788217771172 
2409	 9.75709856413019E-02 
2410	 1.92951985601147E-02 
2411	-7.12922507190664E-02 
2412	-9.39116789102557E-02 
2413	-6.81039216783897E-02 
2414	-0.101364747087545 
2415	 3.90443468985046E-02 
2416	 8.20633199190465E-02 
2417	 1.97806700676575E-03 
2418	-9.70334849605131E-02 
2419	-0.394689234198354 
2420	-0.292805961109297 
2421	-4.41975498999607E-02 
2422	-3.13462263773213E-02 
2423	 0.122926854620142 
2424	 3.45471608145878E-02 
2425	-0.101217535899917 
2426	 5.94172256491686E-03 
2427	-3.36529185838455E-02 
2428	-5.19977317242948E-02 
2429	-0.136767420654058 
2430	-0.210488185933487 
2431	-0.150520598433418 
2432	 1.76331426818733E-02 
2433	 0.303745143378885 
2434	 0.392220583857406 
2435	 0.133119163384361 
2436	 3.11880525911615E-02 
2437	-0.209787438355922 
2438	-0.267963194795645 
2439	 0.133678027102563 
2440	 0.207799537439951 
2441	 0.232770488000506 
2442	 0.397455417238356 
2443	 0.390768328174383 
2444	 0.653116630854672 
2445	 0.683584381954034 
2446	 0.376031348483078 
2447	 0.261301130992271 
2448	 0.273178011055063 
2449	 0.424007729179989 
2450	 0.399237944124642 
2451	 0.244063491383244 
2452	-0.102594773702622 
2453	-0.524602355343993 
2454	-0.389471586366879 
2455	 0.330633194980915 
2456	 0.157656831188969 
2457	 0.275470145382248 
2458	 6.08105335495937E-02 
2459	-0.315977319232187 
2460	 1.80714183423801E-02 
2461	 0.581506897663556 
2462	 0.605935663863672 
2463	 0.562145887195887 
2464	 0.255692415495465 
2465	 0.31216125500139 
2466	 0.487373594614519 
2467	 0.142163500516658 
2468	 0.403767163794908 
2469	-6.83578241032098E-02 
2470	-0.565165639054596 
2471	-0.189814529257331 
2472	-0.274033034666267 
2473	 2.50611256633304 
2474	 1.84526842890143 
2475	 0.539386990049753 
2476	 0.741512258881385 
2477	 2.2082466997251 
2478	-0.457609308289401 
2479	-0.785567178047281 
2480	-0.741110051094696 
2481	-0.198683640340311 
2482	 0.49547728665129 
2483	-1.57663745726613 
2484	-0.885295100511277 
2485	-4.5262506881566 
2486	-0.913102255577781 
2487	 5.83695468374115E-02 
2488	-6.01593014478829 
2489	 5.90674510386788 
2490	-2.59667924920574 
2491	 5.6297988535034 
2492	 5.1119890112248 
2493	-0.225477811684519 
2494	-0.572678836814858 
2495	-0.199244033033521 
2496	 3.84338038175038 
2497	-5.89496343089739 
2498	-2.75189382570469 
2499	 3.63528713326158 
2500	 2.16359158912958 
