Wavelength	rt0622far00003.asd
350	 4.51780335104741E-02 
351	 0.045772529576142 
352	 4.50980364629233E-02 
353	 4.46032037388816E-02 
354	 4.51486791497345E-02 
355	 4.52260772514343E-02 
356	 4.60599790176821E-02 
357	 4.66320613868015E-02 
358	 4.59498136245882E-02 
359	 4.60667547996975E-02 
360	 4.61829738908634E-02 
361	 4.62274584958319E-02 
362	 4.65938398966748E-02 
363	 4.63860955739809E-02 
364	 4.62516198682593E-02 
365	 4.64686613832474E-02 
366	 4.64546207553835E-02 
367	 0.047224276850172 
368	 4.77114446524487E-02 
369	 4.70817714098253E-02 
370	 4.72443575282862E-02 
371	 4.77212114564405E-02 
372	 4.81704696310835E-02 
373	 4.83497150451958E-02 
374	 4.82169279810285E-02 
375	 4.80172411267144E-02 
376	 4.80508826594517E-02 
377	 4.86166316983597E-02 
378	 4.88206551378099E-02 
379	 4.89722703287257E-02 
380	 4.94235702690956E-02 
381	 4.97200684448118E-02 
382	 4.97065239690308E-02 
383	 4.96801369952362E-02 
384	 5.00837675444098E-02 
385	 5.07143330521721E-02 
386	 5.06649481404996E-02 
387	 5.02209527940511E-02 
388	 5.09404412253839E-02 
389	 5.12007162444857E-02 
390	 5.13920277696835E-02 
391	 5.18205628712099E-02 
392	 5.15442280827443E-02 
393	 0.0515919882559 
394	 5.19460704107378E-02 
395	 5.22094204169938E-02 
396	 5.23233675947081E-02 
397	 5.25947040703627E-02 
398	 5.29345855809106E-02 
399	 0.05294151570804 
400	 5.31784009706655E-02 
401	 5.34124556796096E-02 
402	 5.35257816123629E-02 
403	 5.39790667922292E-02 
404	 5.41199150912353E-02 
405	 5.40541976662229E-02 
406	 5.41533980862959E-02 
407	 5.45138538419147E-02 
408	 0.054743311001585 
409	 5.47133277500059E-02 
410	 0.054605244926132 
411	 5.50902076882013E-02 
412	 5.53953059036709E-02 
413	 5.51657513258927E-02 
414	 5.57085828224041E-02 
415	 5.60808558616964E-02 
416	 5.62256706910614E-02 
417	 5.64332332021308E-02 
418	 5.67392998876573E-02 
419	 0.057087205149564 
420	 5.74191171270273E-02 
421	 5.76872994863938E-02 
422	 5.77085258578076E-02 
423	 5.80576264283163E-02 
424	 5.88872358547181E-02 
425	 5.87177606162694E-02 
426	 5.87796861558517E-02 
427	 0.059272688507005 
428	 5.98287299981794E-02 
429	 5.99859640945342E-02 
430	 6.03023532410633E-02 
431	 6.08895230581244E-02 
432	 6.12287654021546E-02 
433	 6.15881585820846E-02 
434	 6.18973620861486E-02 
435	 6.21503343874241E-02 
436	 6.27658742890899E-02 
437	 6.32340481149434E-02 
438	 0.063519120680544 
439	 6.38551974190134E-02 
440	 6.43251555703112E-02 
441	 6.47084275080027E-02 
442	 6.49819694304895E-02 
443	 6.54667780993593E-02 
444	 6.58113846649029E-02 
445	 6.61163597774772E-02 
446	 6.65491797296142E-02 
447	 6.70566770965338E-02 
448	 6.74135115113889E-02 
449	 6.76156094088814E-02 
450	 6.78359435686873E-02 
451	 6.81922250985916E-02 
452	 6.85248419065064E-02 
453	 6.87436938804313E-02 
454	 6.89834878418576E-02 
455	 6.92314763864235E-02 
456	 6.94596165421516E-02 
457	 6.96460635497557E-02 
458	 6.98609892852653E-02 
459	 7.00341162750683E-02 
460	 7.01971560264405E-02 
461	 7.04732480308833E-02 
462	 7.04826557708837E-02 
463	 7.06051693450735E-02 
464	 7.10663344004538E-02 
465	 7.12554183842032E-02 
466	 7.13938808601157E-02 
467	 7.16004030524001E-02 
468	 7.19122034032105E-02 
469	 0.07206731885486 
470	 7.22698792474717E-02 
471	 7.25614873451381E-02 
472	 7.27091457782313E-02 
473	 7.30156323247843E-02 
474	 7.33288509011322E-02 
475	 7.34941455517651E-02 
476	 0.073778167264866 
477	 7.41372806646191E-02 
478	 7.44477399493454E-02 
479	 7.45797075278698E-02 
480	 7.49514121385182E-02 
481	 7.53335876341329E-02 
482	 7.56104053837891E-02 
483	 7.60946880739491E-02 
484	 7.63445978021478E-02 
485	 7.65113594380075E-02 
486	 7.69021287026728E-02 
487	 7.73606703549358E-02 
488	 0.077747777209371 
489	 7.80752710385034E-02 
490	 7.84962007468113E-02 
491	 7.89387082961515E-02 
492	 7.94591168740621E-02 
493	 8.00205049179679E-02 
494	 8.02266560456328E-02 
495	 8.08132007719139E-02 
496	 8.15449006865522E-02 
497	 8.18000942369403E-02 
498	 8.22727528327223E-02 
499	 8.28945524418328E-02 
500	 8.35061973292782E-02 
501	 8.39278313823994E-02 
502	 8.45860111252502E-02 
503	 0.08530456361327 
504	 8.58340306096762E-02 
505	 8.63985729211631E-02 
506	 8.68342104413684E-02 
507	 8.72847021321505E-02 
508	 8.80853686174096E-02 
509	 8.85480423227149E-02 
510	 8.89031467159021E-02 
511	 0.089424437217057 
512	 9.01553673196909E-02 
513	 9.07948139131491E-02 
514	 9.13712033742185E-02 
515	 9.20457783080332E-02 
516	 9.27807053170264E-02 
517	 9.35434946397585E-02 
518	 9.43010210775127E-02 
519	 9.50268530235032E-02 
520	 9.57808077358718E-02 
521	 9.65583244662794E-02 
522	 9.73336735130122E-02 
523	 9.80376817495493E-02 
524	 9.87686952649928E-02 
525	 9.95666372495245E-02 
526	 0.10041866272204 
527	 0.101205891503254 
528	 0.101995039441426 
529	 0.102841381069622 
530	 0.103742330132456 
531	 0.104525099298063 
532	 0.105295070557062 
533	 0.106211346358011 
534	 0.107071775284698 
535	 0.107882354264493 
536	 0.108678367715822 
537	 0.109504771141437 
538	 0.110513638974834 
539	 0.11149947927915 
540	 0.112297597818059 
541	 0.113167237348218 
542	 0.114113442281973 
543	 0.115043484298875 
544	 0.115834559862438 
545	 0.11671401040588 
546	 0.117587160343786 
547	 0.118397298423025 
548	 0.119250528375259 
549	 0.120041497756898 
550	 0.120865349321883 
551	 0.121828791491975 
552	 0.122668526120215 
553	 0.123517703057558 
554	 0.124421512911662 
555	 0.125294183679266 
556	 0.126112594931211 
557	 0.126936651224094 
558	 0.12779916698885 
559	 0.128605852086884 
560	 0.129371517101241 
561	 0.130098574484046 
562	 0.130792766735492 
563	 0.131516612488875 
564	 0.132183754685365 
565	 0.132784785029459 
566	 0.133514861274396 
567	 0.134048913657824 
568	 0.13452824918025 
569	 0.13517080858365 
570	 0.135568363485718 
571	 0.135923169905891 
572	 0.136351831617247 
573	 0.136829717950523 
574	 0.137082343815471 
575	 0.137244709996776 
576	 0.137484528170079 
577	 0.137766861238425 
578	 0.13780365862886 
579	 0.13775200733126 
580	 0.137971339209735 
581	 0.137851547715897 
582	 0.137630279498856 
583	 0.137469898041697 
584	 0.137197109752335 
585	 0.136973458594185 
586	 0.136765173628988 
587	 0.136467501779586 
588	 0.136055847761141 
589	 0.135524209012967 
590	 0.135003406367939 
591	 0.134688093402649 
592	 0.134196256052154 
593	 0.133466758754979 
594	 0.132549040508508 
595	 0.131562211383941 
596	 0.130374316448021 
597	 0.129088007247873 
598	 0.127915639744147 
599	 0.126678708273867 
600	 0.12543191308755 
601	 0.12436293576331 
602	 0.123854780941077 
603	 0.123387230134611 
604	 0.123031044438768 
605	 0.122953734394632 
606	 0.122729970381017 
607	 0.12278867450127 
608	 0.123003200951784 
609	 0.122674011211303 
610	 0.122576831196024 
611	 0.122631207637512 
612	 0.122632190866128 
613	 0.122558301047772 
614	 0.122574269965525 
615	 0.122556820075108 
616	 0.122301042834974 
617	 0.122449431897853 
618	 0.122524609256864 
619	 0.122315216196038 
620	 0.122223068335521 
621	 0.122189900591186 
622	 0.12217811603821 
623	 0.122146972709267 
624	 0.122077316640338 
625	 0.122012145023178 
626	 0.121979290557562 
627	 0.121978184439509 
628	 0.121759058883725 
629	 0.121585779120981 
630	 0.121630002517109 
631	 0.121574849081569 
632	 0.121501404856132 
633	 0.12137191385653 
634	 0.12114740720654 
635	 0.121181681167143 
636	 0.121134224668438 
637	 0.120891267373854 
638	 0.120748108502756 
639	 0.120683413992157 
640	 0.12064047815346 
641	 0.120546362915946 
642	 0.120328995655303 
643	 0.12027034803433 
644	 0.120282261811185 
645	 0.120000215239425 
646	 0.119950642843567 
647	 0.119791827906147 
648	 0.119357392646934 
649	 0.119271961353462 
650	 0.11898140729789 
651	 0.118514217120365 
652	 0.118105235479331 
653	 0.117702694380451 
654	 0.116987495475595 
655	 0.115940851383138 
656	 0.115127359011203 
657	 0.114309994266024 
658	 0.113587243896541 
659	 0.113031920210308 
660	 0.11252796119739 
661	 0.112156179775569 
662	 0.111858660734094 
663	 0.111507972180201 
664	 0.11114013451871 
665	 0.110917299493952 
666	 0.110822516618272 
667	 0.11049343323051 
668	 0.110270884018648 
669	 0.11018552303895 
670	 0.110131423373363 
671	 0.109865144471011 
672	 0.109673408313162 
673	 0.109650215814455 
674	 0.109678206055462 
675	 0.109618097690977 
676	 0.109504221717358 
677	 0.1094277261863 
678	 0.109534608827132 
679	 0.10962878281927 
680	 0.109622399847444 
681	 0.109528741493784 
682	 0.109677772328918 
683	 0.109675368793024 
684	 0.109523046232711 
685	 0.109846878679866 
686	 0.109981866276343 
687	 0.109780857220291 
688	 0.109408505045874 
689	 0.109157510031781 
690	 0.108897855279294 
691	 0.108480404786025 
692	 0.107778273901364 
693	 0.107339311841511 
694	 0.10650956474861 
695	 0.10524287935808 
696	 0.104531169446926 
697	 0.103771837052639 
698	 0.10275657421815 
699	 0.101527894906203 
700	 0.100476779327703 
701	 9.93078617745394E-02 
702	 9.79479526553607E-02 
703	 9.64856215192456E-02 
704	 0.095050898780081 
705	 9.36679027541341E-02 
706	 9.22644421353379E-02 
707	 9.04474010945145E-02 
708	 8.88208089359668E-02 
709	 8.71899230237413E-02 
710	 8.51784564977394E-02 
711	 8.31776494653363E-02 
712	 8.09786869109699E-02 
713	 7.86943940511943E-02 
714	 7.67569646386274E-02 
715	 7.52207269123045E-02 
716	 7.36552457457029E-02 
717	 7.16865240740966E-02 
718	 0.069426140840944 
719	 6.65739089119363E-02 
720	 6.40296425100488E-02 
721	 6.21159225357641E-02 
722	 6.04793957464506E-02 
723	 5.87926804167025E-02 
724	 5.70147270757132E-02 
725	 5.48663855367903E-02 
726	 5.30143428388722E-02 
727	 5.11411169074398E-02 
728	 0.048909285269474 
729	 4.64448062609823E-02 
730	 4.43652062104644E-02 
731	 4.25515159948937E-02 
732	 4.05847698633944E-02 
733	 0.039496637109509 
734	 3.86257943102646E-02 
735	 3.76823967967348E-02 
736	 3.69373022364082E-02 
737	 3.63384518744038E-02 
738	 3.58604699962411E-02 
739	 3.54929553415999E-02 
740	 3.52393651415374E-02 
741	 3.49818808425214E-02 
742	 3.47826703630632E-02 
743	 3.47508451865789E-02 
744	 3.45842410629939E-02 
745	 3.44769220372408E-02 
746	 3.44833881152998E-02 
747	 3.44060876231143E-02 
748	 3.43577914724945E-02 
749	 3.43512205874498E-02 
750	 3.43578807000086E-02 
751	 3.42939275096391E-02 
752	 3.42656511243325E-02 
753	 3.42124284226589E-02 
754	 3.40408944905587E-02 
755	 3.41745464784078E-02 
756	 3.43749915821865E-02 
757	 3.45441856840649E-02 
758	 3.49610635658864E-02 
759	 3.58094056533686E-02 
760	 0.036714065890574 
761	 3.66609715768484E-02 
762	 3.68558625064544E-02 
763	 3.63877681963211E-02 
764	 3.57328537767944E-02 
765	 3.54734047306488E-02 
766	 3.49950468995409E-02 
767	 3.45977565513835E-02 
768	 3.44228656556323E-02 
769	 0.034484249585351 
770	 3.45774965967516E-02 
771	 3.45633657143265E-02 
772	 3.44453743102529E-02 
773	 3.45424702279105E-02 
774	 3.47539618124805E-02 
775	 3.49344864309283E-02 
776	 3.49812331094832E-02 
777	 3.52076732543256E-02 
778	 3.53028873410577E-02 
779	 3.53481245648729E-02 
780	 3.58082917077176E-02 
781	 3.59123347344309E-02 
782	 3.59208859777447E-02 
783	 3.61340970510173E-02 
784	 3.65134596577455E-02 
785	 3.68189744251301E-02 
786	 3.71432963873906E-02 
787	 3.75988538112197E-02 
788	 3.76881975427735E-02 
789	 3.79215111477782E-02 
790	 3.83188369568236E-02 
791	 0.038484966857428 
792	 3.84566682747949E-02 
793	 3.87709769348308E-02 
794	 3.94715256910516E-02 
795	 3.96879964410037E-02 
796	 3.99193235933085E-02 
797	 0.040037251284949 
798	 0.040016341471535 
799	 4.07565262424947E-02 
800	 4.12520836250266E-02 
801	 4.13490292174755E-02 
802	 4.14293226985403E-02 
803	 4.15982786454448E-02 
804	 4.16832439561053E-02 
805	 4.16897117912192E-02 
806	 4.18292714961622E-02 
807	 0.041837912654062 
808	 4.19031665612956E-02 
809	 4.21070400092153E-02 
810	 4.19780684639684E-02 
811	 4.23216334053942E-02 
812	 4.27110617251075E-02 
813	 4.23611687778499E-02 
814	 0.042178332926831 
815	 4.22293928981792E-02 
816	 4.22180531335481E-02 
817	 0.041666251649711 
818	 4.06797998976517E-02 
819	 3.98564130640792E-02 
820	 3.94866633087574E-02 
821	 0.03959240711121 
822	 3.89893953079669E-02 
823	 3.78088833898158E-02 
824	 3.66409610006093E-02 
825	 3.58221520953106E-02 
826	 0.035358858716388 
827	 3.48530175422893E-02 
828	 3.38920353000067E-02 
829	 3.29258770855679E-02 
830	 3.23025793000994E-02 
831	 3.19233414258591E-02 
832	 3.14108766661278E-02 
833	 3.07459654938624E-02 
834	 3.06724193011214E-02 
835	 3.09980940190175E-02 
836	 3.03214302525249E-02 
837	 2.98524637745568E-02 
838	 2.97483512681036E-02 
839	 2.97906950397565E-02 
840	 2.94034619573304E-02 
841	 2.91878752854223E-02 
842	 2.92450337631024E-02 
843	 2.94078588336324E-02 
844	 2.92957430290423E-02 
845	 2.87592244907475E-02 
846	 2.83737253294888E-02 
847	 2.89581697589981E-02 
848	 2.89878490517843E-02 
849	 2.86125006314473E-02 
850	 2.83615493347507E-02 
851	 2.88892594253781E-02 
852	 2.88655577607972E-02 
853	 2.84416664355921E-02 
854	 2.80457420084489E-02 
855	 2.79100934418277E-02 
856	 2.81072620080371E-02 
857	 2.83126686791506E-02 
858	 2.82010008078111E-02 
859	 2.77918483477426E-02 
860	 2.76948117456042E-02 
861	 2.80347896434383E-02 
862	 2.84983753305882E-02 
863	 2.79569609002672E-02 
864	 2.79167535880343E-02 
865	 0.02832626485036 
866	 2.77449706356703E-02 
867	 2.76489345986705E-02 
868	 2.75465124236868E-02 
869	 2.72343283450404E-02 
870	 2.72175458759052E-02 
871	 2.75791963657619E-02 
872	 2.77427832410586E-02 
873	 2.74043020980259E-02 
874	 2.71697043625436E-02 
875	 2.72969233543308E-02 
876	 2.73319838507043E-02 
877	 2.69501315976775E-02 
878	 2.72165486446063E-02 
879	 2.71431637581629E-02 
880	 2.68109805067429E-02 
881	 2.67988539360924E-02 
882	 2.72512516360662E-02 
883	 2.71740526728438E-02 
884	 2.69661201865781E-02 
885	 2.77939673196365E-02 
886	 2.75894568026407E-02 
887	 2.69020774697343E-02 
888	 2.64528427752051E-02 
889	 0.026752273702963 
890	 2.77501638329937E-02 
891	 2.81710979950183E-02 
892	 2.76839901742597E-02 
893	 2.81968235527768E-02 
894	 2.79670549423409E-02 
895	 2.80488453660856E-02 
896	 2.92363726769307E-02 
897	 2.86876388665169E-02 
898	 2.84440949528381E-02 
899	 2.85693247982698E-02 
900	 2.84794894836063E-02 
901	 2.81279246956209E-02 
902	 2.82421114946455E-02 
903	 2.85272239802694E-02 
904	 2.83988435064516E-02 
905	 2.79360144071234E-02 
906	 2.71841950125154E-02 
907	 0.027323952214263 
908	 2.95408058989174E-02 
909	 2.86811241688015E-02 
910	 2.82974444800309E-02 
911	 2.89411875923069E-02 
912	 2.80241730038537E-02 
913	 2.80658650671233E-02 
914	 2.90654135130807E-02 
915	 2.99428976996561E-02 
916	 2.91169341804639E-02 
917	 2.74050407638263E-02 
918	 2.67119020025964E-02 
919	 2.73772446381519E-02 
920	 2.77025623222758E-02 
921	 2.81464624866055E-02 
922	 2.84870762516997E-02 
923	 2.82732281118134E-02 
924	 2.67169430756674E-02 
925	 2.91868445185185E-02 
926	 0.031301935622951 
927	 2.83943633081892E-02 
928	 2.82911759658997E-02 
929	 0.027010055247189 
930	 2.76557324760732E-02 
931	 3.51352368618231E-02 
932	 3.42478007378129E-02 
933	 0.031860095561489 
934	 3.43521582776189E-02 
935	 4.04479930799005E-02 
936	 3.29328854916184E-02 
937	 2.93328815230187E-02 
938	 2.92961241346834E-02 
939	 2.83735661261813E-02 
940	 3.31256487097289E-02 
941	 3.46710962550015E-02 
942	 3.34818567050451E-02 
943	 3.34413015359533E-02 
944	 2.71587623457492E-02 
945	 2.25137823227802E-02 
946	 2.18160660617576E-02 
947	 2.32223108700665E-02 
948	 2.96467622787337E-02 
949	 3.72202839887471E-02 
950	 3.86774560837579E-02 
951	 2.95578953868152E-02 
952	 2.77586522350791E-02 
953	 3.01678262702531E-02 
954	 3.19978323476625E-02 
955	 3.01530457895207E-02 
956	 3.11000760325447E-02 
957	 2.95396103719755E-02 
958	 2.82030779454004E-02 
959	 3.32508560691825E-02 
960	 3.26602255144177E-02 
961	 3.00941567911758E-02 
962	 2.83152115678547E-02 
963	 0.02811658202249 
964	 2.93401012007458E-02 
965	 0.028717069891887 
966	 2.71741991933169E-02 
967	 2.79141086295514E-02 
968	 2.73637624789905E-02 
969	 2.60469981835357E-02 
970	 2.56243714391515E-02 
971	 2.79274957183336E-02 
972	 3.09691339669887E-02 
973	 3.09970676269142E-02 
974	 2.92726189037845E-02 
975	 3.07455094101664E-02 
976	 0.02628079729582 
977	 2.60323668600492E-02 
978	 2.90949944993725E-02 
979	 2.55927486396793E-02 
980	 0.027113311801007 
981	 2.83580423193345E-02 
982	 2.84962698068996E-02 
983	 3.04304357694833E-02 
984	 2.70320124351265E-02 
985	 2.44462011608202E-02 
986	 2.47670089860272E-02 
987	 2.57434748596969E-02 
988	 2.64550598429977E-02 
989	 2.63509171430446E-02 
990	 2.61453247692972E-02 
991	 0.026774895298191 
992	 2.46424432722928E-02 
993	 2.23114286778339E-02 
994	 2.29597346064527E-02 
995	 2.75420422590331E-02 
996	 2.56074276664113E-02 
997	 2.50871621259031E-02 
998	 2.59418474410312E-02 
999	 2.39417626660384E-02 
1000	 2.60978757227503E-02 
1001	 0.025452961598479 
1002	 2.55040217424214E-02 
1003	 2.57410174234516E-02 
1004	 2.71784630675764E-02 
1005	 0.027384020952765 
1006	 2.66047775757283E-02 
1007	 0.026092398125227 
1008	 2.60363076007057E-02 
1009	 2.60046263455842E-02 
1010	 2.58663748560515E-02 
1011	 2.61699352749235E-02 
1012	 2.67845070356484E-02 
1013	 2.73745617196325E-02 
1014	 2.76847517750468E-02 
1015	 2.85545592597056E-02 
1016	 2.86526916727342E-02 
1017	 2.75980567009577E-02 
1018	 0.027382764159346 
1019	 2.75386579297657E-02 
1020	 2.75834307898972E-02 
1021	 2.79606694734217E-02 
1022	 2.79806171831527E-02 
1023	 2.77007399844937E-02 
1024	 2.71751905886286E-02 
1025	 0.026958704880549 
1026	 2.68856603757316E-02 
1027	 2.66232205417618E-02 
1028	 2.64941751633899E-02 
1029	 2.64187511658392E-02 
1030	 0.026026203602897 
1031	 2.58563496768662E-02 
1032	 2.61132708165576E-02 
1033	 2.60949686812615E-02 
1034	 2.57151584070068E-02 
1035	 2.59117000617668E-02 
1036	 2.65842776078378E-02 
1037	 2.67369119400001E-02 
1038	 2.72321707451129E-02 
1039	 2.70474287119468E-02 
1040	 2.61325626512075E-02 
1041	 2.59764395368019E-02 
1042	 2.59900777978705E-02 
1043	 2.61806006421915E-02 
1044	 2.65729316662244E-02 
1045	 2.77392400200589E-02 
1046	 2.78339758646132E-02 
1047	 2.75878727331203E-02 
1048	 2.72678754044262E-02 
1049	 2.57855126326161E-02 
1050	 2.56407760984127E-02 
1051	 2.63478722068543E-02 
1052	 2.66612197194189E-02 
1053	 2.79342638827623E-02 
1054	 2.82655573915771E-02 
1055	 2.72217840361644E-02 
1056	 2.71451232245898E-02 
1057	 2.72893599710825E-02 
1058	 2.75812166296861E-02 
1059	 2.75309941208026E-02 
1060	 2.79610025576664E-02 
1061	 2.79253448160899E-02 
1062	 2.71962749051851E-02 
1063	 2.68153479886012E-02 
1064	 2.65749467842714E-02 
1065	 2.64284937507473E-02 
1066	 2.56655250542916E-02 
1067	 2.60171874714887E-02 
1068	 2.79718207529177E-02 
1069	 2.85054941155948E-02 
1070	 2.92954790218513E-02 
1071	 2.93213260956029E-02 
1072	 2.78982452173054E-02 
1073	 2.64336572860315E-02 
1074	 2.57236569142267E-02 
1075	 2.47683361695626E-02 
1076	 2.51626558479409E-02 
1077	 2.69996435867557E-02 
1078	 2.75385971862114E-02 
1079	 2.86191131442919E-02 
1080	 2.88538149791885E-02 
1081	 2.74508602776037E-02 
1082	 2.73564507161437E-02 
1083	 2.83908012550263E-02 
1084	 0.028309052383517 
1085	 2.75547771198492E-02 
1086	 2.75948236171393E-02 
1087	 0.027124944127772 
1088	 2.69869769149428E-02 
1089	 2.72583392969421E-02 
1090	 2.92592605696552E-02 
1091	 2.93146638766745E-02 
1092	 2.82850336198297E-02 
1093	 2.82841535385648E-02 
1094	 2.79656766140128E-02 
1095	 0.027939793937709 
1096	 2.90340594381852E-02 
1097	 2.91680730498232E-02 
1098	 2.82872450951887E-02 
1099	 2.82725604105635E-02 
1100	 2.80451465173616E-02 
1101	 2.84200587791508E-02 
1102	 3.07851646920145E-02 
1103	 0.031494412546557 
1104	 3.13961131906946E-02 
1105	 3.12869048498741E-02 
1106	 3.16529352773518E-02 
1107	 2.89967036158134E-02 
1108	 2.76876000267982E-02 
1109	 2.97841285615711E-02 
1110	 3.08189130175655E-02 
1111	 0.033042722269378 
1112	 3.38694388290011E-02 
1113	 3.36816861526687E-02 
1114	 3.45308403731492E-02 
1115	 3.55588400315135E-02 
1116	 3.57905996300812E-02 
1117	 3.65974206937017E-02 
1118	 3.80791820621542E-02 
1119	 3.74628291605609E-02 
1120	 3.76061381477166E-02 
1121	 4.12835451264687E-02 
1122	 4.28539227546931E-02 
1123	 4.56174155455341E-02 
1124	 4.26505879991606E-02 
1125	 4.27522844512656E-02 
1126	 4.44193825034372E-02 
1127	 3.86132253705479E-02 
1128	 3.40948273980598E-02 
1129	 3.13440123179533E-02 
1130	 2.85914229539785E-02 
1131	 3.11745166953995E-02 
1132	 3.64648919839959E-02 
1133	 3.84387710550326E-02 
1134	 4.38456914635531E-02 
1135	 4.18143431089577E-02 
1136	 3.40522539442611E-02 
1137	 3.28387694252684E-02 
1138	 3.22662917663135E-02 
1139	 0.030430715834814 
1140	 3.26082950787529E-02 
1141	 3.30207248973995E-02 
1142	 3.40473797106557E-02 
1143	 3.67898692305845E-02 
1144	 3.45444470386297E-02 
1145	 3.42968189866899E-02 
1146	 3.36486062601049E-02 
1147	 2.91479836302769E-02 
1148	 3.16753350470936E-02 
1149	 3.39571427982438E-02 
1150	 0.033605340462141 
1151	 3.15173667154948E-02 
1152	 3.23030038400179E-02 
1153	 0.033067762774484 
1154	 3.38638583279945E-02 
1155	 3.64997969039642E-02 
1156	 0.035822437151239 
1157	 3.50144522353224E-02 
1158	 3.29411880578757E-02 
1159	 3.05851826360932E-02 
1160	 3.15166441123104E-02 
1161	 3.18450333082058E-02 
1162	 3.11880564432001E-02 
1163	 3.12203044678742E-02 
1164	 3.06730190019822E-02 
1165	 2.99783655407331E-02 
1166	 2.99393040169687E-02 
1167	 3.00116408765104E-02 
1168	 2.98233129399389E-02 
1169	 2.99836437911108E-02 
1170	 3.02591065826137E-02 
1171	 2.99521586806587E-02 
1172	 0.028983587617013 
1173	 2.87855834716907E-02 
1174	 2.84892574074026E-02 
1175	 2.84666356658908E-02 
1176	 2.93053324072744E-02 
1177	 2.98275324745833E-02 
1178	 2.94620877833615E-02 
1179	 2.90426411579639E-02 
1180	 2.80483776250377E-02 
1181	 2.81699378495723E-02 
1182	 2.90569814850513E-02 
1183	 2.84532660630707E-02 
1184	 2.78295295583209E-02 
1185	 2.80442350148014E-02 
1186	 2.81774671562424E-02 
1187	 2.84886551597028E-02 
1188	 2.93004530293226E-02 
1189	 2.92927497909337E-02 
1190	 2.85730624993606E-02 
1191	 2.85421126947017E-02 
1192	 2.86564339364366E-02 
1193	 2.92663038796362E-02 
1194	 2.91347934986972E-02 
1195	 2.83192289397841E-02 
1196	 2.78491778015109E-02 
1197	 2.77764282446771E-02 
1198	 2.80813710756499E-02 
1199	 2.85043867417438E-02 
1200	 2.83893070205277E-02 
1201	 2.78363317613189E-02 
1202	 0.02753055486884 
1203	 2.77588175903849E-02 
1204	 2.80424826635177E-02 
1205	 2.82971909226202E-02 
1206	 0.027972258250198 
1207	 2.71006740051043E-02 
1208	 2.73831934627454E-02 
1209	 2.80927868168949E-02 
1210	 2.81265721421622E-02 
1211	 0.028468249711846 
1212	 2.85103693573729E-02 
1213	 2.76289460202142E-02 
1214	 2.72972270448016E-02 
1215	 2.69471409558002E-02 
1216	 2.76338612434821E-02 
1217	 2.80183212396084E-02 
1218	 2.76673867690737E-02 
1219	 2.78418280041131E-02 
1220	 2.77314560478957E-02 
1221	 2.70096154882638E-02 
1222	 2.70663896250972E-02 
1223	 2.69642676394828E-02 
1224	 2.61833824555976E-02 
1225	 2.62767655032873E-02 
1226	 2.69188655819108E-02 
1227	 0.026958199415161 
1228	 2.69134787608227E-02 
1229	 2.71174401582772E-02 
1230	 2.69065560667843E-02 
1231	 2.65786598902293E-02 
1232	 2.65967511237295E-02 
1233	 2.65492406343435E-02 
1234	 2.66446510615654E-02 
1235	 2.68332753947674E-02 
1236	 0.027809035210848 
1237	 2.78457261712126E-02 
1238	 2.73596644317302E-02 
1239	 2.68991115821432E-02 
1240	 2.68862775295924E-02 
1241	 2.67976319395231E-02 
1242	 2.64656571013001E-02 
1243	 2.63170495395713E-02 
1244	 2.60889745009858E-02 
1245	 2.60397217225677E-02 
1246	 0.02683509799278 
1247	 0.027060949631579 
1248	 2.64087670792951E-02 
1249	 2.60164474565669E-02 
1250	 2.56518219688058E-02 
1251	 2.53658285813149E-02 
1252	 2.53292656971051E-02 
1253	 2.55831749114406E-02 
1254	 2.59313498699853E-02 
1255	 2.61749587532834E-02 
1256	 2.62844584456798E-02 
1257	 0.026296683027179 
1258	 2.63177076328141E-02 
1259	 0.026114787255321 
1260	 2.64335942221234E-02 
1261	 2.74515507800937E-02 
1262	 0.027763785692688 
1263	 2.78953411791956E-02 
1264	 2.78624001012191E-02 
1265	 2.74811429831635E-02 
1266	 2.72688596415773E-02 
1267	 2.75807635417507E-02 
1268	 2.76324104898273E-02 
1269	 0.027588279221878 
1270	 2.77611623694522E-02 
1271	 2.75709629949964E-02 
1272	 2.69936702337449E-02 
1273	 2.67441081791313E-02 
1274	 2.66955238401032E-02 
1275	 2.62690063113217E-02 
1276	 2.64460764169925E-02 
1277	 2.73451963455933E-02 
1278	 2.73991211055177E-02 
1279	 2.68998137460841E-02 
1280	 2.67627135257083E-02 
1281	 2.66746396439516E-02 
1282	 2.57673917238413E-02 
1283	 2.57053853466423E-02 
1284	 2.66584621978749E-02 
1285	 0.026873215919732 
1286	 2.69139211741583E-02 
1287	 2.70038713369586E-02 
1288	 2.69021524276781E-02 
1289	 2.70003449340554E-02 
1290	 2.74204894847407E-02 
1291	 2.71480577842442E-02 
1292	 2.61477790864267E-02 
1293	 2.58215494523256E-02 
1294	 2.61564153324804E-02 
1295	 2.64425646301362E-02 
1296	 2.71616501430872E-02 
1297	 2.79756677087911E-02 
1298	 0.027744620790995 
1299	 0.027496658866849 
1300	 2.75605532222704E-02 
1301	 2.75476470348606E-02 
1302	 0.028096853219361 
1303	 2.79885425915714E-02 
1304	 2.75793138332831E-02 
1305	 2.82044770044294E-02 
1306	 2.83261110780965E-02 
1307	 2.78879684248442E-02 
1308	 2.76887714308804E-02 
1309	 2.74148918083737E-02 
1310	 2.76472996085161E-02 
1311	 2.81458824149073E-02 
1312	 2.85962157040009E-02 
1313	 3.00115067038673E-02 
1314	 3.04487469255365E-02 
1315	 2.98951024522026E-02 
1316	 0.030013545680688 
1317	 3.02534916253505E-02 
1318	 3.00830206148707E-02 
1319	 2.96354580936868E-02 
1320	 2.96356083641807E-02 
1321	 2.95729995633833E-02 
1322	 2.96679599823925E-02 
1323	 2.92346071949665E-02 
1324	 2.97022549501432E-02 
1325	 3.03736467765355E-02 
1326	 2.92249655020783E-02 
1327	 2.98783158095124E-02 
1328	 3.19599544790178E-02 
1329	 3.14639136694795E-02 
1330	 3.12231398346497E-02 
1331	 3.15163285332144E-02 
1332	 3.02722776201147E-02 
1333	 2.99317994994811E-02 
1334	 3.18311493460267E-02 
1335	 3.30737191587767E-02 
1336	 3.51553591818642E-02 
1337	 3.57280597676659E-02 
1338	 3.56743719823921E-02 
1339	 3.54367796377458E-02 
1340	 3.34467750661348E-02 
1341	 3.35214895694186E-02 
1342	 3.52893606313117E-02 
1343	 3.50876791308243E-02 
1344	 3.48747341655639E-02 
1345	 3.50042489355252E-02 
1346	 3.24608010913646E-02 
1347	 3.15419601809989E-02 
1348	 3.31650096557384E-02 
1349	 3.53947111221366E-02 
1350	 4.61646257388698E-02 
1351	 4.80756484343854E-02 
1352	 2.37210597078008E-02 
1353	 2.03344991805489E-02 
1354	 3.01048982944404E-02 
1355	 3.86163051706894E-02 
1356	 2.06377088149607E-02 
1357	 6.00712706505079E-02 
1358	 1.93247230341987E-02 
1359	-7.56147587892767E-02 
1360	 0.077826208757547 
1361	 0.132187159806674 
1362	 0.124819451282413 
1363	-0.019183429932243 
1364	-0.128114827316349 
1365	 0.172966540966176 
1366	 0.921368457377143 
1367	 1.39275640941724 
1368	 1.54593933882414 
1369	 2.02222308667864 
1370	 3.81333568853113 
1371	 2.70570154045453 
1372	 1.38512264818751 
1373	-61.9980334645422 
1374	-8.50736843572064 
1375	 5.25337349343261E-02 
1376	 0.113221118617251 
1377	 0.513724186882799 
1378	 0.707672632890316 
1379	 1.09822457993597 
1380	 1.38470800189363 
1381	 3.03785789172964 
1382	 4.86285415351533 
1383	 1.24835300305758 
1384	 1.0063756958656 
1385	 1.43296634501626 
1386	 1.5386096959609 
1387	 1.69639039981773 
1388	 1.9130337374455 
1389	 3.88404798110052 
1390	 2.59277506937224 
1391	 0.444914195059393 
1392	 0.557106104848851 
1393	 1.23120040296927 
1394	 1.42578110793778 
1395	 0.812995437617928 
1396	 0.488062071242882 
1397	 0.921540673356423 
1398	 0.848799983069856 
1399	 0.586672981941336 
1400	-98.2867446175163 
1401	 0.483711030006806 
1402	-0.403801751368174 
1403	-4.78952903454789E-02 
1404	 0.533289257890373 
1405	 0.486453248702119 
1406	 10.854467026434 
1407	-29.6847984325738 
1408	 0.447684309517961 
1409	-7.24616696160255E-03 
1410	-6.87910950698715E-02 
1411	 0.154858449580646 
1412	 0.537121012597226 
1413	 0.247437033116097 
1414	 0.233064416004289 
1415	 0.357976499131312 
1416	 0.289743287441002 
1417	 0.158649251811096 
1418	 0.165853568169235 
1419	 0.208133870031352 
1420	 0.129282340018297 
1421	 0.105043286289284 
1422	 0.172438736501711 
1423	 0.194657269569471 
1424	 0.167815606456249 
1425	 0.149202509273588 
1426	 0.161543325269902 
1427	 0.156100411647963 
1428	 0.105555911393752 
1429	 9.63949821711957E-02 
1430	 0.139780774138385 
1431	 0.125874809595681 
1432	 6.61060770710084E-02 
1433	 4.70791811987294E-02 
1434	 2.00821232636552E-02 
1435	 1.33414523676171E-03 
1436	 0.012236926876768 
1437	 3.69256472869063E-02 
1438	 4.85159835923417E-02 
1439	 2.01334670605621E-02 
1440	 0.015576191147429 
1441	 2.49022395611593E-02 
1442	 0.021374609056148 
1443	 2.98228607265189E-02 
1444	 3.80502144842775E-02 
1445	 5.17997275438196E-02 
1446	 6.22871257201247E-02 
1447	 6.10655647825254E-02 
1448	 5.92280345803419E-02 
1449	 5.47808783943353E-02 
1450	 0.052358664977853 
1451	 4.92557208826016E-02 
1452	 4.59710972311481E-02 
1453	 0.048357468024882 
1454	 4.61970683798269E-02 
1455	 4.51910910644564E-02 
1456	 4.05739622891458E-02 
1457	 2.96663029583117E-02 
1458	 2.85060932256601E-02 
1459	 3.05758643848767E-02 
1460	 3.21090777175336E-02 
1461	 3.87591589161279E-02 
1462	 4.16361379871986E-02 
1463	 4.26924487785928E-02 
1464	 4.17467863987725E-02 
1465	 3.81153261076475E-02 
1466	 3.80053243222917E-02 
1467	 3.77113702843407E-02 
1468	 3.73988562702703E-02 
1469	 4.04832856699293E-02 
1470	 4.17217588209991E-02 
1471	 3.95370484196571E-02 
1472	 3.92268538409978E-02 
1473	 4.15442716580606E-02 
1474	 4.12639375896711E-02 
1475	 3.75222398411751E-02 
1476	 3.94159999141055E-02 
1477	 4.78316570689711E-02 
1478	 4.50201994930409E-02 
1479	 3.59754242552275E-02 
1480	 0.035771747853978 
1481	 3.40758097374215E-02 
1482	 3.24331945023236E-02 
1483	 3.73430441012019E-02 
1484	 3.86262624134222E-02 
1485	 3.62843116146871E-02 
1486	 3.44668785381901E-02 
1487	 0.032760641113646 
1488	 3.28499905325802E-02 
1489	 3.27433971703641E-02 
1490	 3.17018681739112E-02 
1491	 3.22713506382159E-02 
1492	 3.21872097675097E-02 
1493	 3.06661678608904E-02 
1494	 0.029766589749296 
1495	 2.86758695377291E-02 
1496	 0.028788919398398 
1497	 2.97811773241518E-02 
1498	 2.97995858318908E-02 
1499	 3.05811687650529E-02 
1500	 3.06019362094297E-02 
1501	 2.90133237766096E-02 
1502	 2.84187301944583E-02 
1503	 0.028449242590424 
1504	 2.82072867410983E-02 
1505	 2.78498229536252E-02 
1506	 2.78716164335637E-02 
1507	 2.84421189213192E-02 
1508	 2.88823381626725E-02 
1509	 0.028619895238596 
1510	 2.79266412877273E-02 
1511	 2.74414378824415E-02 
1512	 2.72992313555458E-02 
1513	 2.77649796605155E-02 
1514	 0.028151786957859 
1515	 2.76322993316538E-02 
1516	 2.67664999748892E-02 
1517	 2.63493222534066E-02 
1518	 2.66507356921124E-02 
1519	 0.02715838480301 
1520	 2.74799776501336E-02 
1521	 2.76121260169373E-02 
1522	 2.74722288577648E-02 
1523	 2.69918384636004E-02 
1524	 2.66642183276442E-02 
1525	 2.68956019698951E-02 
1526	 2.73754209268637E-02 
1527	 2.82678717724077E-02 
1528	 2.83223580757924E-02 
1529	 2.73143669302451E-02 
1530	 2.71839071765913E-02 
1531	 2.73124477761605E-02 
1532	 2.68758747381785E-02 
1533	 2.63851372945731E-02 
1534	 2.62266393908335E-02 
1535	 2.61525907314853E-02 
1536	 0.026136616987751 
1537	 2.68855217281366E-02 
1538	 2.75813248874349E-02 
1539	 2.72647176169468E-02 
1540	 2.66909941877951E-02 
1541	 0.026631513123567 
1542	 2.69351019435458E-02 
1543	 2.68266386385469E-02 
1544	 0.026447156521444 
1545	 2.64398307103805E-02 
1546	 2.63530893449072E-02 
1547	 2.63416991143183E-02 
1548	 2.65212598962621E-02 
1549	 2.67220201325352E-02 
1550	 2.66225068020385E-02 
1551	 2.58848703048016E-02 
1552	 2.58894440821068E-02 
1553	 0.026494780136246 
1554	 0.026152095009802 
1555	 2.56687790694833E-02 
1556	 2.59337049627829E-02 
1557	 2.60378283254386E-02 
1558	 2.57065769283398E-02 
1559	 2.57138136323091E-02 
1560	 2.62192179736295E-02 
1561	 2.65349152524179E-02 
1562	 2.66283524965586E-02 
1563	 2.64568158535928E-02 
1564	 0.026065784422811 
1565	 2.60612026005412E-02 
1566	 2.59735915849076E-02 
1567	 2.58119561231797E-02 
1568	 2.61991846315004E-02 
1569	 2.74999350756794E-02 
1570	 0.027980551055522 
1571	 2.71126851545837E-02 
1572	 2.71796896666698E-02 
1573	 2.66229898288848E-02 
1574	 2.53148197635982E-02 
1575	 2.54019360976992E-02 
1576	 2.55794246437944E-02 
1577	 0.0257442027711 
1578	 2.60469129225142E-02 
1579	 2.58465182642348E-02 
1580	 2.60856910347703E-02 
1581	 2.60631774198985E-02 
1582	 2.56195553965302E-02 
1583	 2.60475624366539E-02 
1584	 2.63565309484729E-02 
1585	 2.60813444391152E-02 
1586	 2.57782156121358E-02 
1587	 2.58263146381659E-02 
1588	 2.59836690739687E-02 
1589	 2.49336943332052E-02 
1590	 2.44453786123823E-02 
1591	 2.52714404163518E-02 
1592	 2.53164250073239E-02 
1593	 2.52901806704957E-02 
1594	 2.58994242392542E-02 
1595	 2.65132025555945E-02 
1596	 2.67184483947972E-02 
1597	 2.65990742118754E-02 
1598	 2.63580939035102E-02 
1599	 2.56862576504793E-02 
1600	 2.53308801187881E-02 
1601	 2.59116241245145E-02 
1602	 2.66142455417808E-02 
1603	 2.69769098808589E-02 
1604	 0.026621094413964 
1605	 2.61940539477631E-02 
1606	 2.64087668480278E-02 
1607	 2.65166341642023E-02 
1608	 2.60076717583824E-02 
1609	 2.50165477017674E-02 
1610	 2.46709878445348E-02 
1611	 2.44610701786785E-02 
1612	 2.44318457478402E-02 
1613	 0.025363523277459 
1614	 2.57874182497921E-02 
1615	 2.57021468164678E-02 
1616	 2.57307873360591E-02 
1617	 2.59475508752376E-02 
1618	 2.59734699884853E-02 
1619	 2.56914432108174E-02 
1620	 2.59564909818079E-02 
1621	 2.62858338393512E-02 
1622	 0.025950962762104 
1623	 2.55391326995176E-02 
1624	 2.55497885284519E-02 
1625	 0.025155371675015 
1626	 2.46284335364391E-02 
1627	 2.48722115640412E-02 
1628	 2.50575526108394E-02 
1629	 2.49590297200703E-02 
1630	 2.53107574876261E-02 
1631	 2.57117703654272E-02 
1632	 2.55531433254436E-02 
1633	 2.52788831392796E-02 
1634	 2.54226785599578E-02 
1635	 2.65601264441922E-02 
1636	 2.69923061831114E-02 
1637	 2.61101446765849E-02 
1638	 0.026066915522885 
1639	 2.58785767194793E-02 
1640	 2.51584202384807E-02 
1641	 2.50613114857671E-02 
1642	 2.53784919175714E-02 
1643	 2.56119779597622E-02 
1644	 2.56882278634043E-02 
1645	 2.59551792957314E-02 
1646	 0.025889501344847 
1647	 2.54254175315364E-02 
1648	 2.51397381866196E-02 
1649	 2.51238136604633E-02 
1650	 2.61136585970586E-02 
1651	 2.65463372710095E-02 
1652	 2.51696986533614E-02 
1653	 2.51950384153854E-02 
1654	 2.51423680505084E-02 
1655	 2.46951727131414E-02 
1656	 2.47957319810248E-02 
1657	 2.53289616152824E-02 
1658	 0.025576747839959 
1659	 2.62696649406676E-02 
1660	 2.64326057610089E-02 
1661	 2.59105355557583E-02 
1662	 0.025870464922603 
1663	 2.59363122973395E-02 
1664	 2.57404585851599E-02 
1665	 2.56174936260973E-02 
1666	 2.52873570955895E-02 
1667	 2.43263266987182E-02 
1668	 0.024474748373828 
1669	 2.51063571055673E-02 
1670	 2.53626642757195E-02 
1671	 2.50158461644209E-02 
1672	 0.025468344447672 
1673	 2.57425485045095E-02 
1674	 2.60941525494789E-02 
1675	 2.68016741012003E-02 
1676	 2.70130273331479E-02 
1677	 0.027027263199265 
1678	 2.50949567679489E-02 
1679	 2.34233521035271E-02 
1680	 2.39558422417253E-02 
1681	 0.023937800253882 
1682	 2.44649827280956E-02 
1683	 2.55329723380971E-02 
1684	 2.52856724958363E-02 
1685	 2.52629704349703E-02 
1686	 2.61793702390059E-02 
1687	 2.67270770436371E-02 
1688	 0.026139982484603 
1689	 2.51915874684152E-02 
1690	 2.49911481070458E-02 
1691	 2.57565274031551E-02 
1692	 2.64832334664237E-02 
1693	 0.025787237428436 
1694	 2.46006910703856E-02 
1695	 2.46154615135409E-02 
1696	 2.48224125047118E-02 
1697	 2.50055967563543E-02 
1698	 2.53393797735374E-02 
1699	 2.45552969102387E-02 
1700	 2.38583056066279E-02 
1701	 2.45289048232182E-02 
1702	 2.49331093874701E-02 
1703	 2.43239004223018E-02 
1704	 2.38759584144012E-02 
1705	 2.41356143691162E-02 
1706	 2.51443762440466E-02 
1707	 2.57050206306614E-02 
1708	 2.55285753151908E-02 
1709	 0.025670842162527 
1710	 2.60532700257909E-02 
1711	 2.66446304220911E-02 
1712	 2.70981477881328E-02 
1713	 2.58538415957609E-02 
1714	 2.50402520276658E-02 
1715	 2.47794303656749E-02 
1716	 2.34623677288716E-02 
1717	 2.25506205032758E-02 
1718	 2.37455237556647E-02 
1719	 2.49482004242625E-02 
1720	 2.57849431884904E-02 
1721	 2.72634402117972E-02 
1722	 2.67363837925537E-02 
1723	 0.02538313330368 
1724	 2.58549008026027E-02 
1725	 2.58378907580258E-02 
1726	 2.57819591951551E-02 
1727	 2.60652266353829E-02 
1728	 2.59071396814374E-02 
1729	 2.64730880886348E-02 
1730	 2.60742693255564E-02 
1731	 0.025390045915267 
1732	 2.64262325945953E-02 
1733	 2.68328507080331E-02 
1734	 0.027088531408278 
1735	 2.83179589491321E-02 
1736	 2.79320417166229E-02 
1737	 2.71980940235185E-02 
1738	 2.78631865717917E-02 
1739	 2.73989756627715E-02 
1740	 2.64353804948185E-02 
1741	 2.69328660798013E-02 
1742	 2.68772471599885E-02 
1743	 2.68404909792862E-02 
1744	 2.79485782546871E-02 
1745	 2.66055130676742E-02 
1746	 2.60623000735913E-02 
1747	 2.57230414418411E-02 
1748	 2.45065680268826E-02 
1749	 2.45308797049782E-02 
1750	 2.50405108586751E-02 
1751	 2.50756331264671E-02 
1752	 2.61078616388918E-02 
1753	 2.71927706771664E-02 
1754	 2.81803300605998E-02 
1755	 2.78727468721341E-02 
1756	 2.69275467448001E-02 
1757	 2.62042266693467E-02 
1758	 2.61859676598739E-02 
1759	 2.75571743212634E-02 
1760	 2.90597800161874E-02 
1761	 2.73260918756218E-02 
1762	 2.54831099025794E-02 
1763	 2.62711830694193E-02 
1764	 2.47249039639862E-02 
1765	 2.50481709656311E-02 
1766	 2.64037243257136E-02 
1767	 2.28524271848244E-02 
1768	 2.32576586409816E-02 
1769	 2.80613058148809E-02 
1770	 0.027766099195713 
1771	 0.02531913313878 
1772	 2.58535810878675E-02 
1773	 2.60747970111783E-02 
1774	 0.027108643443937 
1775	 0.036138154556162 
1776	 3.79098093246287E-02 
1777	 3.10026122471771E-02 
1778	 0.028929757496263 
1779	 2.42746569697694E-02 
1780	 2.36385891848234E-02 
1781	 3.04866803768646E-02 
1782	 3.14874564585162E-02 
1783	 3.21495877594037E-02 
1784	 3.13220552824095E-02 
1785	 2.40296203887904E-02 
1786	 2.27456184048818E-02 
1787	 2.45028224475902E-02 
1788	 2.61863609164786E-02 
1789	 3.23485239252923E-02 
1790	 3.01696901962625E-02 
1791	 3.11321679044578E-02 
1792	 0.031824615871057 
1793	 2.63472995706732E-02 
1794	 2.95401313332916E-02 
1795	 2.76021501881232E-02 
1796	 1.80248002187913E-02 
1797	 3.04765382356334E-02 
1798	 4.51788688259381E-02 
1799	 3.96931483592409E-02 
1800	 1.85180650443864E-02 
1801	 8.41985163740052E-03 
1802	-6.37940386588756E-03 
1803	-7.17327113156404E-03 
1804	 3.35967191249013E-02 
1805	 6.00523635217856E-02 
1806	 0.108874354737237 
1807	 0.114465739672267 
1808	 5.06759739631165E-02 
1809	 2.01861005304363E-02 
1810	-0.112471029965137 
1811	-0.113682363957461 
1812	 8.75960275896309E-02 
1813	 0.12963763239823 
1814	 0.205247418957126 
1815	 0.29171801257928 
1816	 0.200560924124386 
1817	 7.54531331805809E-02 
1818	 0.278580984426214 
1819	-0.491264912967633 
1820	 24.1484237441745 
1821	-1.26639978663627 
1822	-0.646532362797419 
1823	-4.31931856735161 
1824	-10.1953288444688 
1825	 5.94439348446678 
1826	 3.0851476529095 
1827	 0.488520178910031 
1828	 0.197941725767043 
1829	 8.04929026738619E-02 
1830	-1.52647348882749 
1831	-1.39005930770825 
1832	-1.19194177796209 
1833	-8.65875277428989E-02 
1834	-5.85021828566781E-02 
1835	-0.561611461671485 
1836	-0.853457890601503 
1837	-6.54045095649091 
1838	-15.3830419989938 
1839	-2.32616555088479 
1840	-0.329211397491143 
1841	-0.207387261983257 
1842	 0.181732785546196 
1843	 0.244811627086527 
1844	-0.216102613234553 
1845	-5.58481188889721E-02 
1846	 0.436883826982628 
1847	 0.617854108416384 
1848	 0.741651417598367 
1849	 0.912480495067351 
1850	 1.1111505729723 
1851	 1.28663140969975 
1852	 1.24014659203977 
1853	 5.13550929982871 
1854	 4.24767022904255 
1855	-0.372827706976605 
1856	-0.800564263580732 
1857	-0.67616012810896 
1858	-0.581227440129503 
1859	-0.416340984401275 
1860	-0.845684800657738 
1861	-1.24079857799466 
1862	-0.799452860575169 
1863	-0.346360425393057 
1864	-0.123354795587885 
1865	-3.55302265039032E-02 
1866	 0.261594716318331 
1867	 0.286379780554552 
1868	-0.212698261740771 
1869	-0.408025243595349 
1870	-0.581296634932851 
1871	-0.768486063857091 
1872	-0.403399101307655 
1873	 0.168861148909044 
1874	 0.311093061141666 
1875	 1.00452722991137 
1876	 1.41682865667761 
1877	 1.02737342688508 
1878	 1.0600866590938 
1879	 1.56212763012217 
1880	 2.7018435057642 
1881	 4.54545976997464 
1882	 0.872128707143018 
1883	 0.936051822653053 
1884	 0.168132483097708 
1885	-0.27952960161637 
1886	-2.42417128830849E-02 
1887	 0.629510347944631 
1888	 1.32626035772088 
1889	 1.54759624982978 
1890	 2.44097157270398 
1891	 3.45220393578219 
1892	 1.75224344789639 
1893	-0.219486754048885 
1894	 0.446759784018309 
1895	 1.88857829086604 
1896	 2.68148793042222 
1897	 1.51533751051238 
1898	 1.8864332168276 
1899	 1.71975091596166 
1900	 1.32567109793319 
1901	 0.643178680448957 
1902	 0.313714257502296 
1903	-0.102100056717115 
1904	-0.363596616963121 
1905	-0.33661784865176 
1906	 0.48844894456005 
1907	 3.95075034813232 
1908	 14.1085706773769 
1909	-39.5405378132719 
1910	-9.76899933912038 
1911	 5.92912541654774 
1912	-2.55028367866989 
1913	-1.35506885824243 
1914	 0.279905942933697 
1915	 16.3949213475877 
1916	-4.57999743795852 
1917	-1.79816355673151 
1918	-1.22549949142044 
1919	-0.395538941255341 
1920	 0.461478267576436 
1921	-2.92607639906343 
1922	-9.54488181392411 
1923	 15.5579601700894 
1924	 7.08987066538683 
1925	 4.20840753012479 
1926	 4.03779710486827 
1927	-1.04755919797747 
1928	 122.548365209256 
1929	 8.77561048316624E-02 
1930	 0.249458407162542 
1931	 1.21885693536364E-02 
1932	-0.129855874731067 
1933	-0.200858543327729 
1934	-0.667894222008323 
1935	-0.566258142007334 
1936	-0.419460457320943 
1937	-0.419456441105691 
1938	-0.328727313578557 
1939	-0.281990297588601 
1940	-0.254236797871365 
1941	-0.160131794729751 
1942	-0.052344039154427 
1943	 2.12690514794644E-02 
1944	-2.45201953784186E-02 
1945	-0.113251468906449 
1946	-9.46394831429909E-02 
1947	-0.224394032560312 
1948	-0.191325067082855 
1949	-2.01081845598669E-02 
1950	-3.24854950999997E-03 
1951	 5.81701993106773E-02 
1952	 0.125430876077059 
1953	 0.18630940972476 
1954	 0.173355278670952 
1955	 0.15550786239544 
1956	 0.134598362465628 
1957	 0.107432120855979 
1958	 0.079807502837292 
1959	 9.10412231018825E-02 
1960	 8.48124028271925E-02 
1961	 0.054936679137906 
1962	 3.40300284522512E-02 
1963	 0.026460310958273 
1964	 3.11877617763828E-02 
1965	 4.31110577413106E-02 
1966	 4.67457981989056E-02 
1967	 5.26609439932625E-02 
1968	 4.41350353557411E-02 
1969	 2.68231709998843E-02 
1970	 1.89821845623179E-02 
1971	 1.82968468343571E-02 
1972	 0.022368454047926 
1973	 3.03337961931697E-02 
1974	 3.11505850740985E-02 
1975	 2.58910898879187E-02 
1976	 1.91184710863187E-02 
1977	 1.40861389865883E-02 
1978	 0.016955474493189 
1979	 0.01958479918281 
1980	 2.41349548304884E-02 
1981	 2.71196159243354E-02 
1982	 3.35555574116926E-02 
1983	 3.52018436865001E-02 
1984	 3.34963973750832E-02 
1985	 3.59144423509966E-02 
1986	 3.57028843832569E-02 
1987	 0.032073944898152 
1988	 3.33579567756589E-02 
1989	 3.08288514493876E-02 
1990	 2.89929125124599E-02 
1991	 3.51427295630158E-02 
1992	 3.34749977454373E-02 
1993	 3.20279256852617E-02 
1994	 3.56390139214429E-02 
1995	 4.36745885576494E-02 
1996	 4.36056413970693E-02 
1997	 4.41855494342551E-02 
1998	 5.02317325847835E-02 
1999	 4.26190024572539E-02 
2000	 3.53511082163761E-02 
2001	 3.72575909981362E-02 
2002	 0.028740608676096 
2003	 1.94507787793481E-02 
2004	 8.29477009072476E-03 
2005	 1.24101505860956E-02 
2006	 2.30151772411212E-02 
2007	 1.59442737024332E-02 
2008	 6.59133196348251E-03 
2009	 2.24703889541693E-03 
2010	-1.27939410463229E-02 
2011	-1.51189042653033E-02 
2012	-6.65568414924407E-03 
2013	 2.2393464088027E-03 
2014	 1.17278424013788E-02 
2015	 2.23223065609808E-02 
2016	 2.79826652914471E-02 
2017	 3.62979036833285E-02 
2018	 3.58432314222054E-02 
2019	 0.029788980786828 
2020	 3.39386527403877E-02 
2021	 3.25485312710673E-02 
2022	 3.09162979895491E-02 
2023	 3.30022334649047E-02 
2024	 0.032916082013803 
2025	 3.07858043025935E-02 
2026	 3.16815341242389E-02 
2027	 3.47065128954621E-02 
2028	 0.033909272009454 
2029	 0.032059072571969 
2030	 3.06961978162775E-02 
2031	 3.22059427652382E-02 
2032	 3.17360950434894E-02 
2033	 3.41150157037068E-02 
2034	 3.53862042130693E-02 
2035	 3.20022771003552E-02 
2036	 3.17278119187708E-02 
2037	 3.23603992458982E-02 
2038	 3.19788975743711E-02 
2039	 3.17256315552606E-02 
2040	 0.032797453507656 
2041	 3.20473259771493E-02 
2042	 2.92457287779655E-02 
2043	 2.70026147271814E-02 
2044	 2.39789566980651E-02 
2045	 2.16805020055851E-02 
2046	 1.97559197874468E-02 
2047	 2.00440884564243E-02 
2048	 2.21273687068965E-02 
2049	 2.41823759872952E-02 
2050	 2.56135892165562E-02 
2051	 2.83424383182269E-02 
2052	 3.02689020617409E-02 
2053	 0.027974379850371 
2054	 3.08835085984948E-02 
2055	 3.55989546328224E-02 
2056	 3.74953275585004E-02 
2057	 4.11080595951843E-02 
2058	 0.043499755222577 
2059	 0.042817268057903 
2060	 4.03515655282455E-02 
2061	 3.74522333007024E-02 
2062	 3.40338003002529E-02 
2063	 2.66688066779996E-02 
2064	 2.16758385196197E-02 
2065	 2.37342318014072E-02 
2066	 2.32453049868695E-02 
2067	 0.022943835728818 
2068	 2.82862952619253E-02 
2069	 3.05276085649296E-02 
2070	 2.86295414992407E-02 
2071	 0.026430485525924 
2072	 2.21685354025685E-02 
2073	 0.020637692517983 
2074	 1.87909442303133E-02 
2075	 1.84350108111096E-02 
2076	 2.10050435907102E-02 
2077	 2.30904480133395E-02 
2078	 2.49059697595174E-02 
2079	 2.61467510332656E-02 
2080	 2.87081312032302E-02 
2081	 2.87161057693549E-02 
2082	 0.028915684833859 
2083	 2.86682817237038E-02 
2084	 2.83425599150905E-02 
2085	 2.98233220897802E-02 
2086	 2.91827743185899E-02 
2087	 2.57962439816527E-02 
2088	 2.47887327643004E-02 
2089	 2.57950363689654E-02 
2090	 2.59198133995637E-02 
2091	 0.027686035278496 
2092	 2.77438554027717E-02 
2093	 2.55950685288859E-02 
2094	 2.56885283251397E-02 
2095	 2.69835913058603E-02 
2096	 2.70633107321567E-02 
2097	 0.027994632147316 
2098	 2.76996282492089E-02 
2099	 2.48749838691998E-02 
2100	 2.48447014782423E-02 
2101	 2.39576112728711E-02 
2102	 0.024870535039562 
2103	 2.63090577480566E-02 
2104	 2.33768250982607E-02 
2105	 2.04137168914884E-02 
2106	 1.90836884418501E-02 
2107	 1.72946750376054E-02 
2108	 1.62839510892776E-02 
2109	 1.75884069422599E-02 
2110	 1.89267885374503E-02 
2111	 1.87721510240422E-02 
2112	 2.01379475262288E-02 
2113	 0.021334397611168 
2114	 2.33899845580666E-02 
2115	 2.29685952320125E-02 
2116	 2.04147164672952E-02 
2117	 2.00298982370253E-02 
2118	 1.79581115146857E-02 
2119	 1.80659380101443E-02 
2120	 2.06577179740898E-02 
2121	 2.53466729229272E-02 
2122	 2.53681402963881E-02 
2123	 2.46264481032885E-02 
2124	 2.40454704645121E-02 
2125	 2.28880851639277E-02 
2126	 0.024636866775207 
2127	 2.72196313130334E-02 
2128	 2.85630657285326E-02 
2129	 2.82265996782077E-02 
2130	 2.76952149796288E-02 
2131	 2.62898532584491E-02 
2132	 2.64710464389983E-02 
2133	 2.69441930843351E-02 
2134	 2.57390730999661E-02 
2135	 2.29769183077175E-02 
2136	 2.33843567804527E-02 
2137	 2.40523691901577E-02 
2138	 2.38324070281639E-02 
2139	 2.57284232358206E-02 
2140	 2.52853994193772E-02 
2141	 2.14504352668761E-02 
2142	 2.06053310023823E-02 
2143	 2.10753000114726E-02 
2144	 2.19556164466575E-02 
2145	 2.13939887375658E-02 
2146	 2.13316732108269E-02 
2147	 2.24265431425565E-02 
2148	 2.07381605683414E-02 
2149	 2.01234261943788E-02 
2150	 2.28458480670206E-02 
2151	 2.53872707263466E-02 
2152	 2.67023551169914E-02 
2153	 2.74658389880945E-02 
2154	 2.94840805381274E-02 
2155	 3.08391893583155E-02 
2156	 3.03818076485577E-02 
2157	 2.98771788764402E-02 
2158	 3.03256372529608E-02 
2159	 2.76913623063667E-02 
2160	 1.93732276253774E-02 
2161	 1.93563566259615E-02 
2162	 2.37833646138644E-02 
2163	 2.55297615062638E-02 
2164	 3.26471784399804E-02 
2165	 3.38283725009194E-02 
2166	 2.70547258970606E-02 
2167	 2.52258325911215E-02 
2168	 2.54806275260182E-02 
2169	 2.51777327995631E-02 
2170	 2.68532810454598E-02 
2171	 0.026335333811839 
2172	 2.57208296212504E-02 
2173	 2.18202368715403E-02 
2174	 1.85653461994705E-02 
2175	 2.04740635338843E-02 
2176	 2.40451666857073E-02 
2177	 0.026867678226751 
2178	 2.90195526056857E-02 
2179	 2.92329633499455E-02 
2180	 2.77849049608776E-02 
2181	 2.67572592813767E-02 
2182	 2.45636404994611E-02 
2183	 2.47653384680935E-02 
2184	 2.68053220874697E-02 
2185	 2.52474465423468E-02 
2186	 2.39468996893162E-02 
2187	 2.28577707966495E-02 
2188	 2.15756510888064E-02 
2189	 1.86912532839841E-02 
2190	 1.86155804014233E-02 
2191	 2.23211565216131E-02 
2192	 2.26717107325528E-02 
2193	 1.93266407698741E-02 
2194	 0.019235545501549 
2195	 2.12979914239832E-02 
2196	 1.94422960609015E-02 
2197	 1.67445655137584E-02 
2198	 0.017618881073547 
2199	 1.72346362671197E-02 
2200	 1.66588400662738E-02 
2201	 2.13378992942843E-02 
2202	 2.49282704733453E-02 
2203	 2.29731171771581E-02 
2204	 0.020207733682311 
2205	 2.05906705708027E-02 
2206	 2.36231210913519E-02 
2207	 2.48124665813163E-02 
2208	 2.36411041586008E-02 
2209	 2.30295299201794E-02 
2210	 2.09101952885866E-02 
2211	 1.88026444609577E-02 
2212	 0.019702218725963 
2213	 2.39580362347308E-02 
2214	 0.030141919785667 
2215	 3.20302287813511E-02 
2216	 3.40096427547682E-02 
2217	 3.36176270698822E-02 
2218	 2.70673485415453E-02 
2219	 2.40595831151193E-02 
2220	 2.27324486766201E-02 
2221	 1.98284677741199E-02 
2222	 1.38479854317913E-02 
2223	 1.46895141185749E-02 
2224	 2.03734586895271E-02 
2225	 2.23126996531061E-02 
2226	 2.81954884206449E-02 
2227	 3.00978728222653E-02 
2228	 2.66452087455221E-02 
2229	 2.39339581454534E-02 
2230	 2.05897136039697E-02 
2231	 1.92533939907309E-02 
2232	 1.73868539149399E-02 
2233	 1.56166194255948E-02 
2234	 1.49323448005446E-02 
2235	 1.56568671685343E-02 
2236	 1.53666279991705E-02 
2237	 1.55094549428143E-02 
2238	 1.84848880499667E-02 
2239	 1.71976772431344E-02 
2240	 1.72265045355125E-02 
2241	 2.07413489817264E-02 
2242	 2.07309917451353E-02 
2243	 0.024798291258026 
2244	 3.08174423053444E-02 
2245	 0.029025569273782 
2246	 2.72856233687963E-02 
2247	 2.55422598494287E-02 
2248	 0.018011421225602 
2249	 1.33327807699965E-02 
2250	 1.58279978057553E-02 
2251	 1.74585836231679E-02 
2252	 1.82180029932982E-02 
2253	 0.020672805237297 
2254	 1.57845037073491E-02 
2255	 1.27515028806711E-02 
2256	 0.01921282337153 
2257	 2.25350478824036E-02 
2258	 0.022470912336273 
2259	 2.27393222365692E-02 
2260	 2.16337228707879E-02 
2261	 1.03440482996955E-02 
2262	 1.16618388407422E-02 
2263	 2.45208528053003E-02 
2264	 2.71505966530818E-02 
2265	 3.19321847861971E-02 
2266	 3.25849221720724E-02 
2267	 2.51652553890142E-02 
2268	 2.15977110454201E-02 
2269	 1.47423660557493E-02 
2270	 1.25898939553183E-02 
2271	 1.12791415257572E-02 
2272	 1.23300079077842E-02 
2273	 2.16694251709731E-02 
2274	 2.82894763083307E-02 
2275	 3.69538331185596E-02 
2276	 4.06519340706557E-02 
2277	 4.12765528353469E-02 
2278	 4.12116832352343E-02 
2279	 3.41257796160072E-02 
2280	 3.32127507535413E-02 
2281	 3.73750975591211E-02 
2282	 3.63963218829542E-02 
2283	 3.12321811060971E-02 
2284	 2.96239355240399E-02 
2285	 2.68082634961234E-02 
2286	 0.024655920753486 
2287	 3.19387123782697E-02 
2288	 4.30026055416372E-02 
2289	 4.18240259734174E-02 
2290	 3.31909519119368E-02 
2291	 2.61750560148302E-02 
2292	 0.020506182663243 
2293	 2.11311815334486E-02 
2294	 2.50489877101797E-02 
2295	 3.35606280128203E-02 
2296	 3.43591619006157E-02 
2297	 2.56195632082421E-02 
2298	 2.70514849241886E-02 
2299	 2.16615262547434E-02 
2300	 1.54902021522646E-02 
2301	 2.31669666585658E-02 
2302	 0.021613499066792 
2303	 2.10215553816728E-02 
2304	 1.48699686467438E-02 
2305	-1.60286986247913E-04 
2306	 1.79438830748596E-03 
2307	 6.25363271154202E-03 
2308	 1.27370182111807E-02 
2309	 9.75819780415902E-03 
2310	-4.14426231005158E-03 
2311	-5.56348226906783E-03 
2312	-8.7139959905455E-03 
2313	-2.65247768705118E-03 
2314	 1.06406409996044E-02 
2315	 7.9054031107577E-03 
2316	 3.43669743329291E-03 
2317	-3.83593698983713E-03 
2318	-7.04410342681384E-03 
2319	-7.84078772403367E-04 
2320	-3.13321707740152E-03 
2321	-9.83791250764123E-04 
2322	 3.95908567331339E-03 
2323	 2.84329892838163E-03 
2324	 4.45607567631718E-03 
2325	 7.22094191289479E-03 
2326	 1.00758508966321E-02 
2327	 1.59176932268056E-02 
2328	 2.51669931369472E-02 
2329	 3.21933046861064E-02 
2330	 3.03284519330904E-02 
2331	 0.016802234966776 
2332	 6.21709720766116E-03 
2333	 5.78739214689108E-03 
2334	 8.45189144783006E-03 
2335	 1.83605180383859E-02 
2336	 3.13270122415665E-02 
2337	 3.82159892407763E-02 
2338	 3.90455545398781E-02 
2339	 0.032852770772264 
2340	 1.71672180490563E-02 
2341	 1.49866168833648E-02 
2342	 2.21451657978866E-02 
2343	 1.21623472803154E-02 
2344	 1.60739454064957E-02 
2345	 1.85612299597711E-02 
2346	 1.40645277776308E-02 
2347	 1.96835261187728E-02 
2348	 0.019751032453304 
2349	 3.46596750163246E-02 
2350	 1.45638961030113E-02 
2351	-2.12036726808065E-03 
2352	 2.19749188384124E-02 
2353	-1.16683565414112E-02 
2354	-3.36139846212304E-02 
2355	-0.020977730007101 
2356	-7.92681985878092E-03 
2357	 2.66466347138762E-02 
2358	 2.55370043310203E-02 
2359	-4.00742504932987E-03 
2360	-3.09108843993157E-02 
2361	-6.55225257874538E-02 
2362	-7.97958177940054E-02 
2363	-4.66993333059594E-02 
2364	-1.61767191250983E-02 
2365	-1.38165724462946E-02 
2366	 3.62455395265802E-03 
2367	 1.74250553735731E-02 
2368	 1.94055205527577E-02 
2369	 1.02034709374547E-02 
2370	-1.11626096743625E-02 
2371	-3.87731479487149E-02 
2372	-6.98002137318335E-02 
2373	-8.03482031877577E-02 
2374	-0.084168339520327 
2375	-7.86138058651238E-02 
2376	-5.28556994922256E-02 
2377	-6.57824055097127E-03 
2378	 1.22008751549408E-02 
2379	 7.95886045505998E-03 
2380	-1.96247596491444E-02 
2381	-0.10856744194052 
2382	-0.107637799966664 
2383	-2.88739735647318E-02 
2384	-4.86731596165204E-03 
2385	-0.032021764419041 
2386	-9.33669356640536E-02 
2387	-0.190306770945437 
2388	-0.238764582653043 
2389	-0.142444868653716 
2390	-6.17287968791643E-02 
2391	-3.64867529974482E-02 
2392	 2.20364120733121E-02 
2393	-6.25835009428224E-02 
2394	-0.107012613425146 
2395	 0.034568399693706 
2396	 4.88115334360771E-02 
2397	-0.029789751719863 
2398	-4.19517727134308E-02 
2399	-0.118202285798512 
2400	-0.199955702852654 
2401	-0.13678222489034 
2402	-4.04513899950544E-02 
2403	-4.39671577512246E-02 
2404	-3.83676593408459E-02 
2405	 8.47296167082879E-04 
2406	-1.66331664454341E-02 
2407	 3.50509597466762E-02 
2408	 0.176931177497947 
2409	 0.243350304784242 
2410	 0.238699254921736 
2411	 0.140729514094726 
2412	-4.19665520628211E-02 
2413	-0.253976187650202 
2414	-0.450858191103168 
2415	-0.420323457852827 
2416	-0.106091737851183 
2417	-7.18098453949814E-03 
2418	 0.101819205775592 
2419	 0.182671768519756 
2420	-4.82703834624553E-02 
2421	-0.182621366107532 
2422	-0.23337895856441 
2423	-0.202265327583886 
2424	-8.51113555282752E-02 
2425	 4.92980435527631E-02 
2426	 0.124371320580957 
2427	 5.41724380843052E-02 
2428	-2.57031992677944E-02 
2429	-1.27351222702822E-02 
2430	-0.030423314014993 
2431	-0.16765795899015 
2432	-0.160540918323713 
2433	 9.45196377559024E-03 
2434	-0.117097469994454 
2435	-0.230887767961157 
2436	-0.322721448414632 
2437	-0.627807948047118 
2438	-0.630563193465417 
2439	-0.178209998524695 
2440	 0.189398413970589 
2441	 0.212358974438728 
2442	 0.236642619988735 
2443	 0.385617473419417 
2444	 0.464223088635265 
2445	 0.205996997197204 
2446	-1.10155529125269E-02 
2447	 0.2855610698228 
2448	 0.284635290835229 
2449	 0.333924217117088 
2450	 0.430275498425041 
2451	 0.404710082137802 
2452	 0.441995147259615 
2453	 0.643099289913419 
2454	 1.05734160605811 
2455	 0.724312262094911 
2456	 0.271434670686842 
2457	-3.47231526912603E-02 
2458	-0.525509441005908 
2459	-0.753228444400646 
2460	-1.10209717297669 
2461	-1.3025187381126 
2462	-0.758369249386818 
2463	-0.39906199901741 
2464	-0.40538334070113 
2465	-0.632349154184903 
2466	-0.927927032468884 
2467	-1.06133859432727 
2468	-0.84489235985305 
2469	-0.669941543462175 
2470	-0.759629445244604 
2471	-1.59755046879291 
2472	-13.1225217882073 
2473	-7.57404880075469 
2474	-2.83909471764961 
2475	-1.55298294072901 
2476	-1.51869486360218 
2477	-5.51841824191016 
2478	 1.63284951671592 
2479	 1.16884470195151 
2480	 1.01907357744645 
2481	 0.785016010850346 
2482	-0.413677423164188 
2483	-2.84562939568888 
2484	-0.520885289881814 
2485	 2.49118005867672 
2486	 0.774144992787849 
2487	 0.799439527034041 
2488	-2.89398953165295 
2489	-0.672066837889592 
2490	-0.171567791709971 
2491	-2.70494543134909 
2492	 0.352747572452201 
2493	-0.143174565793806 
2494	-0.677863535632405 
2495	-3.73725801275443 
2496	-19.9329391769319 
2497	 23.1898397539282 
2498	 2.95230144102435 
2499	-3.41682414642025 
2500	-1.56453682151383 
