Wavelength	rt062200000.asd
350	 2.08259617083723E-02 
351	 2.09054034598218E-02 
352	 2.07082515053049E-02 
353	 2.09976104125818E-02 
354	 2.17630300644035E-02 
355	 2.09480868952193E-02 
356	 2.17655364544202E-02 
357	 2.25496181093222E-02 
358	 0.021320288015951 
359	 2.15792921360922E-02 
360	 2.20603071775996E-02 
361	 2.25356095407038E-02 
362	 2.34212275659395E-02 
363	 2.29607176064469E-02 
364	 2.25161480859989E-02 
365	 2.27769010099387E-02 
366	 2.28361806617802E-02 
367	 2.30003277190352E-02 
368	 2.32426757588721E-02 
369	 0.023430783884768 
370	 2.32868255795889E-02 
371	 2.35675494250656E-02 
372	 2.40274113038445E-02 
373	 2.39491183786245E-02 
374	 2.41251160622684E-02 
375	 2.47866062041991E-02 
376	 2.56701909664979E-02 
377	 2.59610817355731E-02 
378	 2.54486416731521E-02 
379	 2.52971053177012E-02 
380	 2.62359593353272E-02 
381	 2.66891573360503E-02 
382	 2.66577563414666E-02 
383	 2.66083770297455E-02 
384	 2.70162998234232E-02 
385	 2.64475119593987E-02 
386	 2.63864126063033E-02 
387	 2.70716222273068E-02 
388	 2.71553164613265E-02 
389	 2.79553973369366E-02 
390	 2.82534015559055E-02 
391	 2.74534851312838E-02 
392	 0.027483128102647 
393	 2.81615385096108E-02 
394	 2.88037827771814E-02 
395	 2.88418713457314E-02 
396	 2.95471044553082E-02 
397	 2.94846767551108E-02 
398	 0.028925006003796 
399	 2.95711331140687E-02 
400	 2.97330192283817E-02 
401	 2.98118780324062E-02 
402	 0.030125385505054 
403	 3.00166899981849E-02 
404	 3.01513301360869E-02 
405	 3.05479557954252E-02 
406	 3.09080611419965E-02 
407	 3.06307165782193E-02 
408	 3.06580758012957E-02 
409	 0.03108887951295 
410	 3.11411722967982E-02 
411	 3.12734739985601E-02 
412	 3.14093255179548E-02 
413	 3.14971886223374E-02 
414	 3.17953769183325E-02 
415	 3.18924106161238E-02 
416	 3.19630604373354E-02 
417	 3.23213016324691E-02 
418	 3.25370976537352E-02 
419	 3.27401001651493E-02 
420	 3.30528222370505E-02 
421	 3.35340112458311E-02 
422	 3.37078658143133E-02 
423	 3.37579419856785E-02 
424	 3.39158203014248E-02 
425	 3.40981942430729E-02 
426	 3.45897350040584E-02 
427	 0.03505473614436 
428	 3.50231213548762E-02 
429	 0.035405493180264 
430	 3.58369904754695E-02 
431	 3.61046712447517E-02 
432	 3.63214511134089E-02 
433	 3.66341264229726E-02 
434	 3.69400112225262E-02 
435	 3.71746204584704E-02 
436	 3.75845272104469E-02 
437	 3.78825899225047E-02 
438	 3.81643686575825E-02 
439	 3.86740629717437E-02 
440	 3.90117136201757E-02 
441	 3.91349722263607E-02 
442	 3.92319221841049E-02 
443	 3.97691378115729E-02 
444	 4.01075405212146E-02 
445	 0.040331677216205 
446	 4.06394709774827E-02 
447	 4.08357440436328E-02 
448	 4.09890572476985E-02 
449	 4.11654130016443E-02 
450	 4.14185119280726E-02 
451	 4.17167551098826E-02 
452	 4.19785659181707E-02 
453	 4.21630055803085E-02 
454	 4.23183837158642E-02 
455	 4.24626833786377E-02 
456	 4.26152437303659E-02 
457	 4.27869773101668E-02 
458	 4.29710889208012E-02 
459	 4.30748308484589E-02 
460	 4.31216077985257E-02 
461	 4.32453513617201E-02 
462	 4.32476176101168E-02 
463	 4.33939087226709E-02 
464	 4.37645941974016E-02 
465	 4.36617397285102E-02 
466	 4.37084226373612E-02 
467	 4.39718133647078E-02 
468	 4.42203733977435E-02 
469	 4.42473699394357E-02 
470	 4.42600330738758E-02 
471	 4.44023149316721E-02 
472	 4.46757645580241E-02 
473	 4.48146638390324E-02 
474	 4.49093455129512E-02 
475	 4.50689686193942E-02 
476	 0.045043851849279 
477	 4.54180586217768E-02 
478	 4.59292733666281E-02 
479	 0.04583528673219 
480	 4.60138496332092E-02 
481	 4.62657551078511E-02 
482	 4.64202999798062E-02 
483	 4.66611157786248E-02 
484	 4.69280345605029E-02 
485	 4.71390123506249E-02 
486	 4.72792880613912E-02 
487	 4.77508646919088E-02 
488	 0.048069636275984 
489	 4.81903688053655E-02 
490	 4.85182574086978E-02 
491	 4.87585702856907E-02 
492	 4.90994853369828E-02 
493	 4.96160804868646E-02 
494	 4.98190788843498E-02 
495	 5.01749942604533E-02 
496	 0.050600691042393 
497	 5.08135474665429E-02 
498	 5.13870696681485E-02 
499	 5.18830698113179E-02 
500	 5.21432586405023E-02 
501	 5.25966706977047E-02 
502	 5.30244317895842E-02 
503	 5.34999164649593E-02 
504	 5.40894068220348E-02 
505	 5.45140024823933E-02 
506	 5.49042856026051E-02 
507	 5.53514828321637E-02 
508	 5.58892081455237E-02 
509	 5.63018985675837E-02 
510	 5.67657389527104E-02 
511	 0.057367864692611 
512	 5.78452968840467E-02 
513	 5.83200242416462E-02 
514	 5.88658858707766E-02 
515	 5.94958920444719E-02 
516	 5.99364703673535E-02 
517	 6.04679975260968E-02 
518	 6.11507609325031E-02 
519	 6.17196277825708E-02 
520	 6.24006884875556E-02 
521	 6.30552755104151E-02 
522	 6.35930577361492E-02 
523	 6.43750046717229E-02 
524	 6.50546667002507E-02 
525	 0.065633223814275 
526	 6.63612963217792E-02 
527	 6.72385128546988E-02 
528	 6.80194143149999E-02 
529	 6.86315162189669E-02 
530	 6.94081078553418E-02 
531	 7.01727463899836E-02 
532	 7.09565806596056E-02 
533	 7.18300954301763E-02 
534	 7.26845447228861E-02 
535	 7.34953115950324E-02 
536	 7.43053491869662E-02 
537	 7.52187257843986E-02 
538	 7.61240397266795E-02 
539	 7.70163539001643E-02 
540	 7.79068498911109E-02 
541	 7.87671645628842E-02 
542	 7.96752617958763E-02 
543	 8.06459587844277E-02 
544	 8.16402902962798E-02 
545	 8.24871523457971E-02 
546	 8.33048515839485E-02 
547	 8.41497162624259E-02 
548	 8.48707783490318E-02 
549	 8.57097865676539E-02 
550	 8.66135012834974E-02 
551	 8.74503492810998E-02 
552	 8.82981736715791E-02 
553	 8.91688345785051E-02 
554	 9.00599865210402E-02 
555	 9.09518921284042E-02 
556	 9.18367297873751E-02 
557	 9.27484479209999E-02 
558	 9.36918998752537E-02 
559	 9.45768370456103E-02 
560	 0.09545830896252 
561	 9.63353889600074E-02 
562	 9.71767468628966E-02 
563	 9.79450421465475E-02 
564	 9.87598577521775E-02 
565	 9.96241993143582E-02 
566	 0.100283866598142 
567	 0.100798849594183 
568	 0.101284050054334 
569	 0.101856340340867 
570	 0.102475636501686 
571	 0.102981216811988 
572	 0.103364003707935 
573	 0.103782321164801 
574	 0.104239425675753 
575	 0.104689698192114 
576	 0.105099434881774 
577	 0.105541462413966 
578	 0.105927782765646 
579	 0.106244925834927 
580	 0.106541789758598 
581	 0.106966046630978 
582	 0.107388801761805 
583	 0.107722377466412 
584	 0.108016950902901 
585	 0.108216712635242 
586	 0.108386941441875 
587	 0.108596733647584 
588	 0.108631096238897 
589	 0.108710843443473 
590	 0.108929660198099 
591	 0.109208154817367 
592	 0.109367110915472 
593	 0.109410416365444 
594	 0.109405973526408 
595	 0.109484334495746 
596	 0.109564676002991 
597	 0.109583210995937 
598	 0.109504446342945 
599	 0.1094471795162 
600	 0.109513920715398 
601	 0.109694683408477 
602	 0.109801286662704 
603	 0.109874658059893 
604	 0.109982806273179 
605	 0.110162904657228 
606	 0.110226410802698 
607	 0.110278352492141 
608	 0.110392280697275 
609	 0.110585629491319 
610	 0.110661838840445 
611	 0.110756796929407 
612	 0.110971774188802 
613	 0.1111012416039 
614	 0.111096337209683 
615	 0.111142780181208 
616	 0.111478563189427 
617	 0.111499122372285 
618	 0.111488087551021 
619	 0.11164738315904 
620	 0.111900176533071 
621	 0.111989903248265 
622	 0.112024146360226 
623	 0.112175052178023 
624	 0.112273743810241 
625	 0.112252908080166 
626	 0.112207266698741 
627	 0.112367113489578 
628	 0.112542483843419 
629	 0.112638650341968 
630	 0.112655721816132 
631	 0.112762043360755 
632	 0.113018071169042 
633	 0.113176869829762 
634	 0.112938885987884 
635	 0.112830504831004 
636	 0.112846480013045 
637	 0.112928762761751 
638	 0.113032450917202 
639	 0.112939801274407 
640	 0.112802476130264 
641	 0.112811878561768 
642	 0.112837869421974 
643	 0.112670449402386 
644	 0.112390161281737 
645	 0.112295080410952 
646	 0.111996966121803 
647	 0.111877097521568 
648	 0.112067040748298 
649	 0.111786771649163 
650	 0.111571956315088 
651	 0.111436922042824 
652	 0.111246407299111 
653	 0.111172832481585 
654	 0.111127680019199 
655	 0.110967693913429 
656	 0.110540603120564 
657	 0.110197724228009 
658	 0.109968380203957 
659	 0.109797428706231 
660	 0.109683166573289 
661	 0.109339402064771 
662	 0.108859923931641 
663	 0.108570595508193 
664	 0.108394473156398 
665	 0.108198523792825 
666	 0.10790942999417 
667	 0.107562926986177 
668	 0.107453988300886 
669	 0.10742230542274 
670	 0.107228290411944 
671	 0.107068967388714 
672	 0.107118225502504 
673	 0.107263055812486 
674	 0.107161857986168 
675	 0.107383770661061 
676	 0.107691113656872 
677	 0.107897530922248 
678	 0.108356100590619 
679	 0.108784427552992 
680	 0.109182341791121 
681	 0.109705816851075 
682	 0.11061704782532 
683	 0.111557641658979 
684	 0.112346663477134 
685	 0.113185821697132 
686	 0.114088646670334 
687	 0.115017794124973 
688	 0.115937108088298 
689	 0.117150314512335 
690	 0.118063883139064 
691	 0.118584391746252 
692	 0.11897605876084 
693	 0.119973200082657 
694	 0.120851052752459 
695	 0.121212624877342 
696	 0.121581105309744 
697	 0.121982865668677 
698	 0.122238909268361 
699	 0.122198979507888 
700	 0.122469761776523 
701	 0.122576360721362 
702	 0.122499929798227 
703	 0.122581085829702 
704	 0.122346539786791 
705	 0.121946550853997 
706	 0.121586452897939 
707	 0.121375779863055 
708	 0.121028678273443 
709	 0.120415259567826 
710	 0.119533009504023 
711	 0.118654850954942 
712	 0.117764406730178 
713	 0.116731282996862 
714	 0.11530172794937 
715	 0.113838032993836 
716	 0.112293438134548 
717	 0.11065982643002 
718	 0.108752183910618 
719	 0.107449653423312 
720	 0.106530944825489 
721	 0.105246105965992 
722	 0.103852748256117 
723	 0.102286404307269 
724	 0.100671031824812 
725	 9.88906669324133E-02 
726	 9.70077595669491E-02 
727	 9.51270017224427E-02 
728	 9.32666763921008E-02 
729	 9.10860343139953E-02 
730	 8.89803597230163E-02 
731	 8.71017840627308E-02 
732	 8.53413607819343E-02 
733	 8.38270814305308E-02 
734	 0.082281567802231 
735	 8.08021268167891E-02 
736	 7.99791137078015E-02 
737	 7.94059755187347E-02 
738	 7.91300523124916E-02 
739	 7.91059977973748E-02 
740	 0.07865582137368 
741	 7.83702575324081E-02 
742	 7.83999898092645E-02 
743	 7.85929155908737E-02 
744	 0.078492821858935 
745	 7.84825334302077E-02 
746	 7.86657929931978E-02 
747	 7.86600316158287E-02 
748	 7.87082504672679E-02 
749	 7.88294558784124E-02 
750	 7.89411684145279E-02 
751	 7.87990572448802E-02 
752	 7.88323148728918E-02 
753	 7.89349980304569E-02 
754	 7.87846254453578E-02 
755	 7.89496324704591E-02 
756	 7.90484087343787E-02 
757	 7.89026513654889E-02 
758	 0.078690888156932 
759	 7.83113688418418E-02 
760	 7.77256718980763E-02 
761	 7.74452340194091E-02 
762	 7.77817928176445E-02 
763	 7.80698633236917E-02 
764	 7.84814324418372E-02 
765	 7.92548161332406E-02 
766	 7.97459611352159E-02 
767	 8.00743582547097E-02 
768	 8.03246093209955E-02 
769	 8.05199422603091E-02 
770	 8.08740321617691E-02 
771	 8.12253146326453E-02 
772	 8.14497030092025E-02 
773	 8.17465079462529E-02 
774	 8.19580154474409E-02 
775	 8.22369537400844E-02 
776	 8.27433139510739E-02 
777	 8.27952734591814E-02 
778	 8.31039455122193E-02 
779	 8.37231473761321E-02 
780	 8.39883410114119E-02 
781	 8.44157321730163E-02 
782	 8.48706359851884E-02 
783	 8.51993883768043E-02 
784	 8.54570791753732E-02 
785	 8.57923783609856E-02 
786	 8.62527403007535E-02 
787	 8.67689636782265E-02 
788	 8.69465189073597E-02 
789	 0.08723150006333 
790	 8.77929401907761E-02 
791	 8.85070423455765E-02 
792	 8.91764825484064E-02 
793	 8.97754168621132E-02 
794	 0.090207847648148 
795	 9.01645164590698E-02 
796	 9.07674991207255E-02 
797	 9.15480568791235E-02 
798	 0.09183733865837 
799	 9.18012409982884E-02 
800	 9.22561400872382E-02 
801	 9.28932375583994E-02 
802	 9.29204011244632E-02 
803	 9.33008356863024E-02 
804	 9.35703239715028E-02 
805	 9.36716955011563E-02 
806	 0.094080601741711 
807	 9.40544198144043E-02 
808	 9.37915268237487E-02 
809	 9.35308216219256E-02 
810	 0.093068688019485 
811	 9.28363314875865E-02 
812	 9.25082016220149E-02 
813	 9.16303767623588E-02 
814	 9.13158935947619E-02 
815	 9.05611994323614E-02 
816	 8.95717309625314E-02 
817	 8.94700333112036E-02 
818	 8.95431174520187E-02 
819	 8.92687714949429E-02 
820	 8.84537054350575E-02 
821	 8.71940457123899E-02 
822	 8.60175986988772E-02 
823	 8.48956379791358E-02 
824	 8.36054156649144E-02 
825	 0.081710636173565 
826	 8.01896293579453E-02 
827	 7.86366939069529E-02 
828	 7.64519544077986E-02 
829	 0.07463576172968 
830	 7.29103199146347E-02 
831	 7.13749883866519E-02 
832	 7.04063179145171E-02 
833	 0.069347161157796 
834	 6.86913838784792E-02 
835	 6.83920676803241E-02 
836	 0.067599831246966 
837	 6.74458364576991E-02 
838	 6.72936917802237E-02 
839	 6.66841929775537E-02 
840	 6.66260122119614E-02 
841	 6.62077207861762E-02 
842	 6.56439714224539E-02 
843	 6.54138652782469E-02 
844	 6.51588175985268E-02 
845	 6.48292418427576E-02 
846	 6.44962167255082E-02 
847	 6.42751052736921E-02 
848	 6.39266874046267E-02 
849	 6.36134829357853E-02 
850	 6.35373401558952E-02 
851	 6.38221580808015E-02 
852	 6.30742890512217E-02 
853	 6.25410076900453E-02 
854	 6.28698045264598E-02 
855	 6.22171025463299E-02 
856	 6.18236732775252E-02 
857	 6.17983905610408E-02 
858	 6.18380756620359E-02 
859	 6.13601160273536E-02 
860	 6.09734385484993E-02 
861	 6.08000863777827E-02 
862	 6.06731805827354E-02 
863	 6.04520016573377E-02 
864	 6.02331709863874E-02 
865	 6.01392064863016E-02 
866	 6.02409715248378E-02 
867	 6.01827567522256E-02 
868	 5.95226540159388E-02 
869	 5.86916261343353E-02 
870	 5.91300553229944E-02 
871	 5.87957915350131E-02 
872	 5.83865137722114E-02 
873	 0.058493983216633 
874	 5.81060841176781E-02 
875	 5.79914326178957E-02 
876	 0.057515724405376 
877	 5.62609182069164E-02 
878	 0.056102465688164 
879	 0.055940765915555 
880	 0.055662330722092 
881	 5.55141748280374E-02 
882	 5.47822420355728E-02 
883	 5.48863647347449E-02 
884	 0.055149965510716 
885	 5.37084969548422E-02 
886	 5.33537795735082E-02 
887	 5.35344133977902E-02 
888	 5.35665723073036E-02 
889	 5.31230834959009E-02 
890	 5.27815043651821E-02 
891	 5.21439859286856E-02 
892	 5.13074992314232E-02 
893	 5.16369556849985E-02 
894	 5.12267260049124E-02 
895	 0.050466038592254 
896	 5.01211834821139E-02 
897	 4.96860152319912E-02 
898	 4.88191671656613E-02 
899	 4.86487683370856E-02 
900	 4.97736321979898E-02 
901	 4.96362515340915E-02 
902	 0.048489622365706 
903	 0.047389017256622 
904	 4.73398987180102E-02 
905	 4.76101537076611E-02 
906	 4.77810313302108E-02 
907	 4.80176334937652E-02 
908	 4.85108803913252E-02 
909	 0.046295036844565 
910	 4.50023164272204E-02 
911	 4.46935111951211E-02 
912	 4.22842603808249E-02 
913	 4.28461378070749E-02 
914	 4.36312428850668E-02 
915	 4.31763067022463E-02 
916	 4.27372950388199E-02 
917	 4.28541505280706E-02 
918	 4.26334078827645E-02 
919	 4.19026056415503E-02 
920	 4.16334583728812E-02 
921	 4.11182217917833E-02 
922	 4.00641275123351E-02 
923	 0.039464422872799 
924	 4.29164655538729E-02 
925	 4.26262601803684E-02 
926	 4.03928574856941E-02 
927	 3.97047342303104E-02 
928	 3.75305988425111E-02 
929	 3.72989642667893E-02 
930	 3.74711347624145E-02 
931	 3.47308312598121E-02 
932	 3.77302187324569E-02 
933	 3.54144329318307E-02 
934	 3.11126586460495E-02 
935	 3.35208602684642E-02 
936	 3.31024965398646E-02 
937	 2.68034619445959E-02 
938	 2.31257218177558E-02 
939	 0.028317316936439 
940	 2.88088669380864E-02 
941	 2.83949630142665E-02 
942	 3.10163421842834E-02 
943	 3.74218332930501E-02 
944	 0.029535974377688 
945	 3.13448223615133E-02 
946	 3.95484997278924E-02 
947	 0.036074481074894 
948	 2.82391839846735E-02 
949	 0.028385887126914 
950	 3.12317950426609E-02 
951	 2.49291445079928E-02 
952	 2.92027313995193E-02 
953	 0.031225556835454 
954	 2.87804339305725E-02 
955	 2.81620860644952E-02 
956	 2.83352003772716E-02 
957	 0.031078697428671 
958	 3.25564140593875E-02 
959	 2.74341966190744E-02 
960	 2.56573224054564E-02 
961	 2.73982570230315E-02 
962	 3.06645499637447E-02 
963	 0.032712086417068 
964	 3.13289195232757E-02 
965	 2.87543224226192E-02 
966	 2.91299203244158E-02 
967	 3.53963051866626E-02 
968	 3.42599647950155E-02 
969	 3.03999063410125E-02 
970	 2.85377875083068E-02 
971	 3.12044839284547E-02 
972	 3.43583192432242E-02 
973	 3.29061340539503E-02 
974	 0.03024836568534 
975	 3.55263638536532E-02 
976	 3.42662620747755E-02 
977	 3.16060592541129E-02 
978	 3.09794829462577E-02 
979	 3.18364420510105E-02 
980	 3.33798952680032E-02 
981	 3.32781504397918E-02 
982	 3.14535698002854E-02 
983	 2.97132743087317E-02 
984	 0.028525734278917 
985	 2.91776293246896E-02 
986	 3.15872678928762E-02 
987	 3.40452691409508E-02 
988	 3.20348570000427E-02 
989	 3.20324300186838E-02 
990	 0.034273161465328 
991	 3.41657976118119E-02 
992	 3.46098024659133E-02 
993	 3.17812516179425E-02 
994	 2.89163504817181E-02 
995	 3.20396760517811E-02 
996	 3.10060297837209E-02 
997	 3.19410693763302E-02 
998	 3.38576333466834E-02 
999	 3.24115372743567E-02 
1000	 3.45164241080191E-02 
1001	 3.08218790979804E-02 
1002	 3.09892762493689E-02 
1003	 3.09821007855708E-02 
1004	 0.031000395013742 
1005	 3.12019303908317E-02 
1006	 0.031237697829115 
1007	 3.18509029503252E-02 
1008	 3.29655402888195E-02 
1009	 3.33321696545759E-02 
1010	 3.33524340684429E-02 
1011	 3.34287159299469E-02 
1012	 3.33812909952748E-02 
1013	 0.033158393143127 
1014	 0.032932933834609 
1015	 3.28226975588952E-02 
1016	 3.27161626219146E-02 
1017	 3.22176602835288E-02 
1018	 3.22724863856204E-02 
1019	 3.30477712670268E-02 
1020	 3.30788723145483E-02 
1021	 3.31299704394255E-02 
1022	 3.27398212059861E-02 
1023	 3.20565358430818E-02 
1024	 3.17934173269477E-02 
1025	 3.16598139774273E-02 
1026	 3.15649875287838E-02 
1027	 3.13918018865733E-02 
1028	 3.08974235546106E-02 
1029	 3.10617408637464E-02 
1030	 3.14342350419315E-02 
1031	 3.20635087622986E-02 
1032	 3.36345787645791E-02 
1033	 3.40446546467823E-02 
1034	 3.41769618339629E-02 
1035	 3.41543345206429E-02 
1036	 3.29919322596261E-02 
1037	 3.27828501634004E-02 
1038	 3.33300470751217E-02 
1039	 3.32548855986728E-02 
1040	 3.33369957186354E-02 
1041	 3.38172750347705E-02 
1042	 3.39267574089632E-02 
1043	 3.36768992342862E-02 
1044	 3.37356945667259E-02 
1045	 3.38051540479472E-02 
1046	 0.034079421044875 
1047	 3.46386349537634E-02 
1048	 3.48865726638233E-02 
1049	 3.52813001014346E-02 
1050	 3.54240886795456E-02 
1051	 3.52135478441225E-02 
1052	 3.50676058748177E-02 
1053	 3.50884949593335E-02 
1054	 3.47408307219026E-02 
1055	 0.033410070540147 
1056	 3.31370340650341E-02 
1057	 0.03324769195058 
1058	 3.34827312378477E-02 
1059	 3.40873405166635E-02 
1060	 3.60496052519213E-02 
1061	 3.64798044980289E-02 
1062	 3.62756975424585E-02 
1063	 3.61984757018995E-02 
1064	 3.53518183926722E-02 
1065	 3.51948752978602E-02 
1066	 0.035507773349419 
1067	 3.55030110253378E-02 
1068	 3.55037039617371E-02 
1069	 3.55726807467608E-02 
1070	 3.55007796715482E-02 
1071	 3.55121169267868E-02 
1072	 3.56471976376375E-02 
1073	 3.59399794565153E-02 
1074	 3.59402844758476E-02 
1075	 3.58785438903998E-02 
1076	 0.035513393588089 
1077	 3.46231617151299E-02 
1078	 3.44858176299219E-02 
1079	 3.45259221970421E-02 
1080	 3.45235132723523E-02 
1081	 3.53235556690037E-02 
1082	 3.51938288566886E-02 
1083	 3.40286735437725E-02 
1084	 3.36928442546123E-02 
1085	 3.31711136453077E-02 
1086	 3.31835942290886E-02 
1087	 3.44132806557028E-02 
1088	 0.03488586130446 
1089	 3.56010969956977E-02 
1090	 3.53821556484315E-02 
1091	 3.51713363280508E-02 
1092	 3.43159366078552E-02 
1093	 3.38427774366414E-02 
1094	 3.30362950824742E-02 
1095	 3.30456048167154E-02 
1096	 3.41046523506171E-02 
1097	 0.033950953029592 
1098	 3.31195003885893E-02 
1099	 3.31401972774857E-02 
1100	 3.29921668940362E-02 
1101	 3.25449585010928E-02 
1102	 3.28067337167043E-02 
1103	 3.31289435982958E-02 
1104	 3.30961366657138E-02 
1105	 0.032672417376247 
1106	 3.28953246281285E-02 
1107	 0.032550028006801 
1108	 3.12304300404829E-02 
1109	 2.95527861019403E-02 
1110	 2.89889603441586E-02 
1111	 2.94062526116642E-02 
1112	 2.94288078127314E-02 
1113	 3.07699245609861E-02 
1114	 3.05013082532345E-02 
1115	 2.80299132351622E-02 
1116	 2.66694990534108E-02 
1117	 2.39174443384287E-02 
1118	 0.023277651732673 
1119	 2.79724280062566E-02 
1120	 2.97756050684023E-02 
1121	 3.27807603797421E-02 
1122	 3.21835992549034E-02 
1123	 3.01413554215453E-02 
1124	 2.61507951241709E-02 
1125	 0.0259658862502 
1126	 2.87370095861267E-02 
1127	 2.61335900441967E-02 
1128	 2.24401189394849E-02 
1129	 2.56841286663593E-02 
1130	 3.56905310991109E-02 
1131	 3.47994910487931E-02 
1132	 3.18425044487702E-02 
1133	 3.08439219737864E-02 
1134	 2.46542898500439E-02 
1135	 0.021536335839067 
1136	 2.36526870735557E-02 
1137	 0.023355018385698 
1138	 2.03064563090518E-02 
1139	 1.77168387157525E-02 
1140	 2.28714822284572E-02 
1141	 2.80382398991999E-02 
1142	 2.96472299041184E-02 
1143	 3.04470027133514E-02 
1144	 2.60510894301368E-02 
1145	 0.02244605552708 
1146	 2.47782094571409E-02 
1147	 2.41807534997527E-02 
1148	 0.022162449147806 
1149	 2.30860459151787E-02 
1150	 2.41480260472289E-02 
1151	 2.51084807680391E-02 
1152	 0.026085067737135 
1153	 2.90052827292591E-02 
1154	 2.87300232810664E-02 
1155	 2.62152345807863E-02 
1156	 2.60868261271719E-02 
1157	 0.026559169914772 
1158	 2.46937049117527E-02 
1159	 2.30467296648071E-02 
1160	 0.023942766558514 
1161	 2.40199687155537E-02 
1162	 2.36000706215687E-02 
1163	 2.46468328967275E-02 
1164	 2.40863359630221E-02 
1165	 2.28352271901951E-02 
1166	 2.34172719153859E-02 
1167	 2.40006699894662E-02 
1168	 2.40930627311169E-02 
1169	 2.45434578190065E-02 
1170	 2.43617924988448E-02 
1171	 2.41658492476354E-02 
1172	 2.35998221804871E-02 
1173	 2.35473996013707E-02 
1174	 2.35714133555156E-02 
1175	 2.37356821641307E-02 
1176	 2.41712858673357E-02 
1177	 2.39760024362231E-02 
1178	 2.36954366350725E-02 
1179	 2.36365643480494E-02 
1180	 2.33449235450804E-02 
1181	 0.02324606197454 
1182	 2.35962587881061E-02 
1183	 2.35637610216915E-02 
1184	 2.33882654791896E-02 
1185	 2.34088083151672E-02 
1186	 2.29024040166112E-02 
1187	 2.30730838507253E-02 
1188	 2.37296217719948E-02 
1189	 2.33729074844618E-02 
1190	 2.31636923271565E-02 
1191	 2.34173572265522E-02 
1192	 2.33904088412258E-02 
1193	 2.29818913387478E-02 
1194	 2.32969836034524E-02 
1195	 0.023510762080215 
1196	 2.26944329851777E-02 
1197	 2.21037995126806E-02 
1198	 2.19175449334319E-02 
1199	 2.24801897373984E-02 
1200	 2.36191521150505E-02 
1201	 2.40924980412933E-02 
1202	 2.39680100210861E-02 
1203	 2.35207630995307E-02 
1204	 2.32688510181554E-02 
1205	 2.33534021213476E-02 
1206	 2.34793174518979E-02 
1207	 2.40347617106026E-02 
1208	 2.39834125405534E-02 
1209	 2.32813469716714E-02 
1210	 2.33559900599638E-02 
1211	 2.34962113638598E-02 
1212	 2.36350984466662E-02 
1213	 0.024394908537811 
1214	 2.46015542469986E-02 
1215	 2.46413499456641E-02 
1216	 2.44185988459356E-02 
1217	 2.43235688932107E-02 
1218	 2.37692374582284E-02 
1219	 2.38259395074618E-02 
1220	 2.41244349402494E-02 
1221	 2.40059540304724E-02 
1222	 2.42404529128812E-02 
1223	 2.44145335350727E-02 
1224	 2.43588374573769E-02 
1225	 2.42137009863112E-02 
1226	 2.39241792430156E-02 
1227	 2.39227434110343E-02 
1228	 2.41845123568953E-02 
1229	 2.44595240320103E-02 
1230	 2.44905807765667E-02 
1231	 2.42273007316673E-02 
1232	 2.41569247521715E-02 
1233	 2.38946025538228E-02 
1234	 2.35240719302934E-02 
1235	 2.35819431421094E-02 
1236	 2.40990141060107E-02 
1237	 2.41604103521494E-02 
1238	 2.41552236285401E-02 
1239	 2.43856918794643E-02 
1240	 2.44526692190661E-02 
1241	 2.44424622520555E-02 
1242	 2.45308220437716E-02 
1243	 2.48910561895011E-02 
1244	 2.51871011146706E-02 
1245	 2.48631062615646E-02 
1246	 2.47817685913391E-02 
1247	 0.024814906092962 
1248	 2.45160790576818E-02 
1249	 2.46733900435583E-02 
1250	 2.46771922752344E-02 
1251	 2.43847951657023E-02 
1252	 2.43460761353005E-02 
1253	 2.41929835999617E-02 
1254	 2.41557354460856E-02 
1255	 2.45176897344652E-02 
1256	 0.024726907307999 
1257	 2.51185052420292E-02 
1258	 2.50799694207685E-02 
1259	 2.47347916608005E-02 
1260	 2.46108640332624E-02 
1261	 2.42096400882942E-02 
1262	 2.41087429502581E-02 
1263	 2.44093639209451E-02 
1264	 0.024385487226045 
1265	 0.024312465692419 
1266	 2.41502936817509E-02 
1267	 0.023402735296863 
1268	 2.32312097597329E-02 
1269	 2.38318717343404E-02 
1270	 0.024355196357602 
1271	 2.44260369773383E-02 
1272	 2.44219067890922E-02 
1273	 2.46609415738271E-02 
1274	 2.45745113742593E-02 
1275	 2.44562764885971E-02 
1276	 0.024716275789801 
1277	 2.46792533891032E-02 
1278	 0.024303364728703 
1279	 0.024170603025437 
1280	 2.43596090381894E-02 
1281	 2.44855879131321E-02 
1282	 2.42442851606578E-02 
1283	 2.41931544458926E-02 
1284	 2.46193777706127E-02 
1285	 2.46122988039679E-02 
1286	 2.40428559350954E-02 
1287	 2.38286865218305E-02 
1288	 2.39307554090035E-02 
1289	 2.37270373012767E-02 
1290	 2.32324501928868E-02 
1291	 2.31978891976911E-02 
1292	 2.34150414001265E-02 
1293	 2.33153621753522E-02 
1294	 2.32897112977563E-02 
1295	 2.31260458609125E-02 
1296	 2.24100037300998E-02 
1297	 2.18957352531631E-02 
1298	 2.23830094436275E-02 
1299	 2.27229427679226E-02 
1300	 2.22885754896198E-02 
1301	 2.24670099052777E-02 
1302	 2.25533964996487E-02 
1303	 2.24307466693655E-02 
1304	 2.29797886058196E-02 
1305	 0.022869369517922 
1306	 0.022920230458936 
1307	 2.28259148597771E-02 
1308	 0.022519879127714 
1309	 2.20452194517988E-02 
1310	 0.021899927060612 
1311	 2.14012349720416E-02 
1312	 2.10487179455734E-02 
1313	 2.13667456824171E-02 
1314	 2.13710647847723E-02 
1315	 2.08463047761207E-02 
1316	 2.07467358802468E-02 
1317	 2.11310970691135E-02 
1318	 2.10694951961527E-02 
1319	 2.08325897077915E-02 
1320	 2.06134200383204E-02 
1321	 2.00128109014364E-02 
1322	 1.98292651959224E-02 
1323	 1.97247407798361E-02 
1324	 2.01774109611437E-02 
1325	 2.05511054653987E-02 
1326	 1.95199082007262E-02 
1327	 1.85847216876961E-02 
1328	 0.018927816069651 
1329	 0.020208343764938 
1330	 2.09381373335448E-02 
1331	 2.16184435489299E-02 
1332	 2.17789449792249E-02 
1333	 1.98962924494765E-02 
1334	 1.87355418847896E-02 
1335	 1.77151352786878E-02 
1336	 1.62381700842674E-02 
1337	 0.016039102044949 
1338	 1.70197488361006E-02 
1339	 1.72943533030357E-02 
1340	 1.87650205370905E-02 
1341	 1.93818303916474E-02 
1342	 1.84611313278125E-02 
1343	 0.018330648681398 
1344	 1.89410565309044E-02 
1345	 1.90449531881982E-02 
1346	 1.95026456969729E-02 
1347	 0.018866039408643 
1348	 1.59236371520594E-02 
1349	 1.31953442986192E-02 
1350	 4.39346521279404E-03 
1351	 6.50795938614877E-04 
1352	 2.05922370285024E-02 
1353	 2.24985135555479E-02 
1354	-5.4067892580362E-03 
1355	-0.028082556991594 
1356	 2.16660272371812E-03 
1357	-1.67656865886503E-02 
1358	-8.23381268996293E-02 
1359	 4.15409218978317E-02 
1360	 3.76622299197202E-02 
1361	-0.37910313199837 
1362	-0.800063387504668 
1363	-0.466986686938182 
1364	-0.240848893809492 
1365	-6.61573892299707E-02 
1366	-1.78405265536204E-02 
1367	-0.112107551245239 
1368	-0.116334010009925 
1369	-0.794889894437018 
1370	-0.718830623762246 
1371	 0.323623054639553 
1372	 0.425456330449133 
1373	 2.89903591729055E-02 
1374	 0.106146011321773 
1375	 0.364969717956403 
1376	 0.257646422159624 
1377	-3.4204926042563E-03 
1378	 0.14977920622438 
1379	 0.1412096783523 
1380	-3.19325434647324E-02 
1381	-0.150783888887989 
1382	 5.09294193662765E-02 
1383	-0.208447200860747 
1384	-0.625064404213282 
1385	-1.20834872138565 
1386	-4.20124805331359 
1387	-6.32258688431066 
1388	-2.84523064123419 
1389	 16.099934493322 
1390	 1.51926978493878 
1391	 0.515611485139361 
1392	-0.116384335376338 
1393	-3.02626267609948 
1394	-0.652130716311164 
1395	-1.24294472681428 
1396	 0.695346300752496 
1397	 0.299517930553691 
1398	 0.874497875513261 
1399	 0.361826157076833 
1400	 0.869888759464228 
1401	 1.26688132388936 
1402	 2.30348767556383 
1403	 1.01709583399897 
1404	-0.065993956920928 
1405	-0.362472056499095 
1406	-0.704414547597472 
1407	-0.409001360582819 
1408	 3.03765024038896 
1409	 1.15678474066448 
1410	 0.231341987411794 
1411	 0.128678630372674 
1412	-5.04145067920203E-02 
1413	-4.79430346424528E-02 
1414	 0.145285762545375 
1415	 0.129833014147457 
1416	 6.29111235911004E-03 
1417	-6.65986911333255E-03 
1418	 4.32655911611395E-03 
1419	-4.55170651544861E-02 
1420	-0.112155669797299 
1421	-7.11720095230965E-02 
1422	-8.1812760860294E-03 
1423	-1.40568588854094E-02 
1424	-1.32091203977439E-03 
1425	 1.77730431547803E-02 
1426	-3.27898277006092E-03 
1427	-6.59319504761382E-03 
1428	 3.95316100719211E-02 
1429	 0.045247421196719 
1430	 1.63385630972136E-03 
1431	-3.9129599141864E-03 
1432	 2.18629033530939E-02 
1433	 1.61539715507503E-02 
1434	-8.96633778197044E-03 
1435	-1.01554489972285E-02 
1436	-1.59101933646247E-02 
1437	-2.67176597810395E-02 
1438	 1.29865863851025E-03 
1439	 2.45863103450125E-02 
1440	 1.70731288487145E-02 
1441	 1.12703445487807E-02 
1442	-2.50661276253807E-03 
1443	-1.02955594917568E-02 
1444	-7.45749519227236E-04 
1445	 4.36512516233513E-03 
1446	 8.51541770946714E-03 
1447	 6.25976184716297E-03 
1448	-5.01219683766865E-03 
1449	-1.00075428870053E-02 
1450	-1.07377333992605E-02 
1451	-8.39323389308078E-03 
1452	 3.58544567004143E-03 
1453	 7.23346023777883E-03 
1454	 7.16643105920765E-03 
1455	 4.76982553544192E-03 
1456	 5.5947721355144E-03 
1457	 4.1357009810576E-03 
1458	 2.96004020593366E-03 
1459	 3.78840052676664E-03 
1460	 4.77419905740359E-03 
1461	 4.22336220432821E-03 
1462	 3.64997136069029E-03 
1463	 4.88245058742386E-03 
1464	 5.93522934841724E-03 
1465	 5.69898135327692E-03 
1466	 4.45711902674097E-03 
1467	 4.1784657030448E-03 
1468	 3.06023237553144E-03 
1469	-1.45817619640903E-03 
1470	-2.61543925752327E-03 
1471	-8.83205116056447E-04 
1472	-3.7916363007971E-04 
1473	 5.71360792586423E-04 
1474	-3.12631902006813E-05 
1475	-1.48621600157393E-03 
1476	-1.69201231471437E-03 
1477	-2.35219323173104E-03 
1478	-3.2404185109105E-03 
1479	-4.43903275442933E-03 
1480	-2.87302629268038E-03 
1481	 1.21787553609799E-03 
1482	 1.44664206192187E-03 
1483	-3.2297299939949E-04 
1484	 1.16055520137152E-03 
1485	 3.18097881615336E-03 
1486	 3.01036001686736E-03 
1487	 3.33439683821966E-03 
1488	 4.63941168612928E-03 
1489	 4.72124698298433E-03 
1490	 4.56809081264819E-03 
1491	 5.80408345784317E-03 
1492	 6.47881395199159E-03 
1493	 5.47256608862581E-03 
1494	 5.60681118711101E-03 
1495	 7.67461410555646E-03 
1496	 7.88459306675874E-03 
1497	 6.57125416592547E-03 
1498	 6.49202969575488E-03 
1499	 6.71892611714899E-03 
1500	 6.31719972015341E-03 
1501	 5.68009559761514E-03 
1502	 6.06310708024371E-03 
1503	 7.07087473815635E-03 
1504	 6.81196682730862E-03 
1505	 5.93675011611205E-03 
1506	 6.65296854213904E-03 
1507	 6.97595909950891E-03 
1508	 6.31695985488331E-03 
1509	 7.03149808790177E-03 
1510	 7.82023824416621E-03 
1511	 7.31022696507592E-03 
1512	 7.05235875193395E-03 
1513	 7.23737404990339E-03 
1514	 7.23909530749709E-03 
1515	 7.3745048474736E-03 
1516	 7.56279787749777E-03 
1517	 7.42765823117375E-03 
1518	 7.17911724080419E-03 
1519	 7.1110309275667E-03 
1520	 7.3195080072152E-03 
1521	 7.45963273398776E-03 
1522	 7.51771346750869E-03 
1523	 7.80104883015655E-03 
1524	 7.98170103297291E-03 
1525	 7.58424430422384E-03 
1526	 7.67209272518004E-03 
1527	 8.36962508384766E-03 
1528	 7.85099303023524E-03 
1529	 6.98416879551447E-03 
1530	 7.24181760639373E-03 
1531	 7.72801524852217E-03 
1532	 8.14698476653602E-03 
1533	 9.00259399754263E-03 
1534	 9.62325187785154E-03 
1535	 9.48569098120007E-03 
1536	 9.17784275354075E-03 
1537	 8.72786976915527E-03 
1538	 8.31532587089843E-03 
1539	 8.29256226075066E-03 
1540	 8.28245809620743E-03 
1541	 9.06349851851914E-03 
1542	 0.010298625224787 
1543	 1.06086808528339E-02 
1544	 1.06008895668815E-02 
1545	 1.00502635411698E-02 
1546	 9.49166780961348E-03 
1547	 0.009835145864198 
1548	 9.97607890670779E-03 
1549	 9.89425211354373E-03 
1550	 1.01335857539292E-02 
1551	 1.01640818424902E-02 
1552	 9.89766287856183E-03 
1553	 1.02771514188794E-02 
1554	 1.06486391651157E-02 
1555	 1.04650338381636E-02 
1556	 1.03615593212684E-02 
1557	 1.02701955896573E-02 
1558	 1.04397531535828E-02 
1559	 1.08776135590213E-02 
1560	 0.011383874610125 
1561	 1.15945648625332E-02 
1562	 1.12857396686406E-02 
1563	 1.06884031014727E-02 
1564	 0.010479962799886 
1565	 0.011124849412654 
1566	 1.10852374969838E-02 
1567	 0.010473409653147 
1568	 1.09545953100972E-02 
1569	 1.14991043714121E-02 
1570	 1.10695131095067E-02 
1571	 1.08090129971847E-02 
1572	 1.12415513895254E-02 
1573	 1.11923077298414E-02 
1574	 1.09835370465095E-02 
1575	 1.16744107769063E-02 
1576	 1.17387354264689E-02 
1577	 1.12154489929369E-02 
1578	 1.18280866507122E-02 
1579	 1.21924396865184E-02 
1580	 1.18083665525316E-02 
1581	 1.13838974384951E-02 
1582	 1.11530847192488E-02 
1583	 1.19334492849445E-02 
1584	 1.23594758203156E-02 
1585	 1.18804595477193E-02 
1586	 1.21901337673641E-02 
1587	 1.25648828520624E-02 
1588	 1.21911876674655E-02 
1589	 1.24754353318094E-02 
1590	 1.23674414609808E-02 
1591	 1.13959637724848E-02 
1592	 1.14148957578934E-02 
1593	 1.14827226887409E-02 
1594	 1.14465462300068E-02 
1595	 0.01157583232208 
1596	 1.13928726445694E-02 
1597	 1.20656196922034E-02 
1598	 0.012563630093953 
1599	 1.22659867574406E-02 
1600	 1.25976360966484E-02 
1601	 1.29238359966249E-02 
1602	 1.24281056968051E-02 
1603	 1.20451006984105E-02 
1604	 1.23668915827129E-02 
1605	 1.22410791591852E-02 
1606	 1.19328367516248E-02 
1607	 1.26565140040161E-02 
1608	 1.37316001166009E-02 
1609	 1.40121049245747E-02 
1610	 1.33632586064596E-02 
1611	 1.26795865366694E-02 
1612	 1.22141548856117E-02 
1613	 1.23060613092705E-02 
1614	 1.23905830857242E-02 
1615	 1.22529976217739E-02 
1616	 1.25730128636693E-02 
1617	 1.22430406347291E-02 
1618	 1.23665176800218E-02 
1619	 1.35122924685123E-02 
1620	 1.35895020674242E-02 
1621	 1.31239693698032E-02 
1622	 1.32284556457804E-02 
1623	 1.33198911720581E-02 
1624	 1.31159354807367E-02 
1625	 1.30754173510327E-02 
1626	 1.32592785147682E-02 
1627	 1.29858803476809E-02 
1628	 1.28346792704495E-02 
1629	 1.28973957016316E-02 
1630	 1.24851136449182E-02 
1631	 1.29002608475314E-02 
1632	 1.34891388929313E-02 
1633	 1.30805764323562E-02 
1634	 1.31755659345444E-02 
1635	 1.37808314153692E-02 
1636	 0.01374044809309 
1637	 0.013633614517076 
1638	 1.39400005946757E-02 
1639	 0.013802802568407 
1640	 1.30971456340907E-02 
1641	 0.012616210866143 
1642	 1.26002005912416E-02 
1643	 1.25951231845582E-02 
1644	 1.30710831885158E-02 
1645	 1.37463841471642E-02 
1646	 1.36855939830081E-02 
1647	 1.38151345079821E-02 
1648	 1.39358460992464E-02 
1649	 1.34586121038884E-02 
1650	 1.37347472329336E-02 
1651	 1.42895831261333E-02 
1652	 1.41728367814345E-02 
1653	 1.43438307967203E-02 
1654	 1.45095658131731E-02 
1655	 0.014680625514817 
1656	 1.44113532591997E-02 
1657	 1.39818907362807E-02 
1658	 1.39937569556807E-02 
1659	 1.33929258684034E-02 
1660	 1.30815786350627E-02 
1661	 1.33408650849028E-02 
1662	 1.36754354259383E-02 
1663	 1.46184141533635E-02 
1664	 1.46819836809463E-02 
1665	 1.43351062584818E-02 
1666	 1.42377023149098E-02 
1667	 0.013383392572065 
1668	 1.38675079138448E-02 
1669	 1.36816320257348E-02 
1670	 1.27585380191679E-02 
1671	 1.32327231677434E-02 
1672	 1.37795127650779E-02 
1673	 1.36103399168371E-02 
1674	 1.42944312377071E-02 
1675	 0.014562237145466 
1676	 1.37638386346541E-02 
1677	 1.36153379398364E-02 
1678	 1.39536406923862E-02 
1679	 1.39135638145244E-02 
1680	 1.36874231231157E-02 
1681	 1.39853704023446E-02 
1682	 1.43091427264397E-02 
1683	 1.37887257725548E-02 
1684	 1.36203594160473E-02 
1685	 1.38883257853837E-02 
1686	 1.37969386566637E-02 
1687	 1.39557416685222E-02 
1688	 1.43739763325945E-02 
1689	 1.47178723585724E-02 
1690	 1.47126718168186E-02 
1691	 1.47437347281803E-02 
1692	 1.51218914451218E-02 
1693	 1.47982740974138E-02 
1694	 1.48667664728156E-02 
1695	 1.54329662070765E-02 
1696	 1.46490078572604E-02 
1697	 1.42655665723544E-02 
1698	 1.47665188970497E-02 
1699	 1.49798866037918E-02 
1700	 1.48777419789655E-02 
1701	 1.48457208298603E-02 
1702	 1.46938798223871E-02 
1703	 1.38156533517284E-02 
1704	 1.37556807885172E-02 
1705	 1.39465266886573E-02 
1706	 1.33639709624762E-02 
1707	 1.28584377549059E-02 
1708	 0.013224598494761 
1709	 1.43183760043495E-02 
1710	 0.014195886735509 
1711	 0.013926703090858 
1712	 1.40905019099689E-02 
1713	 1.23276914109394E-02 
1714	 0.012033533582022 
1715	 1.24980687761042E-02 
1716	 1.26273448601764E-02 
1717	 1.29930401137923E-02 
1718	 1.35202463415384E-02 
1719	 1.39141346385339E-02 
1720	 1.31128666789453E-02 
1721	 1.30422617818972E-02 
1722	 1.42780482613815E-02 
1723	 1.41211630376237E-02 
1724	 1.34646201342974E-02 
1725	 1.38146644121291E-02 
1726	 1.38925378073327E-02 
1727	 1.30480661251958E-02 
1728	 0.011895717627659 
1729	 1.13034691334568E-02 
1730	 1.07560279963552E-02 
1731	 1.06809596273004E-02 
1732	 1.22730440646072E-02 
1733	 1.37339721421701E-02 
1734	 1.29821853901062E-02 
1735	 1.13576995024995E-02 
1736	 1.10553204976493E-02 
1737	 1.07013613558394E-02 
1738	 1.05480041084835E-02 
1739	 1.23769322828671E-02 
1740	 1.27677409827406E-02 
1741	 1.11432505717653E-02 
1742	 9.92405043924407E-03 
1743	 8.8743565053951E-03 
1744	 1.00106228207272E-02 
1745	 1.21457792990503E-02 
1746	 1.27049494807067E-02 
1747	 1.30904093721175E-02 
1748	 1.07546311590403E-02 
1749	 1.02084705306133E-02 
1750	 1.20423450702841E-02 
1751	 1.21929659180916E-02 
1752	 1.14820288975736E-02 
1753	 0.011532377350302 
1754	 1.14555867140583E-02 
1755	 1.10624601273359E-02 
1756	 1.10292230725184E-02 
1757	 1.11160049550204E-02 
1758	 1.01005556350705E-02 
1759	 9.91451319407013E-03 
1760	 1.03774915818243E-02 
1761	 9.10174464758751E-03 
1762	 8.49600627340164E-03 
1763	 9.64910328948563E-03 
1764	 9.36721551615599E-03 
1765	 9.9984847202856E-03 
1766	 1.29556634642914E-02 
1767	 1.25174079000583E-02 
1768	 9.72251208999422E-03 
1769	 7.33278755137673E-03 
1770	 3.5056379889363E-03 
1771	 2.88255941073067E-03 
1772	 5.68023029271017E-03 
1773	 8.18725710708155E-03 
1774	 9.04244509141675E-03 
1775	 4.80298810274565E-03 
1776	 3.75050362852393E-03 
1777	 2.30977359399442E-03 
1778	 2.64968429655274E-03 
1779	 7.8408368462186E-03 
1780	 9.29648452832049E-03 
1781	 9.47329764138305E-03 
1782	 9.93092153352672E-03 
1783	 9.16644731225319E-03 
1784	 8.5516792653124E-03 
1785	 8.04438687363479E-03 
1786	 5.74545323842939E-03 
1787	-9.37036003139856E-04 
1788	-1.33803438966337E-04 
1789	 5.44350742243565E-03 
1790	 9.93882042738601E-03 
1791	 1.79205766344469E-02 
1792	 1.40171010484135E-02 
1793	-2.0361260149937E-03 
1794	-6.26427018793139E-03 
1795	-1.44374622440428E-02 
1796	-2.25938261727467E-02 
1797	-3.78878889729066E-03 
1798	 9.82713158321826E-03 
1799	 1.44754739040599E-02 
1800	 0.01738813413167 
1801	 1.89985628047002E-02 
1802	 1.37814775164065E-02 
1803	 3.27401676426979E-03 
1804	-2.83970478499561E-02 
1805	-0.033563289764893 
1806	-1.85110432387941E-03 
1807	-2.68431635084496E-02 
1808	-5.87985975575778E-02 
1809	-8.85635283762499E-02 
1810	-0.289437971277205 
1811	-0.348711231932713 
1812	-0.129019848784641 
1813	-5.06859091509009E-02 
1814	 0.156969294305047 
1815	 6.71848115244455E-02 
1816	-0.487725502761883 
1817	-0.907106065464997 
1818	-1.50121584711261 
1819	-1.04474668766209 
1820	 0.397271664174617 
1821	 3.09053880026239 
1822	 3.6510218797396 
1823	 0.181367751715712 
1824	-0.922002178541451 
1825	-1.72912056775005 
1826	-1.8123584965374 
1827	-7.64811746717224 
1828	-5.61787540184692 
1829	 0.140249046572456 
1830	 0.47302789588472 
1831	 0.293881523437661 
1832	 0.418428819313819 
1833	-0.380722894125367 
1834	-3.12081439636218 
1835	 3.0637233492737 
1836	-39.3967442157777 
1837	-0.52061790424231 
1838	-0.427024519476069 
1839	-0.332570438782453 
1840	-0.209528249825376 
1841	-0.112188495419914 
1842	 0.603996332630961 
1843	 0.735933241104523 
1844	 0.377639466558195 
1845	 0.494464158206827 
1846	 0.708740762010212 
1847	 0.692342615857157 
1848	 0.908292126925472 
1849	 0.925258016217289 
1850	 1.16492517096608 
1851	 0.970396767378287 
1852	-2.36195847378775 
1853	 3.17602582265837E-02 
1854	 0.287777721252403 
1855	 1.3164631701272 
1856	 1.38174848433741 
1857	 1.57949120515562 
1858	 1.81775081924377 
1859	 0.257649839331362 
1860	-0.246394485701816 
1861	 0.270987808687407 
1862	 3.19495743542804 
1863	-1.60192870383845 
1864	-2.45961297800872 
1865	-3.29231083152096 
1866	-10.6214613552148 
1867	-14.4593106725027 
1868	 8.94992202260135 
1869	 77.204315407316 
1870	-1.35662256729912 
1871	-0.538988293527301 
1872	-1.12200061300956 
1873	-2.49971759308532 
1874	 49.5671138905703 
1875	 2.98861375362997 
1876	 2.90966321242153 
1877	 58.3798066613373 
1878	-6.65840538758995 
1879	-0.493543259900746 
1880	-4.51910862069773E-02 
1881	 0.847611165024038 
1882	 2.27969422688913 
1883	-1.61661533856388 
1884	 0.861987331495831 
1885	 1.00728874395524 
1886	 0.621909389059832 
1887	-87.0010456081419 
1888	-10.9096694366116 
1889	-4.72554449369779 
1890	-2.36371124877906 
1891	-2.32732765061924 
1892	 2.20426662357078 
1893	-1.35985987114703 
1894	-0.430656002069423 
1895	-2.7847739352316 
1896	 95.8617224124698 
1897	 1.32397604661586 
1898	-10.8490675021376 
1899	 5.67440811840221 
1900	 14.9783915151244 
1901	 5.81594766516471 
1902	 9.30901085189788 
1903	 0.940256896004314 
1904	 0.328525720560294 
1905	 0.184815680141374 
1906	 1.27697902314497E-03 
1907	-0.776559044798446 
1908	-0.474112106564598 
1909	 0.964658698440988 
1910	 1.0006482199436 
1911	 2.79613601858647 
1912	 5.72585211545854 
1913	 6.21654964662362 
1914	 0.623226213575112 
1915	 0.81491780271713 
1916	 1.85271250245918 
1917	-0.69547045936303 
1918	 0.958061775321542 
1919	 2.31858446994096 
1920	 89.5111463480093 
1921	-17.367435742947 
1922	 4.22315863659417 
1923	-6.60010371580334 
1924	-5.63344173446071 
1925	-1.65072324252366 
1926	-1.50379601980509 
1927	-1.18752249631351 
1928	-5.26625675305311 
1929	-9.56970540973373E-02 
1930	-0.108050758319188 
1931	 0.145028452004055 
1932	 0.886893082463384 
1933	-1.88012879173785 
1934	 0.109843665902282 
1935	-4.65731582210406E-02 
1936	-5.49681285888325E-02 
1937	-4.73606682341503E-02 
1938	-5.40436374235818E-02 
1939	 4.90216822885938E-02 
1940	 0.286349612505109 
1941	 0.309141831027823 
1942	 0.304221212899703 
1943	 0.316094450062981 
1944	 0.177142143465905 
1945	 0.126266960778937 
1946	 0.142262375335701 
1947	 0.146807666382879 
1948	 0.177544135564032 
1949	 0.188905505155513 
1950	 0.167802306524014 
1951	 0.188530056882751 
1952	 0.164309172915999 
1953	 0.136057142438351 
1954	 7.57349975452576E-02 
1955	 2.48705452457096E-02 
1956	 5.29631675773095E-03 
1957	-2.60457057134369E-02 
1958	-4.29375662999272E-02 
1959	 6.81370158701538E-04 
1960	 3.12790780116851E-02 
1961	 3.87571852174905E-02 
1962	 4.55731447166549E-02 
1963	 4.59643655075297E-02 
1964	 3.80414334728906E-02 
1965	 0.02770035154494 
1966	 2.14684387563976E-02 
1967	 2.26547316031144E-02 
1968	 1.42225369536308E-02 
1969	 3.77755653988709E-03 
1970	 3.67471595916023E-03 
1971	-2.40652101250697E-03 
1972	-3.31018124087523E-03 
1973	 1.27960797896438E-03 
1974	 4.94110376714397E-04 
1975	 2.64743798373307E-03 
1976	 2.51381365258082E-03 
1977	 5.86535186468132E-04 
1978	 6.21993536121911E-04 
1979	 8.14983472678926E-04 
1980	 2.17339696298339E-03 
1981	 4.98604033071469E-03 
1982	 3.60696790694177E-03 
1983	 2.29941737935431E-03 
1984	 4.63663218537833E-03 
1985	 4.3012892467592E-03 
1986	 4.78027461546008E-03 
1987	 6.10829272651945E-03 
1988	 3.14073857379944E-03 
1989	 2.18438892896724E-03 
1990	 2.85272629859734E-03 
1991	 7.72453777980587E-04 
1992	-1.10143354037423E-03 
1993	-8.53034326151961E-04 
1994	-1.70153282054372E-03 
1995	-2.38572269405983E-03 
1996	-5.63606694866315E-03 
1997	-8.77141896582734E-03 
1998	-0.010285202067768 
1999	-1.01341797783825E-02 
2000	-8.27216431015236E-03 
2001	 1.59211868483939E-03 
2002	 1.69421638890092E-02 
2003	 1.70773646318326E-02 
2004	 2.12125081647657E-02 
2005	 3.50462018514486E-02 
2006	 2.61277172844196E-02 
2007	 2.08522943629393E-02 
2008	 2.63882485599999E-02 
2009	 2.14857517068743E-02 
2010	 1.70805683261223E-03 
2011	-3.60339694575184E-03 
2012	-6.94109312407781E-03 
2013	-5.56825604141858E-03 
2014	 5.80751373824693E-03 
2015	 1.46406063744085E-02 
2016	 1.44099671537947E-02 
2017	 1.25360607738895E-02 
2018	 8.73506157961487E-03 
2019	 7.98932462722388E-03 
2020	 8.36749215464533E-03 
2021	 5.30719814040974E-03 
2022	 6.34949367380524E-03 
2023	 6.67981988433705E-03 
2024	 6.85758553149924E-03 
2025	 1.13510175333009E-02 
2026	 1.11692584380926E-02 
2027	 8.00634996438413E-03 
2028	 4.98306442634525E-03 
2029	 4.22600207471968E-03 
2030	 3.96929892286672E-03 
2031	 5.32096854469226E-03 
2032	 7.49196225910968E-03 
2033	 8.08754141688399E-03 
2034	 8.02958263368478E-03 
2035	 7.44467725124572E-03 
2036	 5.28918968988152E-03 
2037	 4.84912835428483E-03 
2038	 4.18796589392958E-03 
2039	 4.03729517156132E-03 
2040	 6.1349414065787E-03 
2041	 6.91889999968856E-03 
2042	 6.20272722137179E-03 
2043	 6.41598564003706E-03 
2044	 7.07923779697712E-03 
2045	 6.51955713616689E-03 
2046	 7.63266641341218E-03 
2047	 1.06659837680668E-02 
2048	 1.33845973761901E-02 
2049	 1.14102251010109E-02 
2050	 7.61615092977001E-03 
2051	 4.82413922377979E-03 
2052	-2.17572403466669E-04 
2053	-2.72383441790724E-04 
2054	 1.70269136071768E-03 
2055	 7.23926795209592E-04 
2056	 1.71250538843398E-03 
2057	 5.72635744174452E-03 
2058	 6.26062001068512E-03 
2059	 3.45528765479664E-03 
2060	 4.8400843791964E-03 
2061	 8.01388026384437E-03 
2062	 8.93027149717399E-03 
2063	 9.48551506332737E-03 
2064	 1.32693871736166E-02 
2065	 1.28021727503417E-02 
2066	 1.07623851721439E-02 
2067	 1.12249109676786E-02 
2068	 1.00665179644234E-02 
2069	 8.67633742180234E-03 
2070	 8.57009510269815E-03 
2071	 9.49047394305911E-03 
2072	 9.68059259352176E-03 
2073	 1.02936559199648E-02 
2074	 1.30169014562409E-02 
2075	 1.21976192663532E-02 
2076	 8.73612138312528E-03 
2077	 7.60371744070218E-03 
2078	 3.73956596339056E-03 
2079	 3.55911914307258E-03 
2080	 6.23219696851667E-03 
2081	 1.01351274296089E-02 
2082	 1.16162026928537E-02 
2083	 0.010579773058188 
2084	 8.97508757978604E-03 
2085	 6.57489752771099E-03 
2086	 5.24396770570963E-03 
2087	 5.34691420665665E-03 
2088	 3.11699595898231E-03 
2089	 1.87808591027012E-03 
2090	 2.74486500415494E-03 
2091	 3.4278016953774E-03 
2092	 3.8028696883181E-03 
2093	 5.38752062596465E-03 
2094	 5.74129580814511E-03 
2095	 4.77750663785543E-03 
2096	 4.34840675725005E-03 
2097	 3.67846994384889E-03 
2098	 3.66918512066311E-03 
2099	 4.04210992493673E-03 
2100	 3.83264278541901E-03 
2101	 4.07243102115757E-03 
2102	 3.68427176105346E-03 
2103	 4.2045226030504E-03 
2104	 4.67630661684996E-03 
2105	 6.00414177312242E-03 
2106	 8.30304028184022E-03 
2107	 6.95590508396903E-03 
2108	 4.8933503986449E-03 
2109	 3.96493598985866E-03 
2110	 3.78685995514831E-03 
2111	 3.73264614177068E-03 
2112	 5.51539844725587E-03 
2113	 5.97189363461001E-03 
2114	 4.32107376318635E-03 
2115	 3.73298299033732E-03 
2116	 3.82497585873323E-03 
2117	 4.16983043235337E-03 
2118	 6.01415614259162E-03 
2119	 7.06199915828049E-03 
2120	 8.47740758003022E-03 
2121	 7.18666535918556E-03 
2122	 8.73425505311199E-03 
2123	 7.83695454479232E-03 
2124	 5.92602998902877E-03 
2125	 6.78724055557121E-03 
2126	 7.00158750059635E-03 
2127	 7.4553766645393E-03 
2128	 8.4289638742262E-03 
2129	 9.3236017472952E-03 
2130	 9.4019413420001E-03 
2131	 8.00642741612394E-03 
2132	 9.21312676603269E-03 
2133	 1.25042518362523E-02 
2134	 0.013518928143365 
2135	 0.014779398520867 
2136	 0.013746739739528 
2137	 9.13238887730778E-03 
2138	 7.81849987524983E-03 
2139	 6.45787124961144E-03 
2140	 5.91470595157947E-03 
2141	 8.51522272717249E-03 
2142	 9.05267258941107E-03 
2143	 7.4683463638817E-03 
2144	 8.14072017132472E-03 
2145	 1.10379825394015E-02 
2146	 1.10022064483482E-02 
2147	 1.21946238677474E-02 
2148	 1.28330899191572E-02 
2149	 1.04897237939882E-02 
2150	 7.49106947186148E-03 
2151	 6.33876609168331E-03 
2152	 6.13207714014583E-03 
2153	 5.16696198743183E-03 
2154	 7.26624892582414E-03 
2155	 7.88473158272831E-03 
2156	 7.90561373344944E-03 
2157	 8.08430827788255E-03 
2158	 7.86518180084104E-03 
2159	 8.07280189615512E-03 
2160	 8.72407366138155E-03 
2161	 9.17584820900077E-03 
2162	 9.70488856156622E-03 
2163	 0.010539860988398 
2164	 1.17357423073621E-02 
2165	 1.21019915601413E-02 
2166	 0.013338796005159 
2167	 1.28134624173068E-02 
2168	 1.05975909305205E-02 
2169	 7.94122975720709E-03 
2170	 2.46339157057721E-03 
2171	-1.32690433879702E-05 
2172	 1.09272918181077E-03 
2173	 3.55811733471778E-03 
2174	 6.13787388367034E-03 
2175	 8.66403444954155E-03 
2176	 9.41547383998082E-03 
2177	 9.3305364058282E-03 
2178	 1.23252917157041E-02 
2179	 1.47726064691091E-02 
2180	 1.25137273962349E-02 
2181	 6.66074699549573E-03 
2182	 3.20904725474104E-03 
2183	 4.25711313999452E-03 
2184	 6.09450245693381E-03 
2185	 8.66039623436686E-03 
2186	 9.18272275013454E-03 
2187	 4.9024167101467E-03 
2188	 5.05343577433916E-03 
2189	 8.01587128458985E-03 
2190	 8.72428848692446E-03 
2191	 1.05999984633342E-02 
2192	 1.03132570946246E-02 
2193	 6.68545165443011E-03 
2194	 5.75205689445178E-03 
2195	 6.28661367110641E-03 
2196	 6.2623488823598E-03 
2197	 6.00828783365994E-03 
2198	 6.31656254405959E-03 
2199	 8.10584814818464E-03 
2200	 6.45021104205276E-03 
2201	 5.15585855375928E-03 
2202	 5.18280110950973E-03 
2203	 5.98431535313075E-03 
2204	 0.011061761226154 
2205	 1.25281040141045E-02 
2206	 1.07879508755132E-02 
2207	 1.10346506852049E-02 
2208	 6.43956070501824E-03 
2209	 5.27241928062176E-03 
2210	 1.14820032126355E-02 
2211	 1.06813812944406E-02 
2212	 8.31160571616821E-03 
2213	 1.02014193299986E-02 
2214	 9.07590132108715E-03 
2215	 7.59810262141128E-03 
2216	 9.38571080743004E-03 
2217	 9.21207612410838E-03 
2218	 6.1919089965832E-03 
2219	 3.64297158819192E-03 
2220	 1.48031249446276E-03 
2221	 2.75466025834749E-04 
2222	-1.62257708304645E-03 
2223	-1.33137770978458E-03 
2224	 7.90126561817555E-04 
2225	 3.40827011503817E-03 
2226	 8.87004591347867E-03 
2227	 9.96997278717983E-03 
2228	 8.06061943211226E-03 
2229	 7.1112930323253E-03 
2230	 3.89844631558902E-03 
2231	 3.62247586914282E-03 
2232	 7.31844578459944E-03 
2233	 1.09820744630498E-02 
2234	 1.78425913917286E-02 
2235	 1.62657407709453E-02 
2236	 1.52493059547307E-02 
2237	 1.41435873683112E-02 
2238	 1.05042219013827E-02 
2239	 7.61240022841766E-03 
2240	 1.04730656812086E-02 
2241	 1.26094838599849E-02 
2242	 1.07098416329073E-02 
2243	 1.20186945693803E-02 
2244	 8.30435976372571E-03 
2245	 3.11669587671966E-03 
2246	 6.76458259595394E-03 
2247	 7.87527017156817E-03 
2248	 7.38596572331051E-03 
2249	 1.22118734748355E-02 
2250	 1.11046226495575E-02 
2251	 6.76666556557832E-03 
2252	 5.65119335952233E-03 
2253	 2.51778331313928E-04 
2254	 6.1379409671775E-04 
2255	 3.81895201879001E-03 
2256	 4.28871067637929E-04 
2257	 3.15345563857489E-03 
2258	 6.24573473055975E-03 
2259	 3.46758684014061E-03 
2260	 1.49085658570198E-03 
2261	 3.05191083561783E-04 
2262	 6.43024679303836E-04 
2263	-1.30562188866062E-03 
2264	-1.80885163790488E-03 
2265	-3.41910468391057E-05 
2266	 3.67633518757285E-03 
2267	 1.11041749671648E-02 
2268	 1.39863552413254E-02 
2269	 1.74255542098072E-02 
2270	 1.81852230227062E-02 
2271	 9.92411813706656E-03 
2272	 7.45497864582727E-03 
2273	 1.23930524843112E-02 
2274	 1.29502958868263E-02 
2275	 1.16919353554666E-02 
2276	 1.07555096297593E-02 
2277	 5.44163975597421E-03 
2278	 4.05564870297038E-03 
2279	 8.26118721767186E-03 
2280	 5.97146068326764E-03 
2281	 1.10274736177404E-03 
2282	-2.27478651045611E-03 
2283	-6.36193777858855E-03 
2284	-4.12511086816591E-03 
2285	 1.65970084900279E-03 
2286	 6.37533386487029E-03 
2287	 1.27057904094076E-02 
2288	 1.57009948145301E-02 
2289	 1.77392936820629E-02 
2290	 1.81692074532662E-02 
2291	 1.32579940723309E-02 
2292	 3.92528257567676E-03 
2293	 5.39165946382029E-03 
2294	 1.35204117915474E-02 
2295	 1.11062847474151E-02 
2296	 1.83757483344168E-02 
2297	 2.96603351279791E-02 
2298	 3.15213549533093E-02 
2299	 3.65283650039522E-02 
2300	 3.78471209079218E-02 
2301	 2.44876427415863E-02 
2302	 1.43503377600987E-02 
2303	 1.93257078795944E-02 
2304	 1.81915933696594E-02 
2305	 1.54479277461659E-02 
2306	 1.56084874654115E-02 
2307	 8.36925417969715E-03 
2308	 1.28827856715775E-02 
2309	 1.50717833229736E-02 
2310	 1.43003948903417E-02 
2311	 2.03587737553613E-02 
2312	 9.80746719969585E-03 
2313	 1.83529596240516E-03 
2314	-1.63514877455354E-03 
2315	-1.06332461337158E-02 
2316	-3.22527714737505E-03 
2317	 1.19219220263354E-02 
2318	 1.52149471246106E-02 
2319	 1.81576613690625E-02 
2320	 1.47089850003246E-02 
2321	 2.19873244031807E-03 
2322	 6.74692716339326E-03 
2323	 1.52142883119974E-02 
2324	 2.43913357499903E-02 
2325	 3.63368090052945E-02 
2326	 2.83711873913765E-02 
2327	 2.26877116152129E-02 
2328	 1.99240528950041E-02 
2329	 6.85689876686867E-03 
2330	 1.69927703945121E-02 
2331	 2.72085376854867E-02 
2332	 2.63303820678154E-02 
2333	 3.18995680007422E-02 
2334	 2.43699232992089E-02 
2335	 2.49261815681507E-02 
2336	 2.85172046519654E-02 
2337	 1.43429464056166E-02 
2338	 1.52811331416989E-02 
2339	 2.29871860291966E-02 
2340	 1.89233100880861E-02 
2341	 1.03771932813823E-02 
2342	 8.78004491703893E-03 
2343	 1.38413316307269E-03 
2344	-2.25553335819206E-02 
2345	-5.44695630931856E-03 
2346	 1.77300484673047E-02 
2347	 1.19310798796078E-02 
2348	 3.14372582048949E-02 
2349	 0.027297867852947 
2350	-4.41648044225729E-03 
2351	 6.08544939292813E-03 
2352	 6.57502196268028E-03 
2353	 2.97817130514675E-03 
2354	 4.78606750312404E-02 
2355	 7.74146040386272E-02 
2356	 7.48524930852014E-02 
2357	 7.13458158665016E-02 
2358	 5.00002647206673E-02 
2359	 3.20011864107466E-02 
2360	 3.65556986266729E-02 
2361	 5.94541328797467E-02 
2362	 8.73535555213393E-02 
2363	 7.83836640320874E-02 
2364	 6.40511277657993E-02 
2365	 0.045083613496051 
2366	-1.17263709640604E-03 
2367	 2.62953388743606E-03 
2368	 0.019828708075585 
2369	 2.05064052494532E-02 
2370	 3.42997622205417E-02 
2371	 4.13329924476227E-02 
2372	 4.82827014758078E-02 
2373	 3.46304810038238E-03 
2374	-7.15426616394107E-02 
2375	-9.32760355717758E-02 
2376	-0.102026254094189 
2377	-6.84142763619831E-02 
2378	-3.87752969649354E-03 
2379	 3.66850133970476E-02 
2380	 3.62386078686646E-02 
2381	 0.022284558007422 
2382	 1.70272221594612E-02 
2383	 1.34907097897639E-02 
2384	 8.65375411343955E-03 
2385	-0.048351072167813 
2386	-4.24827379775798E-02 
2387	-0.063237573124205 
2388	-0.124480173986626 
2389	-1.36852017317977E-02 
2390	 5.07187533222203E-03 
2391	-5.01024974112413E-02 
2392	-3.84750850051971E-02 
2393	-0.175673922879683 
2394	-0.220012012267476 
2395	-0.184662190349098 
2396	-0.158748543576305 
2397	-7.64251144408894E-02 
2398	-9.72240004612625E-02 
2399	-0.171897216517181 
2400	-0.13064121582481 
2401	-8.19510020003649E-02 
2402	-0.044601273734262 
2403	 7.14048425335311E-02 
2404	 7.40918401906175E-02 
2405	-0.142515230226013 
2406	-0.153625938362523 
2407	-0.104090606440866 
2408	-8.79168056080634E-02 
2409	 0.237142214585026 
2410	 0.3519833011669 
2411	 9.52128603637333E-02 
2412	 0.039070686756038 
2413	-0.305585925488448 
2414	-0.558486195177594 
2415	-0.433615438761389 
2416	-0.443768211755995 
2417	-0.576383953733022 
2418	-0.626466428221625 
2419	-0.614797636282253 
2420	-0.509673955077652 
2421	-0.101080245367909 
2422	 4.68716516400979E-02 
2423	-8.34386817536389E-02 
2424	-5.93391360615644E-02 
2425	-3.79744175536671E-02 
2426	-3.23679055659752E-02 
2427	-1.49933116239739E-02 
2428	 2.67802863644289E-02 
2429	 0.116665205075718 
2430	 0.209499711910918 
2431	 0.280063415369002 
2432	 0.294502318120766 
2433	-3.71220204014414E-02 
2434	-0.146250370644033 
2435	-0.103877773549264 
2436	-0.115097752729652 
2437	 0.128607735733619 
2438	 0.357158141109729 
2439	 0.245629711271087 
2440	 0.432291391892753 
2441	 0.555842562069953 
2442	 0.401844467958906 
2443	 0.432650099245852 
2444	 0.559983580968788 
2445	 0.217608920280729 
2446	 0.572615906890885 
2447	 0.681108869770905 
2448	 0.406827839876778 
2449	 0.298861802275869 
2450	 7.49570455700256E-02 
2451	-0.377671106036797 
2452	-0.733872460171929 
2453	-0.363295519239304 
2454	 1.55629063187933E-02 
2455	-1.34034340393977E-02 
2456	-1.73992643022299E-02 
2457	 6.30641683712064E-02 
2458	-5.44647101364594E-02 
2459	 0.16198337263071 
2460	 0.930468733086092 
2461	 1.71008599605767 
2462	-9.43004937674069 
2463	-2.88982300462822 
2464	 0.145348092327782 
2465	-6.05101200178901E-02 
2466	-1.4743298571542 
2467	-0.456197447342953 
2468	 0.55333502887153 
2469	 1.03186741018807 
2470	 1.02397168460349 
2471	 0.959493069358295 
2472	 0.526752748518663 
2473	 0.245775318702398 
2474	 0.145437134983448 
2475	-0.36597314708323 
2476	 1.3032864270382 
2477	 6.40846105131526 
2478	-2.05986360229533 
2479	-2.78949001342926 
2480	-11.1054445735411 
2481	 0.544436857580674 
2482	 0.323739889801149 
2483	 0.262215622936827 
2484	 0.105965821865318 
2485	-0.167665467153291 
2486	-0.261535839430388 
2487	-0.404064067145975 
2488	-0.135645629862224 
2489	 0.269144707473668 
2490	 0.458517809816908 
2491	 0.424852692796545 
2492	 0.137419093687823 
2493	-0.108916983087044 
2494	-0.24229778539247 
2495	-0.663040365751718 
2496	 0.285414372966711 
2497	 1.31484493246843 
2498	-2.93921625826205 
2499	 7.26611526163285E-02 
2500	 0.653368018765753 
