Wavelength	rt0622close00003.asd
350	 1.96589277084834E-02 
351	 0.020431678618934 
352	 1.98124114533105E-02 
353	 1.94988429556475E-02 
354	 2.02743145483033E-02 
355	 1.96781127374412E-02 
356	 2.02923152412633E-02 
357	 2.08503124487748E-02 
358	 0.019908682355364 
359	 2.06327985057914E-02 
360	 2.08206396117113E-02 
361	 2.04847527029899E-02 
362	 2.10722868451213E-02 
363	 2.10276370573415E-02 
364	 2.08477255613242E-02 
365	 2.10177438829721E-02 
366	 2.16357284166734E-02 
367	 2.17111643937899E-02 
368	 2.16041683660745E-02 
369	 2.18260892778392E-02 
370	 2.20103079546848E-02 
371	 2.21756874107429E-02 
372	 0.022404254005998 
373	 2.27310183570369E-02 
374	 2.24002103949839E-02 
375	 2.25631423378083E-02 
376	 2.32293978283249E-02 
377	 2.26397004361594E-02 
378	 2.30359139016095E-02 
379	 2.37087884736781E-02 
380	 2.38019981365823E-02 
381	 2.43492185401599E-02 
382	 2.45835451448519E-02 
383	 2.44154813209672E-02 
384	 0.024214754991702 
385	 2.49042894200543E-02 
386	 2.54606512215921E-02 
387	 2.54825341338622E-02 
388	 2.54682280719833E-02 
389	 2.57959409851836E-02 
390	 0.026158073316089 
391	 2.63425748136882E-02 
392	 2.67517124193573E-02 
393	 2.70436667358465E-02 
394	 2.71643734218446E-02 
395	 2.72150779121332E-02 
396	 2.74402389355606E-02 
397	 2.75815822572579E-02 
398	 2.76262086653903E-02 
399	 2.77876251144948E-02 
400	 2.80526735417804E-02 
401	 2.82087461427383E-02 
402	 2.82220233371578E-02 
403	 2.85001648392002E-02 
404	 2.89416637203765E-02 
405	 2.91332862790998E-02 
406	 2.88197655705592E-02 
407	 2.93761748532645E-02 
408	 2.95312935020103E-02 
409	 2.92306298267815E-02 
410	 2.96934615024516E-02 
411	 2.99099461530808E-02 
412	 2.99948167377739E-02 
413	 3.01881037201464E-02 
414	 3.05418224702846E-02 
415	 3.08655554982319E-02 
416	 3.10841986805469E-02 
417	 0.031222515612 
418	 0.03154248330317 
419	 3.19019724491787E-02 
420	 3.21795077441727E-02 
421	 3.23189989642253E-02 
422	 3.25500323578661E-02 
423	 3.29225874514002E-02 
424	 3.33391078663506E-02 
425	 3.33839127710769E-02 
426	 3.37203133140328E-02 
427	 3.42361734961362E-02 
428	 3.44970084276737E-02 
429	 3.47629794854978E-02 
430	 3.51848743651505E-02 
431	 3.56408028262888E-02 
432	 3.57174934181616E-02 
433	 3.61605220026655E-02 
434	 3.66574341014325E-02 
435	 3.68945361195684E-02 
436	 3.72739157893504E-02 
437	 3.77358640978292E-02 
438	 3.81155212063509E-02 
439	 3.82546812932781E-02 
440	 3.86118276753988E-02 
441	 3.90034013719145E-02 
442	 3.93287930613219E-02 
443	 3.97195127460952E-02 
444	 4.00571887006164E-02 
445	 4.03983011682441E-02 
446	 4.08027169564556E-02 
447	 4.11718438943504E-02 
448	 0.041431086844229 
449	 4.16167972500118E-02 
450	 4.18503806791837E-02 
451	 4.22187878458422E-02 
452	 4.24437731237747E-02 
453	 4.24611828766078E-02 
454	 4.27468168527925E-02 
455	 4.30479407542866E-02 
456	 4.32576454889945E-02 
457	 4.33646170661507E-02 
458	 4.36124176386791E-02 
459	 4.37573662178092E-02 
460	 4.38201038423918E-02 
461	 4.40863722831841E-02 
462	 4.40545133553351E-02 
463	 4.41261462531353E-02 
464	 4.45643493529684E-02 
465	 4.47770935897291E-02 
466	 4.48090835339281E-02 
467	 4.48797746326435E-02 
468	 4.52269200443627E-02 
469	 4.53853661692729E-02 
470	 4.55629052820619E-02 
471	 4.57980054483046E-02 
472	 4.58197064844335E-02 
473	 4.60727615541156E-02 
474	 4.63166553222537E-02 
475	 4.63381183929294E-02 
476	 4.66969286167106E-02 
477	 4.70265031171144E-02 
478	 4.72046146835385E-02 
479	 4.73209693474047E-02 
480	 4.77356644165289E-02 
481	 0.048090182813913 
482	 4.82394719532595E-02 
483	 4.86890858289902E-02 
484	 4.88839796670958E-02 
485	 4.90263965672694E-02 
486	 4.94679717661845E-02 
487	 4.97411432472946E-02 
488	 5.00679802734225E-02 
489	 5.05205812601007E-02 
490	 5.09877848597641E-02 
491	 5.12518366499276E-02 
492	 5.15154179759997E-02 
493	 5.19411960037331E-02 
494	 5.23449000194766E-02 
495	 5.28254710167246E-02 
496	 5.32865416489054E-02 
497	 5.35863009499853E-02 
498	 5.40611360518541E-02 
499	 5.45567321008231E-02 
500	 5.50029464944836E-02 
501	 5.55377662337397E-02 
502	 5.61252439780028E-02 
503	 5.66488707741861E-02 
504	 5.70464238437587E-02 
505	 5.75539389206224E-02 
506	 5.80733471363902E-02 
507	 5.85604102709643E-02 
508	 5.90243802325749E-02 
509	 5.95244611886213E-02 
510	 6.00222672416761E-02 
511	 6.05158111831921E-02 
512	 6.11427024409515E-02 
513	 6.17474225528385E-02 
514	 6.23227812256489E-02 
515	 6.29213893176201E-02 
516	 6.35613706938387E-02 
517	 6.41841743673366E-02 
518	 6.47732903709565E-02 
519	 6.53749459721465E-02 
520	 6.59954103280119E-02 
521	 6.66712104808045E-02 
522	 6.73912419105507E-02 
523	 6.79180548679251E-02 
524	 6.86601781886583E-02 
525	 6.95322236280194E-02 
526	 7.01348061282425E-02 
527	 7.08223678112016E-02 
528	 7.14986001503368E-02 
529	 7.21276938981979E-02 
530	 7.29295150698166E-02 
531	 7.37334079414191E-02 
532	 7.44901177314533E-02 
533	 7.52117992654699E-02 
534	 7.60174882298799E-02 
535	 0.076793025205337 
536	 7.74992466136196E-02 
537	 7.81928513160514E-02 
538	 7.90640259948826E-02 
539	 7.99170571728913E-02 
540	 8.06229115243878E-02 
541	 8.16271537549238E-02 
542	 8.24337716704409E-02 
543	 8.31028481985586E-02 
544	 8.40016800949301E-02 
545	 8.46960417080634E-02 
546	 8.55041285650261E-02 
547	 8.64968165124629E-02 
548	 0.087072498650527 
549	 8.78328450972889E-02 
550	 8.87094210392204E-02 
551	 0.089464796426854 
552	 9.03448167637603E-02 
553	 9.11591236431525E-02 
554	 9.18571955673685E-02 
555	 9.25675953925977E-02 
556	 9.33866653994613E-02 
557	 9.42458888360048E-02 
558	 0.095031660504253 
559	 9.56579073083885E-02 
560	 9.63979853660121E-02 
561	 9.71940424186941E-02 
562	 9.78111816799185E-02 
563	 9.84911927555461E-02 
564	 9.91642738311412E-02 
565	 9.97795982097198E-02 
566	 0.100414384866824 
567	 0.100868058038614 
568	 0.10130977688221 
569	 0.10194244179757 
570	 0.102311341241379 
571	 0.102690112593704 
572	 0.103177064726145 
573	 0.10363254592211 
574	 0.104005467900831 
575	 0.104363361117059 
576	 0.10475493383168 
577	 0.105079250810524 
578	 0.105311480416111 
579	 0.105578522008615 
580	 0.1060334522338 
581	 0.106081531632727 
582	 0.106254607741951 
583	 0.106679901527402 
584	 0.106463219029292 
585	 0.106458824551762 
586	 0.106539075312545 
587	 0.1063351214644 
588	 0.10631575909432 
589	 0.106156674980394 
590	 0.105905014889621 
591	 0.106005956933022 
592	 0.105878612086077 
593	 0.105662753274274 
594	 0.105493409018578 
595	 0.105000236299688 
596	 0.104583442379576 
597	 0.104187407782621 
598	 0.103556371049902 
599	 0.103161056370988 
600	 0.1027287685674 
601	 0.102217155253397 
602	 0.102140083466416 
603	 0.10204068635192 
604	 0.10194308513549 
605	 0.101982530927696 
606	 0.102023095354084 
607	 0.102136678266506 
608	 0.102275618269073 
609	 0.10226996863244 
610	 0.10230907851347 
611	 0.102379139432869 
612	 0.102429337008884 
613	 0.102417515259952 
614	 0.102528591576459 
615	 0.102637729941668 
616	 0.102514746059412 
617	 0.102716749026732 
618	 0.102881103812575 
619	 0.102801164181593 
620	 0.102657163642949 
621	 0.102791715576584 
622	 0.102994322365051 
623	 0.102939285991278 
624	 0.102755008639571 
625	 0.102729737551661 
626	 0.102870072070952 
627	 0.102902090383344 
628	 0.102672851104655 
629	 0.102549602255903 
630	 0.102764235554267 
631	 0.102970752125184 
632	 0.102982571982295 
633	 0.102879339936452 
634	 0.102877875471697 
635	 0.103030482064376 
636	 0.103120425996489 
637	 0.103079379766208 
638	 0.10308680795124 
639	 0.102985704560888 
640	 0.102981842187868 
641	 0.103200799203623 
642	 0.103029215833282 
643	 0.102837224805684 
644	 0.102760338469724 
645	 0.10271981298362 
646	 0.102614180802051 
647	 0.102453827598839 
648	 0.102328912674826 
649	 0.102471714583413 
650	 0.102402799518305 
651	 0.102181282509367 
652	 0.102047456931689 
653	 0.101880572089237 
654	 0.101547201883909 
655	 0.101062124580478 
656	 0.100712776648945 
657	 0.100306444530957 
658	 9.98989163876227E-02 
659	 9.95825522713506E-02 
660	 9.94713021986504E-02 
661	 9.93782805600634E-02 
662	 9.92471132097064E-02 
663	 0.099113844936852 
664	 9.90283039999738E-02 
665	 9.89821869019949E-02 
666	 9.89207817795997E-02 
667	 9.87112263821635E-02 
668	 9.86408333389671E-02 
669	 9.87415408442826E-02 
670	 9.88896935110662E-02 
671	 9.86858403240552E-02 
672	 9.85401861705237E-02 
673	 9.85779784048033E-02 
674	 9.86256383711132E-02 
675	 9.88086094402985E-02 
676	 9.89077150786165E-02 
677	 9.88328761549779E-02 
678	 9.89859090396237E-02 
679	 9.89761950310108E-02 
680	 9.89670291085065E-02 
681	 9.92816725568122E-02 
682	 9.95100979838642E-02 
683	 9.94379608641242E-02 
684	 9.91767940446978E-02 
685	 9.92396809878798E-02 
686	 9.92948756903386E-02 
687	 9.91475099869632E-02 
688	 9.88474929250976E-02 
689	 9.89885256358011E-02 
690	 9.89039135624711E-02 
691	 9.85326851223675E-02 
692	 9.81633638844206E-02 
693	 9.77850552687224E-02 
694	 9.73082663136626E-02 
695	 9.68252004464524E-02 
696	 9.66857294571837E-02 
697	 9.61724240435269E-02 
698	 0.095362748669823 
699	 9.45889655871299E-02 
700	 9.37911697017802E-02 
701	 9.31662883416589E-02 
702	 0.092601059608948 
703	 9.17425358297238E-02 
704	 9.07750308078603E-02 
705	 8.99311102846512E-02 
706	 8.92062907023772E-02 
707	 8.79712090726669E-02 
708	 8.68863719781031E-02 
709	 8.57165254913865E-02 
710	 8.41090320202843E-02 
711	 8.30052388411981E-02 
712	 8.15666413626396E-02 
713	 7.96198045774372E-02 
714	 7.77449057071252E-02 
715	 7.60069164592058E-02 
716	 7.40822635164371E-02 
717	 7.18118725480638E-02 
718	 6.94921313236013E-02 
719	 6.76176805179315E-02 
720	 6.62034276759038E-02 
721	 6.46755062137298E-02 
722	 6.27297856369684E-02 
723	 6.05976971256393E-02 
724	 5.86724964156546E-02 
725	 5.66824325213448E-02 
726	 5.44552501059151E-02 
727	 5.21570186141402E-02 
728	 4.98896025532396E-02 
729	 4.72314923196727E-02 
730	 4.45672200498166E-02 
731	 4.22117544682926E-02 
732	 4.01850592569562E-02 
733	 3.85406817625913E-02 
734	 3.70078627123696E-02 
735	 3.55762155471724E-02 
736	 3.45594120784097E-02 
737	 3.37802299872223E-02 
738	 3.31931715675583E-02 
739	 3.27816497153089E-02 
740	 3.24878174253336E-02 
741	 3.22698917054314E-02 
742	 3.20816009033525E-02 
743	 3.18941489129523E-02 
744	 3.18527108481613E-02 
745	 0.031688255498698 
746	 3.14522679485616E-02 
747	 0.031666616526403 
748	 3.17810138987691E-02 
749	 3.17381938601047E-02 
750	 3.16234296019072E-02 
751	 3.15325686657333E-02 
752	 3.14614146641076E-02 
753	 3.14302050214941E-02 
754	 3.14626106283786E-02 
755	 3.15201551762715E-02 
756	 3.16105547494128E-02 
757	 3.16702358424031E-02 
758	 3.14609877532559E-02 
759	 3.10428966085926E-02 
760	 0.030897059303884 
761	 3.14461167013629E-02 
762	 3.15782829667985E-02 
763	 3.16061383029753E-02 
764	 3.17883754176471E-02 
765	 3.21664125647486E-02 
766	 3.21271421036574E-02 
767	 3.21973353270022E-02 
768	 0.032451246911014 
769	 3.25632076724193E-02 
770	 0.032988062454925 
771	 3.31533687907579E-02 
772	 3.28330768924625E-02 
773	 0.033280676197579 
774	 3.36876125986986E-02 
775	 3.39645912001655E-02 
776	 0.034289498028325 
777	 3.44356333034543E-02 
778	 3.47343390226025E-02 
779	 3.52252205147846E-02 
780	 3.56173191087168E-02 
781	 3.57922910264579E-02 
782	 3.60582215855776E-02 
783	 3.65640311266245E-02 
784	 3.69092666219006E-02 
785	 3.73693972007812E-02 
786	 0.037904745070484 
787	 3.83537672996709E-02 
788	 3.85602008425167E-02 
789	 3.89579398478871E-02 
790	 3.95562654937283E-02 
791	 4.00085730378962E-02 
792	 4.03004235115552E-02 
793	 4.07841846862357E-02 
794	 0.041520175843176 
795	 4.19972656966357E-02 
796	 0.042326252275933 
797	 4.26095516389842E-02 
798	 4.29760048177397E-02 
799	 4.35670007280411E-02 
800	 4.41431500690053E-02 
801	 4.44945447982049E-02 
802	 0.044558276258552 
803	 4.49982149394604E-02 
804	 4.52594396806371E-02 
805	 4.51961013433401E-02 
806	 4.52082890165689E-02 
807	 4.53392464932349E-02 
808	 4.52924065968919E-02 
809	 4.49743119494916E-02 
810	 4.50522991580824E-02 
811	 4.48485985702374E-02 
812	 4.43419463646142E-02 
813	 4.38082144911236E-02 
814	 4.33839029846153E-02 
815	 4.31309505547916E-02 
816	 4.28707658721672E-02 
817	 0.042273000854516 
818	 4.12710858011409E-02 
819	 4.04505373469473E-02 
820	 4.00320847963057E-02 
821	 3.98581644976308E-02 
822	 3.84248789328243E-02 
823	 3.65059516337003E-02 
824	 3.51024625324853E-02 
825	 3.39195593944423E-02 
826	 3.22474567939648E-02 
827	 3.04837789225741E-02 
828	 2.92957877988695E-02 
829	 2.72745904558546E-02 
830	 2.55934790975169E-02 
831	 2.45495552206492E-02 
832	 2.36949133640367E-02 
833	 2.25189400857365E-02 
834	 2.15924406060043E-02 
835	 2.11735861695926E-02 
836	 2.09702754990509E-02 
837	 2.05083206445479E-02 
838	 2.01412336495847E-02 
839	 2.00537219371193E-02 
840	 1.94914452658127E-02 
841	 1.90351389962253E-02 
842	 1.88177298284833E-02 
843	 1.87344606178274E-02 
844	 1.84178653324748E-02 
845	 1.81541713422266E-02 
846	 0.018037281588969 
847	 1.79679363012466E-02 
848	 1.75899816565785E-02 
849	 1.71134190273483E-02 
850	 1.67580360774274E-02 
851	 0.016648566849165 
852	 1.70593058820483E-02 
853	 1.69336338464222E-02 
854	 1.59189475024205E-02 
855	 1.56471293503405E-02 
856	 1.57170861705026E-02 
857	 1.57876729228709E-02 
858	 1.56112470664594E-02 
859	 1.52516679155079E-02 
860	 0.015010949331055 
861	 1.49765138825364E-02 
862	 1.50245975492503E-02 
863	 1.46007664783348E-02 
864	 0.014406529888187 
865	 1.44908563256386E-02 
866	 1.42506426348942E-02 
867	 1.37374273502905E-02 
868	 1.33448968140704E-02 
869	 1.32505782020205E-02 
870	 1.32857817042688E-02 
871	 1.32316496015296E-02 
872	 1.30163748406889E-02 
873	 1.26399269924679E-02 
874	 1.21491963110853E-02 
875	 1.16711997169178E-02 
876	 1.14819765893393E-02 
877	 1.16654278655377E-02 
878	 1.15599469289911E-02 
879	 1.13325927274332E-02 
880	 1.10913287310322E-02 
881	 1.08802244735457E-02 
882	 1.05183691209847E-02 
883	 1.02555299417351E-02 
884	 1.02265430360389E-02 
885	 1.03760528396781E-02 
886	 1.01306041011288E-02 
887	 9.49861609995676E-03 
888	 9.03000238489724E-03 
889	 9.6347947018179E-03 
890	 9.53325889991992E-03 
891	 9.36510949114858E-03 
892	 9.40282378852264E-03 
893	 8.36969419856069E-03 
894	 8.80506070434878E-03 
895	 9.24596519870039E-03 
896	 8.14400371337621E-03 
897	 0.0080385781678 
898	 8.21422017712359E-03 
899	 8.05391750316851E-03 
900	 7.43750286197517E-03 
901	 7.7146277029721E-03 
902	 7.79440297049911E-03 
903	 7.74788316758231E-03 
904	 7.84361444583141E-03 
905	 6.93841711599145E-03 
906	 5.95184805407129E-03 
907	 5.65146087048746E-03 
908	 6.39499924747619E-03 
909	 6.92731507929637E-03 
910	 6.18398286664508E-03 
911	 4.87443064499581E-03 
912	 4.95274900499771E-03 
913	 4.87926118836327E-03 
914	 5.02938463723197E-03 
915	 5.46175187678055E-03 
916	 5.62803675060674E-03 
917	 5.05296722899387E-03 
918	 4.35485737358476E-03 
919	 4.21493770404004E-03 
920	 5.09815326049143E-03 
921	 5.11884876650043E-03 
922	 4.98171590549396E-03 
923	 4.88302986940993E-03 
924	 2.77534917720464E-03 
925	 4.67341622630602E-03 
926	 6.36927017003816E-03 
927	 3.5058765317477E-03 
928	 5.34143276255854E-03 
929	 4.91692500618322E-03 
930	 3.09676417444959E-03 
931	 4.61651477009395E-03 
932	 4.24874111856118E-03 
933	 3.89477946376589E-04 
934	 9.54254625245886E-04 
935	 1.00257305457589E-02 
936	 3.78286816234793E-03 
937	 1.13420046177104E-03 
938	 1.24811910265221E-03 
939	-7.07367464484036E-04 
940	 3.44676848508019E-03 
941	 6.19204064218959E-03 
942	 4.03627636440933E-03 
943	-2.43444608233819E-03 
944	-3.23681021409224E-03 
945	-2.04042257701615E-03 
946	-2.79067068579958E-03 
947	-6.41816724076814E-03 
948	-2.27883319987305E-03 
949	 4.11963024859527E-03 
950	 5.17842681258568E-03 
951	-2.57374937900473E-03 
952	 2.05558369780025E-03 
953	-1.2203469736148E-03 
954	-8.68250336371067E-03 
955	-2.54197766049738E-03 
956	 3.63837929830493E-03 
957	 3.32812904530573E-03 
958	 9.11958707275327E-04 
959	 4.71671043679814E-03 
960	 1.5819769071521E-03 
961	-4.22158125104865E-05 
962	 1.49947040965101E-03 
963	 2.08192428208971E-03 
964	 2.18329914747511E-03 
965	 1.32573463496161E-03 
966	 7.46408667726992E-04 
967	 2.25628359205012E-03 
968	 3.10262704457684E-03 
969	 2.09818630309026E-03 
970	 1.72106243745418E-03 
971	 6.04977441030379E-03 
972	 7.29527459389016E-03 
973	 3.81132450753732E-03 
974	 7.10022171299161E-04 
975	 6.12434307258018E-03 
976	 3.28166827855973E-03 
977	 2.2154768788071E-03 
978	 4.14885511373286E-03 
979	 1.5233685332736E-03 
980	 1.92186064525507E-03 
981	 2.9152240774581E-03 
982	 4.57286079884705E-03 
983	 0.007989148502528 
984	 3.87055946217546E-04 
985	-2.93034926259452E-03 
986	 4.64669564068849E-04 
987	 1.57159365457082E-03 
988	 2.64932706183456E-03 
989	 3.03925988478925E-03 
990	 3.21099414378745E-03 
991	 4.01287661363453E-03 
992	 2.36009173721422E-03 
993	 1.6095639579234E-03 
994	 2.15765426775911E-03 
995	 1.98075734845936E-03 
996	 4.80550439443525E-04 
997	 1.96303017151624E-03 
998	 3.22823850297683E-03 
999	-8.62576619533983E-04 
1000	 1.52734658103992E-03 
1001	 3.64870598693859E-03 
1002	 3.98756945897913E-03 
1003	 4.32123064106872E-03 
1004	 4.17780703953176E-03 
1005	 4.09797961271476E-03 
1006	 4.23096604174775E-03 
1007	 4.42843877048934E-03 
1008	 3.81798426992988E-03 
1009	 3.34749220404687E-03 
1010	 3.92281568073098E-03 
1011	 4.19532968939691E-03 
1012	 4.47915508834435E-03 
1013	 5.32297124833399E-03 
1014	 5.51689694253319E-03 
1015	 5.29452795342071E-03 
1016	 5.12941642777852E-03 
1017	 4.48814303445584E-03 
1018	 4.4809158179932E-03 
1019	 4.72387047976933E-03 
1020	 4.6780676790703E-03 
1021	 4.93800994544893E-03 
1022	 5.07797254697942E-03 
1023	 4.83625725354846E-03 
1024	 4.89322596404498E-03 
1025	 4.27017008688971E-03 
1026	 3.71843531543966E-03 
1027	 3.58359364443993E-03 
1028	 3.16723365457081E-03 
1029	 3.38156388945028E-03 
1030	 4.66670289980949E-03 
1031	 4.94558067093503E-03 
1032	 4.49829191487406E-03 
1033	 4.81164413603791E-03 
1034	 5.75009554797399E-03 
1035	 5.74166914498546E-03 
1036	 5.60559714453903E-03 
1037	 5.52639394459125E-03 
1038	 4.43213800640583E-03 
1039	 3.93983072147455E-03 
1040	 4.65939420014453E-03 
1041	 4.58089173389463E-03 
1042	 4.72593053660501E-03 
1043	 4.95342572121135E-03 
1044	 5.12173536702373E-03 
1045	 5.28607052304486E-03 
1046	 5.35290393524962E-03 
1047	 5.70898396207983E-03 
1048	 5.29811794381549E-03 
1049	 3.77589098156333E-03 
1050	 3.52337096380774E-03 
1051	 3.55587808013304E-03 
1052	 3.48760253137147E-03 
1053	 4.3172139705299E-03 
1054	 4.7313162336073E-03 
1055	 4.48210798214007E-03 
1056	 4.57969696699195E-03 
1057	 4.81852142601052E-03 
1058	 5.59849082262049E-03 
1059	 5.42539582853971E-03 
1060	 4.84092399320086E-03 
1061	 4.49895771832371E-03 
1062	 3.37655191395085E-03 
1063	 3.31235403206118E-03 
1064	 4.22513319792556E-03 
1065	 4.43403622554959E-03 
1066	 4.82093545611224E-03 
1067	 4.94552161283716E-03 
1068	 4.40164001635801E-03 
1069	 4.32414395205224E-03 
1070	 4.60926810102998E-03 
1071	 4.68570175993018E-03 
1072	 5.10701043911688E-03 
1073	 4.8512899233494E-03 
1074	 4.89238617193187E-03 
1075	 4.90169693828043E-03 
1076	 4.67867319443215E-03 
1077	 4.2362717015158E-03 
1078	 4.28095137800303E-03 
1079	 4.41304424601162E-03 
1080	 4.23468386385244E-03 
1081	 4.28053003809475E-03 
1082	 4.22440690198099E-03 
1083	 3.5645853676769E-03 
1084	 3.53341559415346E-03 
1085	 4.23488191966922E-03 
1086	 4.33068000586382E-03 
1087	 4.11055593671657E-03 
1088	 4.15978351556457E-03 
1089	 3.69645743175669E-03 
1090	 4.20033183576629E-03 
1091	 4.42040866367015E-03 
1092	 4.97532115391109E-03 
1093	 5.27901912948791E-03 
1094	 5.70622385484571E-03 
1095	 5.58806675596741E-03 
1096	 5.3407071244415E-03 
1097	 4.62351347913954E-03 
1098	 2.4396352543596E-03 
1099	 1.85475018995881E-03 
1100	 1.72849474071026E-03 
1101	 2.15890666107904E-03 
1102	 4.91121173890506E-03 
1103	 5.49640875467745E-03 
1104	 5.06528667503932E-03 
1105	 4.52573113494914E-03 
1106	 3.04697415691863E-03 
1107	 2.77719018363958E-03 
1108	 2.50460264256621E-03 
1109	 2.43269741465971E-03 
1110	 2.69059494754818E-03 
1111	 2.4620735629318E-03 
1112	 2.69376246268095E-03 
1113	 4.4712681902433E-03 
1114	 5.30949064116392E-03 
1115	 5.83493388056454E-03 
1116	 6.51785679086751E-03 
1117	 7.3708695591554E-03 
1118	 7.99218100829776E-03 
1119	 8.08654804570503E-03 
1120	 7.1451827851105E-03 
1121	 6.47384915250808E-03 
1122	-1.68842470793825E-03 
1123	-2.79282196306931E-03 
1124	 3.16330503549691E-03 
1125	-1.6978280177243E-03 
1126	 2.05106987597317E-03 
1127	 8.90225371437626E-03 
1128	 3.18341570123803E-03 
1129	 1.54029644356643E-03 
1130	 4.58629961880145E-03 
1131	 8.4883563387093E-03 
1132	 9.20527636602262E-03 
1133	 8.55095174264986E-03 
1134	 1.15722828334604E-02 
1135	 1.24977885397984E-02 
1136	 9.31334106006009E-03 
1137	 9.09173940120164E-03 
1138	 0.012102569318095 
1139	 1.15474560390176E-02 
1140	 9.26084016130503E-03 
1141	 9.88811968433846E-03 
1142	 9.62359283470799E-03 
1143	 6.20983234734778E-03 
1144	 6.18340515784387E-03 
1145	 6.48179242022026E-03 
1146	 3.73242338551027E-03 
1147	 2.95288763377296E-03 
1148	 4.10361252895914E-03 
1149	 5.53409953233356E-03 
1150	 5.0991215006913E-03 
1151	 5.4025055587951E-03 
1152	 6.08544762541358E-03 
1153	 4.56390070913325E-03 
1154	 4.00730659982616E-03 
1155	 5.11461655445404E-03 
1156	 5.64529307517677E-03 
1157	 2.77821663627388E-03 
1158	 1.98948692765041E-03 
1159	 2.09229674178312E-03 
1160	 1.79907242144982E-03 
1161	 3.31852780419215E-03 
1162	 4.34238753072747E-03 
1163	 4.26521843502899E-03 
1164	 4.48668229052255E-03 
1165	 4.65844597497675E-03 
1166	 4.79106797751957E-03 
1167	 4.48389848264988E-03 
1168	 4.16083577523708E-03 
1169	 4.88068513452418E-03 
1170	 5.11268985452145E-03 
1171	 4.83224437639811E-03 
1172	 4.58267761674037E-03 
1173	 4.62199284165028E-03 
1174	 4.1704929190348E-03 
1175	 3.43708276288122E-03 
1176	 4.33423660315118E-03 
1177	 5.02844338782907E-03 
1178	 4.39679272081171E-03 
1179	 4.04342753316385E-03 
1180	 3.90656955010606E-03 
1181	 3.3060246510581E-03 
1182	 3.50640655511482E-03 
1183	 4.36557385778307E-03 
1184	 4.59820067260682E-03 
1185	 4.24222391730828E-03 
1186	 3.83355784352218E-03 
1187	 3.53615035404178E-03 
1188	 3.60572586591564E-03 
1189	 4.00541238164233E-03 
1190	 4.23003951964602E-03 
1191	 4.29280353658012E-03 
1192	 4.21120729601771E-03 
1193	 3.8485697708845E-03 
1194	 3.43142674057655E-03 
1195	 3.54893071381778E-03 
1196	 3.66434288770158E-03 
1197	 3.61181602608849E-03 
1198	 3.82271983365444E-03 
1199	 3.70990792470005E-03 
1200	 3.68992525111713E-03 
1201	 3.69013276762491E-03 
1202	 3.09479093921344E-03 
1203	 2.91743193927657E-03 
1204	 3.1285529096606E-03 
1205	 3.3238998446358E-03 
1206	 3.71024926312855E-03 
1207	 4.04453018739107E-03 
1208	 3.69938390647236E-03 
1209	 3.28475314542044E-03 
1210	 3.73987988583632E-03 
1211	 4.11877439482181E-03 
1212	 4.28730600595054E-03 
1213	 4.36102607372826E-03 
1214	 4.11223160863549E-03 
1215	 3.31932588554176E-03 
1216	 2.71011321953264E-03 
1217	 2.49675879684226E-03 
1218	 2.67980023483348E-03 
1219	 3.25027781174644E-03 
1220	 3.41053708596619E-03 
1221	 3.30925109838019E-03 
1222	 3.45059235036989E-03 
1223	 3.78017500326103E-03 
1224	 3.94708820368924E-03 
1225	 3.83458818699118E-03 
1226	 3.62369456479432E-03 
1227	 3.6320914710928E-03 
1228	 3.81648739758665E-03 
1229	 3.66587633435877E-03 
1230	 3.63966504247582E-03 
1231	 3.96330012739904E-03 
1232	 3.78813963120709E-03 
1233	 3.57001630366526E-03 
1234	 3.94519621948283E-03 
1235	 4.06409567288432E-03 
1236	 3.38283030903335E-03 
1237	 3.41731176927059E-03 
1238	 4.16135864295962E-03 
1239	 4.38776238852812E-03 
1240	 3.88031139644914E-03 
1241	 3.80581364007147E-03 
1242	 4.00821118794751E-03 
1243	 3.57776592295219E-03 
1244	 3.34066373836217E-03 
1245	 3.9557856213101E-03 
1246	 4.21786690198118E-03 
1247	 4.02449414665789E-03 
1248	 3.87200114407911E-03 
1249	 3.69033769934758E-03 
1250	 3.24909626577505E-03 
1251	 3.13349732768125E-03 
1252	 3.83188587028369E-03 
1253	 4.0052339641034E-03 
1254	 3.79966411897691E-03 
1255	 3.96777713734148E-03 
1256	 3.98499420896138E-03 
1257	 3.84753935864228E-03 
1258	 3.94451891367186E-03 
1259	 4.2506781198021E-03 
1260	 4.32081707457466E-03 
1261	 4.53868322844314E-03 
1262	 4.41351171380274E-03 
1263	 3.93800756400863E-03 
1264	 3.38974234501941E-03 
1265	 3.35524417928289E-03 
1266	 3.32916636578372E-03 
1267	 3.07784410721329E-03 
1268	 3.15481379065304E-03 
1269	 3.56554591348679E-03 
1270	 3.52060836506153E-03 
1271	 3.27052534069667E-03 
1272	 3.61977663698231E-03 
1273	 3.68243054654712E-03 
1274	 3.60448861907738E-03 
1275	 4.29726336474964E-03 
1276	 4.69076204371243E-03 
1277	 4.2366768257878E-03 
1278	 3.75885075287339E-03 
1279	 3.98843832713443E-03 
1280	 4.46178539683073E-03 
1281	 4.45446024221007E-03 
1282	 4.49557519522505E-03 
1283	 0.004471844341944 
1284	 3.95355389817771E-03 
1285	 3.49480634199203E-03 
1286	 3.04447126781116E-03 
1287	 3.0419395091067E-03 
1288	 3.04054259723688E-03 
1289	 3.09508976605888E-03 
1290	 3.67473193932783E-03 
1291	 4.11149093834247E-03 
1292	 3.83616317827193E-03 
1293	 3.55109926643134E-03 
1294	 3.25280034503439E-03 
1295	 3.30865962550629E-03 
1296	 3.88611892366919E-03 
1297	 4.36539575375009E-03 
1298	 4.19505794976088E-03 
1299	 3.73288654751991E-03 
1300	 3.82821479919799E-03 
1301	 3.51696321184256E-03 
1302	 3.13145486053664E-03 
1303	 3.66105528346111E-03 
1304	 4.09682985660516E-03 
1305	 4.02955957433234E-03 
1306	 4.13930669150929E-03 
1307	 5.27250386080262E-03 
1308	 5.47438427288697E-03 
1309	 4.61917417043706E-03 
1310	 4.47294308208648E-03 
1311	 4.43970755985943E-03 
1312	 4.38317506189829E-03 
1313	 4.70530312616996E-03 
1314	 4.51676161587926E-03 
1315	 3.65143321457579E-03 
1316	 3.57818977954361E-03 
1317	 3.94407307554688E-03 
1318	 3.72917460892534E-03 
1319	 3.64561458526285E-03 
1320	 4.20329363586912E-03 
1321	 5.30205625903483E-03 
1322	 4.41612115290464E-03 
1323	 4.63393914986878E-03 
1324	 5.50396662285338E-03 
1325	 4.40165939624776E-03 
1326	 2.4920031488544E-03 
1327	 1.38289852127445E-03 
1328	 1.40467505600035E-03 
1329	 1.43553066919777E-03 
1330	 1.83048454583858E-03 
1331	 3.1567568604412E-03 
1332	 3.59127017855979E-03 
1333	 4.08161649140046E-03 
1334	 4.44301924592797E-03 
1335	 4.2382862896976E-03 
1336	 2.44442493052543E-03 
1337	 2.95347799243181E-03 
1338	 5.52267814582216E-03 
1339	 4.94477855987308E-03 
1340	 2.9716671329545E-03 
1341	 2.70091533707753E-03 
1342	-4.55334796069494E-04 
1343	-6.69344504058678E-04 
1344	 6.38490082565475E-03 
1345	 9.38474887783573E-03 
1346	 9.85407859574521E-03 
1347	 1.05892995735844E-02 
1348	 9.17994069987728E-03 
1349	 8.16368692819567E-03 
1350	 4.17025202579304E-03 
1351	-1.99866571149753E-03 
1352	-1.25308694701989E-02 
1353	-2.14982921622023E-02 
1354	-2.13986578273685E-02 
1355	-4.10818643997341E-02 
1356	-3.96842449962986E-02 
1357	-4.19656720940924E-02 
1358	-0.14719392561163 
1359	-0.185796892793531 
1360	-0.052720418599836 
1361	 0.113299338914423 
1362	 0.330227648604624 
1363	 0.510197689029264 
1364	 0.726322726803389 
1365	 0.854805494593859 
1366	 1.2228258153974 
1367	 1.22019135335013 
1368	 0.749812392760913 
1369	 2.48025869605105E-02 
1370	-0.656260181698172 
1371	-2.1042465027994 
1372	-1.40400414640086 
1373	-17.14718636757 
1374	-1.65255081124709 
1375	-0.28833715913368 
1376	-0.208290405438364 
1377	-0.385878641637503 
1378	-0.461431057314485 
1379	-0.220068201069786 
1380	 1.59946159722002E-02 
1381	 0.221717418540415 
1382	 1.05651150138054 
1383	 1.04643977823927 
1384	 0.898732005906567 
1385	 0.704060707196661 
1386	 0.737163191350476 
1387	 0.725572963711189 
1388	 0.661738146504127 
1389	 0.284157804362147 
1390	 0.535683505840104 
1391	 0.659705839110757 
1392	 0.864585609555054 
1393	 0.618529474989474 
1394	 1.04718344424758 
1395	 1.11710950849983 
1396	 0.833050745971976 
1397	 0.958204269185529 
1398	 1.05791873134542 
1399	 3.87942732145219 
1400	 6.28853897979079 
1401	-0.479741165808428 
1402	-5.12392183334045E-02 
1403	-0.140812119323116 
1404	-1.04473137611888 
1405	-1.69554528241852 
1406	 12.595682215559 
1407	-32.3612545255496 
1408	-0.106933365047404 
1409	-0.103236351469701 
1410	-0.201561836218867 
1411	-0.185281000504078 
1412	-0.563908291800192 
1413	-0.168377369914916 
1414	 0.298974458813216 
1415	 0.352078238312024 
1416	 0.347343018949507 
1417	 0.255520327600581 
1418	 6.49256545627061E-02 
1419	 3.88915002288001E-02 
1420	 7.21805062552815E-02 
1421	 5.73592726473575E-02 
1422	 7.37653451258095E-02 
1423	 6.03395214844281E-02 
1424	 6.63204734260831E-03 
1425	-7.91743510178739E-03 
1426	-1.71219162721913E-02 
1427	-1.57771742398881E-02 
1428	 1.06581216844564E-02 
1429	 1.55599302635116E-02 
1430	 1.02330579716388E-02 
1431	 1.38519019167997E-02 
1432	 6.22285859897876E-03 
1433	 1.06793197880171E-02 
1434	 4.61152953554669E-02 
1435	 5.06075267251937E-02 
1436	 3.83578171697229E-02 
1437	 3.78648519162958E-02 
1438	 7.41623105250941E-03 
1439	-0.036855115374716 
1440	-3.03592756561034E-02 
1441	-2.19003098817544E-02 
1442	-1.56983417632455E-02 
1443	 3.2637658122329E-03 
1444	 4.61575009539533E-03 
1445	 4.4851088270981E-03 
1446	 7.46979210927733E-03 
1447	 5.35935747677241E-03 
1448	 9.10128571093278E-03 
1449	 5.99318542393624E-03 
1450	 4.09808749868976E-04 
1451	 3.63110169284815E-03 
1452	 6.55623019262563E-03 
1453	 8.81436304281238E-03 
1454	 7.89697151340254E-03 
1455	 5.9824199594577E-03 
1456	 4.76412010599615E-03 
1457	 1.77919314101797E-03 
1458	 3.48580305743794E-04 
1459	-9.77177170388405E-04 
1460	 2.85508473987839E-04 
1461	 3.30699988116319E-03 
1462	 4.43842811186746E-03 
1463	 8.18956332422337E-03 
1464	 9.47983662509529E-03 
1465	 6.75577622275053E-03 
1466	 5.56268663863269E-03 
1467	 4.29229803897164E-03 
1468	 4.82957323906628E-03 
1469	 7.52271207725246E-03 
1470	 7.36362259983252E-03 
1471	 7.48237210831923E-03 
1472	 6.80796700664988E-03 
1473	 2.92484997444651E-03 
1474	 5.04293764317506E-04 
1475	-2.0635700024086E-03 
1476	-1.61857977780804E-03 
1477	 1.83893288572733E-03 
1478	 2.07901175020339E-03 
1479	 1.72893543070802E-03 
1480	 2.7998301323563E-03 
1481	 4.31188363627717E-03 
1482	 2.21394645930303E-03 
1483	-3.00453982996953E-03 
1484	-1.70907230472996E-03 
1485	 1.0923586948851E-03 
1486	 1.56414522031677E-03 
1487	 6.51622013253764E-03 
1488	 6.99087139723832E-03 
1489	 9.29651460094109E-04 
1490	 2.97730659690357E-04 
1491	 3.21311305500689E-03 
1492	 3.07358979963755E-03 
1493	 2.23423475331744E-03 
1494	 2.43105691723303E-03 
1495	 1.79668154899524E-03 
1496	 1.30453324786788E-03 
1497	 1.96930005088254E-03 
1498	 2.56554439622184E-03 
1499	 2.27558471251482E-03 
1500	 2.4897025156554E-03 
1501	 3.95428504937002E-03 
1502	 4.3661331613509E-03 
1503	 4.00302696859982E-03 
1504	 4.00126559685026E-03 
1505	 4.27131359543053E-03 
1506	 3.67747565468338E-03 
1507	 2.5724021783786E-03 
1508	 2.09248851347561E-03 
1509	 2.09678370841861E-03 
1510	 2.60439868109057E-03 
1511	 3.58071356642818E-03 
1512	 3.9602676122758E-03 
1513	 2.90961164906566E-03 
1514	 1.92066698196907E-03 
1515	 2.12196815630889E-03 
1516	 2.09773572490029E-03 
1517	 2.52033108394473E-03 
1518	 3.28567361336297E-03 
1519	 3.1891783356615E-03 
1520	 3.23474120101152E-03 
1521	 3.28400684829209E-03 
1522	 2.92970453816494E-03 
1523	 2.8443633497187E-03 
1524	 3.11928860108888E-03 
1525	 3.31995281762705E-03 
1526	 3.3154765201328E-03 
1527	 3.14127062215591E-03 
1528	 3.09959546625229E-03 
1529	 3.18381924108474E-03 
1530	 3.40113754544425E-03 
1531	 3.69062139019527E-03 
1532	 3.26437601979082E-03 
1533	 2.70837346234509E-03 
1534	 2.6476177642483E-03 
1535	 2.29688441251775E-03 
1536	 2.19726709339343E-03 
1537	 3.28228745220132E-03 
1538	 3.97357495409983E-03 
1539	 3.47129305849154E-03 
1540	 3.30834318860213E-03 
1541	 3.03103031496767E-03 
1542	 2.53963095381804E-03 
1543	 2.93774235622742E-03 
1544	 2.92487542955103E-03 
1545	 2.7680762104357E-03 
1546	 3.20974552271384E-03 
1547	 3.24691219933646E-03 
1548	 3.43997631525723E-03 
1549	 3.86485405108678E-03 
1550	 3.58762876896863E-03 
1551	 3.39635860568674E-03 
1552	 3.9016361301675E-03 
1553	 3.7566672540881E-03 
1554	 3.09145471243816E-03 
1555	 3.33477897403555E-03 
1556	 3.72861886632311E-03 
1557	 3.0838837774778E-03 
1558	 2.48295101291763E-03 
1559	 2.33176668943447E-03 
1560	 1.9232377458651E-03 
1561	 2.1965003209445E-03 
1562	 3.23611012779089E-03 
1563	 3.88010360323728E-03 
1564	 3.8812575450535E-03 
1565	 3.7594232037322E-03 
1566	 3.75416538120339E-03 
1567	 3.72584389204838E-03 
1568	 3.74606200737591E-03 
1569	 4.00821583780053E-03 
1570	 4.51249759119182E-03 
1571	 4.08791614052403E-03 
1572	 3.30321740546998E-03 
1573	 3.19031652661254E-03 
1574	 2.86673581612278E-03 
1575	 2.88592629232597E-03 
1576	 3.11363289000587E-03 
1577	 2.8478245831217E-03 
1578	 2.7869318722409E-03 
1579	 3.25551365101189E-03 
1580	 3.59272553279961E-03 
1581	 3.09332598464243E-03 
1582	 2.40845372109965E-03 
1583	 2.60014240786953E-03 
1584	 2.86936419192309E-03 
1585	 2.49871002875137E-03 
1586	 2.78125437169061E-03 
1587	 3.11903495689475E-03 
1588	 2.87043027941636E-03 
1589	 3.37518938723756E-03 
1590	 3.58696987588729E-03 
1591	 2.91528677791533E-03 
1592	 2.15945805172252E-03 
1593	 1.64563840967056E-03 
1594	 2.22313498234259E-03 
1595	 3.22256076730101E-03 
1596	 3.34946502184454E-03 
1597	 3.29021341226878E-03 
1598	 3.36523376495959E-03 
1599	 2.99775578612346E-03 
1600	 3.10001444129657E-03 
1601	 3.58608961764792E-03 
1602	 3.60853333163838E-03 
1603	 3.12882154839746E-03 
1604	 2.90214070889485E-03 
1605	 3.80431858173754E-03 
1606	 4.37697049651786E-03 
1607	 3.77841515846026E-03 
1608	 3.38957856327516E-03 
1609	 2.97931067135949E-03 
1610	 2.31825685329721E-03 
1611	 2.44813433042617E-03 
1612	 2.97573233703413E-03 
1613	 3.80657357472987E-03 
1614	 4.0293645811155E-03 
1615	 3.60329370830769E-03 
1616	 3.98041230606961E-03 
1617	 3.93423067950738E-03 
1618	 3.66533824142341E-03 
1619	 4.65890873574178E-03 
1620	 4.83368635656953E-03 
1621	 3.31056274774031E-03 
1622	 2.24278350291522E-03 
1623	 2.25266979810284E-03 
1624	 2.67976592877857E-03 
1625	 2.63609950330066E-03 
1626	 2.32122781388227E-03 
1627	 2.59056377335632E-03 
1628	 2.75071416475342E-03 
1629	 3.02245364544074E-03 
1630	 3.91072081861627E-03 
1631	 3.93396273986678E-03 
1632	 3.57775409255377E-03 
1633	 3.89754020049387E-03 
1634	 4.27622994161884E-03 
1635	 4.69125762443963E-03 
1636	 4.57973671352492E-03 
1637	 3.63765539729191E-03 
1638	 3.22703130058219E-03 
1639	 3.38896128655589E-03 
1640	 2.85134103330272E-03 
1641	 2.79436261952176E-03 
1642	 3.57147320276148E-03 
1643	 3.61998115922677E-03 
1644	 3.77377010293626E-03 
1645	 4.21638441198141E-03 
1646	 4.24558823193417E-03 
1647	 4.35824189333939E-03 
1648	 4.15261103989438E-03 
1649	 4.05951943103945E-03 
1650	 4.49317826968937E-03 
1651	 3.85107066237397E-03 
1652	 2.89562328098343E-03 
1653	 4.09326645545538E-03 
1654	 3.69781930144964E-03 
1655	 2.51243422938281E-03 
1656	 2.55978267054662E-03 
1657	 2.50082941298145E-03 
1658	 2.37167489924525E-03 
1659	 3.17424601305266E-03 
1660	 3.53251873922742E-03 
1661	 2.89380113652661E-03 
1662	 2.79721651570724E-03 
1663	 3.58016993912188E-03 
1664	 3.97629093133358E-03 
1665	 3.89474768606406E-03 
1666	 3.87561346017663E-03 
1667	 4.20844128949585E-03 
1668	 4.09913620322918E-03 
1669	 3.73293193028715E-03 
1670	 3.54637253792711E-03 
1671	 3.08187937439094E-03 
1672	 2.79012927355289E-03 
1673	 3.0259889980627E-03 
1674	 3.5223881479711E-03 
1675	 3.41116642121817E-03 
1676	 2.70185299735232E-03 
1677	 2.51348617454704E-03 
1678	 2.71767938020597E-03 
1679	 3.19197653733842E-03 
1680	 3.68630500259493E-03 
1681	 3.51331205967535E-03 
1682	 2.80491695600069E-03 
1683	 3.30386094992877E-03 
1684	 4.00024374780029E-03 
1685	 3.03997502982347E-03 
1686	 2.8478461918082E-03 
1687	 2.36171312136313E-03 
1688	 1.03771858190521E-03 
1689	 1.50735670724092E-03 
1690	 2.34927013842453E-03 
1691	 2.36740926163897E-03 
1692	 2.16907332311131E-03 
1693	 1.76788395849845E-03 
1694	 1.63805008915806E-03 
1695	 1.75435635297289E-03 
1696	 2.12583797258899E-03 
1697	 2.70076612108717E-03 
1698	 2.80325356137889E-03 
1699	 3.33294329138519E-03 
1700	 3.69586658724244E-03 
1701	 4.00562494525827E-03 
1702	 4.55258142830176E-03 
1703	 3.67181182571509E-03 
1704	 3.2002131003191E-03 
1705	 3.71534454819566E-03 
1706	 4.42883585183706E-03 
1707	 3.66569999612386E-03 
1708	 1.83320223376931E-03 
1709	 2.22431283951484E-03 
1710	 2.94485604129242E-03 
1711	 3.60195797556567E-03 
1712	 4.52106170455118E-03 
1713	 2.58456722986579E-03 
1714	 2.2068318932622E-03 
1715	 3.10147690661801E-03 
1716	 3.54082757737608E-03 
1717	 4.06150077607657E-03 
1718	 4.3376696951628E-03 
1719	 3.17838774847134E-03 
1720	 3.35648460311762E-03 
1721	 4.02807734055711E-03 
1722	 3.52909198988476E-03 
1723	 3.98338243307599E-03 
1724	 3.96915114992757E-03 
1725	 2.69375980540006E-03 
1726	 2.80550968399764E-03 
1727	 3.21754666999553E-03 
1728	 2.93020632694977E-03 
1729	 2.91446454917795E-03 
1730	 2.50918012609119E-03 
1731	 1.81815063277935E-03 
1732	 2.60066234059224E-03 
1733	 3.98399897513901E-03 
1734	 3.51038543035732E-03 
1735	 3.20620918832891E-03 
1736	 3.48862084763346E-03 
1737	 2.29525027531082E-03 
1738	 2.74377264470281E-03 
1739	 4.3048220367298E-03 
1740	 3.51186808392676E-03 
1741	 2.92489497021695E-03 
1742	 3.86642864999236E-03 
1743	 4.11483279764328E-03 
1744	 4.14757011639983E-03 
1745	 5.28626912666041E-03 
1746	 4.7055871591909E-03 
1747	 4.03960928951246E-03 
1748	 3.07778592599239E-03 
1749	 3.2533790409638E-03 
1750	 3.94135994250404E-03 
1751	 3.64308502878409E-03 
1752	 3.62654214290888E-03 
1753	 3.78169437634408E-03 
1754	 3.52479464396653E-03 
1755	 3.16911308479414E-03 
1756	 2.91483937155623E-03 
1757	 2.58302512922969E-03 
1758	 0.00149198157023 
1759	 6.88660338929584E-04 
1760	 3.06662597405475E-03 
1761	 4.38500025400027E-03 
1762	 4.5458701621898E-03 
1763	 6.02999841784622E-03 
1764	 4.84172220038925E-03 
1765	 2.97395016700728E-03 
1766	 4.52781304403848E-03 
1767	 6.4355587935162E-03 
1768	 7.69306592433956E-03 
1769	 6.40981671038758E-03 
1770	 2.24288431712575E-03 
1771	-6.15024342126646E-04 
1772	-1.00418254138936E-03 
1773	 4.18913659487581E-04 
1774	 2.62187881708713E-03 
1775	 2.56976023961827E-03 
1776	 2.01164451967425E-03 
1777	 1.02114662941902E-03 
1778	 6.00974987352207E-05 
1779	-2.83898177315191E-03 
1780	-3.25238451945163E-03 
1781	-2.11859681744004E-03 
1782	-9.45445925214061E-04 
1783	 3.03384276132664E-03 
1784	 5.84559158971511E-03 
1785	 9.40915805475826E-03 
1786	 9.35129661733796E-03 
1787	 6.51304678047277E-03 
1788	 2.28948236660549E-03 
1789	-1.02333148472157E-02 
1790	-1.17057726493043E-02 
1791	-1.86012221466807E-04 
1792	 1.73575192674864E-02 
1793	 2.76676875398386E-02 
1794	 2.47667746531062E-02 
1795	 1.12187012543807E-02 
1796	-3.46190451504486E-03 
1797	-8.02323612249351E-03 
1798	 2.03938687541036E-03 
1799	 9.92048426419301E-03 
1800	 1.05967914898455E-04 
1801	-2.26121545215806E-03 
1802	-1.51837894622619E-02 
1803	-1.33975344645437E-02 
1804	 0.036562482713927 
1805	 4.07377233254392E-02 
1806	-1.08546371135684E-02 
1807	-1.24162837605783E-02 
1808	-3.18775164327573E-02 
1809	-5.44961380248863E-02 
1810	 0.053895801951506 
1811	 0.057481895736889 
1812	-9.46457315756491E-02 
1813	-8.10878212769977E-02 
1814	 0.157876013543981 
1815	 0.179707482553996 
1816	 0.160574473317604 
1817	 0.195031343839378 
1818	-0.61624755668082 
1819	-1.79309027025673 
1820	 9.06206478799078E-02 
1821	-0.336223990056311 
1822	 0.138197090418507 
1823	 0.186271047919149 
1824	 9.24676491490843E-02 
1825	 4.25556395310798 
1826	 2.50791099668236 
1827	 8.05296341077326E-02 
1828	-0.231520258772038 
1829	-2.1598027633627 
1830	-8.05457073811894 
1831	 1.00563139003154 
1832	 0.827984104755539 
1833	 0.425277742947716 
1834	 0.23310329310513 
1835	-0.437836657555303 
1836	-0.91859697425386 
1837	-4.87670276968516 
1838	-10.0618112680089 
1839	-0.375326746121899 
1840	 0.446781318417362 
1841	 0.251341664188875 
1842	 0.130380715198554 
1843	 0.231255025387877 
1844	 0.387984668950178 
1845	 0.305681515871042 
1846	 0.379851712067481 
1847	 0.486335504403395 
1848	 0.483955741903076 
1849	 0.191973129041956 
1850	 0.114082947945358 
1851	 0.359490562681417 
1852	 9.82038187257705E-02 
1853	 5.60798314330806E-02 
1854	 1.161220983199 
1855	 0.755498117392984 
1856	 0.859611336027149 
1857	 0.949448172798134 
1858	 0.768526984572724 
1859	 0.438714364530845 
1860	 0.960892886629025 
1861	 0.757015371385278 
1862	 0.420903527672578 
1863	 0.352915262179851 
1864	 0.275563937395414 
1865	 0.186152237820753 
1866	-5.29779755142255E-02 
1867	-3.76468194764813E-02 
1868	 0.198619184996976 
1869	 0.353650912984243 
1870	 0.707454092305701 
1871	 1.26713008795954 
1872	 1.45440342834371 
1873	 1.02034727386041 
1874	 0.805703369187996 
1875	 1.15820957408911 
1876	 1.16318165409894 
1877	 0.689997566866519 
1878	 0.804426240683151 
1879	 2.36837415067439 
1880	 9.1148580638263 
1881	-7.22170802473362 
1882	-3.46998261598305 
1883	-3.15661016644864 
1884	-1.51233689032411 
1885	-1.40821801155295 
1886	-1.02654174766814 
1887	-0.542942543513176 
1888	-0.447251160288788 
1889	-0.328043427195808 
1890	-0.62399219511858 
1891	-0.796075253617656 
1892	-1.08053312696782 
1893	-0.139205648107461 
1894	-0.557468554522293 
1895	-0.181025535781928 
1896	 0.187232601053628 
1897	 0.22573203440666 
1898	 0.218821429263036 
1899	 6.49178738129284E-02 
1900	-2.94576495305535E-02 
1901	-0.244932394563855 
1902	-0.352188130295458 
1903	-0.4406524505761 
1904	-0.365631749416381 
1905	-0.329671737883477 
1906	 0.1201814162918 
1907	 1.40712407593193 
1908	-0.863203662268575 
1909	 26.1760198907669 
1910	 31.0887021471998 
1911	-5.50125342356857 
1912	 0.763330897804387 
1913	 1.0572118215811 
1914	 4.96569130099629 
1915	 82.5779807716024 
1916	-9.13562930037871 
1917	-2.59079594183898 
1918	-1.53872787152145 
1919	-0.39179165821208 
1920	 7.10237640411955E-03 
1921	-2.18311104966794 
1922	-3.18090401449973 
1923	-0.727433114179258 
1924	 1.87756526680615 
1925	 2.36269517286039 
1926	 2.86465699085183 
1927	-1.07899707123745 
1928	-701.414254834996 
1929	 1.00818281778253 
1930	 0.870300011852175 
1931	 0.57332048000851 
1932	 0.819265235620498 
1933	 2.11742779091016 
1934	 2.01195406391687 
1935	 0.721601130813837 
1936	 0.339919659020393 
1937	 0.21435567037906 
1938	 0.16395908336178 
1939	 0.130734108063653 
1940	 0.162635983884657 
1941	 0.194923672204411 
1942	 0.219036602448478 
1943	 0.249093249132799 
1944	 0.214194451343569 
1945	 0.152772344672711 
1946	 3.89934748809737E-02 
1947	-5.85580003191723E-02 
1948	-0.141112184012399 
1949	-0.177672911118261 
1950	-0.154375266546557 
1951	-0.169383808737007 
1952	-0.138222127102103 
1953	-6.54693194396834E-02 
1954	 6.05659322354799E-02 
1955	 0.149486428612649 
1956	 0.224617040446016 
1957	 0.279523842423106 
1958	 0.197800928796267 
1959	 0.125102694087256 
1960	 9.83510869250124E-02 
1961	 6.08658577176177E-02 
1962	 0.035328634426111 
1963	 8.51058769275653E-03 
1964	-7.24902537608453E-03 
1965	-1.68090763876731E-02 
1966	-1.86034625025992E-02 
1967	-5.53157655880659E-03 
1968	 8.57947561901134E-03 
1969	 2.92690287840541E-03 
1970	-3.79489342059305E-04 
1971	 2.40094556934092E-03 
1972	 7.19901704181572E-03 
1973	 0.016560661775967 
1974	 2.39897131079811E-02 
1975	 2.21673866394869E-02 
1976	 1.17175580458942E-02 
1977	 2.43078152839257E-03 
1978	 9.07410886124468E-05 
1979	-1.17154490187927E-03 
1980	-4.86270249238198E-04 
1981	 3.40520904729559E-03 
1982	 5.3595632737371E-03 
1983	 2.30948458180196E-03 
1984	-7.34949066538391E-05 
1985	-1.12688005577424E-03 
1986	 1.23567147361785E-04 
1987	 5.78770550780246E-03 
1988	 8.45623807940296E-03 
1989	 1.08709200363677E-02 
1990	 1.55802719263573E-02 
1991	 9.99197817712675E-03 
1992	 6.75474880578745E-03 
1993	 1.05096462186853E-02 
1994	 7.60193871685594E-03 
1995	-6.30889258924441E-04 
1996	-6.99175107535218E-04 
1997	-3.07659085712421E-03 
1998	-1.32710144931655E-02 
1999	-6.76525168550165E-03 
2000	 1.38495857731142E-03 
2001	 8.47754138387267E-03 
2002	 1.50159187113373E-02 
2003	 1.36036107636042E-02 
2004	 2.34699127825136E-02 
2005	 0.02201663866833 
2006	 9.41532238890858E-03 
2007	 1.14796568237881E-02 
2008	-6.35720347987715E-03 
2009	-1.28824944001813E-02 
2010	-8.84725721006563E-03 
2011	-3.82115046860085E-03 
2012	 1.71390122589779E-03 
2013	 1.18773692609617E-02 
2014	 1.77410695184107E-02 
2015	 7.71975437402997E-03 
2016	 1.11269467712617E-02 
2017	 1.55790811689082E-02 
2018	 5.06084705628778E-03 
2019	 7.39710403285021E-03 
2020	 5.10520694630676E-03 
2021	-6.14679066473897E-03 
2022	-2.51375618310288E-03 
2023	 1.36745421031211E-03 
2024	 1.13995910981317E-03 
2025	-3.07224521199275E-03 
2026	-1.42711315837884E-03 
2027	 1.47892750489945E-03 
2028	 3.50713428655083E-03 
2029	 4.78101380239286E-03 
2030	 7.36721808060589E-03 
2031	 6.00656326277968E-03 
2032	 1.81121372005305E-03 
2033	 0.001503943178329 
2034	 4.86112917906394E-03 
2035	 8.24851364054329E-03 
2036	 9.70141667395058E-03 
2037	 8.04101235145723E-03 
2038	 5.03623942757112E-03 
2039	 3.29118723077267E-03 
2040	-7.41538563838516E-04 
2041	-1.67831579786281E-03 
2042	 9.37088433474786E-04 
2043	 1.13739443787598E-03 
2044	 8.0512658550302E-04 
2045	 1.8091227419387E-03 
2046	-1.00133617554736E-03 
2047	-4.52190813885437E-03 
2048	-5.04997121694057E-03 
2049	-7.03320569679739E-03 
2050	-6.51426585097955E-03 
2051	-6.85187288208366E-04 
2052	 3.13452645049817E-03 
2053	 4.32476395842631E-03 
2054	 2.19516149786462E-03 
2055	-8.28655932789025E-05 
2056	 1.8114561635056E-03 
2057	 7.03904863359508E-03 
2058	 7.41554359174366E-03 
2059	 8.22445700121719E-03 
2060	 9.99760806198283E-03 
2061	 8.99992717485855E-03 
2062	 6.0501865846041E-03 
2063	 8.9641327387912E-03 
2064	 1.11337713999949E-02 
2065	 8.31145052717108E-03 
2066	 5.79880746159576E-03 
2067	 4.90674939513806E-03 
2068	 7.70855131162141E-03 
2069	 5.36818368008956E-03 
2070	 7.93792880724248E-04 
2071	-1.56281198260939E-04 
2072	-2.37775956783758E-03 
2073	-2.83610367236899E-03 
2074	-7.03436511879116E-04 
2075	 1.54315079296631E-03 
2076	 4.91414054966587E-03 
2077	 5.33876759791134E-03 
2078	 5.47628906019554E-03 
2079	 6.4705524526222E-03 
2080	 5.70926053508035E-03 
2081	 5.57856384651379E-03 
2082	 8.2446131397126E-03 
2083	 1.12073438069001E-02 
2084	 0.010030365235707 
2085	 7.16311929933545E-03 
2086	 5.23500751960252E-03 
2087	-7.7477993313825E-05 
2088	-2.46101621086627E-03 
2089	-3.19262035619058E-03 
2090	-6.61686861442064E-03 
2091	-7.52848080616698E-03 
2092	-7.08645019055012E-03 
2093	-5.38276024178794E-03 
2094	-4.51726075888928E-03 
2095	-1.96478639010236E-03 
2096	-1.63631245238726E-04 
2097	 1.95943293145155E-04 
2098	 1.29177931686899E-03 
2099	 3.51986857148849E-03 
2100	 5.33460161544651E-03 
2101	 5.3924826909028E-03 
2102	 7.38349636873197E-03 
2103	 8.59548547857634E-03 
2104	 8.52778494897955E-03 
2105	 7.3160553317615E-03 
2106	 6.15846448204463E-03 
2107	 7.08157355590356E-03 
2108	 7.8321789004923E-03 
2109	 1.05429653256227E-02 
2110	 1.19519353942322E-02 
2111	 1.24229056143425E-02 
2112	 1.08735216461431E-02 
2113	 8.93260084579298E-03 
2114	 5.75089685012566E-03 
2115	 4.15143832278216E-03 
2116	 2.22884997723746E-03 
2117	 4.96211873672752E-04 
2118	-5.87294765159573E-04 
2119	-1.94935336769639E-03 
2120	-4.61819598352762E-03 
2121	-5.18832329215638E-03 
2122	-2.73139875336906E-03 
2123	-3.55282924536904E-03 
2124	-4.69463926142401E-03 
2125	-2.44854970002388E-03 
2126	-1.94435191094591E-03 
2127	-2.12742880647802E-03 
2128	-6.55696864914514E-04 
2129	 7.98592219076468E-05 
2130	-5.33049022098896E-04 
2131	 2.31177892810708E-04 
2132	 1.95702507240375E-03 
2133	 1.26684832313304E-03 
2134	 1.93474795232947E-04 
2135	-1.77712005012268E-03 
2136	-2.93073104721567E-03 
2137	-5.49649793840525E-03 
2138	-6.40094572804183E-03 
2139	-6.08091834310713E-03 
2140	-5.78788628185828E-03 
2141	-4.35263038795878E-03 
2142	-2.96904354198426E-03 
2143	-1.82900055003553E-03 
2144	 3.63467844287292E-04 
2145	 3.52442716368581E-03 
2146	 3.41781181303144E-03 
2147	 5.52513748148128E-03 
2148	 7.40676151287284E-03 
2149	 6.44174635068953E-03 
2150	 5.60584942433711E-03 
2151	 4.69016804467875E-03 
2152	 1.27062293579658E-03 
2153	-2.95087374943517E-03 
2154	-4.13384864706423E-03 
2155	-3.77757988431393E-03 
2156	-1.96374537788731E-03 
2157	-4.19728588907945E-04 
2158	 4.53898654409428E-03 
2159	 5.31020974629277E-03 
2160	 3.04241475584239E-03 
2161	 2.93654330180621E-03 
2162	 1.96314912580498E-03 
2163	 2.26706855017266E-03 
2164	 4.10091193769692E-03 
2165	 5.26573213253556E-03 
2166	 8.22278745663478E-03 
2167	 8.31732728983478E-03 
2168	 4.69363260982025E-03 
2169	 4.21719567001995E-03 
2170	 3.96806330964791E-03 
2171	 4.22872502248846E-03 
2172	 2.88647731454606E-03 
2173	 3.69995537939726E-03 
2174	 4.76770091617127E-03 
2175	 5.75853812981461E-03 
2176	 8.15336250784985E-03 
2177	 8.66431535152803E-03 
2178	 5.94607861676145E-03 
2179	 1.15519354174223E-03 
2180	-3.51312118573535E-03 
2181	-3.05949633458538E-03 
2182	 1.43505205325196E-03 
2183	 1.2981641372097E-03 
2184	-3.13408935148863E-03 
2185	-3.55489259273284E-03 
2186	-3.20847985947468E-03 
2187	-6.7671234507131E-03 
2188	-5.11263835379069E-03 
2189	 5.44002133588975E-03 
2190	 8.42323179392116E-03 
2191	 8.40996754487366E-03 
2192	 8.38725914869112E-03 
2193	 4.99433702729283E-03 
2194	 2.81056530468483E-03 
2195	 3.88890143632346E-04 
2196	 4.32880405603019E-04 
2197	 3.10187707516039E-03 
2198	 4.41681546842723E-03 
2199	 7.41860911307065E-03 
2200	 6.07354130561077E-03 
2201	 6.30281738236436E-03 
2202	 6.22365064406684E-03 
2203	 5.19151790971056E-03 
2204	 5.18979478894563E-03 
2205	 4.07030317088938E-03 
2206	 1.54528115483662E-03 
2207	 3.18327670844092E-04 
2208	 1.54725502374644E-03 
2209	 2.15730589606607E-03 
2210	 1.65470208901263E-03 
2211	 3.39055428082063E-03 
2212	 4.75327886558014E-03 
2213	 2.93236793175371E-03 
2214	 2.55401355889579E-03 
2215	 0.005670724775186 
2216	 7.48896983013935E-03 
2217	 6.74512792262485E-03 
2218	 5.88396342901305E-03 
2219	 4.71040314183064E-03 
2220	-5.06224954147234E-04 
2221	-1.02187367919048E-03 
2222	 2.55150056385968E-03 
2223	 3.97397816230107E-03 
2224	 4.69777028623217E-03 
2225	 4.73778266419064E-03 
2226	 4.37647974157776E-03 
2227	 4.80179539026148E-03 
2228	 6.9946357311644E-03 
2229	 6.24321407531171E-03 
2230	 3.16236015471061E-03 
2231	 2.46826486082263E-03 
2232	-8.87482662362983E-04 
2233	-2.10291282644033E-03 
2234	-4.55901615452744E-04 
2235	 2.44953818355006E-03 
2236	 1.64725165536106E-03 
2237	 5.07108919062768E-03 
2238	 5.02930955936941E-03 
2239	 1.11001709974057E-03 
2240	 9.25435234458484E-06 
2241	 0.001029740613101 
2242	 4.49659352224308E-03 
2243	 6.24453994968473E-03 
2244	 4.48718305307024E-03 
2245	 3.91462026791457E-03 
2246	 6.21236062886822E-03 
2247	 5.76288678325143E-03 
2248	 7.49390486275743E-03 
2249	 8.83672546179063E-03 
2250	 6.14410744162228E-04 
2251	-2.04851303047017E-03 
2252	-0.001855642609728 
2253	-4.60044454545172E-03 
2254	-1.02083586097645E-03 
2255	 2.41915468416908E-03 
2256	 2.51767700041671E-03 
2257	 3.62287174415987E-04 
2258	-6.50886928117041E-04 
2259	-4.67675098339171E-04 
2260	-1.09050166982102E-03 
2261	-1.89575578520937E-03 
2262	 1.36073573544215E-03 
2263	 6.89962351158815E-03 
2264	 8.43292375344806E-03 
2265	 1.26998598896935E-02 
2266	 1.30061172431639E-02 
2267	 6.19244471965204E-03 
2268	 5.23334670870128E-03 
2269	 6.10291018159401E-03 
2270	 5.27590533874181E-03 
2271	 8.40777834614941E-03 
2272	 8.18195201784255E-03 
2273	 3.7265844519837E-03 
2274	 5.21469749956141E-03 
2275	 5.23809886519298E-03 
2276	 5.22477677562391E-03 
2277	 1.16556440233423E-02 
2278	 1.18236490216027E-02 
2279	 1.12312491276551E-02 
2280	 9.03842811100197E-03 
2281	 2.93645420551712E-03 
2282	-5.27928863838857E-03 
2283	-8.59955795813015E-03 
2284	-0.012385501701817 
2285	-1.66032690956595E-02 
2286	-1.88293959657741E-02 
2287	-0.017545688337521 
2288	-1.46821367971851E-02 
2289	-8.43921705424618E-03 
2290	 1.85073837594421E-03 
2291	 4.26726768515149E-03 
2292	 1.25015934280881E-04 
2293	-3.94272988810917E-03 
2294	-5.0503519736399E-03 
2295	-2.0360324631614E-03 
2296	-6.74743503486262E-03 
2297	-3.63238903986067E-03 
2298	 3.52037995700446E-03 
2299	-3.71404712898503E-03 
2300	-3.18031196130453E-03 
2301	-3.07588133442224E-03 
2302	-1.17429988724996E-02 
2303	-1.21614151677483E-02 
2304	-4.13972376451579E-03 
2305	-2.49491664653612E-03 
2306	-6.74732598925709E-03 
2307	-7.33869584762245E-03 
2308	-6.11306957389676E-03 
2309	 2.88173882795084E-04 
2310	 1.36316859723844E-03 
2311	-5.71797540334849E-03 
2312	-9.31676147409373E-03 
2313	-7.97658729160001E-03 
2314	-5.63583065848011E-03 
2315	-3.78983443574038E-03 
2316	 3.67914283488164E-03 
2317	 6.01217143213714E-03 
2318	 4.16594374833452E-03 
2319	 2.68611189895609E-02 
2320	 3.51593486981402E-02 
2321	 2.17980450734335E-02 
2322	 2.35002594494937E-02 
2323	 1.72537172084742E-02 
2324	 1.61971836264729E-02 
2325	 2.22707796466804E-02 
2326	 2.46721635042138E-02 
2327	 3.07925564915013E-02 
2328	 2.34028415381206E-02 
2329	 2.77820176404152E-03 
2330	-4.61157629462018E-03 
2331	-9.11441265641893E-03 
2332	-1.41274420983546E-02 
2333	 3.57614287175453E-03 
2334	 1.47602255154483E-02 
2335	 1.02673213184311E-02 
2336	 1.31652653920381E-02 
2337	 0.026662189569126 
2338	 3.03921679644072E-02 
2339	 4.22714158395051E-02 
2340	 6.48869601069114E-02 
2341	 5.71953977705927E-02 
2342	 5.46751399933654E-02 
2343	 4.02334429354192E-02 
2344	 1.53982011935467E-02 
2345	 1.27476814658144E-02 
2346	-4.54852360172105E-03 
2347	-2.46159866269153E-02 
2348	-2.25859363884746E-02 
2349	-1.17747168090653E-02 
2350	 1.40910861852423E-02 
2351	 0.063175607195317 
2352	 0.072627169790748 
2353	 7.10881340485078E-02 
2354	 7.09396340088148E-02 
2355	 3.82442691844191E-02 
2356	 2.77454404192376E-02 
2357	 3.01055148715675E-02 
2358	 3.31242191851445E-02 
2359	 3.22721658855742E-02 
2360	 9.56395104759651E-03 
2361	 1.82846206265328E-03 
2362	-1.73532605849066E-02 
2363	-4.29364418067467E-02 
2364	-2.91492090779584E-02 
2365	-5.95233554947185E-03 
2366	 2.33794567654125E-02 
2367	 3.97031995529587E-02 
2368	 2.92486288643316E-02 
2369	-1.72098238295987E-02 
2370	-6.44675403680817E-02 
2371	-5.09291308568602E-02 
2372	-2.60482775693869E-02 
2373	-9.77338871690127E-03 
2374	 5.80356885521448E-03 
2375	 3.05810332075929E-02 
2376	 4.31664228521102E-02 
2377	 3.58443137033952E-02 
2378	 7.58074965137081E-02 
2379	 9.08927624455256E-02 
2380	 6.83914056066233E-02 
2381	 0.108718383544596 
2382	 0.108456488087559 
2383	-3.15856267254345E-03 
2384	-5.36286953421517E-02 
2385	-3.50338057116827E-02 
2386	-7.91766483310686E-02 
2387	-6.81993589002557E-02 
2388	-2.94585960908546E-02 
2389	-3.08293302176495E-02 
2390	-1.64094383455043E-02 
2391	-2.88641678958035E-02 
2392	-5.25014032374447E-02 
2393	-7.14625587467384E-02 
2394	-0.10091764342911 
2395	-0.126670633163563 
2396	-0.156726162126991 
2397	-0.18845699166138 
2398	-0.210634490895125 
2399	-0.175799953841 
2400	-0.132376188014193 
2401	-0.114181481539499 
2402	-3.98250423126182E-02 
2403	 1.43158934272091E-02 
2404	 7.00896356587558E-02 
2405	 0.144760309507492 
2406	 0.085810710187776 
2407	 4.01962441848573E-02 
2408	 8.51646128370916E-02 
2409	 7.50059739817187E-02 
2410	 0.140667073394639 
2411	 0.255836531921209 
2412	 0.268752400480083 
2413	 0.273155921714989 
2414	 5.89386654489001E-02 
2415	-0.390495532255927 
2416	-0.407873341210919 
2417	-0.28708882534766 
2418	-0.126711128686821 
2419	 0.231362184828323 
2420	 0.239177506608535 
2421	 9.68940554008066E-02 
2422	-7.88828913834524E-02 
2423	-0.107583011510379 
2424	-6.70458028687465E-02 
2425	-9.16051266568199E-02 
2426	 6.80532729509269E-02 
2427	 5.04137585923979E-02 
2428	-0.102673352947216 
2429	-6.36574426803675E-02 
2430	-0.240908155779043 
2431	-0.422324942021385 
2432	-0.34238415687188 
2433	-0.475810107646277 
2434	-0.478204225016152 
2435	-0.105186840925684 
2436	-4.93518554542031E-02 
2437	-0.288610837418422 
2438	-9.97193096216413E-02 
2439	-0.127801755440813 
2440	-0.354151221607326 
2441	-0.138257982002331 
2442	-0.21656544306918 
2443	-0.549382167468756 
2444	-0.350422250927663 
2445	-6.51953417233077E-02 
2446	 0.276590910425901 
2447	 0.526343924800501 
2448	 0.38346677743657 
2449	 0.116392433186895 
2450	 5.49349824038988E-02 
2451	-4.22637203804231E-02 
2452	-0.266985526671049 
2453	-0.392195270988546 
2454	-1.07842635998866 
2455	-1.13305808939095 
2456	-0.448073748194941 
2457	-0.174125456352127 
2458	-0.152432940852555 
2459	 0.2291264026821 
2460	 1.12968453740453 
2461	 0.56538263358811 
2462	-2.20052464841366E-02 
2463	-0.307261340324163 
2464	-1.26803834538451 
2465	-1.38807685374376 
2466	-0.879954175164743 
2467	-0.388975414143756 
2468	-0.119435746541741 
2469	-0.514881016847987 
2470	-1.03011544787583 
2471	-2.07661215130651 
2472	-9.07273301114882 
2473	-0.763397294029354 
2474	 0.783588954034589 
2475	 0.614987189430916 
2476	 0.681226414403455 
2477	 3.27879696853599 
2478	-0.935062681666545 
2479	-0.323676003063655 
2480	-0.365088859862901 
2481	-0.416119387306584 
2482	 7.45973352885094E-03 
2483	-1.33769957810761 
2484	-8.18160319961905E-02 
2485	 0.23512124072385 
2486	 0.153540715846746 
2487	 0.459883279361551 
2488	-2.52065150187491 
2489	 8.75673320665753 
2490	 6.4505702912477 
2491	-9.13239184026869 
2492	-3.67800016393777 
2493	 0.1357651033852 
2494	 0.356782117560604 
2495	 1.28584078147745 
2496	-1.24461802612556 
2497	-1.20527075009733 
2498	-0.505272925619762 
2499	 0.606732776785211 
2500	 0.102008867113437 
