Wavelength	rt0714far00000.asd
350	 2.53247848436121E-02 
351	 2.40125378661247E-02 
352	 2.41415141193522E-02 
353	 2.46428278460351E-02 
354	 2.47610769102446E-02 
355	 2.57709011997131E-02 
356	 2.54684789606012E-02 
357	 2.51106416999856E-02 
358	 0.02608816896379 
359	 0.025499708610883 
360	 2.50266360962929E-02 
361	 2.53801009035749E-02 
362	 2.62834302715314E-02 
363	 2.57453973598965E-02 
364	 2.55915228124725E-02 
365	 2.63558645442324E-02 
366	 2.59273517544762E-02 
367	 2.58201508385599E-02 
368	 2.61912884946169E-02 
369	 0.026726699608229 
370	 2.68241218045832E-02 
371	 2.67517187915606E-02 
372	 2.65581849732416E-02 
373	 2.62673626144809E-02 
374	 2.67652573759896E-02 
375	 2.75235282687649E-02 
376	 2.79564610386727E-02 
377	 2.76653150929184E-02 
378	 2.75220452108869E-02 
379	 2.78733595720413E-02 
380	 2.86232624366703E-02 
381	 2.88621625471812E-02 
382	 2.90240971460069E-02 
383	 2.91855441548742E-02 
384	 2.93058579298657E-02 
385	 2.98094885096786E-02 
386	 0.029764156430437 
387	 2.93998653686144E-02 
388	 3.02557374671601E-02 
389	 3.14128123136175E-02 
390	 3.16507506736715E-02 
391	 3.09243680979585E-02 
392	 3.21073784733143E-02 
393	 3.24361978511467E-02 
394	 3.21916984602262E-02 
395	 3.25527422042527E-02 
396	 3.28956448534598E-02 
397	 3.29600153030279E-02 
398	 3.28384614017565E-02 
399	 3.28856399241811E-02 
400	 3.31269640734902E-02 
401	 3.33449268802539E-02 
402	 3.34918272343222E-02 
403	 3.40225223522827E-02 
404	 3.42614904547906E-02 
405	 3.42065905915032E-02 
406	 3.41753278358923E-02 
407	 3.47113387274493E-02 
408	 3.49238214208336E-02 
409	 3.48276910305554E-02 
410	 3.53390319163837E-02 
411	 3.54413340228731E-02 
412	 3.55120638044238E-02 
413	 3.58997746452745E-02 
414	 0.036315021854041 
415	 3.64738155978244E-02 
416	 3.66672974884601E-02 
417	 3.72339443144058E-02 
418	 0.037144131967043 
419	 3.74590670969789E-02 
420	 3.81980972152535E-02 
421	 3.81679916196989E-02 
422	 3.84945180270439E-02 
423	 0.038942605742159 
424	 3.92273277546404E-02 
425	 3.97627253581853E-02 
426	 4.00277780022676E-02 
427	 4.02170611132653E-02 
428	 4.07631037117261E-02 
429	 4.10850762882299E-02 
430	 4.14640788028406E-02 
431	 4.19854392615195E-02 
432	 0.042419403589068 
433	 4.27784285245013E-02 
434	 4.31543413853574E-02 
435	 4.36057165155957E-02 
436	 4.40404992426085E-02 
437	 4.44263158413172E-02 
438	 4.48406083273005E-02 
439	 4.53865254351315E-02 
440	 4.58416903345012E-02 
441	 4.62830320208563E-02 
442	 4.67173365273042E-02 
443	 4.69943399774522E-02 
444	 4.73892659912467E-02 
445	 4.77701101001881E-02 
446	 4.80234144641201E-02 
447	 4.85913697294959E-02 
448	 4.89970025497718E-02 
449	 4.92255272928339E-02 
450	 4.95989057295249E-02 
451	 4.99130334940639E-02 
452	 5.02193947325101E-02 
453	 5.05640549203049E-02 
454	 5.09160403655864E-02 
455	 5.12016868458051E-02 
456	 5.14401726112206E-02 
457	 0.051689062923083 
458	 5.19925940021536E-02 
459	 5.22421576431948E-02 
460	 5.24894653093493E-02 
461	 0.052927957244705 
462	 5.30158375591344E-02 
463	 5.31545644844647E-02 
464	 5.36309776775396E-02 
465	 5.38934319917292E-02 
466	 5.41269168813909E-02 
467	 5.43723222011972E-02 
468	 5.46161721786456E-02 
469	 0.054915829811247 
470	 5.51068149133546E-02 
471	 0.055232670437559 
472	 5.56326934222987E-02 
473	 5.59854177734193E-02 
474	 5.63630474316077E-02 
475	 5.68165786112516E-02 
476	 5.69304244944924E-02 
477	 5.71249527177834E-02 
478	 5.75069479677037E-02 
479	 5.79333821425011E-02 
480	 5.81399393795028E-02 
481	 5.83463399208522E-02 
482	 5.87366090837536E-02 
483	 5.93105070846475E-02 
484	 5.96337553596842E-02 
485	 5.98678784135947E-02 
486	 6.03164317693018E-02 
487	 6.06707253764756E-02 
488	 0.06101721782905 
489	 6.14223649024537E-02 
490	 6.19110488271181E-02 
491	 6.24865985305332E-02 
492	 6.29363084568893E-02 
493	 6.31847766754842E-02 
494	 6.36382558205786E-02 
495	 6.40671531540414E-02 
496	 6.45587855599447E-02 
497	 6.52828897828457E-02 
498	 6.57051498713484E-02 
499	 6.60981307161568E-02 
500	 6.66270846528198E-02 
501	 6.71650115471273E-02 
502	 0.067559304355952 
503	 6.80604424607003E-02 
504	 6.88273116145975E-02 
505	 6.91419957067128E-02 
506	 6.95877978837833E-02 
507	 7.02274904884977E-02 
508	 7.07033495507659E-02 
509	 7.12480835558818E-02 
510	 7.18304127070615E-02 
511	 7.23778707177245E-02 
512	 7.28014954268119E-02 
513	 7.33419647863939E-02 
514	 7.39913951988049E-02 
515	 7.46207201443039E-02 
516	 7.51581586216052E-02 
517	 7.58120718849887E-02 
518	 7.65679552137453E-02 
519	 7.71180771189036E-02 
520	 7.76016843717563E-02 
521	 7.81273832193801E-02 
522	 7.87553963099432E-02 
523	 0.079400882428502 
524	 8.00612342001496E-02 
525	 8.06952410632917E-02 
526	 8.12561784517201E-02 
527	 8.19074983639102E-02 
528	 8.26520958203451E-02 
529	 8.34060172667052E-02 
530	 0.08395485091122 
531	 0.084586027265631 
532	 8.52554111191736E-02 
533	 0.085838927784574 
534	 8.65552422507455E-02 
535	 0.087151158281476 
536	 8.76653895268827E-02 
537	 8.84846213721971E-02 
538	 0.08919990547844 
539	 8.98478398497441E-02 
540	 9.05292662327291E-02 
541	 9.11727894589473E-02 
542	 9.19098660979191E-02 
543	 0.092685706538156 
544	 9.33395788943808E-02 
545	 9.38579484367412E-02 
546	 9.44850853484484E-02 
547	 0.095263909190834 
548	 9.57817120102662E-02 
549	 9.64145700334725E-02 
550	 9.71255162160423E-02 
551	 9.77607952414076E-02 
552	 9.83801913833346E-02 
553	 9.90094821344838E-02 
554	 9.96426537918543E-02 
555	 0.100237681176019 
556	 0.100888237625416 
557	 0.101585252561399 
558	 0.102258879039463 
559	 0.102761763536971 
560	 0.103240227408402 
561	 0.103737707953438 
562	 0.104234544009606 
563	 0.104755553982765 
564	 0.105262377316339 
565	 0.105747687458979 
566	 0.106291104382677 
567	 0.106744032465698 
568	 0.107090345628987 
569	 0.107401188783495 
570	 0.107914792375094 
571	 0.108395772995183 
572	 0.108725287398347 
573	 0.10894725997939 
574	 0.109237192322752 
575	 0.109545639481003 
576	 0.109815183351863 
577	 0.110184101144442 
578	 0.110378607227129 
579	 0.110459419049281 
580	 0.110673911567176 
581	 0.110850620967079 
582	 0.111032362222064 
583	 0.111231411602279 
584	 0.111363387329779 
585	 0.111367419036785 
586	 0.111357860681628 
587	 0.111474139308105 
588	 0.111575019564398 
589	 0.111532560728877 
590	 0.111416837814962 
591	 0.111477482131085 
592	 0.111313023650402 
593	 0.111136162550409 
594	 0.111088921092459 
595	 0.110698147115367 
596	 0.110250309491222 
597	 0.109750443615202 
598	 0.109100514411259 
599	 0.108789861295792 
600	 0.1085583969503 
601	 0.108251792757272 
602	 0.108065853948913 
603	 0.107868854251867 
604	 0.107763295595448 
605	 0.107856979565238 
606	 0.10789446891835 
607	 0.107931469819143 
608	 0.107982683699499 
609	 0.1080088444973 
610	 0.108072795788218 
611	 0.108216649605367 
612	 0.108410564980963 
613	 0.108435886223699 
614	 0.108422417687122 
615	 0.108450526190976 
616	 0.108550603603696 
617	 0.108569804144161 
618	 0.108527797435077 
619	 0.108524238088499 
620	 0.10876337821726 
621	 0.108943611306836 
622	 0.109068157547037 
623	 0.109176557996355 
624	 0.108929642978078 
625	 0.108991628784776 
626	 0.109362467728969 
627	 0.109396465245539 
628	 0.109304793387063 
629	 0.109217945229279 
630	 0.109247627950675 
631	 0.109516130751531 
632	 0.109586353521255 
633	 0.10949843584991 
634	 0.109511059938282 
635	 0.109539613473705 
636	 0.109654626484867 
637	 0.109800627877999 
638	 0.10972972802647 
639	 0.109601176186595 
640	 0.109614668416761 
641	 0.109825004413074 
642	 0.109672025940467 
643	 0.109500453062502 
644	 0.109444728705598 
645	 0.109446718436328 
646	 0.109415672900363 
647	 0.109361525222787 
648	 0.1093222456339 
649	 0.109381797272808 
650	 0.109162274640742 
651	 0.108772824967349 
652	 0.108488900742863 
653	 0.10819688784631 
654	 0.107883009787822 
655	 0.107457028652762 
656	 0.106792042942139 
657	 0.106536228466968 
658	 0.106269152913764 
659	 0.105633465056288 
660	 0.105132557694507 
661	 0.104850918876595 
662	 0.104698087153512 
663	 0.104489548218109 
664	 0.104374724019307 
665	 0.104243857367448 
666	 0.104020595630772 
667	 0.103731268118542 
668	 0.103587214267257 
669	 0.103611210479476 
670	 0.103714599593507 
671	 0.10365048138776 
672	 0.103627480460356 
673	 0.103701464718872 
674	 0.103761413075799 
675	 0.103673440528018 
676	 0.103767079322441 
677	 0.104181076200789 
678	 0.104374383323139 
679	 0.104446680885629 
680	 0.104565303956709 
681	 0.104883277569632 
682	 0.10511031679457 
683	 0.105318306354553 
684	 0.105518874990012 
685	 0.105613804386963 
686	 0.105864161715071 
687	 0.106117363090081 
688	 0.106184718016044 
689	 0.106333103008306 
690	 0.106209352632976 
691	 0.106007272297005 
692	 0.106173054363785 
693	 0.106049037800806 
694	 0.105838757963111 
695	 0.105663110160039 
696	 0.105276634040773 
697	 0.104949736771778 
698	 0.104632907326953 
699	 0.104211165812054 
700	 0.103672068656823 
701	 0.102993914810297 
702	 0.102356323926493 
703	 0.102009225013794 
704	 0.101306884760911 
705	 0.10041945903741 
706	 9.95595679634441E-02 
707	 9.86876819312976E-02 
708	 9.77911693231469E-02 
709	 9.68053236577958E-02 
710	 9.56642570006822E-02 
711	 0.094418003015144 
712	 9.30117905312359E-02 
713	 9.15627471927434E-02 
714	 0.090321163424387 
715	 8.88277216948107E-02 
716	 0.087278715661763 
717	 8.59436589588189E-02 
718	 8.40101281393516E-02 
719	 0.08206619897163 
720	 8.04759128604468E-02 
721	 7.90168548789653E-02 
722	 7.75516494941769E-02 
723	 7.58241944271009E-02 
724	 7.39438930977244E-02 
725	 7.20397239493437E-02 
726	 0.070116437909998 
727	 6.80806453811212E-02 
728	 6.58801163495926E-02 
729	 6.35569593475391E-02 
730	 6.10096970134809E-02 
731	 0.058689655193676 
732	 5.69657977101583E-02 
733	 5.51050326724664E-02 
734	 5.35450994351032E-02 
735	 5.24042073558973E-02 
736	 5.12575025757313E-02 
737	 5.05604795120442E-02 
738	 5.00991003151239E-02 
739	 0.049599151021363 
740	 4.90177023618858E-02 
741	 4.89147470722702E-02 
742	 4.90219932659053E-02 
743	 4.87342112588303E-02 
744	 4.86510799819834E-02 
745	 4.86485350099511E-02 
746	 4.86104916505118E-02 
747	 4.85290040780532E-02 
748	 0.048350640813266 
749	 4.82883585926511E-02 
750	 4.84559543551216E-02 
751	 4.84259855341661E-02 
752	 4.84400371210744E-02 
753	 4.84501681507532E-02 
754	 4.83133066118194E-02 
755	 4.85021555270957E-02 
756	 0.048543536932108 
757	 0.048332366013125 
758	 4.84443140233655E-02 
759	 4.85855649370623E-02 
760	 4.87293780025705E-02 
761	 4.89214546683004E-02 
762	 4.93313702630063E-02 
763	 4.94639391063834E-02 
764	 4.93240061055158E-02 
765	 4.91364707359031E-02 
766	 4.90416663212084E-02 
767	 4.91442306985524E-02 
768	 4.93829509898173E-02 
769	 4.95450464460026E-02 
770	 4.96954149068722E-02 
771	 4.98870514905471E-02 
772	 5.01360514076124E-02 
773	 5.03734658452185E-02 
774	 5.04815021505491E-02 
775	 5.06184193803784E-02 
776	 5.09990050664022E-02 
777	 5.13681781941285E-02 
778	 5.16547012494228E-02 
779	 5.19237968587209E-02 
780	 0.052348281475887 
781	 5.26674812083555E-02 
782	 5.28658913813131E-02 
783	 5.30758234995149E-02 
784	 5.36795323513112E-02 
785	 0.054055588462653 
786	 5.43036097763028E-02 
787	 0.054726443404537 
788	 5.51735047481549E-02 
789	 5.57011015753766E-02 
790	 5.62841534787226E-02 
791	 5.68176793995079E-02 
792	 5.70466123155017E-02 
793	 5.74144127010264E-02 
794	 5.80470878968231E-02 
795	 5.83891436980242E-02 
796	 5.88215511879472E-02 
797	 5.92836318847952E-02 
798	 5.96701430850304E-02 
799	 6.01050707239897E-02 
800	 6.03768031690875E-02 
801	 6.05701801339566E-02 
802	 6.08986168324197E-02 
803	 6.11089169654343E-02 
804	 6.14078957411027E-02 
805	 0.061742203001663 
806	 6.17604182580572E-02 
807	 6.18294921088964E-02 
808	 6.16129778909683E-02 
809	 6.10739025634597E-02 
810	 6.13120477651321E-02 
811	 6.14123216884576E-02 
812	 6.10858039620227E-02 
813	 6.04470098657691E-02 
814	 6.04176666091874E-02 
815	 6.04614193227359E-02 
816	 0.060067496167044 
817	 0.059057822310218 
818	 5.84664175257453E-02 
819	 5.79114688438102E-02 
820	 5.70942780576322E-02 
821	 5.60392553969267E-02 
822	 5.47179625697347E-02 
823	 5.35409923960749E-02 
824	 5.25783986445129E-02 
825	 5.08118930720053E-02 
826	 4.91485899477364E-02 
827	 4.75379879580973E-02 
828	 4.57260139372045E-02 
829	 4.38147682868728E-02 
830	 0.042592812150017 
831	 4.18358710303416E-02 
832	 4.06749380613552E-02 
833	 3.95760595410415E-02 
834	 3.87587691404608E-02 
835	 3.81945771841378E-02 
836	 3.75981718780866E-02 
837	 3.71803420590029E-02 
838	 3.68526069310324E-02 
839	 3.65618484903764E-02 
840	 3.65562979550523E-02 
841	 3.62650719496692E-02 
842	 3.57749126573559E-02 
843	 3.54041155341145E-02 
844	 3.52173648457234E-02 
845	 0.035025577481301 
846	 3.48115959794981E-02 
847	 3.46598265701428E-02 
848	 3.43307944257998E-02 
849	 3.41695912882165E-02 
850	 3.41370960879851E-02 
851	 3.36554921438592E-02 
852	 3.29071486744177E-02 
853	 3.25971039530985E-02 
854	 3.28730031897134E-02 
855	 3.24830168214981E-02 
856	 3.25265377165367E-02 
857	 3.26294826517476E-02 
858	 3.22623832568622E-02 
859	 3.18066643395863E-02 
860	 3.15565806129078E-02 
861	 3.15370582261188E-02 
862	 3.15598876483281E-02 
863	 0.031217304125547 
864	 3.10099890223891E-02 
865	 3.10030527137392E-02 
866	 0.030802683064958 
867	 3.02505677723852E-02 
868	 3.00169287271853E-02 
869	 3.02256752141956E-02 
870	 3.01729848663463E-02 
871	 2.96376725537669E-02 
872	 2.89400818726386E-02 
873	 2.84634159665167E-02 
874	 2.83990533416789E-02 
875	 2.84346640760624E-02 
876	 2.82203063527841E-02 
877	 2.76537745792772E-02 
878	 2.74921290393955E-02 
879	 2.71212496947892E-02 
880	 2.66800436850854E-02 
881	 2.66143440102496E-02 
882	 2.69363473320332E-02 
883	 2.65007060739241E-02 
884	 2.56116784612145E-02 
885	 2.55588896465421E-02 
886	 0.025618939852775 
887	 0.025804691189178 
888	 2.58169510125928E-02 
889	 2.50745256350233E-02 
890	 2.53939542372279E-02 
891	 2.54158760410229E-02 
892	 2.44553212427747E-02 
893	 2.41778693243927E-02 
894	 2.39303999338412E-02 
895	 2.42765567062765E-02 
896	 2.52175633132545E-02 
897	 2.41123813827833E-02 
898	 2.37277209005495E-02 
899	 2.36819185622862E-02 
900	 2.28856493735529E-02 
901	 2.19724086237387E-02 
902	 2.22340278315771E-02 
903	 2.25128338562772E-02 
904	 2.14625162550064E-02 
905	 2.16741558812163E-02 
906	 2.22044481498856E-02 
907	 0.022518418572856 
908	 2.24428788462177E-02 
909	 2.18340800839411E-02 
910	 0.021078156282417 
911	 2.06442321234488E-02 
912	 2.08336787389654E-02 
913	 2.06670321641043E-02 
914	 1.99286637160749E-02 
915	 1.91512681424321E-02 
916	 1.92968545788959E-02 
917	 1.81118498911839E-02 
918	 1.74800438383414E-02 
919	 1.76358110636185E-02 
920	 1.60797801863427E-02 
921	 1.69851911145835E-02 
922	 1.80050078556295E-02 
923	 1.70713170044968E-02 
924	 1.53274018693415E-02 
925	 0.016273963815878 
926	 1.75787237389828E-02 
927	 1.62263106256526E-02 
928	 1.43086507822592E-02 
929	 1.50512600591677E-02 
930	 1.66730800259324E-02 
931	 1.47822898577119E-02 
932	 1.33219116452725E-02 
933	 1.22739493593842E-02 
934	 1.43512254087902E-02 
935	 1.89182528461021E-02 
936	 1.27750339154208E-02 
937	 1.21668437789291E-02 
938	 1.56718920756468E-02 
939	 1.65689550815964E-02 
940	 1.17072943581531E-02 
941	 1.13663314224752E-02 
942	 0.012967569861865 
943	 9.89851122212958E-03 
944	 1.53600166768494E-02 
945	 0.015302030372612 
946	 1.18949127582078E-02 
947	 1.45236703512185E-02 
948	 6.30123183997394E-03 
949	 2.22421970981726E-03 
950	 7.19748894198109E-03 
951	 0.0154387961308 
952	 1.10111651975141E-02 
953	 7.8962652079608E-03 
954	 9.58724120743666E-03 
955	 1.06070737296409E-02 
956	 1.21313851784774E-02 
957	 1.30585501292035E-02 
958	 1.21211979075677E-02 
959	 9.20178263102638E-03 
960	 1.10674287277646E-02 
961	 1.18578600217587E-02 
962	 1.00182771778104E-02 
963	 8.19432330886842E-03 
964	 7.66784501501521E-03 
965	 8.86371753881354E-03 
966	 1.05862857758786E-02 
967	 1.09005231816342E-02 
968	 1.03837423970354E-02 
969	 9.0112084421725E-03 
970	 7.72903950290894E-03 
971	 8.19430109246341E-03 
972	 1.13497202999139E-02 
973	 1.25416796095797E-02 
974	 9.76662613169563E-03 
975	 5.43153749015568E-03 
976	 8.48064778773215E-03 
977	 1.15781683395141E-02 
978	 1.11217558724467E-02 
979	 9.15266162320455E-03 
980	 8.10714969993147E-03 
981	 9.4390794314044E-03 
982	 0.010767136804524 
983	 8.28053014090908E-03 
984	 9.7820474471898E-03 
985	 8.69734895739862E-03 
986	 5.47844917849461E-03 
987	 6.50478235886012E-03 
988	 1.07954274362395E-02 
989	 1.18163424070219E-02 
990	 1.03410449737351E-02 
991	 1.15187975877872E-02 
992	 7.41569499357407E-03 
993	 7.7950344725563E-03 
994	 1.07261234617161E-02 
995	 7.71298100700786E-03 
996	 1.00994252831026E-02 
997	 8.75447008787057E-03 
998	 6.83842539668173E-03 
999	 1.22374852579004E-02 
1000	 1.03315969637651E-02 
1001	 8.10705717072697E-03 
1002	 8.84988677903305E-03 
1003	 9.11569432985324E-03 
1004	 9.57404602233828E-03 
1005	 9.56994862786539E-03 
1006	 9.02575267521172E-03 
1007	 8.81861665318961E-03 
1008	 8.47817460813821E-03 
1009	 8.64068194098428E-03 
1010	 8.55903265542621E-03 
1011	 7.94399510772995E-03 
1012	 7.79183638742163E-03 
1013	 0.007499406253064 
1014	 7.51361329647052E-03 
1015	 7.97956096244595E-03 
1016	 8.41375798310333E-03 
1017	 9.20578961208019E-03 
1018	 9.34626613495317E-03 
1019	 9.25303401068925E-03 
1020	 9.25556659375316E-03 
1021	 9.00267599787245E-03 
1022	 8.48429354502103E-03 
1023	 8.41113679679943E-03 
1024	 8.18862891959776E-03 
1025	 7.75381974352215E-03 
1026	 7.9751533037872E-03 
1027	 8.5602534908687E-03 
1028	 9.98856682951411E-03 
1029	 1.05286100160949E-02 
1030	 1.12865028228567E-02 
1031	 1.13204642596941E-02 
1032	 1.01890456391668E-02 
1033	 1.00735104595021E-02 
1034	 0.010345747025477 
1035	 1.03611720729254E-02 
1036	 1.09095176778716E-02 
1037	 1.08403505775288E-02 
1038	 1.01324389144471E-02 
1039	 9.40546317981878E-03 
1040	 9.08737897845504E-03 
1041	 9.29949205424123E-03 
1042	 9.50966846860313E-03 
1043	 1.02261169403168E-02 
1044	 1.07191548192228E-02 
1045	 1.14770676461241E-02 
1046	 1.14402234634385E-02 
1047	 1.09569836437225E-02 
1048	 1.08767130744814E-02 
1049	 1.02854700725785E-02 
1050	 1.01225986766327E-02 
1051	 1.07095912331129E-02 
1052	 1.08108523939791E-02 
1053	 1.04682950819681E-02 
1054	 0.010438658072168 
1055	 1.04418250542857E-02 
1056	 1.05646084565161E-02 
1057	 1.08088955899136E-02 
1058	 1.14310988198745E-02 
1059	 1.14658881208823E-02 
1060	 1.12809387992818E-02 
1061	 1.12501694982718E-02 
1062	 1.08635651649662E-02 
1063	 1.08688495402285E-02 
1064	 1.14058097977856E-02 
1065	 0.011426130729647 
1066	 1.10234102295879E-02 
1067	 0.011101546360384 
1068	 1.12024051607954E-02 
1069	 1.13546918310777E-02 
1070	 1.19783209023496E-02 
1071	 1.23924779242062E-02 
1072	 1.28185055883342E-02 
1073	 1.30138865380802E-02 
1074	 1.28183768492872E-02 
1075	 1.22543542810716E-02 
1076	 1.20742087159576E-02 
1077	 0.011718307404121 
1078	 0.011320811649506 
1079	 1.11726801110241E-02 
1080	 1.09906032119324E-02 
1081	 1.01809471077079E-02 
1082	 1.01188114766891E-02 
1083	 1.08348460268777E-02 
1084	 1.11336603597957E-02 
1085	 1.17791904512433E-02 
1086	 1.19871199045389E-02 
1087	 1.18290645785609E-02 
1088	 1.16374556262744E-02 
1089	 1.10341594460561E-02 
1090	 1.04789167236003E-02 
1091	 1.04390183282762E-02 
1092	 0.010614744356207 
1093	 1.07465334363595E-02 
1094	 1.16424167203848E-02 
1095	 1.14918220723629E-02 
1096	 1.04365957959531E-02 
1097	 1.01781595637515E-02 
1098	 9.66632592015634E-03 
1099	 9.61892612224891E-03 
1100	 1.07538730348468E-02 
1101	 1.08816505099866E-02 
1102	 1.03675610147198E-02 
1103	 0.010140113962895 
1104	 9.21392018976853E-03 
1105	 9.1381329957108E-03 
1106	 9.68819466183201E-03 
1107	 9.8591753115316E-03 
1108	 0.010196378301687 
1109	 9.95907196527303E-03 
1110	 1.00698545999698E-02 
1111	 1.01414656345715E-02 
1112	 1.04189276228274E-02 
1113	 1.14129159400496E-02 
1114	 1.15666408670073E-02 
1115	 1.06558315952922E-02 
1116	 1.01038585271757E-02 
1117	 8.92067419630647E-03 
1118	 8.67720098994097E-03 
1119	 9.68932600904732E-03 
1120	 0.010312836135716 
1121	 1.25535187818162E-02 
1122	 0.013368616167493 
1123	 8.57754412491642E-03 
1124	 5.91483173576951E-03 
1125	 6.92028091106528E-03 
1126	 3.04589173187893E-03 
1127	 9.360872032469E-04 
1128	 3.46563675472708E-03 
1129	 4.09926383756676E-03 
1130	 2.41005664717029E-03 
1131	 3.30141238678252E-03 
1132	 6.73584538763096E-03 
1133	 8.12848064488055E-03 
1134	 9.83167155723609E-03 
1135	 9.41326781982554E-03 
1136	 6.14905124370329E-03 
1137	 5.95533112337022E-03 
1138	 5.56494561532027E-03 
1139	 7.25673789988733E-03 
1140	 1.06232377422676E-02 
1141	 1.13705198568766E-02 
1142	 8.1196096987893E-03 
1143	 5.66212483394483E-03 
1144	 4.19861030642193E-03 
1145	 3.18562919708871E-03 
1146	 5.95422443463772E-03 
1147	 9.24798155274599E-03 
1148	 8.82341006867162E-03 
1149	 8.05799242018993E-03 
1150	 7.40584589266522E-03 
1151	 4.57848694288219E-03 
1152	 4.53953575548902E-03 
1153	 6.83516898867533E-03 
1154	 6.92711074039273E-03 
1155	 6.92275507416525E-03 
1156	 6.73506578860762E-03 
1157	 5.85546239657623E-03 
1158	 4.85000354280891E-03 
1159	 5.15609285687173E-03 
1160	 5.92377939797729E-03 
1161	 6.62630406757795E-03 
1162	 7.49277039568627E-03 
1163	 7.09803075169009E-03 
1164	 6.11751636561383E-03 
1165	 6.24841742885198E-03 
1166	 6.42358539162639E-03 
1167	 6.78484185826883E-03 
1168	 7.4582900535853E-03 
1169	 6.95965037238007E-03 
1170	 6.38220163306018E-03 
1171	 6.35888778784202E-03 
1172	 6.78566211638045E-03 
1173	 6.91278295665272E-03 
1174	 7.33391733412903E-03 
1175	 7.40152953565369E-03 
1176	 6.8528755414304E-03 
1177	 6.81499968685983E-03 
1178	 0.007425103168426 
1179	 7.69854135776253E-03 
1180	 7.95815188731927E-03 
1181	 7.82082776126312E-03 
1182	 7.05989601690516E-03 
1183	 6.61846344624766E-03 
1184	 6.38531781123458E-03 
1185	 6.6046937708262E-03 
1186	 7.18208412145376E-03 
1187	 7.0617575892387E-03 
1188	 6.75143538825638E-03 
1189	 6.59018746599147E-03 
1190	 6.1647074781258E-03 
1191	 6.13270388273996E-03 
1192	 6.23706433402821E-03 
1193	 6.77176263214829E-03 
1194	 6.93290718894124E-03 
1195	 6.83475976858341E-03 
1196	 6.98479812439045E-03 
1197	 6.90109690372828E-03 
1198	 6.36225316503169E-03 
1199	 6.75399210332118E-03 
1200	 7.09546784230992E-03 
1201	 6.56392316421404E-03 
1202	 6.68176400546283E-03 
1203	 6.9341756040848E-03 
1204	 6.71166152203382E-03 
1205	 6.77243602024915E-03 
1206	 7.05919536849573E-03 
1207	 7.16733355272868E-03 
1208	 7.11676107886491E-03 
1209	 6.79354027746467E-03 
1210	 6.6571298356917E-03 
1211	 6.95169228757555E-03 
1212	 7.06278224932613E-03 
1213	 7.17224006528321E-03 
1214	 7.22135701480654E-03 
1215	 7.33630260631641E-03 
1216	 7.06061857896803E-03 
1217	 6.83145396158433E-03 
1218	 6.99279902441488E-03 
1219	 7.43465661665008E-03 
1220	 7.19257611674036E-03 
1221	 6.6073687571535E-03 
1222	 6.67335767336579E-03 
1223	 6.88456332564439E-03 
1224	 7.10670470917209E-03 
1225	 7.54804073240559E-03 
1226	 7.47451720236537E-03 
1227	 7.03499750495076E-03 
1228	 7.04316138262849E-03 
1229	 7.24726470149893E-03 
1230	 7.19588055573896E-03 
1231	 7.32201232910158E-03 
1232	 7.74125908521899E-03 
1233	 7.59246925917271E-03 
1234	 7.29813561158696E-03 
1235	 7.34441898337463E-03 
1236	 7.4523779638269E-03 
1237	 7.2815710815713E-03 
1238	 7.10855276221619E-03 
1239	 7.38607072588789E-03 
1240	 7.03432612071305E-03 
1241	 6.51247262404166E-03 
1242	 6.74011255254164E-03 
1243	 6.94987595575576E-03 
1244	 6.97510671412948E-03 
1245	 7.20599188945879E-03 
1246	 7.37521237249893E-03 
1247	 7.35577741690561E-03 
1248	 6.88817352587407E-03 
1249	 6.65423113602904E-03 
1250	 6.77642789198027E-03 
1251	 6.70473271657916E-03 
1252	 7.15563605134742E-03 
1253	 7.37432934318367E-03 
1254	 6.92920789968817E-03 
1255	 6.84995086462074E-03 
1256	 6.91921412544232E-03 
1257	 0.007463105154633 
1258	 7.50359933144725E-03 
1259	 7.19781880301396E-03 
1260	 7.22595167514572E-03 
1261	 7.27161639215399E-03 
1262	 7.15620553579611E-03 
1263	 7.18823857305849E-03 
1264	 7.39942373363755E-03 
1265	 7.06298970667486E-03 
1266	 6.67149714724636E-03 
1267	 6.88673428518178E-03 
1268	 6.84139332582703E-03 
1269	 6.64259530034165E-03 
1270	 6.77319667536503E-03 
1271	 7.05507228908183E-03 
1272	 7.44515151359959E-03 
1273	 7.22486086811217E-03 
1274	 6.92809080332242E-03 
1275	 6.94348249331048E-03 
1276	 6.68120680678663E-03 
1277	 6.91417895128816E-03 
1278	 7.4494214599821E-03 
1279	 7.46718163180141E-03 
1280	 7.25441448121819E-03 
1281	 7.21035305289397E-03 
1282	 7.28408009118945E-03 
1283	 7.22188151283365E-03 
1284	 7.09782608019307E-03 
1285	 7.04281253814493E-03 
1286	 6.8168883729501E-03 
1287	 6.73234429944613E-03 
1288	 6.88260488331039E-03 
1289	 6.86816583388978E-03 
1290	 6.74426996029546E-03 
1291	 6.88655878226266E-03 
1292	 6.93780979819945E-03 
1293	 6.52377250013033E-03 
1294	 6.63791516977906E-03 
1295	 7.21073341993705E-03 
1296	 7.09655142784528E-03 
1297	 7.2851370923404E-03 
1298	 7.71243391684885E-03 
1299	 7.11484531147132E-03 
1300	 6.38504642322284E-03 
1301	 6.30824799625557E-03 
1302	 6.69171604054778E-03 
1303	 6.77752488975669E-03 
1304	 6.6712878917777E-03 
1305	 6.84053133579243E-03 
1306	 6.9131135808834E-03 
1307	 6.34349799883206E-03 
1308	 6.28373607205224E-03 
1309	 6.76853417344849E-03 
1310	 6.6779932507926E-03 
1311	 6.18538637064895E-03 
1312	 6.02763806723423E-03 
1313	 5.91179967000907E-03 
1314	 6.01856704303774E-03 
1315	 6.3505763899785E-03 
1316	 6.40563419714239E-03 
1317	 6.5492707654613E-03 
1318	 6.86848681530584E-03 
1319	 7.11340195653698E-03 
1320	 7.27718394783748E-03 
1321	 7.37481618466211E-03 
1322	 7.68306878726644E-03 
1323	 8.36018451358222E-03 
1324	 8.26194166824356E-03 
1325	 7.99412419147674E-03 
1326	 7.85494591128651E-03 
1327	 7.60785289269716E-03 
1328	 7.57177378986988E-03 
1329	 6.74464692975317E-03 
1330	 5.55212635463745E-03 
1331	 4.69895678968204E-03 
1332	 5.41717787344608E-03 
1333	 6.86753810610193E-03 
1334	 7.21612312362407E-03 
1335	 7.8967825340641E-03 
1336	 7.58199189062759E-03 
1337	 7.95345938080415E-03 
1338	 9.58638941376466E-03 
1339	 9.81796739254246E-03 
1340	 8.61654101102435E-03 
1341	 8.74070531449999E-03 
1342	 9.03084284415465E-03 
1343	 8.7540372239674E-03 
1344	 9.31884231478756E-03 
1345	 9.75328189515653E-03 
1346	 9.17571582807352E-03 
1347	 9.28226039404077E-03 
1348	 8.75221417199968E-03 
1349	 9.3161067711221E-03 
1350	 1.65996907673447E-02 
1351	 1.76060901784852E-02 
1352	 4.66246367420634E-03 
1353	 8.08474227822419E-03 
1354	 0.035981748112105 
1355	 2.53661306909603E-02 
1356	-3.64884811100509E-02 
1357	 5.51408871795035E-03 
1358	 2.97239149471395E-02 
1359	-0.195977789496415 
1360	-0.364104483322614 
1361	-0.272574317081694 
1362	-0.203576158796256 
1363	-0.217328453263882 
1364	-6.93773521095025E-02 
1365	 7.77049631199336E-02 
1366	-0.236187570457047 
1367	-0.689717587722013 
1368	-0.719441277109589 
1369	-0.47481313469899 
1370	-0.424586762652949 
1371	-3.27370295159067E-02 
1372	 2.95767812021728E-02 
1373	-0.11581315470713 
1374	-0.091532032072705 
1375	 0.081427059928424 
1376	 3.47549991086223E-02 
1377	-0.127978464602308 
1378	 6.00283466541473E-02 
1379	 0.347148806247802 
1380	 0.206119611426625 
1381	-7.26142087934267E-02 
1382	-0.160758982088475 
1383	-1.89771984486422 
1384	-2.7983664607254 
1385	-0.632864595447027 
1386	-0.216455603765469 
1387	-0.12331203534746 
1388	-6.53017887127119E-02 
1389	 3.64182792327406E-02 
1390	 8.05585442961813E-02 
1391	-0.12804063626475 
1392	-0.189693578068461 
1393	 9.20858579701426E-02 
1394	 0.214703961270194 
1395	 0.117063345413287 
1396	 0.30200510214515 
1397	 0.358116659772329 
1398	-0.125806066646052 
1399	-0.4437930318455 
1400	-0.985957234001835 
1401	-1.18815567906478 
1402	-6.18500773327613 
1403	-0.336944815420266 
1404	-0.22088082202675 
1405	-0.17969519574935 
1406	-0.21944682527921 
1407	-0.183111031156833 
1408	-9.07998243467666E-02 
1409	 1.29045891211047E-02 
1410	 8.62536914541902E-02 
1411	 0.153870391360614 
1412	 0.293281555381472 
1413	 0.254843465512496 
1414	 0.115702335583348 
1415	 8.88070034106875E-02 
1416	 8.11721967120382E-02 
1417	 2.78381996301784E-02 
1418	-4.76778570745951E-02 
1419	-3.33459855284068E-02 
1420	 1.40850565477665E-02 
1421	 1.95621399367857E-02 
1422	 0.047321293047987 
1423	 5.26860506935735E-02 
1424	 1.88479957307854E-02 
1425	 1.07158656772618E-02 
1426	 2.77198267113426E-02 
1427	 2.53211691428735E-02 
1428	 5.6902511233272E-03 
1429	 4.6325472888184E-03 
1430	 1.09247902457769E-02 
1431	 9.57594754875244E-03 
1432	 1.20691667120924E-02 
1433	 1.71012082760014E-02 
1434	 1.79385950827466E-02 
1435	 1.47399304793607E-02 
1436	 1.30809356133169E-02 
1437	 1.67480587724751E-02 
1438	 2.05614216095649E-02 
1439	 2.11217350135374E-02 
1440	 2.44681801397523E-02 
1441	 2.03893592200434E-02 
1442	 1.41588724585988E-03 
1443	-1.02241121148736E-02 
1444	-5.0941708340921E-03 
1445	 4.79152016950519E-04 
1446	 7.81251953284308E-05 
1447	 2.33597295950165E-04 
1448	 2.57071057942636E-03 
1449	 3.28430551664917E-03 
1450	 2.17423165389361E-03 
1451	 3.29495960002167E-03 
1452	 4.58516189015309E-03 
1453	 3.17564982713558E-03 
1454	 3.23402679744221E-03 
1455	 5.96574225107757E-03 
1456	 6.70862349597511E-03 
1457	 5.19650843150468E-03 
1458	 5.81339168912858E-03 
1459	 8.36781459760283E-03 
1460	 8.79825384428855E-03 
1461	 8.74283950095478E-03 
1462	 8.27772594970727E-03 
1463	 7.22324502064557E-03 
1464	 5.49410397105792E-03 
1465	 1.66503004265757E-03 
1466	 7.76148909201187E-04 
1467	 8.15885164560469E-04 
1468	 3.27280730190363E-04 
1469	 1.58891847877762E-03 
1470	 2.5118229566028E-03 
1471	 3.12218701889267E-03 
1472	 3.23192120965672E-03 
1473	 4.07962178188924E-03 
1474	 4.31046266068578E-03 
1475	 2.62312871307876E-03 
1476	 2.71882247278236E-03 
1477	 3.74128892155276E-03 
1478	 4.37682456414996E-03 
1479	 5.90876585023441E-03 
1480	 6.33451473518524E-03 
1481	 5.6094189680812E-03 
1482	 5.54520514482116E-03 
1483	 6.0131979660001E-03 
1484	 6.03851900646453E-03 
1485	 5.47227925789787E-03 
1486	 5.92633495261684E-03 
1487	 7.11227186561707E-03 
1488	 6.77770426512488E-03 
1489	 6.0338216770972E-03 
1490	 6.11342975815329E-03 
1491	 5.59836808743962E-03 
1492	 5.7238377749295E-03 
1493	 7.08537501231346E-03 
1494	 7.20834158422895E-03 
1495	 6.80756368656404E-03 
1496	 6.56674126882956E-03 
1497	 5.68646438198646E-03 
1498	 5.46086247906228E-03 
1499	 5.62037493177733E-03 
1500	 5.70314313879417E-03 
1501	 6.0969878207022E-03 
1502	 6.20348290573374E-03 
1503	 6.40593148268426E-03 
1504	 6.50112474969992E-03 
1505	 6.30345902662301E-03 
1506	 5.99052174067699E-03 
1507	 6.61310944734751E-03 
1508	 6.64010931352517E-03 
1509	 6.69189809914563E-03 
1510	 6.9955061209795E-03 
1511	 6.94821074092038E-03 
1512	 6.51087489608788E-03 
1513	 5.88511970079957E-03 
1514	 6.01184209012759E-03 
1515	 6.57607308600003E-03 
1516	 6.58112179365882E-03 
1517	 6.88532737378879E-03 
1518	 7.30619036681882E-03 
1519	 6.71341208523758E-03 
1520	 6.36751295933177E-03 
1521	 6.66633873560484E-03 
1522	 6.26176040592828E-03 
1523	 6.20754233701078E-03 
1524	 6.58795345706524E-03 
1525	 6.56928846852001E-03 
1526	 7.27801027781906E-03 
1527	 7.64180913977194E-03 
1528	 7.39682169271326E-03 
1529	 7.54213670503329E-03 
1530	 7.03851131423416E-03 
1531	 0.006566677451421 
1532	 6.54535481531048E-03 
1533	 6.07005779721014E-03 
1534	 5.74962187778747E-03 
1535	 5.64782288922046E-03 
1536	 5.83481754746815E-03 
1537	 6.10867713624118E-03 
1538	 5.72318146220133E-03 
1539	 5.57694537461356E-03 
1540	 5.94019991633988E-03 
1541	 6.13573864006216E-03 
1542	 6.29584295707235E-03 
1543	 6.40228478627506E-03 
1544	 6.05248962587191E-03 
1545	 5.49675261030035E-03 
1546	 5.41912862580456E-03 
1547	 5.88767265567225E-03 
1548	 6.06958033572085E-03 
1549	 5.77350560519391E-03 
1550	 5.86174776220269E-03 
1551	 6.08141064962908E-03 
1552	 6.04559813787141E-03 
1553	 5.96299237033847E-03 
1554	 5.84821762517469E-03 
1555	 6.07189880453066E-03 
1556	 6.27244692755054E-03 
1557	 6.35929642562052E-03 
1558	 6.64141045154613E-03 
1559	 6.37914437137408E-03 
1560	 5.95178150068264E-03 
1561	 6.10996463443796E-03 
1562	 6.44635713712789E-03 
1563	 6.62982637787514E-03 
1564	 6.47232682639638E-03 
1565	 6.28044823258357E-03 
1566	 6.39005430112337E-03 
1567	 6.61587324867497E-03 
1568	 6.76306122628629E-03 
1569	 6.50548830958405E-03 
1570	 6.12733869804932E-03 
1571	 6.22163432589623E-03 
1572	 6.32721998263655E-03 
1573	 6.22828293438494E-03 
1574	 6.29317788252458E-03 
1575	 6.23701558590528E-03 
1576	 5.91704520320732E-03 
1577	 5.70618295181904E-03 
1578	 6.02563475224423E-03 
1579	 6.28202119312189E-03 
1580	 5.9162702359189E-03 
1581	 5.54396726774682E-03 
1582	 5.59013714651567E-03 
1583	 5.78917963490131E-03 
1584	 5.56244839270974E-03 
1585	 5.50052035174168E-03 
1586	 5.48943134770301E-03 
1587	 5.06329684062589E-03 
1588	 5.17361865083777E-03 
1589	 5.85592034921362E-03 
1590	 6.41437117789419E-03 
1591	 6.37243509399105E-03 
1592	 6.28816195881832E-03 
1593	 6.26493692786997E-03 
1594	 6.04581013841257E-03 
1595	 6.27191155104812E-03 
1596	 6.37056554676036E-03 
1597	 6.21420224930995E-03 
1598	 6.39655007998135E-03 
1599	 6.53216147687131E-03 
1600	 6.37301983132612E-03 
1601	 6.17996691133913E-03 
1602	 6.19523767202316E-03 
1603	 6.25945513240989E-03 
1604	 6.17962690608751E-03 
1605	 6.19855188854102E-03 
1606	 6.50118548133652E-03 
1607	 6.64896007572244E-03 
1608	 6.50362357105492E-03 
1609	 6.36239412872263E-03 
1610	 5.97471951227684E-03 
1611	 5.18542190761311E-03 
1612	 5.25424108905582E-03 
1613	 6.27157871295929E-03 
1614	 6.57844608596613E-03 
1615	 6.66802513657541E-03 
1616	 7.10707761930456E-03 
1617	 7.30932732358607E-03 
1618	 7.14428182168422E-03 
1619	 6.47854697425824E-03 
1620	 5.90902263292024E-03 
1621	 5.72196237845667E-03 
1622	 5.65410804434661E-03 
1623	 6.16095787566645E-03 
1624	 6.64393144724539E-03 
1625	 6.06380459246776E-03 
1626	 5.82768612579005E-03 
1627	 6.31400294852923E-03 
1628	 6.49596322859574E-03 
1629	 6.88770192415663E-03 
1630	 6.8741619102119E-03 
1631	 6.44657922678262E-03 
1632	 6.65344472143323E-03 
1633	 7.13683601246116E-03 
1634	 7.37293005251454E-03 
1635	 7.27519555190514E-03 
1636	 7.03079926692741E-03 
1637	 6.66112516335516E-03 
1638	 6.61451801904123E-03 
1639	 6.57181452489026E-03 
1640	 6.29133580146472E-03 
1641	 6.56698444311904E-03 
1642	 6.44565039240471E-03 
1643	 5.82036830509192E-03 
1644	 5.91904669108438E-03 
1645	 6.35384144217462E-03 
1646	 6.70533968209181E-03 
1647	 7.20250111488896E-03 
1648	 7.51247672882057E-03 
1649	 6.86743632334751E-03 
1650	 5.83480460786409E-03 
1651	 5.92745298875231E-03 
1652	 6.70238199268605E-03 
1653	 6.77156357532303E-03 
1654	 6.82257010443501E-03 
1655	 6.75092217679554E-03 
1656	 6.42478175713372E-03 
1657	 0.005575330493625 
1658	 5.55155104178232E-03 
1659	 6.01917940081412E-03 
1660	 6.17236568908673E-03 
1661	 6.78135286923141E-03 
1662	 7.12732205000313E-03 
1663	 7.01104633832798E-03 
1664	 6.65193624687346E-03 
1665	 6.28765021129673E-03 
1666	 6.33305850074947E-03 
1667	 5.89733520711394E-03 
1668	 6.7683878431336E-03 
1669	 7.50334314049973E-03 
1670	 6.83850047341344E-03 
1671	 5.96139044482779E-03 
1672	 5.38731303599842E-03 
1673	 5.66691712379531E-03 
1674	 6.11065545909403E-03 
1675	 6.36244896687472E-03 
1676	 6.27292420780321E-03 
1677	 5.11061217190495E-03 
1678	 4.84699030178347E-03 
1679	 5.83155677616007E-03 
1680	 6.43609847637151E-03 
1681	 6.29334063510925E-03 
1682	 5.94689021812103E-03 
1683	 6.11000177122635E-03 
1684	 5.95211389358395E-03 
1685	 5.38878169256831E-03 
1686	 5.38641016830172E-03 
1687	 5.2705065768243E-03 
1688	 5.06813569566408E-03 
1689	 5.92337980641589E-03 
1690	 6.43447635678265E-03 
1691	 5.98021191358972E-03 
1692	 5.97541368106326E-03 
1693	 6.44144145863736E-03 
1694	 6.73096451360532E-03 
1695	 6.41894143030458E-03 
1696	 6.08080488175043E-03 
1697	 5.57368738966036E-03 
1698	 4.86581009347958E-03 
1699	 5.49576726682665E-03 
1700	 6.63281464752165E-03 
1701	 6.78912669327585E-03 
1702	 7.30157894266575E-03 
1703	 7.76305985060353E-03 
1704	 6.82125810718875E-03 
1705	 6.60707850206109E-03 
1706	 7.01587714424626E-03 
1707	 6.75633649096131E-03 
1708	 6.92441751382831E-03 
1709	 7.09435086378651E-03 
1710	 6.95171230208203E-03 
1711	 6.97672667560656E-03 
1712	 7.12635645438844E-03 
1713	 7.1109523068864E-03 
1714	 7.08696106427726E-03 
1715	 7.10733821075799E-03 
1716	 6.81315165924558E-03 
1717	 6.48657392849035E-03 
1718	 6.44094703027542E-03 
1719	 6.24579000221395E-03 
1720	 5.6280748949244E-03 
1721	 6.01881997453801E-03 
1722	 6.53285099053365E-03 
1723	 5.77727519666113E-03 
1724	 5.27611737043472E-03 
1725	 4.94718351921793E-03 
1726	 3.88489294366836E-03 
1727	 0.004447082524988 
1728	 6.18432817810225E-03 
1729	 6.40441825461732E-03 
1730	 5.88999414308536E-03 
1731	 5.6707144459415E-03 
1732	 5.67100542834493E-03 
1733	 6.2243045940111E-03 
1734	 7.14345251671826E-03 
1735	 6.96547863869499E-03 
1736	 6.57207563520786E-03 
1737	 6.60259709494609E-03 
1738	 5.72083278910258E-03 
1739	 5.28267657220732E-03 
1740	 5.51752328951539E-03 
1741	 5.49747845405028E-03 
1742	 7.27305750391237E-03 
1743	 9.03277348939393E-03 
1744	 7.43358493619548E-03 
1745	 5.98151973050509E-03 
1746	 5.85116234755567E-03 
1747	 5.59786068069906E-03 
1748	 7.80916838035993E-03 
1749	 8.13706752545423E-03 
1750	 5.79098963258809E-03 
1751	 5.48306285050606E-03 
1752	 6.09257442554604E-03 
1753	 6.41706271770861E-03 
1754	 7.75928907321854E-03 
1755	 8.31540284288486E-03 
1756	 8.45245109925374E-03 
1757	 7.29382822210588E-03 
1758	 6.01545026664228E-03 
1759	 5.59410387030738E-03 
1760	 6.10622838952687E-03 
1761	 7.31634126727875E-03 
1762	 7.99857769059795E-03 
1763	 7.43744916534274E-03 
1764	 7.02448635804086E-03 
1765	 6.79806002136581E-03 
1766	 6.50198921514009E-03 
1767	 7.0237132640942E-03 
1768	 7.40753238535178E-03 
1769	 6.48675311567511E-03 
1770	 7.00139704983233E-03 
1771	 7.05486011087072E-03 
1772	 5.03318220734544E-03 
1773	 6.09931772437664E-03 
1774	 7.18423804020858E-03 
1775	 7.38718437100687E-03 
1776	 8.07889835262473E-03 
1777	 7.26325661877222E-03 
1778	 6.73923755441104E-03 
1779	 7.53003216060269E-03 
1780	 6.67267303328263E-03 
1781	 4.07119229408836E-03 
1782	 4.04040697100179E-03 
1783	 5.84100207264173E-03 
1784	 5.01031971752093E-03 
1785	 2.16584336589382E-03 
1786	 2.86838726848089E-03 
1787	 3.60625423384688E-03 
1788	 5.14379702460861E-03 
1789	 1.47396116754072E-02 
1790	 1.51919934943004E-02 
1791	 0.00605644605155 
1792	-1.3819045344273E-03 
1793	-1.33492744986878E-02 
1794	-1.87508640545066E-02 
1795	-9.99928037316773E-03 
1796	-4.4744008690801E-03 
1797	 4.60854206287185E-03 
1798	 1.33401829301095E-02 
1799	 9.01482290879624E-03 
1800	 1.06382822085801E-02 
1801	 9.0715474289678E-03 
1802	-1.15249385900688E-02 
1803	-2.50623994188807E-02 
1804	-0.046993279469823 
1805	-4.18343461492854E-02 
1806	 0.031496904479742 
1807	 6.52410258884012E-02 
1808	 0.122253764251502 
1809	 0.164737456872406 
1810	 0.075533295827306 
1811	 0.014359360791289 
1812	-2.37939319823931E-02 
1813	-0.108234930708386 
1814	-0.333623668607821 
1815	-0.573292428570993 
1816	-1.2495890020829 
1817	-0.623188828238729 
1818	 9.12676766090034E-02 
1819	 0.405071601368108 
1820	 0.259498622015389 
1821	-0.809010265114946 
1822	-1.32668223573849 
1823	-1.34433242359062 
1824	-0.725576421185514 
1825	 0.14233770073415 
1826	 0.340633245189928 
1827	 0.475830926175522 
1828	 0.626897655533846 
1829	 1.5248976102608 
1830	 2.48312590355896 
1831	-2.14028383509425 
1832	-2.14338011010163 
1833	-1.87483884779318 
1834	-4.88694441972931 
1835	 1.24015275803657 
1836	 3.41045482831605 
1837	 0.643045469240186 
1838	 1.23462443359374 
1839	 3.21961067857161 
1840	 1.71740534929131 
1841	 2.98186948958157 
1842	-4.42383894779995 
1843	-0.807889540765562 
1844	-0.393900529394274 
1845	-0.35946204607135 
1846	-0.454494707951422 
1847	-0.765954835492792 
1848	-4.0882123029133 
1849	 4.4060676540091 
1850	 3.59247421486189 
1851	 8.42576052880345 
1852	 22.2863201733192 
1853	-9.76950162653066 
1854	-3.0102072896581 
1855	 0.283160615716938 
1856	 0.425368771637021 
1857	 0.857118768474165 
1858	 0.710164665702364 
1859	-1.48725411681695 
1860	 2.48244780178146 
1861	 2.41073685039993 
1862	 3.1090187346464 
1863	 1.77875674629936 
1864	 0.541039259921892 
1865	 0.815984602736117 
1866	 7.35524695407136 
1867	-8.73073058905835 
1868	-6.80899990081549 
1869	-4.18703076768912 
1870	-2.86055149612316 
1871	-2.85952576563518 
1872	-1.52643482251446 
1873	-0.915699880296075 
1874	-0.138195863227686 
1875	 0.564348279779387 
1876	 0.781878007146758 
1877	 0.36117060017925 
1878	 0.253961614884684 
1879	-3.64284208098839 
1880	 3.07483883324736 
1881	 1.15999781127445 
1882	 0.735504477651415 
1883	 1.1552663240043 
1884	 4.9092493761101 
1885	-2.865637160189 
1886	-1.34501919563338 
1887	-0.769858816714095 
1888	 5.11347783556803 
1889	 9.87194937829167 
1890	 6.22954196756309 
1891	 10.6176893820146 
1892	 7.28993077261212 
1893	 22.6970522091818 
1894	-4.48927970790476 
1895	-4.93682803426132 
1896	-5.31079100981004 
1897	-0.178484774706957 
1898	 1.32614115996915 
1899	 1.81278519879078 
1900	 1.52068123765121 
1901	 0.636793030404282 
1902	 0.471136757156794 
1903	 0.12182385875264 
1904	-0.842815586811618 
1905	 3.36449302992695 
1906	 0.339322130532315 
1907	 1.2392494555173 
1908	 3.06236395766685 
1909	 1.11476138468038 
1910	 7.34076989374032E-02 
1911	 0.193015118521665 
1912	 0.397043901289619 
1913	 0.381216824842115 
1914	 0.175643964702678 
1915	 0.279474675970366 
1916	-0.977756679784376 
1917	 0.397266086920951 
1918	 5.78793801042501E-02 
1919	 0.105550335801937 
1920	 0.060770734957923 
1921	-0.059006724634351 
1922	 1.64174487345128 
1923	 9.30893376558607 
1924	 0.417537999084962 
1925	 0.371002279484804 
1926	 0.258927765322162 
1927	-0.448337664224529 
1928	-0.284773435553116 
1929	 1.1037545178572 
1930	 1.13469227819424 
1931	 1.1210316105214 
1932	 1.12882823387326 
1933	 0.807001727537729 
1934	 0.569577216483552 
1935	 0.494743583311982 
1936	 0.505690648736129 
1937	 0.312873659987355 
1938	-3.09403201201388E-02 
1939	-0.138570128083593 
1940	-0.156499261830856 
1941	-0.227824785146789 
1942	-0.239153449906338 
1943	-0.118163077176103 
1944	-0.108309736836847 
1945	-0.167327621829825 
1946	-0.118251861349581 
1947	-1.77885909523324E-02 
1948	-6.91668942993549E-03 
1949	 4.94148637036754E-03 
1950	 1.22836005766138E-02 
1951	-5.57203481898299E-02 
1952	-6.92397544531008E-02 
1953	-7.36790788013222E-02 
1954	 2.06189873877063E-02 
1955	 9.56147224921383E-02 
1956	 0.157590305230323 
1957	 0.16242585614437 
1958	 0.126495007404396 
1959	 0.132852792792385 
1960	 9.30841403962432E-02 
1961	 3.62544160283788E-02 
1962	 2.04634198735342E-02 
1963	 7.41749360281571E-03 
1964	 2.21938099659074E-03 
1965	 1.56832562033669E-02 
1966	 1.95826091255575E-02 
1967	 2.51984498721193E-02 
1968	 1.65125613188829E-02 
1969	 8.96397592230372E-03 
1970	 6.02340069966774E-03 
1971	 6.19344250990231E-03 
1972	 3.68402178702794E-03 
1973	 1.41579836648639E-04 
1974	 2.34821879372444E-03 
1975	 3.30131695224419E-04 
1976	-5.10082183857731E-03 
1977	-3.97342919974461E-03 
1978	-2.69557582755706E-03 
1979	-1.4847295392017E-03 
1980	 8.85796659959669E-04 
1981	 4.73690240600239E-03 
1982	 7.03907655576885E-03 
1983	 9.81100291425088E-03 
1984	 8.16474530538118E-03 
1985	 8.82303094245688E-03 
1986	 1.27769625117784E-02 
1987	 1.06585191251502E-02 
1988	 1.03950695901318E-02 
1989	 0.011969560569701 
1990	 9.20557493035224E-03 
1991	 6.74432903413492E-03 
1992	 6.70476260223694E-03 
1993	 6.56803889840935E-03 
1994	 6.71662380973341E-03 
1995	 7.26158607910252E-03 
1996	 7.24022515037077E-03 
1997	 1.06198250967603E-02 
1998	 1.98968490070162E-02 
1999	 2.47606480131727E-02 
2000	 0.030923165273497 
2001	 0.031360295522236 
2002	 1.45834446042231E-02 
2003	-1.24463860309788E-03 
2004	-1.47942018190038E-02 
2005	-2.07025000888673E-02 
2006	-1.28762040378352E-02 
2007	-1.51789551341276E-03 
2008	 7.73631774305503E-03 
2009	 1.25668177105484E-02 
2010	 1.02065151623558E-02 
2011	 1.31578282760408E-02 
2012	 1.79364319289213E-02 
2013	 1.74549104259131E-02 
2014	 1.61479938922545E-02 
2015	 0.014187141397646 
2016	 3.81572401021448E-03 
2017	-2.95073473437946E-03 
2018	 2.1582053973634E-04 
2019	 3.51904936552551E-03 
2020	 7.43540818847442E-03 
2021	 8.4823487139427E-03 
2022	 4.42430756740435E-03 
2023	 4.76402113561124E-03 
2024	 4.70949713260779E-03 
2025	 3.87962386721469E-03 
2026	 4.00790928701274E-03 
2027	 6.4586820576279E-03 
2028	 5.8533611680313E-03 
2029	 3.94737203283053E-03 
2030	 5.00684981118231E-03 
2031	 4.61309782741846E-03 
2032	 1.38444390852112E-03 
2033	 4.60652480362143E-04 
2034	 7.66857797637633E-04 
2035	-1.92995371556051E-04 
2036	-8.26957974716551E-04 
2037	-1.89191414924092E-03 
2038	-4.73982624593528E-03 
2039	-4.49442581627081E-03 
2040	-8.91645848731746E-04 
2041	 1.53202766468131E-03 
2042	 5.62416769761809E-03 
2043	 8.11597144010465E-03 
2044	 1.05934664934624E-02 
2045	 1.03657369037467E-02 
2046	 8.44407896091021E-03 
2047	 7.17085261470366E-03 
2048	 7.96478600697601E-03 
2049	 1.01900199956239E-02 
2050	 1.26693535113637E-02 
2051	 1.26766981819434E-02 
2052	 0.011218291191697 
2053	 6.59928841155796E-03 
2054	 3.14111467454837E-03 
2055	 4.84111619001253E-03 
2056	 4.17641833849733E-03 
2057	 0.001316356587742 
2058	 2.50061474213094E-03 
2059	 7.57431262480662E-03 
2060	 8.39707847718597E-03 
2061	 8.56234495921621E-03 
2062	 1.06255653990811E-02 
2063	 1.16032351857951E-02 
2064	 1.00635267957423E-02 
2065	 1.25271282149242E-02 
2066	 1.51877401005673E-02 
2067	 1.32205099703131E-02 
2068	 1.03656573891303E-02 
2069	 9.19052012986071E-03 
2070	 8.89983031617591E-03 
2071	 9.05538473863171E-03 
2072	 9.39765253402447E-03 
2073	 9.21208121862695E-03 
2074	 8.67729958398157E-03 
2075	 7.4383870895728E-03 
2076	 4.92651329138096E-03 
2077	 4.31596640891782E-03 
2078	 4.09624094455241E-03 
2079	 3.74944398742442E-03 
2080	 4.54200760157132E-03 
2081	 5.36006473822122E-03 
2082	 3.0994903672038E-03 
2083	 1.49017473540944E-03 
2084	 1.1950895092052E-03 
2085	 8.79486027486126E-04 
2086	 1.85519398511512E-03 
2087	 2.36989942883106E-03 
2088	 8.53964913211912E-04 
2089	 3.36130491407603E-04 
2090	 1.38429827763682E-03 
2091	 2.84146275926221E-03 
2092	 3.86828137502989E-03 
2093	 5.73383309679287E-03 
2094	 6.62123360737906E-03 
2095	 6.06092034622913E-03 
2096	 6.65473939803368E-03 
2097	 8.51251947357615E-03 
2098	 9.06188505116401E-03 
2099	 9.07330695112724E-03 
2100	 9.9065750275567E-03 
2101	 8.27182868038185E-03 
2102	 6.25852217000283E-03 
2103	 0.00656952207922 
2104	 5.61397966764626E-03 
2105	 5.26112682616314E-03 
2106	 6.5557744228559E-03 
2107	 7.55074222745693E-03 
2108	 8.83964173132883E-03 
2109	 9.52735827850666E-03 
2110	 8.64000857324713E-03 
2111	 6.92828289695712E-03 
2112	 5.49942921181228E-03 
2113	 4.92775823420692E-03 
2114	 5.90427253607791E-03 
2115	 5.95844125458724E-03 
2116	 5.64283661398805E-03 
2117	 5.92304488977535E-03 
2118	 5.59637301833405E-03 
2119	 6.08541321685161E-03 
2120	 8.26322588901142E-03 
2121	 9.0549230376564E-03 
2122	 8.47686703128447E-03 
2123	 1.04902078891597E-02 
2124	 1.02701916420609E-02 
2125	 8.34938943527939E-03 
2126	 6.24030200381872E-03 
2127	 3.67745210130152E-03 
2128	 4.25211323253089E-03 
2129	 5.12785697322727E-03 
2130	 5.28680825075648E-03 
2131	 8.21980378600016E-03 
2132	 9.26305740874697E-03 
2133	 8.96627671430502E-03 
2134	 9.29208740043251E-03 
2135	 1.02301672303007E-02 
2136	 1.09574378225123E-02 
2137	 1.12876473646587E-02 
2138	 1.12250661424057E-02 
2139	 1.28011037939211E-02 
2140	 0.011553589145953 
2141	 5.92435249160259E-03 
2142	 5.07101038049834E-03 
2143	 6.14727105624051E-03 
2144	 5.64691221892254E-03 
2145	 6.84094612954881E-03 
2146	 9.50402029795375E-03 
2147	 8.50795943857964E-03 
2148	 6.80727287844703E-03 
2149	 7.28699076429098E-03 
2150	 5.31456391496412E-03 
2151	 6.2138635824245E-03 
2152	 9.47121349798648E-03 
2153	 7.73429461830986E-03 
2154	 8.26859488381466E-03 
2155	 8.74975739229384E-03 
2156	 3.74243929599724E-03 
2157	 2.45234301973006E-03 
2158	 3.75016240445517E-03 
2159	 4.56195175101796E-03 
2160	 6.59199915106848E-03 
2161	 6.09861167313855E-03 
2162	 4.3664386058055E-03 
2163	 4.65638630573939E-03 
2164	 3.92796677238061E-03 
2165	 4.27399164478759E-03 
2166	 7.81328926171784E-03 
2167	 7.92414782802566E-03 
2168	 5.10030749014783E-03 
2169	 4.35102803186429E-03 
2170	 3.44701565988455E-03 
2171	 3.50070319188941E-03 
2172	 5.68406781236678E-03 
2173	 6.19623400682665E-03 
2174	 5.92060124170675E-03 
2175	 6.27605401706484E-03 
2176	 4.7914786158677E-03 
2177	 3.36711499026284E-03 
2178	 2.46726199971293E-03 
2179	 2.12809445944316E-03 
2180	 3.13602042679907E-03 
2181	 2.35660357897506E-03 
2182	 1.91256178180217E-03 
2183	 5.6036415067465E-03 
2184	 8.17709238886023E-03 
2185	 7.67261133543752E-03 
2186	 8.93538685112192E-03 
2187	 9.68494233188517E-03 
2188	 1.08395399603086E-02 
2189	 1.47444444446597E-02 
2190	 1.60266205662395E-02 
2191	 1.57968423792762E-02 
2192	 1.54642763874787E-02 
2193	 1.13188446500883E-02 
2194	 1.00796065657262E-02 
2195	 1.18273291297459E-02 
2196	 1.19884671855885E-02 
2197	 1.24694134086818E-02 
2198	 1.31709172644001E-02 
2199	 1.41220660224826E-02 
2200	 1.30400025522375E-02 
2201	 1.15036338574616E-02 
2202	 1.19878764544981E-02 
2203	 0.012144344429315 
2204	 1.09799162699174E-02 
2205	 8.77363030292402E-03 
2206	 5.74448193811518E-03 
2207	 2.65977227493691E-03 
2208	 1.98611370502515E-03 
2209	 3.61109477751107E-03 
2210	 7.47368121902483E-04 
2211	-1.20338003360725E-03 
2212	 8.63364671667189E-05 
2213	 6.51708485971263E-04 
2214	 4.42532816485377E-03 
2215	 1.04311139636949E-02 
2216	 1.05504508117912E-02 
2217	 0.010183576921442 
2218	 9.24025438838871E-03 
2219	 6.65023950168998E-03 
2220	-9.56640473928151E-04 
2221	-2.29043064224589E-03 
2222	-0.002484744068794 
2223	-3.40768001313546E-03 
2224	-1.04830178975881E-04 
2225	 8.32011045902653E-04 
2226	-7.17760280066936E-04 
2227	-8.23875733490923E-04 
2228	 7.4141648666994E-05 
2229	 6.14198254780837E-04 
2230	-8.3452786015841E-05 
2231	-2.79550946594052E-04 
2232	 1.38612262855594E-03 
2233	 8.4009503221374E-04 
2234	-2.25353000400836E-03 
2235	-1.04225033926572E-03 
2236	-2.99680214783179E-03 
2237	-4.27508448058989E-03 
2238	-4.43523537870013E-03 
2239	-6.18129193970106E-03 
2240	-6.11223957998193E-03 
2241	-5.43811516242606E-03 
2242	-4.5901762149932E-03 
2243	-2.72607900744929E-03 
2244	-1.71307427183878E-03 
2245	 8.38142768411384E-04 
2246	 4.54114188841706E-03 
2247	 5.89647677348549E-03 
2248	 7.09868207127461E-03 
2249	 7.78538464700521E-03 
2250	 5.33058842826493E-03 
2251	 4.7849654148283E-03 
2252	 0.007005224677212 
2253	 6.65118799416262E-03 
2254	 7.8548409197805E-03 
2255	 1.00263547995964E-02 
2256	 1.14131789897945E-02 
2257	 1.40730587226258E-02 
2258	 1.36210133273537E-02 
2259	 8.51607719519199E-03 
2260	 6.6576351910606E-03 
2261	 3.25634363222943E-03 
2262	 1.0463679228432E-03 
2263	 2.57662094781087E-03 
2264	 3.70615126644037E-03 
2265	 3.01314731867424E-03 
2266	 4.02811915395308E-03 
2267	 6.8253177313529E-03 
2268	 8.31895757170914E-03 
2269	 1.14327589368075E-02 
2270	 1.11963562678908E-02 
2271	 7.47512134578591E-03 
2272	 7.13905294682212E-03 
2273	 6.96074066783301E-03 
2274	 5.17064937611699E-03 
2275	 3.93681976901231E-03 
2276	 6.22195367895492E-03 
2277	 8.19486852520154E-03 
2278	 8.27386964642807E-03 
2279	 1.42950298511606E-02 
2280	 1.44864883583343E-02 
2281	 6.33183457557285E-03 
2282	 3.80376150692296E-03 
2283	 8.53927534879926E-03 
2284	 4.79794591111409E-03 
2285	 1.16622008098385E-03 
2286	 1.06013032890484E-03 
2287	-4.84955859941845E-04 
2288	-5.76092800767042E-03 
2289	-6.77183796376962E-03 
2290	-6.86736127076977E-03 
2291	-1.36068165193424E-02 
2292	-1.56972889439272E-02 
2293	-1.07077696805621E-02 
2294	-3.39045208807245E-03 
2295	-1.90623014322946E-04 
2296	 6.2582607579412E-04 
2297	 1.02386601417077E-03 
2298	-7.14057722295194E-03 
2299	-0.011919911650115 
2300	-7.95654545100839E-03 
2301	-7.53400125967393E-03 
2302	-3.05028630219182E-03 
2303	-1.80864145878429E-03 
2304	-5.37247610399238E-03 
2305	 1.34087205941629E-03 
2306	 2.75645680304026E-03 
2307	 3.7689308380958E-03 
2308	 1.43630648470724E-02 
2309	 9.31767205715671E-03 
2310	-5.89665896138977E-04 
2311	 3.90946524337771E-03 
2312	 1.53951324910786E-03 
2313	-2.4521157211493E-04 
2314	 1.03913152928723E-02 
2315	 5.69898846342422E-03 
2316	-6.27850752220266E-03 
2317	-1.02899490700232E-02 
2318	-2.08130856394008E-02 
2319	-2.64522577485665E-02 
2320	-0.017326162482756 
2321	-5.03036370332565E-03 
2322	-4.89209541497232E-03 
2323	-9.02857399023588E-03 
2324	-3.76808158717512E-03 
2325	-5.00422543109495E-03 
2326	-8.40415995337084E-03 
2327	 8.6103641294237E-04 
2328	-1.17528934301686E-03 
2329	-1.28606045366544E-02 
2330	-1.26014785176617E-02 
2331	-1.49821703018782E-02 
2332	-1.60668759942654E-02 
2333	-6.40799218199672E-03 
2334	 2.87442017474202E-03 
2335	 9.72901490738643E-03 
2336	 0.020457335000204 
2337	 3.11866872817559E-02 
2338	 3.85781575071243E-02 
2339	 3.77884462987161E-02 
2340	 2.52299845112864E-02 
2341	 2.47953932873655E-02 
2342	 3.12585233741415E-02 
2343	 2.77022316113893E-02 
2344	 2.07228050376197E-02 
2345	 3.81680870699831E-03 
2346	-1.54320335315416E-02 
2347	-2.02403417417935E-02 
2348	-6.06485808399336E-03 
2349	 3.83646830139881E-03 
2350	-2.32813547783128E-03 
2351	 1.21231977528659E-02 
2352	 1.56324855464338E-02 
2353	 1.60347760525099E-03 
2354	 2.15311126606079E-02 
2355	 3.27224784653564E-02 
2356	 2.33871783017593E-02 
2357	 3.51724461624877E-02 
2358	 0.031761679954846 
2359	 1.83058298800936E-02 
2360	 3.06595637650663E-02 
2361	 3.52789032962538E-02 
2362	 3.68323802285372E-02 
2363	 0.028442057909835 
2364	-3.0329615823152E-03 
2365	-6.07319419348418E-03 
2366	-1.18374548369126E-02 
2367	-1.93588006055577E-02 
2368	 1.18444261741854E-02 
2369	 0.013478237369003 
2370	 6.19643828799473E-03 
2371	 4.25364539300881E-02 
2372	 4.01243333911112E-02 
2373	-7.25555163600785E-04 
2374	-2.90701254549908E-02 
2375	-5.33796817652985E-02 
2376	-3.84629058485575E-02 
2377	-3.09921532048732E-02 
2378	-0.048426505588729 
2379	-5.97343079099822E-02 
2380	-9.52475841201209E-02 
2381	-9.17006615895904E-02 
2382	-2.28958652731083E-02 
2383	 4.07380252373608E-03 
2384	-7.58893030912038E-02 
2385	-0.113027831603749 
2386	-9.97783867440808E-02 
2387	-0.11944330816143 
2388	-5.64132062742113E-02 
2389	-0.049603807686438 
2390	-0.141726978799064 
2391	-0.187934243973059 
2392	-0.213137482324938 
2393	-0.196376452569454 
2394	-0.108627021114639 
2395	-4.97842151058518E-02 
2396	-0.086369846948813 
2397	-0.112499079587615 
2398	-7.66583600590338E-02 
2399	-8.34150046225898E-02 
2400	-0.044045031236775 
2401	 2.03516284425432E-02 
2402	-2.70878761067526E-02 
2403	-2.33818340846334E-02 
2404	 1.52616965597451E-02 
2405	-0.01651309278104 
2406	-7.72841956249156E-02 
2407	-8.08198702977364E-02 
2408	-0.147890761721542 
2409	-0.309828265457435 
2410	-0.214787275602676 
2411	-0.220740723636377 
2412	-7.20595068916529E-02 
2413	 0.28795541056576 
2414	 0.261993844210127 
2415	 0.237291355785981 
2416	 3.21039908447007E-02 
2417	-0.21007326948591 
2418	-0.28683358558996 
2419	-0.277666304549172 
2420	-0.145720617537993 
2421	-5.97866971628149E-02 
2422	 4.52484975051245E-02 
2423	 0.130027538898206 
2424	-3.31871768751529E-03 
2425	-3.14023922408791E-02 
2426	 5.97683440644888E-02 
2427	-2.32224849448593E-02 
2428	-5.85022380789081E-02 
2429	-0.112802610158193 
2430	-0.136143858508941 
2431	-0.142171062326184 
2432	-0.138298539230483 
2433	-0.13944979399254 
2434	-0.195159733512229 
2435	-0.238996704464361 
2436	-0.115888804900925 
2437	-4.25632565200106E-02 
2438	-0.167297540969746 
2439	-3.10872694200659E-02 
2440	-8.50968190129462E-03 
2441	-0.307204769377294 
2442	-9.92550561779698E-02 
2443	-8.26874637305789E-02 
2444	-0.405302646779368 
2445	-0.488645481478762 
2446	-0.384562443055849 
2447	-0.611640067483047 
2448	-0.571923961793298 
2449	 0.154727539069083 
2450	 0.288220976400197 
2451	 1.29751299434163 
2452	 6.73462425509318 
2453	-1.48762878459086 
2454	-1.80107120641737 
2455	-1.75545275269855 
2456	-0.925811744067203 
2457	 2.1903911680098 
2458	-0.82214704544443 
2459	-2.87758286394876 
2460	 13.023335426009 
2461	-21.4869713602638 
2462	-9.94805118312744 
2463	-1.90253194191696 
2464	-0.446560606858719 
2465	 0.169828010802305 
2466	 8.52181900971108E-02 
2467	-2.26926603047086 
2468	 24.0239334810681 
2469	 4.3982831101539 
2470	 5.12993232003384 
2471	 1.29059135118434 
2472	-2.14444694538349 
2473	 0.74040839581129 
2474	-0.108825393951415 
2475	-1.03303801817289 
2476	-0.26051887675156 
2477	 0.927200875101518 
2478	-3.33364949830081 
2479	-0.825327345426921 
2480	-0.53749542590083 
2481	-0.473083468918085 
2482	-1.14768432965594 
2483	 3.45662605620738 
2484	 1.77670612400741 
2485	 2.53859827962003 
2486	 0.969299381496725 
2487	-0.444259718994956 
2488	-4.15452778918082 
2489	-4.29384165523235 
2490	-26.1985997837931 
2491	 1.54353963804662 
2492	 0.890602035564306 
2493	 0.206455559846299 
2494	-0.136616747909592 
2495	-0.691582261658223 
2496	-1.22066346388002 
2497	-1.63360917062381 
2498	 4.22898878542987 
2499	 1.34538117799557 
2500	 0.251134725850979 
