Wavelength	rt0714far00003.asd
350	 2.46473844615034E-02 
351	 2.39117721605591E-02 
352	 2.33143112871027E-02 
353	 0.023758382435875 
354	 2.49388384188896E-02 
355	 2.43150463608904E-02 
356	 2.35552854766172E-02 
357	 0.023747496419125 
358	 2.51275431010257E-02 
359	 2.54295027861081E-02 
360	 2.51425579062885E-02 
361	 2.46302597739407E-02 
362	 2.41558523158519E-02 
363	 2.45156802733789E-02 
364	 2.50804253854823E-02 
365	 2.53252109549724E-02 
366	 2.51673498060782E-02 
367	 2.50375753250289E-02 
368	 2.51276254032415E-02 
369	 2.54840941116171E-02 
370	 2.60108404563213E-02 
371	 2.61457174440905E-02 
372	 2.60328252323362E-02 
373	 2.62124306290316E-02 
374	 2.65641421170228E-02 
375	 0.026980040458982 
376	 0.027296114057835 
377	 2.72982793978204E-02 
378	 2.73685945979894E-02 
379	 2.74880550218793E-02 
380	 2.76553764728615E-02 
381	 0.028279595322492 
382	 2.86785066520729E-02 
383	 0.029057651381988 
384	 2.98643625725849E-02 
385	 3.00214899104965E-02 
386	 2.97372897912246E-02 
387	 2.96203875499098E-02 
388	 3.05012378523795E-02 
389	 3.13272353049252E-02 
390	 3.14141045518397E-02 
391	 3.08982883968358E-02 
392	 3.15897998608747E-02 
393	 3.21157475655451E-02 
394	 3.22375573066869E-02 
395	 3.22218905698547E-02 
396	 3.24081236917693E-02 
397	 3.29263745166044E-02 
398	 3.33901710758963E-02 
399	 0.033084455658156 
400	 3.30359615221727E-02 
401	 3.32198844203054E-02 
402	 3.35081214548834E-02 
403	 3.40101905845532E-02 
404	 3.42336180288139E-02 
405	 3.42246061641951E-02 
406	 3.42679274242879E-02 
407	 3.46696312694817E-02 
408	 3.49962389272219E-02 
409	 3.51818533347075E-02 
410	 3.55410308614673E-02 
411	 3.55964376351273E-02 
412	 3.57102327755184E-02 
413	 0.036123805571115 
414	 3.64217905473339E-02 
415	 3.69497707778613E-02 
416	 3.74507480711243E-02 
417	 0.037532967270045 
418	 3.74962406186403E-02 
419	 3.78403184565809E-02 
420	 3.84806800273984E-02 
421	 3.87267571106626E-02 
422	 0.038921495784611 
423	 3.92144673978304E-02 
424	 3.96621324819921E-02 
425	 4.02086296203479E-02 
426	 4.04676003721394E-02 
427	 4.07280555485922E-02 
428	 4.14596775355666E-02 
429	 4.18381372303165E-02 
430	 4.22277469771646E-02 
431	 4.28105881870277E-02 
432	 4.34261499510395E-02 
433	 0.043717787692398 
434	 4.39645397558873E-02 
435	 4.44451560933674E-02 
436	 4.50004576321923E-02 
437	 4.55413785049912E-02 
438	 4.60078310208107E-02 
439	 4.63925346651235E-02 
440	 4.69582668402457E-02 
441	 4.75029953678075E-02 
442	 0.047918942034881 
443	 4.83079118029319E-02 
444	 4.88082441403979E-02 
445	 4.92123205177451E-02 
446	 4.93928317019292E-02 
447	 4.99204408855821E-02 
448	 5.04671393325637E-02 
449	 5.08904442680753E-02 
450	 5.12098521565208E-02 
451	 5.14204010661289E-02 
452	 5.18455990435547E-02 
453	 5.24788502535008E-02 
454	 5.25303384576304E-02 
455	 5.28155336543343E-02 
456	 5.32788495735824E-02 
457	 5.35974312871636E-02 
458	 5.38388993542005E-02 
459	 5.41039989070521E-02 
460	 5.44632401287592E-02 
461	 5.49340725691402E-02 
462	 5.51620155823723E-02 
463	 5.52600637888616E-02 
464	 5.54367278087327E-02 
465	 5.58966120987115E-02 
466	 0.056246824915845 
467	 5.64851282012634E-02 
468	 5.68030694788703E-02 
469	 0.057233356656823 
470	 5.74582023080028E-02 
471	 5.75316568617205E-02 
472	 5.80350760819564E-02 
473	 5.83380649604313E-02 
474	 0.058608901528025 
475	 5.90629057759888E-02 
476	 5.92997819038803E-02 
477	 5.95948632270394E-02 
478	 5.99870220275049E-02 
479	 6.03519438219846E-02 
480	 6.07269703038411E-02 
481	 6.10436473115051E-02 
482	 6.13359126700379E-02 
483	 6.18862777818755E-02 
484	 6.22503569376969E-02 
485	 6.25496062542832E-02 
486	 6.30404482161909E-02 
487	 6.34611589387615E-02 
488	 6.38998256217045E-02 
489	 0.064363400654226 
490	 6.47753615711596E-02 
491	 6.53826350610509E-02 
492	 6.59380072173629E-02 
493	 6.62803200099332E-02 
494	 6.67491496560188E-02 
495	 6.72398145092902E-02 
496	 6.77600376024994E-02 
497	 6.83546830367324E-02 
498	 6.89189238309509E-02 
499	 6.94561705263401E-02 
500	 6.99748192744158E-02 
501	 7.04675312414919E-02 
502	 7.11216574345087E-02 
503	 7.17510962783128E-02 
504	 7.21945361780509E-02 
505	 7.28600310137892E-02 
506	 0.073361709549441 
507	 7.37836829255699E-02 
508	 7.45475570708393E-02 
509	 7.50373499860515E-02 
510	 7.55940112108218E-02 
511	 7.63658696661018E-02 
512	 7.66531053231122E-02 
513	 7.71553730330872E-02 
514	 7.78956006111011E-02 
515	 0.078605097447013 
516	 7.92592832854934E-02 
517	 7.99604267825967E-02 
518	 8.07040695066617E-02 
519	 8.13437420170377E-02 
520	 8.20065543768296E-02 
521	 8.25871259313818E-02 
522	 8.30563872226374E-02 
523	 0.083825647854812 
524	 8.45357036991264E-02 
525	 8.51666345282043E-02 
526	 8.59293998782926E-02 
527	 8.66340850462195E-02 
528	 8.73675365521994E-02 
529	 0.088150716314121 
530	 8.87894986792208E-02 
531	 8.95303414954404E-02 
532	 9.02783252878951E-02 
533	 9.08727585834204E-02 
534	 9.15895198750051E-02 
535	 9.22694084080054E-02 
536	 0.092902508296617 
537	 9.36708738812589E-02 
538	 9.44954565076963E-02 
539	 9.52523724991567E-02 
540	 9.58986950595501E-02 
541	 9.66838972071757E-02 
542	 9.75070670567797E-02 
543	 9.82759897683165E-02 
544	 9.89300269549228E-02 
545	 9.96152227281535E-02 
546	 0.100346036343719 
547	 0.101086806051357 
548	 0.101747405150858 
549	 0.102347463915856 
550	 0.103034824893573 
551	 0.103920995627722 
552	 0.104642863580472 
553	 0.105269508003313 
554	 0.105894180655129 
555	 0.106598927582386 
556	 0.107222638612912 
557	 0.107942056319244 
558	 0.108834997692479 
559	 0.109440119697008 
560	 0.109899716815812 
561	 0.110380901682697 
562	 0.111035334815746 
563	 0.111627783055383 
564	 0.112130675796606 
565	 0.112605479532761 
566	 0.113242098756426 
567	 0.11378736867249 
568	 0.114254591706011 
569	 0.114728429042502 
570	 0.115090610738984 
571	 0.11551698972215 
572	 0.115957368565963 
573	 0.116117681673818 
574	 0.116615311770791 
575	 0.117095962242798 
576	 0.117246528126178 
577	 0.117668451838624 
578	 0.1179535020205 
579	 0.118075859247146 
580	 0.118246231365093 
581	 0.11848626144479 
582	 0.118643123065239 
583	 0.11871347223112 
584	 0.119032743298395 
585	 0.119035384160594 
586	 0.118994058348454 
587	 0.119319288882624 
588	 0.119280920649185 
589	 0.119276698025834 
590	 0.119368981149643 
591	 0.119207200831785 
592	 0.119085704061302 
593	 0.118993247022593 
594	 0.118847768133101 
595	 0.118557048521668 
596	 0.118097020884596 
597	 0.117513682279885 
598	 0.116927861499818 
599	 0.116680886083617 
600	 0.116411848500176 
601	 0.116002733683341 
602	 0.11591348415776 
603	 0.115793733061672 
604	 0.115709942140254 
605	 0.115780264847786 
606	 0.11566452542655 
607	 0.1156888620757 
608	 0.115878173213023 
609	 0.115923011607936 
610	 0.115975582926986 
611	 0.116094930853446 
612	 0.116273338871698 
613	 0.116371292141798 
614	 0.116356556165088 
615	 0.116378511253774 
616	 0.116625208025679 
617	 0.11661280233069 
618	 0.116626848287348 
619	 0.116792428285956 
620	 0.116835515168345 
621	 0.117017603267582 
622	 0.11719724578225 
623	 0.117169535426129 
624	 0.117051982332265 
625	 0.11719911799466 
626	 0.117542049105833 
627	 0.117616085768193 
628	 0.117527315639402 
629	 0.117462118189921 
630	 0.117556742913902 
631	 0.11780370463226 
632	 0.117802186452871 
633	 0.117672666763518 
634	 0.117750471506579 
635	 0.117818669958623 
636	 0.117867125737024 
637	 0.117932998195186 
638	 0.118102016862689 
639	 0.11801384238631 
640	 0.117956446592998 
641	 0.118184828578544 
642	 0.117992731367634 
643	 0.117810894554868 
644	 0.117796623533731 
645	 0.1178516646975 
646	 0.117731737791586 
647	 0.117691773930173 
648	 0.117844359179349 
649	 0.117776069274836 
650	 0.11746998456992 
651	 0.117133291449099 
652	 0.11698867239567 
653	 0.116592202502208 
654	 0.116169705390046 
655	 0.115795169131864 
656	 0.115321776306282 
657	 0.114835012956213 
658	 0.114431101756825 
659	 0.114087281456045 
660	 0.113421962473448 
661	 0.113081280667135 
662	 0.113010404075091 
663	 0.112738511616939 
664	 0.112402699944193 
665	 0.11226097026982 
666	 0.112305570090033 
667	 0.112021779342853 
668	 0.111877278680336 
669	 0.111843047224347 
670	 0.11178350458384 
671	 0.111894260811223 
672	 0.111983840935108 
673	 0.111987158019072 
674	 0.111979384468942 
675	 0.112059335656687 
676	 0.112231332712748 
677	 0.112450531465784 
678	 0.112607656753094 
679	 0.112769877366358 
680	 0.112987652609116 
681	 0.113275606820549 
682	 0.113436245017524 
683	 0.11371724258717 
684	 0.114114547758797 
685	 0.114263379749415 
686	 0.114414322856315 
687	 0.114562638496313 
688	 0.114656866319135 
689	 0.114788151341933 
690	 0.114697469715808 
691	 0.114528477479247 
692	 0.114611267933276 
693	 0.114459788012891 
694	 0.114296227480116 
695	 0.114185614935494 
696	 0.113759137180117 
697	 0.113446714984732 
698	 0.113058596147702 
699	 0.112367061163417 
700	 0.111834701723572 
701	 0.111228416539223 
702	 0.110592012042352 
703	 0.110149393327101 
704	 0.109398736543164 
705	 0.108508039475195 
706	 0.107641075424978 
707	 0.106651399706178 
708	 0.105711326940826 
709	 0.104678671325957 
710	 0.103373601716379 
711	 0.102128110641208 
712	 0.100636740040041 
713	 9.90105670432664E-02 
714	 9.77701010049733E-02 
715	 9.62213922232884E-02 
716	 9.44681821555854E-02 
717	 9.28441962345078E-02 
718	 9.10856177150223E-02 
719	 8.91704891503426E-02 
720	 8.73393943916777E-02 
721	 8.55385780238365E-02 
722	 8.40344060753638E-02 
723	 0.082292314626611 
724	 8.02567925342863E-02 
725	 0.078123120539714 
726	 7.59124963001318E-02 
727	 7.38121595258238E-02 
728	 7.17910582252673E-02 
729	 0.0689592533024 
730	 6.62879496850136E-02 
731	 6.40141447617726E-02 
732	 6.18827803840456E-02 
733	 6.00446949498292E-02 
734	 5.82498357010508E-02 
735	 5.66454880034469E-02 
736	 5.58873902800066E-02 
737	 5.50188671055182E-02 
738	 0.054267966445268 
739	 5.39145162917181E-02 
740	 5.34096159998495E-02 
741	 5.32590928567668E-02 
742	 5.32685414786272E-02 
743	 0.052974067173024 
744	 5.30022084891519E-02 
745	 5.30281280432272E-02 
746	 0.052880808222204 
747	 5.27209215339855E-02 
748	 5.27589312120573E-02 
749	 5.28379787062672E-02 
750	 5.28002386364539E-02 
751	 5.28475358638103E-02 
752	 5.28187253480423E-02 
753	 5.27021549952406E-02 
754	 5.26003417264624E-02 
755	 5.27913725595236E-02 
756	 5.29127160793426E-02 
757	 5.28594213956414E-02 
758	 5.30082550300085E-02 
759	 0.053012906938037 
760	 5.31763789405783E-02 
761	 5.37408559802618E-02 
762	 5.37528469830995E-02 
763	 5.36905069419817E-02 
764	 0.053681711951152 
765	 5.37011238319354E-02 
766	 5.36780026040399E-02 
767	 5.38399272020132E-02 
768	 5.41003320397465E-02 
769	 5.40809891134389E-02 
770	 0.054258748236558 
771	 5.44950075066856E-02 
772	 0.054642561472575 
773	 5.48766230042653E-02 
774	 5.51452444807312E-02 
775	 5.54014910565098E-02 
776	 5.56410154101728E-02 
777	 5.61062571941406E-02 
778	 5.64828866556805E-02 
779	 5.67507839218269E-02 
780	 5.72077580709037E-02 
781	 5.75857723511607E-02 
782	 5.77993989716995E-02 
783	 5.79747642771205E-02 
784	 5.86602962393341E-02 
785	 5.91236931051854E-02 
786	 5.94268876832531E-02 
787	 5.98904028137976E-02 
788	 6.05516892373063E-02 
789	 0.061064068418298 
790	 6.14121504009521E-02 
791	 6.18703072133742E-02 
792	 6.24714420908281E-02 
793	 6.29722285116916E-02 
794	 6.33298665218959E-02 
795	 6.38774636469313E-02 
796	 6.44355150821204E-02 
797	 6.48106155076328E-02 
798	 6.50040324206318E-02 
799	 6.56217593908193E-02 
800	 6.61997382946523E-02 
801	 6.65502704553287E-02 
802	 6.66963718079852E-02 
803	 6.67670311356767E-02 
804	 6.70055204234655E-02 
805	 6.73590436023589E-02 
806	 6.74687008462179E-02 
807	 6.75297329930017E-02 
808	 6.74194791075737E-02 
809	 6.71583689864605E-02 
810	 6.73086715143282E-02 
811	 6.71439952525977E-02 
812	 6.67573457026593E-02 
813	 6.65072059578102E-02 
814	 6.60107812531268E-02 
815	 6.58161375519269E-02 
816	 6.55395466753752E-02 
817	 6.43088431360005E-02 
818	 6.38859844859137E-02 
819	 6.34559817365973E-02 
820	 6.24961560378951E-02 
821	 6.11755629963566E-02 
822	 6.01025436555871E-02 
823	 5.91350982089362E-02 
824	 5.78814161666584E-02 
825	 5.58016127374197E-02 
826	 5.36789074969103E-02 
827	 5.17082343245157E-02 
828	 4.99651944364408E-02 
829	 4.84131264803203E-02 
830	 4.68889028818942E-02 
831	 4.55668293318971E-02 
832	 4.47815756771779E-02 
833	 0.043502236450402 
834	 0.042388207878 
835	 4.17229175926841E-02 
836	 4.10543483556234E-02 
837	 4.07964433943182E-02 
838	 4.06078957311687E-02 
839	 4.01690956102983E-02 
840	 3.96140285624869E-02 
841	 3.91011452582433E-02 
842	 3.88032217641368E-02 
843	 3.87751402731379E-02 
844	 3.86194503202116E-02 
845	 3.83081755014658E-02 
846	 3.79518796654682E-02 
847	 3.77281301738986E-02 
848	 3.75623940089134E-02 
849	 3.74325613151951E-02 
850	 3.72375643144599E-02 
851	 3.67899121365493E-02 
852	 3.61835294057189E-02 
853	 3.59245782077632E-02 
854	 3.60607618774523E-02 
855	 3.55004234990323E-02 
856	 3.55403411779706E-02 
857	 0.035619472523158 
858	 0.035080515375759 
859	 3.48192387131032E-02 
860	 3.46380470676058E-02 
861	 3.44424553263148E-02 
862	 3.42143694817209E-02 
863	 3.41397045407875E-02 
864	 3.37859752001229E-02 
865	 3.33488008184707E-02 
866	 3.35005237835155E-02 
867	 3.32656950212014E-02 
868	 3.30580281023798E-02 
869	 3.30124883630686E-02 
870	 3.26676663582774E-02 
871	 3.18866287748748E-02 
872	 3.15217683356306E-02 
873	 3.18585998774781E-02 
874	 3.14753179723181E-02 
875	 0.03082140069741 
876	 3.03033661191894E-02 
877	 3.01642861231542E-02 
878	 0.030075807724011 
879	 2.97867310626224E-02 
880	 2.93430415241875E-02 
881	 2.90046407083965E-02 
882	 2.92922503978797E-02 
883	 2.86393121498973E-02 
884	 2.76783330447293E-02 
885	 0.02835468207347 
886	 2.82015871643547E-02 
887	 2.78924796949157E-02 
888	 2.76265089446815E-02 
889	 2.68053006965273E-02 
890	 2.73290747860152E-02 
891	 2.77096918664655E-02 
892	 2.69549880613783E-02 
893	 2.61786802380636E-02 
894	 2.61111077320641E-02 
895	 2.65926015889485E-02 
896	 2.69560219489762E-02 
897	 0.026186939034628 
898	 2.54289046468706E-02 
899	 2.53730741445821E-02 
900	 2.58904680446212E-02 
901	 0.025148817798555 
902	 2.48184217161065E-02 
903	 2.46546816942938E-02 
904	 2.39197026635156E-02 
905	 2.33815985779498E-02 
906	 2.33628475945362E-02 
907	 2.35073505425896E-02 
908	 2.31844735465235E-02 
909	 2.39340650169987E-02 
910	 2.34425253332535E-02 
911	 2.19226983923081E-02 
912	 2.19260568780361E-02 
913	 2.28682389493703E-02 
914	 2.26072069976802E-02 
915	 0.021199322076473 
916	 2.11178711800096E-02 
917	 0.02027623756891 
918	 1.96266971498721E-02 
919	 1.92222695866824E-02 
920	 1.75284287934595E-02 
921	 1.80467003044388E-02 
922	 1.91940510365252E-02 
923	 1.90779032252752E-02 
924	 0.017268442590294 
925	 1.77713439485791E-02 
926	 1.81141883154819E-02 
927	 1.59461111744737E-02 
928	 1.78071644818101E-02 
929	 0.01755524126148 
930	 1.64332653408891E-02 
931	 1.85333972734873E-02 
932	 1.57776708619056E-02 
933	 1.56336513086285E-02 
934	 1.76277288600273E-02 
935	 1.74183764171055E-02 
936	 1.80690245103909E-02 
937	 1.59169877688723E-02 
938	 1.43572683493654E-02 
939	 1.61522735737844E-02 
940	 1.37267586287133E-02 
941	 1.07309953605055E-02 
942	 9.94483348891858E-03 
943	 1.27224970439338E-02 
944	 1.52062052983164E-02 
945	 0.01548281750261 
946	 1.43317036399913E-02 
947	 1.31764151210482E-02 
948	 5.81367789241758E-03 
949	 6.21739107156683E-03 
950	 1.40837426161554E-02 
951	 1.85672148919002E-02 
952	 9.89251526578833E-03 
953	 8.36391422109773E-03 
954	 1.32414494928441E-02 
955	 1.01493160568251E-02 
956	 1.08004112287591E-02 
957	 1.26249465068876E-02 
958	 1.27072836853841E-02 
959	 9.79665271843445E-03 
960	 8.2144992394735E-03 
961	 9.71625928237287E-03 
962	 1.11019192128532E-02 
963	 7.94116218217023E-03 
964	 9.29731787184473E-03 
965	 1.03998930458474E-02 
966	 9.30529040862965E-03 
967	 7.50264871162932E-03 
968	 8.56951765479295E-03 
969	 8.44379065219567E-03 
970	 7.30383666248649E-03 
971	 9.03928512859465E-03 
972	 1.18753162337084E-02 
973	 1.16275784853768E-02 
974	 7.87657083862921E-03 
975	 4.83891801813172E-03 
976	 9.33702472558538E-03 
977	 1.20064387196913E-02 
978	 1.08632948205482E-02 
979	 1.14504735542284E-02 
980	 1.02333871119434E-02 
981	 1.02164290051179E-02 
982	 1.11342252677812E-02 
983	 1.00874767996688E-02 
984	 8.83071666091417E-03 
985	 8.7512750143691E-03 
986	 8.95599895091143E-03 
987	 7.91103077234525E-03 
988	 1.31462408909679E-02 
989	 1.33932059223966E-02 
990	 9.91307169630363E-03 
991	 0.012259667454332 
992	 9.95696679962861E-03 
993	 7.61808635049451E-03 
994	 6.76081406100886E-03 
995	 6.30358839998504E-03 
996	 9.75196130711417E-03 
997	 8.23984761304267E-03 
998	 5.79008725636726E-03 
999	 1.12528735669659E-02 
1000	 1.07805244893419E-02 
1001	 7.99891215147644E-03 
1002	 8.68586024642402E-03 
1003	 9.18855481160472E-03 
1004	 9.93166881397957E-03 
1005	 1.01107648777484E-02 
1006	 1.00542670368208E-02 
1007	 9.63486030663321E-03 
1008	 9.54371047290325E-03 
1009	 8.95710394481997E-03 
1010	 8.56350621020538E-03 
1011	 9.03770964148673E-03 
1012	 8.06578493488355E-03 
1013	 7.40667390721724E-03 
1014	 7.33923704716964E-03 
1015	 7.20955932578785E-03 
1016	 7.4322805475029E-03 
1017	 9.04541587194871E-03 
1018	 9.33244601122204E-03 
1019	 8.78790499254956E-03 
1020	 8.91133421987141E-03 
1021	 8.97791279965044E-03 
1022	 8.82995288345383E-03 
1023	 9.23124549207433E-03 
1024	 9.4238314195784E-03 
1025	 8.94838923087113E-03 
1026	 8.36180113426979E-03 
1027	 8.33717536717254E-03 
1028	 8.46860747702348E-03 
1029	 8.75233755329515E-03 
1030	 9.64811606876691E-03 
1031	 9.99293745280762E-03 
1032	 1.00879211881545E-02 
1033	 1.02068522331972E-02 
1034	 1.02881431717798E-02 
1035	 1.02351384526252E-02 
1036	 9.82153927457483E-03 
1037	 9.91950168433858E-03 
1038	 1.05409722072561E-02 
1039	 1.04033954327611E-02 
1040	 1.07419685005447E-02 
1041	 1.08271733000998E-02 
1042	 1.07425799343988E-02 
1043	 1.02757655668474E-02 
1044	 9.98200307146798E-03 
1045	 9.49730819902585E-03 
1046	 9.43318065898614E-03 
1047	 9.32401123153807E-03 
1048	 9.54279257474546E-03 
1049	 1.05883008034194E-02 
1050	 1.08889799340016E-02 
1051	 1.09861954537861E-02 
1052	 1.10152057423225E-02 
1053	 1.02719631310437E-02 
1054	 0.010223888799565 
1055	 1.05957978285287E-02 
1056	 1.09082671006256E-02 
1057	 1.13682269590397E-02 
1058	 1.24164207243971E-02 
1059	 1.25783516144984E-02 
1060	 1.23348250761042E-02 
1061	 1.22751256111484E-02 
1062	 1.17248232219681E-02 
1063	 1.17039076911388E-02 
1064	 0.01213638366563 
1065	 1.22459468609386E-02 
1066	 1.25379050653691E-02 
1067	 1.24767286044465E-02 
1068	 1.17338164691973E-02 
1069	 1.16599264825264E-02 
1070	 1.19153460171619E-02 
1071	 0.011951479339477 
1072	 1.21824306376803E-02 
1073	 1.26164052025499E-02 
1074	 1.26513779176144E-02 
1075	 1.21139127086839E-02 
1076	 1.23286012621318E-02 
1077	 1.30310833707443E-02 
1078	 1.31082618425702E-02 
1079	 1.33468457719042E-02 
1080	 1.31004824412422E-02 
1081	 1.19308803960875E-02 
1082	 1.15225334406668E-02 
1083	 1.13781152015304E-02 
1084	 1.12148524636962E-02 
1085	 0.011426601301672 
1086	 1.13474821168766E-02 
1087	 1.07880867762109E-02 
1088	 0.010627091760331 
1089	 1.04545296032115E-02 
1090	 1.09948055594091E-02 
1091	 1.07931087754857E-02 
1092	 1.05340043900753E-02 
1093	 1.05340169323265E-02 
1094	 0.010002138941534 
1095	 1.01199821849344E-02 
1096	 1.14052051632437E-02 
1097	 1.14985008911863E-02 
1098	 0.01080147421661 
1099	 1.07159898036939E-02 
1100	 1.03948544012531E-02 
1101	 1.02785413640231E-02 
1102	 1.08532975930785E-02 
1103	 1.10897446378636E-02 
1104	 1.13963187657156E-02 
1105	 0.010843455800417 
1106	 1.03069638879094E-02 
1107	 1.04668288133969E-02 
1108	 1.01880072379154E-02 
1109	 1.03249606290231E-02 
1110	 1.01446007095903E-02 
1111	 9.72253514076174E-03 
1112	 9.52403448910159E-03 
1113	 9.27414171106317E-03 
1114	 8.88930653800491E-03 
1115	 8.80515816473312E-03 
1116	 9.31774178102969E-03 
1117	 1.04311986686409E-02 
1118	 1.03033997422328E-02 
1119	 1.00480440093953E-02 
1120	 9.4497004802105E-03 
1121	 4.87189311325894E-03 
1122	 3.77047348469269E-03 
1123	 8.23257837939127E-03 
1124	 0.010021771567796 
1125	 9.22648179640028E-03 
1126	 1.17635496846909E-02 
1127	 1.27786411884095E-02 
1128	 1.14198045134557E-02 
1129	 1.15075355414603E-02 
1130	 1.37852855633802E-02 
1131	 1.30345461681276E-02 
1132	 1.10625099580995E-02 
1133	 9.87720635253917E-03 
1134	 7.90296821674052E-03 
1135	 7.58042516537291E-03 
1136	 6.63705888274378E-03 
1137	 7.02926616301195E-03 
1138	 9.78328545004508E-03 
1139	 1.10467829711416E-02 
1140	 8.29721116893828E-03 
1141	 8.1372108879177E-03 
1142	 7.31425572979498E-03 
1143	 6.11064175979615E-03 
1144	 8.65961286577078E-03 
1145	 9.74863462516147E-03 
1146	 8.01967205296781E-03 
1147	 7.45547416514469E-03 
1148	 7.2236273254903E-03 
1149	 6.34240869746623E-03 
1150	 6.41313184465573E-03 
1151	 8.11749708381949E-03 
1152	 7.76313296710046E-03 
1153	 6.49224560840532E-03 
1154	 6.75740163125089E-03 
1155	 7.46527120352248E-03 
1156	 6.74234829313886E-03 
1157	 7.22326552609276E-03 
1158	 6.62568982761565E-03 
1159	 4.78249244623322E-03 
1160	 5.33554892833938E-03 
1161	 6.50678815920157E-03 
1162	 6.80285868196486E-03 
1163	 7.86400824665075E-03 
1164	 7.72778588593172E-03 
1165	 6.1976665694027E-03 
1166	 5.87134840802041E-03 
1167	 6.15558533066467E-03 
1168	 6.19112561404388E-03 
1169	 6.28404610047617E-03 
1170	 6.55075944306871E-03 
1171	 6.58888212184349E-03 
1172	 5.87777758123662E-03 
1173	 5.79033160513596E-03 
1174	 6.16090227797537E-03 
1175	 6.33428697671791E-03 
1176	 5.99422037914103E-03 
1177	 6.28196657957852E-03 
1178	 6.75559956831886E-03 
1179	 6.44481876419005E-03 
1180	 6.0611579155924E-03 
1181	 6.23276536889335E-03 
1182	 6.34503353313479E-03 
1183	 6.5464125327766E-03 
1184	 7.38786301048724E-03 
1185	 7.69626690533722E-03 
1186	 6.95412191036396E-03 
1187	 6.65554777348498E-03 
1188	 6.40824013762716E-03 
1189	 5.93618548496852E-03 
1190	 6.30785604227428E-03 
1191	 6.45293570615188E-03 
1192	 6.32038784054409E-03 
1193	 5.85476297853612E-03 
1194	 6.10420289118739E-03 
1195	 6.47391798612382E-03 
1196	 6.5934349007192E-03 
1197	 6.96622702026422E-03 
1198	 7.00597764810565E-03 
1199	 6.57922386834677E-03 
1200	 6.44079813509552E-03 
1201	 6.66080325508388E-03 
1202	 7.0470196817807E-03 
1203	 7.2063063072913E-03 
1204	 6.79129868302464E-03 
1205	 6.49053933713868E-03 
1206	 6.6477106672269E-03 
1207	 6.59943197405414E-03 
1208	 6.45445446963578E-03 
1209	 6.48511656292384E-03 
1210	 6.38583077781097E-03 
1211	 5.98727728860495E-03 
1212	 6.19700330056797E-03 
1213	 6.9927749366304E-03 
1214	 7.0821286977983E-03 
1215	 6.71415437963434E-03 
1216	 6.52330056298356E-03 
1217	 6.87024196093471E-03 
1218	 6.5975085012856E-03 
1219	 6.56727527658619E-03 
1220	 7.09888107494011E-03 
1221	 6.76051301602206E-03 
1222	 6.09966676232647E-03 
1223	 6.38756919493639E-03 
1224	 7.00126721124488E-03 
1225	 7.02559836442034E-03 
1226	 6.91155431048492E-03 
1227	 6.9435299061105E-03 
1228	 6.62544092795319E-03 
1229	 6.37301585637153E-03 
1230	 6.92716537870561E-03 
1231	 7.22762692471801E-03 
1232	 6.60910684944013E-03 
1233	 6.42432962491655E-03 
1234	 6.37157629219579E-03 
1235	 6.24734275694487E-03 
1236	 6.16445776709582E-03 
1237	 6.29419746733113E-03 
1238	 6.64097941187106E-03 
1239	 6.46076083827908E-03 
1240	 6.27792388106107E-03 
1241	 6.64327588442653E-03 
1242	 6.51435719040804E-03 
1243	 5.79856430288597E-03 
1244	 5.88044792899386E-03 
1245	 5.95658311182504E-03 
1246	 5.9499854708623E-03 
1247	 6.46905323968247E-03 
1248	 6.33549182331219E-03 
1249	 5.81352741221079E-03 
1250	 6.03319912740171E-03 
1251	 6.42177593281126E-03 
1252	 6.51011776166024E-03 
1253	 6.76947503126058E-03 
1254	 6.70152709996355E-03 
1255	 6.01081108880062E-03 
1256	 5.96448492232876E-03 
1257	 6.90896123950574E-03 
1258	 7.0347054276421E-03 
1259	 6.74879257288511E-03 
1260	 6.84355072622225E-03 
1261	 6.78116104988851E-03 
1262	 6.53678235745528E-03 
1263	 6.15620371627487E-03 
1264	 6.58124174579307E-03 
1265	 6.26166805188869E-03 
1266	 5.94415389810803E-03 
1267	 6.43917912419435E-03 
1268	 6.65941550337894E-03 
1269	 6.62522762814022E-03 
1270	 6.78515485436195E-03 
1271	 6.60869015672405E-03 
1272	 6.07731338271543E-03 
1273	 6.02236845120457E-03 
1274	 6.35526181983641E-03 
1275	 6.55602922916742E-03 
1276	 6.45961560311488E-03 
1277	 5.90626410882184E-03 
1278	 5.46106042922666E-03 
1279	 5.72913219471348E-03 
1280	 6.19290995929963E-03 
1281	 6.32664071089196E-03 
1282	 6.7496788182979E-03 
1283	 6.85840649382258E-03 
1284	 6.36593678074783E-03 
1285	 6.22018761150306E-03 
1286	 6.30495024900288E-03 
1287	 6.40476098289671E-03 
1288	 6.58761956835193E-03 
1289	 6.48249906413446E-03 
1290	 6.27598413206108E-03 
1291	 6.18376104842065E-03 
1292	 5.91320304618686E-03 
1293	 5.96113427674855E-03 
1294	 6.30653384709161E-03 
1295	 6.4873342415272E-03 
1296	 6.49387114065319E-03 
1297	 6.48416426693131E-03 
1298	 6.62351008137605E-03 
1299	 6.61931270109894E-03 
1300	 6.8561803061481E-03 
1301	 7.12119389729862E-03 
1302	 6.93530493396809E-03 
1303	 6.83627520643675E-03 
1304	 6.3744971181694E-03 
1305	 5.94624086624829E-03 
1306	 5.93266086978982E-03 
1307	 6.39650403169799E-03 
1308	 6.4732862308932E-03 
1309	 6.62824662798209E-03 
1310	 6.56907545186851E-03 
1311	 6.11621462038295E-03 
1312	 6.07177684172371E-03 
1313	 6.32461115633745E-03 
1314	 6.58973847195175E-03 
1315	 7.17363959318942E-03 
1316	 7.25020886859555E-03 
1317	 7.02836070124036E-03 
1318	 6.78169362666659E-03 
1319	 6.06666718932596E-03 
1320	 5.66520519508734E-03 
1321	 5.42053307877432E-03 
1322	 4.94306333948969E-03 
1323	 5.56915094961436E-03 
1324	 6.65238860734301E-03 
1325	 6.32318427869357E-03 
1326	 6.93362175112308E-03 
1327	 7.40315682671556E-03 
1328	 5.99191306720202E-03 
1329	 6.23591791115046E-03 
1330	 7.4742627067127E-03 
1331	 6.96881191852272E-03 
1332	 6.74585167702764E-03 
1333	 6.61073421477855E-03 
1334	 6.02123738181951E-03 
1335	 6.14718880895438E-03 
1336	 7.49038523356494E-03 
1337	 7.70869330385706E-03 
1338	 7.35394302463933E-03 
1339	 7.32971082319459E-03 
1340	 7.17293980514678E-03 
1341	 6.56257374260484E-03 
1342	 5.27562162027217E-03 
1343	 5.16339430254108E-03 
1344	 5.30533902009577E-03 
1345	 5.72301954579434E-03 
1346	 1.00836773929225E-02 
1347	 1.12224102467358E-02 
1348	 6.71988282548409E-03 
1349	 4.04719331179893E-03 
1350	-6.22882483441264E-03 
1351	-1.03436934549372E-02 
1352	 9.2661423563012E-03 
1353	 2.51430311722088E-02 
1354	 5.67456727899997E-02 
1355	 9.35755707679165E-02 
1356	 0.13781058240953 
1357	 0.12391703342956 
1358	 0.114633949791953 
1359	 0.117751413538464 
1360	-2.21790651727501E-02 
1361	-0.190898239502082 
1362	-0.106340467993295 
1363	 0.153372518058827 
1364	 0.280117702051759 
1365	 0.180654828200382 
1366	-0.110166599485948 
1367	-0.659865254320484 
1368	-0.660749812297536 
1369	-0.168078612877588 
1370	 2.06836053240936E-03 
1371	 0.351298896299774 
1372	 0.496425349346401 
1373	 0.634616278814168 
1374	 0.974737563232506 
1375	 1.30993222618461 
1376	 1.01780148277834 
1377	 1.04869301179209 
1378	 0.810349120336767 
1379	 9.8316242436888E-03 
1380	-7.88890765873875E-02 
1381	-5.48066450943408E-02 
1382	-0.199922684420734 
1383	-0.582092185665568 
1384	-0.238450773694568 
1385	 0.054269408506613 
1386	 0.178811970152031 
1387	 0.538568407449591 
1388	 0.545719562275843 
1389	 0.317038194598083 
1390	 0.21927415669697 
1391	-0.114997746979724 
1392	 0.226647644352953 
1393	 0.568086916476506 
1394	 0.395369093805855 
1395	 0.042650032688349 
1396	-0.142670197011049 
1397	-0.116424299114922 
1398	-0.193057250373057 
1399	 7.53869518346343E-02 
1400	 0.874362906788727 
1401	 0.545922658853577 
1402	 4.15385825031153 
1403	 0.88050116488 
1404	 0.530636222866897 
1405	 0.339854323450993 
1406	-2.45663984136324E-02 
1407	-8.09038072174817E-02 
1408	-0.210647347130745 
1409	-0.146962364099689 
1410	 0.313545572798947 
1411	 0.166506506152369 
1412	-0.247692763629105 
1413	-0.182959888832066 
1414	-7.99152251490891E-02 
1415	-7.63873091536374E-02 
1416	 0.093229742372927 
1417	 0.115505649572666 
1418	-2.36212022563641E-02 
1419	-4.60798897652609E-02 
1420	-9.20241285344665E-03 
1421	 4.02099047329759E-03 
1422	 4.83827226138665E-03 
1423	 4.87584550736987E-03 
1424	 5.46527514340956E-03 
1425	 1.47130953775061E-02 
1426	 3.29414003386242E-02 
1427	 2.73248993473524E-02 
1428	 1.64801127305979E-02 
1429	 1.44019229810325E-02 
1430	 1.05923543266811E-04 
1431	-7.75029253839933E-03 
1432	-2.58887367899675E-03 
1433	-1.57782330404931E-03 
1434	-1.22025610343125E-02 
1435	-1.37668448481154E-02 
1436	-2.90826136789084E-03 
1437	 2.79652660723498E-03 
1438	-5.89313172972156E-03 
1439	-2.24369941909591E-03 
1440	-1.13964183448656E-02 
1441	-2.24334166521796E-02 
1442	-1.04227106119395E-02 
1443	-5.13981041493167E-03 
1444	-1.95047807510456E-03 
1445	 8.76770493451151E-03 
1446	 1.29618039136363E-02 
1447	 0.010434976471736 
1448	 1.09919367417069E-02 
1449	 1.78971816798649E-02 
1450	 1.56733156041555E-02 
1451	 6.32215137802113E-03 
1452	 3.21735520412601E-03 
1453	 5.77197902592527E-04 
1454	-4.65760867939272E-04 
1455	 1.89624877454595E-03 
1456	 2.26570809634233E-03 
1457	 9.04527644886536E-04 
1458	 2.16005217939715E-03 
1459	 6.28363620652955E-03 
1460	 6.19010991076246E-03 
1461	 4.1057961991815E-03 
1462	 4.83390570107661E-03 
1463	 5.08195159220947E-03 
1464	 5.11355672496744E-03 
1465	 7.6936816424832E-03 
1466	 8.85020197390484E-03 
1467	 8.07313023383498E-03 
1468	 6.35810788747748E-03 
1469	 3.60895894846561E-03 
1470	 3.71031730677535E-03 
1471	 2.75657857414624E-03 
1472	 3.0506995495568E-03 
1473	 8.39977375821356E-03 
1474	 0.009107851000805 
1475	 7.3692342682529E-03 
1476	 6.14132781609865E-03 
1477	 1.97596121487894E-03 
1478	 2.61898759963984E-03 
1479	 6.61524683922162E-03 
1480	 6.53791440972518E-03 
1481	 5.48607133970523E-03 
1482	 7.03697162478687E-03 
1483	 8.88738795982664E-03 
1484	 8.58286206894675E-03 
1485	 9.36995822548416E-03 
1486	 9.74953955753742E-03 
1487	 8.24583745883078E-03 
1488	 7.04619673111799E-03 
1489	 6.3348960351378E-03 
1490	 6.11163642893398E-03 
1491	 5.03913512002828E-03 
1492	 4.6864878830305E-03 
1493	 6.03169333506389E-03 
1494	 6.34459647834658E-03 
1495	 5.8097768446593E-03 
1496	 5.68626459947841E-03 
1497	 5.58496713685564E-03 
1498	 5.30943025298472E-03 
1499	 4.76892389307205E-03 
1500	 4.9979531636359E-03 
1501	 6.08146290753332E-03 
1502	 6.11963345501317E-03 
1503	 5.74858334905224E-03 
1504	 5.80576145993549E-03 
1505	 5.72132817708742E-03 
1506	 5.10302745347482E-03 
1507	 4.82344735588864E-03 
1508	 4.86595523646379E-03 
1509	 4.96763335819964E-03 
1510	 5.36745236001445E-03 
1511	 5.74822395380097E-03 
1512	 6.09281236098865E-03 
1513	 6.61385639187386E-03 
1514	 6.39200571036625E-03 
1515	 5.84564656527907E-03 
1516	 6.07142443755437E-03 
1517	 6.36726915110233E-03 
1518	 6.29757624532481E-03 
1519	 5.77530859357317E-03 
1520	 5.41379919564457E-03 
1521	 5.44219268288974E-03 
1522	 5.09851745212101E-03 
1523	 5.1878115519453E-03 
1524	 5.86496913218902E-03 
1525	 5.78193597286844E-03 
1526	 5.63275527296359E-03 
1527	 5.92551853834456E-03 
1528	 5.72554769472615E-03 
1529	 5.42208552054807E-03 
1530	 5.25949895266677E-03 
1531	 4.58248367168273E-03 
1532	 4.33140158063797E-03 
1533	 5.10377315721451E-03 
1534	 5.31458118660613E-03 
1535	 5.28755731364969E-03 
1536	 5.63257311308501E-03 
1537	 5.22441684110128E-03 
1538	 4.74255859401775E-03 
1539	 4.93805322040488E-03 
1540	 5.22171324574328E-03 
1541	 5.45978210285085E-03 
1542	 5.71794629245734E-03 
1543	 5.97474688964075E-03 
1544	 6.04165929713017E-03 
1545	 0.005761147581126 
1546	 5.2263870088505E-03 
1547	 4.46290391423087E-03 
1548	 4.11478266312913E-03 
1549	 4.65069979032475E-03 
1550	 4.8520759253424E-03 
1551	 4.61064826356691E-03 
1552	 4.90872939567205E-03 
1553	 4.91305192866914E-03 
1554	 4.74471411998723E-03 
1555	 5.13186907419648E-03 
1556	 5.26561256253835E-03 
1557	 5.31570596005476E-03 
1558	 5.49649043791302E-03 
1559	 5.28916100645513E-03 
1560	 5.30346574991993E-03 
1561	 5.60135322666526E-03 
1562	 5.59363959955783E-03 
1563	 5.82315286498651E-03 
1564	 6.09347004079188E-03 
1565	 6.0157849909763E-03 
1566	 6.44273622787317E-03 
1567	 6.82739660015221E-03 
1568	 6.23860596807853E-03 
1569	 5.79799023413496E-03 
1570	 5.62606855400807E-03 
1571	 5.37100081880309E-03 
1572	 5.67539211995823E-03 
1573	 5.83581110033015E-03 
1574	 5.60842966568103E-03 
1575	 5.0874031573954E-03 
1576	 4.52368188372453E-03 
1577	 4.87109245346856E-03 
1578	 0.005184746001242 
1579	 4.88268292231801E-03 
1580	 4.97949397386372E-03 
1581	 5.23053461289725E-03 
1582	 5.17514255860141E-03 
1583	 5.22282169564867E-03 
1584	 5.49163874229847E-03 
1585	 5.6906881856248E-03 
1586	 5.63343507820772E-03 
1587	 5.55263434062199E-03 
1588	 5.5213691752867E-03 
1589	 5.58320147827513E-03 
1590	 5.40290266588468E-03 
1591	 5.44779268954304E-03 
1592	 6.30724819023219E-03 
1593	 6.0973661706554E-03 
1594	 5.07689870346444E-03 
1595	 5.2082845702462E-03 
1596	 5.32393463716718E-03 
1597	 5.11928058732636E-03 
1598	 5.61800614547872E-03 
1599	 5.57565771010381E-03 
1600	 5.11039027368774E-03 
1601	 5.36607853495808E-03 
1602	 5.00479524114606E-03 
1603	 4.03757317236433E-03 
1604	 4.20834027357162E-03 
1605	 4.73910559624419E-03 
1606	 4.90429629606476E-03 
1607	 5.30803912962644E-03 
1608	 5.11467921290965E-03 
1609	 4.54258459522478E-03 
1610	 4.6668036722294E-03 
1611	 5.09392703385078E-03 
1612	 5.36304812827732E-03 
1613	 5.65235434101054E-03 
1614	 5.63648177457949E-03 
1615	 5.48387181977992E-03 
1616	 5.80782220256492E-03 
1617	 5.45487613645052E-03 
1618	 4.75271504859862E-03 
1619	 4.95868829691617E-03 
1620	 4.9815050994493E-03 
1621	 4.79825766681933E-03 
1622	 5.28581839858429E-03 
1623	 5.58627336195491E-03 
1624	 5.08710440275831E-03 
1625	 4.91193182604488E-03 
1626	 5.56564618797036E-03 
1627	 5.83772740289368E-03 
1628	 5.31781221250236E-03 
1629	 4.87667886440608E-03 
1630	 4.7731729454522E-03 
1631	 4.64448326487083E-03 
1632	 5.02311750584645E-03 
1633	 5.63253631804412E-03 
1634	 5.28889609187543E-03 
1635	 4.57545093733392E-03 
1636	 4.66901312852692E-03 
1637	 5.18996624360089E-03 
1638	 5.25088112235825E-03 
1639	 5.23841388045487E-03 
1640	 5.07052647150334E-03 
1641	 4.71256859667032E-03 
1642	 4.92845386077199E-03 
1643	 5.21958669677139E-03 
1644	 5.01443819818507E-03 
1645	 4.58641105482571E-03 
1646	 4.48612493058331E-03 
1647	 4.73869868797284E-03 
1648	 4.88898213030502E-03 
1649	 5.03942101820508E-03 
1650	 5.0348458979762E-03 
1651	 4.70713200457167E-03 
1652	 4.80659798549655E-03 
1653	 5.18156869742275E-03 
1654	 4.9766663144486E-03 
1655	 4.32730059529558E-03 
1656	 4.66762145038677E-03 
1657	 5.39974798811969E-03 
1658	 5.61814810236686E-03 
1659	 5.95321729597128E-03 
1660	 6.14664867741124E-03 
1661	 6.03448608475457E-03 
1662	 6.19999617467575E-03 
1663	 7.10776750281534E-03 
1664	 6.78534148090205E-03 
1665	 4.87385106631221E-03 
1666	 4.82272824015644E-03 
1667	 5.79787548368632E-03 
1668	 5.49183967957604E-03 
1669	 5.32673178223133E-03 
1670	 4.60691495773649E-03 
1671	 4.05187987603836E-03 
1672	 4.85495207389237E-03 
1673	 5.83928053517849E-03 
1674	 6.44242950728281E-03 
1675	 6.4971610374313E-03 
1676	 5.69333556090314E-03 
1677	 4.93226923476355E-03 
1678	 5.27306849405638E-03 
1679	 5.87164757592158E-03 
1680	 5.53361619008127E-03 
1681	 5.20662449313828E-03 
1682	 5.21407222922273E-03 
1683	 5.10708941780057E-03 
1684	 5.37043954372255E-03 
1685	 5.77854643772534E-03 
1686	 5.53105839881369E-03 
1687	 4.2920029452552E-03 
1688	 3.44397953383954E-03 
1689	 4.82489374334225E-03 
1690	 6.15639600666591E-03 
1691	 5.5446013563563E-03 
1692	 5.73134717084302E-03 
1693	 6.12686179011057E-03 
1694	 4.76741462412986E-03 
1695	 4.50935871111051E-03 
1696	 5.55590375648797E-03 
1697	 5.55047741946495E-03 
1698	 5.50082989827252E-03 
1699	 6.16653993866745E-03 
1700	 6.36254118635553E-03 
1701	 5.66302314148736E-03 
1702	 5.21298623773254E-03 
1703	 5.46186425759768E-03 
1704	 4.85883464192474E-03 
1705	 4.08752369349897E-03 
1706	 5.17797824848241E-03 
1707	 5.89788297899594E-03 
1708	 5.87884643759972E-03 
1709	 5.87931865596442E-03 
1710	 4.35222354624548E-03 
1711	 3.75944024118965E-03 
1712	 4.48994159164804E-03 
1713	 4.68996849003317E-03 
1714	 4.8564888482675E-03 
1715	 4.20228407120837E-03 
1716	 5.06156732675238E-03 
1717	 5.52555786011719E-03 
1718	 4.61227959450645E-03 
1719	 3.62820750899218E-03 
1720	 3.75124651382265E-03 
1721	 4.09135667039021E-03 
1722	 4.32368469595606E-03 
1723	 5.53849073110894E-03 
1724	 5.98553498289044E-03 
1725	 5.00935945601527E-03 
1726	 5.0636623546661E-03 
1727	 5.25018677154755E-03 
1728	 5.36926785015951E-03 
1729	 6.38766067292314E-03 
1730	 6.8456321516946E-03 
1731	 6.62127873621738E-03 
1732	 4.99444272511389E-03 
1733	 3.34151029965284E-03 
1734	 4.55209002660244E-03 
1735	 5.74138655775867E-03 
1736	 5.45669134236686E-03 
1737	 6.14206861289517E-03 
1738	 6.08356420187614E-03 
1739	 4.66844029081138E-03 
1740	 5.14987234709995E-03 
1741	 6.16520976182547E-03 
1742	 5.65751600245507E-03 
1743	 5.41154297261809E-03 
1744	 5.70620704742431E-03 
1745	 5.52839671899594E-03 
1746	 5.47526141764371E-03 
1747	 5.28951815561695E-03 
1748	 4.61829487935587E-03 
1749	 4.4182981496281E-03 
1750	 4.44837876048416E-03 
1751	 4.44448239777717E-03 
1752	 4.84625083286035E-03 
1753	 4.9251040442128E-03 
1754	 4.80873551872516E-03 
1755	 4.76588764720654E-03 
1756	 4.3089841494984E-03 
1757	 3.20566853212244E-03 
1758	 4.06200200987029E-03 
1759	 4.54755880386651E-03 
1760	 5.41141991128831E-03 
1761	 6.03677748331651E-03 
1762	 4.4548253863224E-03 
1763	 3.34371411765378E-03 
1764	 2.53370039452461E-03 
1765	 2.5379555983095E-03 
1766	 4.14179677846358E-03 
1767	 4.83800979045455E-03 
1768	 5.72533127381293E-03 
1769	 5.63558454907921E-03 
1770	 3.07370120055367E-03 
1771	 1.82062589077314E-03 
1772	 1.80733373812016E-03 
1773	 2.17597634744654E-03 
1774	 4.40353578651877E-03 
1775	 4.24364658322967E-03 
1776	 3.61425310059497E-03 
1777	 1.93814396816841E-03 
1778	 1.62339246887001E-03 
1779	 5.38533005490011E-04 
1780	 1.31836578635195E-03 
1781	 6.34135747823084E-03 
1782	 8.10522849796053E-03 
1783	 1.04858565483956E-02 
1784	 1.08072127751069E-02 
1785	 5.83965709997797E-03 
1786	 3.6235119398537E-03 
1787	-2.64614422579676E-04 
1788	-2.53078959230513E-04 
1789	 5.88627782078984E-03 
1790	 7.54351397252584E-03 
1791	 9.88010534342848E-03 
1792	 6.62648967712658E-03 
1793	-1.45465513832825E-03 
1794	-5.78091394642905E-04 
1795	-4.25913379073749E-03 
1796	-7.57389273711276E-03 
1797	 2.99985471690245E-03 
1798	 7.37280348436229E-03 
1799	 1.11904965163801E-02 
1800	 3.09119637887511E-03 
1801	 1.79189270286436E-03 
1802	-1.72495012964314E-03 
1803	 2.37018932337816E-03 
1804	 4.85213853737729E-02 
1805	 5.97901362051297E-02 
1806	 2.66433799427913E-02 
1807	 8.27954331479994E-03 
1808	-7.70865166576899E-02 
1809	-0.127200508402317 
1810	-5.63138497814857E-02 
1811	-6.03381362287165E-02 
1812	-7.99317687784836E-02 
1813	-8.72044446179422E-02 
1814	-0.177147184270102 
1815	-0.229468380716057 
1816	-0.174330322636404 
1817	-8.35954937584201E-02 
1818	 0.236493680540402 
1819	 0.261099946310769 
1820	 0.333231109359885 
1821	 0.771280682582353 
1822	 0.890128790136595 
1823	 0.989048197690848 
1824	 0.922038652398855 
1825	 0.455027384669224 
1826	 0.38999910860647 
1827	 0.474639830853302 
1828	 0.522783093698548 
1829	 0.760651170400612 
1830	 0.929499825403164 
1831	 0.246679822565392 
1832	 0.714786904949586 
1833	 6.32672485720695 
1834	 29.1502903263894 
1835	 3.7785730663524 
1836	 6.09583743770949 
1837	-3.56255849287867 
1838	-2.41219611083638 
1839	-4.16941837936861 
1840	-2.65594492301214 
1841	-5.04459682152362 
1842	 9.59533609413068 
1843	 1.10202773023664 
1844	 0.326361803485173 
1845	 0.324049583225531 
1846	 0.371172342175733 
1847	 0.403834080711902 
1848	 1.44169088848936 
1849	-2.84853044980889 
1850	-3.88458542444528 
1851	-11.1295937965862 
1852	-69.6790486139938 
1853	-30.5220707039619 
1854	-7.05578084737929 
1855	-1.38766338766789 
1856	-1.36146885086723 
1857	-2.3161147809031 
1858	-2.88765009112306 
1859	-7.31761417644001 
1860	 3.74942015018062 
1861	 1.58452173775145 
1862	 1.37313301872122 
1863	 1.1795312761522 
1864	 1.22632043997409 
1865	 1.00934352568758 
1866	-2.62147658088271 
1867	 3.13408175098062 
1868	 1.21545760772077 
1869	 0.351652778287498 
1870	-0.228180384996907 
1871	-1.06593873542689 
1872	-0.987746647554276 
1873	-0.632104978260445 
1874	-0.490228220868545 
1875	-0.616473481680223 
1876	-0.629406842488641 
1877	-0.560524467534628 
1878	-0.974232845808649 
1879	-9.19682226072795 
1880	 5.0077182858767 
1881	 1.82166357832241 
1882	 1.50111593987985 
1883	 2.53844738008065 
1884	 6.02239715940131 
1885	-3.83840013379908 
1886	-1.48743955299685 
1887	-1.01824037065715 
1888	-2.97613317917298 
1889	-2.06847802087188 
1890	-1.20166882916258 
1891	-2.48468543666528 
1892	-2.74406235473973 
1893	-11.6517743398786 
1894	 12.5780563383683 
1895	 11.0932119767515 
1896	 66.5939181729088 
1897	-3.76516890491356 
1898	-0.707233515155203 
1899	 0.286376702924797 
1900	 0.653981267563327 
1901	 0.80394815800274 
1902	 0.802047732045054 
1903	 0.465923791292109 
1904	-0.168119430893221 
1905	 2.41503266597758 
1906	 1.45184709292522 
1907	 2.72029864270577 
1908	 10.5580379759176 
1909	-2.37513861957271 
1910	-0.352808124837181 
1911	-0.84426184888795 
1912	-1.08999150956456 
1913	-1.00557545293331 
1914	-0.381220116003285 
1915	-0.805444704108955 
1916	 3.13703451170209 
1917	 0.403745796500246 
1918	 0.557266214778364 
1919	 0.647400082234053 
1920	 0.48065418943587 
1921	 0.114659934949604 
1922	 0.495788443341027 
1923	 0.417239288096432 
1924	-0.171115090857053 
1925	 0.874391471554246 
1926	 0.813340625575548 
1927	 0.326572179954193 
1928	 0.315134731783826 
1929	 1.04129473399309 
1930	 2.05785406497377E-02 
1931	 4.83477398124798E-02 
1932	 0.571400542754873 
1933	 3.04563947674961E-02 
1934	-0.224824743406662 
1935	-6.87550061897043E-02 
1936	-0.118125774318114 
1937	-0.114453939027301 
1938	 0.235571272578739 
1939	 0.288850077449797 
1940	 0.213365761555892 
1941	-0.031719884398977 
1942	 7.80196962327479E-02 
1943	 9.38627888721558E-02 
1944	 4.29504402748999E-02 
1945	 8.63833159338189E-02 
1946	 4.49082630407467E-02 
1947	-2.21668054306985E-02 
1948	-5.13270307538946E-04 
1949	-4.41474310110376E-03 
1950	-7.05151387436245E-03 
1951	 7.82494807542207E-02 
1952	 8.95284215627578E-02 
1953	 6.49989481077121E-02 
1954	 6.53060121710862E-02 
1955	 0.102862374033142 
1956	 6.95662492835416E-02 
1957	 8.46351979423782E-02 
1958	 9.86643283800587E-02 
1959	 7.19296227200426E-02 
1960	 4.15944183033336E-02 
1961	 5.47843303444912E-03 
1962	-1.31635863660067E-02 
1963	-1.28494047393105E-02 
1964	-9.97427330408445E-03 
1965	-6.51791350395498E-03 
1966	-1.96592383228167E-03 
1967	 5.41520218628708E-03 
1968	 5.62228965564171E-03 
1969	 4.36750493279889E-03 
1970	 5.72275466867211E-03 
1971	 7.95047532857911E-03 
1972	 8.14881936002853E-03 
1973	 6.53839724073775E-03 
1974	 1.48812201447298E-02 
1975	 1.77782243552692E-02 
1976	 1.01559160740291E-02 
1977	 1.35109709748496E-02 
1978	 1.44174072995968E-02 
1979	 1.40522256918619E-02 
1980	 1.13164327820115E-02 
1981	 0.019272510152312 
1982	 1.95798746040934E-02 
1983	 1.75864365545868E-02 
1984	 0.02223185356317 
1985	 2.18900042772942E-02 
1986	 1.93247616011972E-02 
1987	 1.84352630049731E-02 
1988	 1.41089621691361E-02 
1989	 9.66303436244834E-03 
1990	 9.19767618234465E-03 
1991	 8.55494970305971E-03 
1992	 7.05324198979807E-03 
1993	 7.29535872277391E-03 
1994	 6.78649602792876E-03 
1995	 6.20943133957498E-03 
1996	 6.00408829906534E-03 
1997	 9.45875336404558E-03 
1998	 1.15301765115309E-02 
1999	 1.18100345267057E-02 
2000	 1.33059204472623E-02 
2001	 1.00193488852968E-02 
2002	-8.42612211633905E-04 
2003	-1.09792110302964E-02 
2004	-1.19402712977444E-02 
2005	-6.5381309417917E-03 
2006	-1.78339749159273E-04 
2007	 6.34017158913596E-03 
2008	 1.12672396717204E-02 
2009	 1.71162619933276E-02 
2010	 1.74317433880564E-02 
2011	 2.08964866921243E-02 
2012	 0.03009398054715 
2013	 3.47774501006828E-02 
2014	 3.15790329531963E-02 
2015	 3.14394883931707E-02 
2016	 3.30193039221297E-02 
2017	 3.14472725132382E-02 
2018	 2.60686125496729E-02 
2019	 1.66385078450083E-02 
2020	 8.58953759451211E-03 
2021	 1.69114847306004E-03 
2022	 1.00728550017285E-03 
2023	 5.33631894585323E-03 
2024	 5.54219397125799E-03 
2025	 4.01888756627259E-03 
2026	 6.16308871381795E-03 
2027	 9.83551748338571E-03 
2028	 9.1868614155051E-03 
2029	 1.02124511426482E-02 
2030	 1.07316701101567E-02 
2031	 8.78233226174935E-03 
2032	 8.38163020954149E-03 
2033	 9.33894131125033E-03 
2034	 1.02993486973694E-02 
2035	 8.17138171955558E-03 
2036	 5.92338308273896E-03 
2037	 6.79382100519227E-03 
2038	 7.14175748888016E-03 
2039	 7.71641625915351E-03 
2040	 1.07903658614674E-02 
2041	 1.16054180536559E-02 
2042	 1.04931263535451E-02 
2043	 1.06068420947534E-02 
2044	 1.16862285387258E-02 
2045	 1.04348833112939E-02 
2046	 8.50335371329723E-03 
2047	 7.96903619619443E-03 
2048	 7.35227203100037E-03 
2049	 8.47332029871382E-03 
2050	 9.10329883763036E-03 
2051	 8.04368948566908E-03 
2052	 6.87553232520377E-03 
2053	 5.24159984493795E-03 
2054	 3.99514347320861E-03 
2055	 4.77682270666795E-03 
2056	 4.79614063785163E-03 
2057	 1.86603945495434E-03 
2058	 2.1432097240144E-03 
2059	 5.71670675844579E-03 
2060	 8.17154848983043E-03 
2061	 0.010921023686039 
2062	 1.50483771763828E-02 
2063	 1.71901251598834E-02 
2064	 1.56972261218778E-02 
2065	 1.27686657365127E-02 
2066	 1.05791889468283E-02 
2067	 1.05840279698202E-02 
2068	 9.28696568842578E-03 
2069	 6.24618220763681E-03 
2070	 5.05520711141646E-03 
2071	 3.77235126748573E-03 
2072	 5.06012627833157E-03 
2073	 5.96540575945408E-03 
2074	 8.90025876372564E-03 
2075	 9.36407478681973E-03 
2076	 8.63222549498713E-03 
2077	 7.80315854863527E-03 
2078	 5.31128279069115E-03 
2079	 5.90315134709418E-03 
2080	 8.49561779627792E-03 
2081	 9.50157702388059E-03 
2082	 9.20283195586697E-03 
2083	 1.02856981231188E-02 
2084	 9.89864242136518E-03 
2085	 8.6654903960632E-03 
2086	 9.16658658175514E-03 
2087	 7.46096614668145E-03 
2088	 6.12198386378478E-03 
2089	 6.20956101368278E-03 
2090	 3.95955244290461E-03 
2091	 4.44845532042736E-03 
2092	 4.90515266088971E-03 
2093	 4.66178759158399E-03 
2094	 4.95594855303975E-03 
2095	 6.87195440169328E-03 
2096	 7.00433401038209E-03 
2097	 6.10789405722861E-03 
2098	 5.67661658413743E-03 
2099	 4.30738997069795E-03 
2100	 5.60601592485347E-03 
2101	 5.22192858927664E-03 
2102	 4.62052568339545E-03 
2103	 5.40101945842163E-03 
2104	 3.64888071019293E-03 
2105	 3.44309217770184E-03 
2106	 4.54708857492397E-03 
2107	 0.003814400085433 
2108	 4.86782267564693E-03 
2109	 6.98985762690029E-03 
2110	 8.00488849794161E-03 
2111	 8.76264383450176E-03 
2112	 9.43891994751315E-03 
2113	 8.95574631116128E-03 
2114	 6.26924095070681E-03 
2115	 5.50100287968815E-03 
2116	 4.63859608626473E-03 
2117	 4.37509594665235E-03 
2118	 6.18869299872132E-03 
2119	 6.50588454101455E-03 
2120	 5.76718054794716E-03 
2121	 5.82759290345153E-03 
2122	 6.28490588132219E-03 
2123	 6.23862048558516E-03 
2124	 7.17522339905314E-03 
2125	 7.06152040372561E-03 
2126	 0.006545184376899 
2127	 6.21965815513583E-03 
2128	 6.59836427154103E-03 
2129	 6.81808157365247E-03 
2130	 6.29928408263153E-03 
2131	 7.35052063381075E-03 
2132	 5.69219327103502E-03 
2133	 4.62628904135326E-03 
2134	 4.51924890871989E-03 
2135	 3.8849340099641E-03 
2136	 4.00571141217028E-03 
2137	 6.83246098115956E-03 
2138	 7.46681464709057E-03 
2139	 8.05291992184929E-03 
2140	 7.40777749947858E-03 
2141	 2.83344899653356E-03 
2142	 2.36451411179109E-03 
2143	 3.27450662561592E-03 
2144	 5.11068009670312E-03 
2145	 6.61044183954845E-03 
2146	 7.51352476385254E-03 
2147	 5.3568989270789E-03 
2148	 3.19135369445398E-03 
2149	 3.93958533755775E-03 
2150	 5.4894195488327E-03 
2151	 7.60708585632634E-03 
2152	 8.68934288525082E-03 
2153	 7.57382141239435E-03 
2154	 5.83134028681441E-03 
2155	 4.06510395195595E-03 
2156	 3.17409410800147E-03 
2157	 3.73246768476986E-03 
2158	 7.76882610608446E-03 
2159	 8.68592799632617E-03 
2160	 8.60877009881156E-03 
2161	 8.30256586557709E-03 
2162	 5.72557645415998E-03 
2163	 5.65751916431711E-03 
2164	 7.22754904751768E-03 
2165	 8.88297506523471E-03 
2166	 1.28352069030819E-02 
2167	 1.43425850276916E-02 
2168	 1.44855758292287E-02 
2169	 1.39530385670232E-02 
2170	 1.27274726520592E-02 
2171	 9.42435632598184E-03 
2172	 6.08774448836159E-03 
2173	 6.10691307650554E-03 
2174	 6.4791030697157E-03 
2175	 8.32584075123165E-03 
2176	 1.17114406133564E-02 
2177	 1.26402237837746E-02 
2178	 8.19373300066558E-03 
2179	 4.41278688117326E-03 
2180	 2.7857581775822E-03 
2181	 1.09323346275601E-03 
2182	 4.18291433023476E-03 
2183	 7.77223921696781E-03 
2184	 7.19335384304343E-03 
2185	 4.73988693264058E-03 
2186	 4.50227607179136E-03 
2187	 4.74444141342298E-03 
2188	 4.87472947610535E-03 
2189	 7.42428569817738E-03 
2190	 0.007211651262921 
2191	 3.74021019379989E-03 
2192	 2.06087737906273E-03 
2193	-2.05832135701611E-04 
2194	-1.12246112647737E-03 
2195	 4.38816557157003E-04 
2196	 4.80675627846344E-04 
2197	-6.98360877169137E-04 
2198	-9.57526941136786E-04 
2199	-4.62536255426166E-04 
2200	-1.30388769024215E-03 
2201	-0.003398342697839 
2202	-2.57272689893132E-03 
2203	-7.35168007294359E-04 
2204	-5.34092507552662E-05 
2205	 2.24524048687347E-03 
2206	 8.50102580179614E-03 
2207	 0.011185204304886 
2208	 1.11592665450192E-02 
2209	 1.25925640810065E-02 
2210	 8.41939780165973E-03 
2211	 2.36228466420816E-03 
2212	 1.67876705563507E-03 
2213	 1.03775184196694E-03 
2214	-3.40145713705877E-04 
2215	 2.86879432234456E-03 
2216	 7.31432149446256E-03 
2217	 1.02114568486902E-02 
2218	 1.53493050975911E-02 
2219	 1.61364967549736E-02 
2220	 1.27470024353674E-02 
2221	 1.05738637748011E-02 
2222	 6.92196107521341E-03 
2223	 4.21740556655244E-03 
2224	 9.46498636210368E-04 
2225	 1.99219040499159E-03 
2226	 5.66345968135426E-03 
2227	 5.08625404669172E-03 
2228	 5.91799601779059E-03 
2229	 6.26987051160688E-03 
2230	 2.63343265280332E-03 
2231	 1.54766082270075E-03 
2232	 4.1841056972635E-03 
2233	 4.50120097967328E-03 
2234	 1.07300500073871E-03 
2235	 2.74992825681402E-03 
2236	 6.01884245062372E-03 
2237	 6.25742992239967E-03 
2238	 8.01129272533408E-03 
2239	 1.00180686388287E-02 
2240	 8.10640265926478E-03 
2241	 4.36546994112738E-03 
2242	 2.07605711134137E-03 
2243	-5.11336061486633E-03 
2244	-3.14545198302546E-03 
2245	 0.004134858040532 
2246	 7.33072693999634E-03 
2247	 1.23163284671916E-02 
2248	 8.69424132557367E-03 
2249	 6.58558747013832E-04 
2250	-2.48814107356443E-03 
2251	-1.0255236621308E-03 
2252	 3.97226771595863E-03 
2253	 1.08690758968894E-02 
2254	 1.43682373671507E-02 
2255	 1.22674052124736E-02 
2256	 1.10936711441056E-02 
2257	 1.09562745821038E-02 
2258	 1.05441483107274E-02 
2259	 1.23087400960474E-02 
2260	 0.012481522363242 
2261	 0.010679249942171 
2262	 1.01932327519941E-02 
2263	 9.3684350423261E-03 
2264	 9.84953193251951E-03 
2265	 9.32267966470598E-03 
2266	 0.013212078387359 
2267	 2.55746899114556E-02 
2268	 2.61288117519073E-02 
2269	 0.02239162788851 
2270	 2.20191985663901E-02 
2271	 1.55151585702223E-02 
2272	 1.02804311419801E-02 
2273	 8.59268033789275E-03 
2274	 6.36366477241021E-03 
2275	-4.44089296896045E-04 
2276	-4.07449332571524E-03 
2277	-4.25456389872368E-03 
2278	-1.67506730031067E-03 
2279	 3.99373812948105E-03 
2280	 6.31279336686602E-03 
2281	 0.010745897469131 
2282	 1.53661244175777E-02 
2283	 1.13007515280338E-02 
2284	 7.83104852644076E-03 
2285	 1.32621934764249E-02 
2286	 1.70779418892668E-02 
2287	 1.95664591441265E-02 
2288	 1.71725389014561E-02 
2289	 1.07702277344841E-02 
2290	 8.01195041305731E-03 
2291	 6.55781305320514E-03 
2292	 9.0312974759553E-03 
2293	 1.38581215231446E-02 
2294	 0.016937028718846 
2295	 1.95573921445756E-02 
2296	 2.50110055041269E-02 
2297	 2.72451138262549E-02 
2298	 2.10701133021928E-02 
2299	 2.00622277962407E-02 
2300	 1.52833601040058E-02 
2301	 2.84955613349808E-03 
2302	-3.14876372751292E-04 
2303	-3.75774709077479E-03 
2304	-5.93374623429155E-03 
2305	 2.7512050101572E-03 
2306	 0.011056533083744 
2307	 0.014977599457554 
2308	 1.72615819719355E-02 
2309	 1.85133951887893E-02 
2310	 1.77497245564989E-02 
2311	 1.43269677300592E-02 
2312	 1.42818590260814E-02 
2313	 1.64936318916056E-02 
2314	 1.62320946435571E-02 
2315	 1.22858748592393E-02 
2316	 8.66121098294908E-03 
2317	 4.0587835960677E-03 
2318	-4.02540334841172E-03 
2319	-7.06653570252146E-03 
2320	-1.14677135313584E-02 
2321	-1.31222299453709E-02 
2322	-6.11586256673322E-03 
2323	-1.81381008244965E-04 
2324	 6.50981080353351E-03 
2325	 2.35972691909576E-02 
2326	 3.68191081587466E-02 
2327	 3.74334011884211E-02 
2328	 4.24523849661353E-02 
2329	 3.30925374042436E-02 
2330	 2.25292338485434E-02 
2331	 2.38888552935748E-02 
2332	 1.32617974890048E-02 
2333	 9.33715907549621E-03 
2334	 5.60350970678776E-03 
2335	 6.07078659428592E-03 
2336	 0.019820041396939 
2337	 2.19648849743297E-02 
2338	 2.05680171077438E-02 
2339	 1.73542351250476E-02 
2340	 1.22380809076631E-02 
2341	 1.94129966949673E-02 
2342	 0.015634609838574 
2343	 3.04071379047108E-03 
2344	 7.27425167810016E-03 
2345	 4.97552612046569E-03 
2346	 7.60427078031492E-03 
2347	 1.74257505911015E-02 
2348	 1.23490799609667E-02 
2349	-3.31701537006557E-04 
2350	-1.53978963727855E-02 
2351	-1.32169841271454E-02 
2352	-2.26494407274397E-02 
2353	-2.29513075923039E-02 
2354	-0.01500357534642 
2355	-4.66753135722629E-02 
2356	-5.26402951360452E-02 
2357	-3.60892742745422E-02 
2358	-3.47930571120639E-02 
2359	-7.63353019020832E-03 
2360	 0.043530291020715 
2361	 6.26186386959928E-02 
2362	 7.15115561267262E-02 
2363	 0.054288536696917 
2364	 6.83763181751891E-03 
2365	 1.33823640564973E-02 
2366	 3.41296580749665E-02 
2367	 7.47032126405283E-02 
2368	 0.11984528690078 
2369	 9.49196681035474E-02 
2370	 5.34380977876767E-02 
2371	 1.52939699692507E-02 
2372	-4.15132409433722E-02 
2373	-5.49053136073078E-02 
2374	-3.96856667645345E-02 
2375	-2.02694581565699E-02 
2376	 5.31880384660045E-02 
2377	 9.02496575136238E-02 
2378	 4.98815417393874E-02 
2379	 2.45708368295881E-02 
2380	-1.92563758065475E-02 
2381	-0.085381821152167 
2382	-8.38128527345792E-02 
2383	-6.11302941645769E-02 
2384	-6.12797534391263E-02 
2385	-4.44983280594502E-02 
2386	-3.10585376741781E-02 
2387	 4.53221144258605E-02 
2388	 0.105438556372586 
2389	 9.40072943770289E-02 
2390	 0.124572653160569 
2391	 8.26115909850559E-02 
2392	 1.74881936058192E-02 
2393	 2.46076795010912E-02 
2394	 1.40197922004238E-02 
2395	 1.76176361116149E-02 
2396	 5.03713734726856E-02 
2397	 6.33509188124507E-02 
2398	 8.23416973267192E-02 
2399	 9.97157341977293E-02 
2400	 9.58192771499654E-02 
2401	 9.47710969334736E-02 
2402	 5.74669509306006E-02 
2403	 1.81226717244406E-02 
2404	-1.03045682983733E-02 
2405	-8.14732293714696E-03 
2406	-1.23098927399336E-02 
2407	-5.38261419339351E-02 
2408	 1.20060500624872E-02 
2409	-3.89095194494866E-02 
2410	-0.150775257192626 
2411	-0.123557301312768 
2412	-0.337302004981635 
2413	-0.37639864811171 
2414	-0.161841803859394 
2415	-0.165847541188593 
2416	-0.040699831909797 
2417	 0.102801804131826 
2418	 1.81675148282804E-02 
2419	-3.70121627879201E-02 
2420	-2.54240184196092E-02 
2421	-0.1122950858562 
2422	-0.145145948679416 
2423	-0.187195221839037 
2424	-0.297799709737789 
2425	-0.316286203797403 
2426	-0.50763842112641 
2427	-0.059897754389455 
2428	 0.191970920562943 
2429	-0.108945204931505 
2430	-0.134003576260207 
2431	-0.142625582949356 
2432	-0.234266619992282 
2433	-4.58551917841501E-02 
2434	 0.189964001639325 
2435	 0.30575452766142 
2436	 0.136682187649779 
2437	 1.34731914127631E-02 
2438	 2.40682329744488E-02 
2439	 8.17515791850682E-03 
2440	 0.198526911219899 
2441	 0.365688985357581 
2442	 0.398679388557527 
2443	 0.263068209598031 
2444	 3.79534773170085E-02 
2445	-5.64056658178086E-02 
2446	 4.10285677252981E-02 
2447	 4.20281000170632E-02 
2448	 0.18601508909764 
2449	 0.856362932879622 
2450	 0.832831388973836 
2451	 0.389668865805976 
2452	 8.47164752090596 
2453	-1.61617185244739 
2454	-1.11371649954236 
2455	-0.608346248870662 
2456	-1.44583272509035 
2457	 5.17975035282717 
2458	-0.756043371741946 
2459	-2.06739658293498 
2460	-29.9269618926011 
2461	 39.2422002100228 
2462	 19.3112550250119 
2463	 3.41594743770231 
2464	 0.825795798939309 
2465	 6.80743916976596E-02 
2466	 0.467419795873636 
2467	 4.36637740640889 
2468	 15.9829070961623 
2469	 0.101804460780481 
2470	-3.09219412751761 
2471	-3.87592497122508 
2472	-3.54141419946272 
2473	 0.568658112374448 
2474	-0.325598548301104 
2475	-1.81853776632755 
2476	-2.35421190028505 
2477	-2.68406067993957 
2478	 3.55330307270531 
2479	 0.414061711520444 
2480	-0.490360957225687 
2481	-0.837893324261463 
2482	-0.525350290164181 
2483	-0.142322998274331 
2484	 0.421382714719279 
2485	 0.155752681330037 
2486	 1.59230061915754 
2487	 2.87930026759804 
2488	 5.90202325477692 
2489	 0.74104628639106 
2490	-2.53718106014554 
2491	 0.159772572395032 
2492	-0.40274339841745 
2493	-1.76669644776833E-03 
2494	 8.49963239326146E-02 
2495	-0.552674133365294 
2496	-0.910838976444035 
2497	-1.58232288840004 
2498	 4.6065116469574 
2499	 1.49661561600564 
2500	 0.945973550036923 
