Wavelength	rt0714yellow200004.asd
350	 0.066724238913057 
351	 6.54862004450892E-02 
352	 6.41560423488949E-02 
353	 6.42674576891328E-02 
354	 6.56452506954915E-02 
355	 6.49244239921141E-02 
356	 6.43506029052455E-02 
357	 6.47151811924218E-02 
358	 6.57706501292708E-02 
359	 6.50664211112927E-02 
360	 0.064152249550706 
361	 6.37510338900046E-02 
362	 6.38344817737425E-02 
363	 6.40194204219299E-02 
364	 6.42546079389685E-02 
365	 6.43768745634554E-02 
366	 6.39706975563574E-02 
367	 6.39221952567943E-02 
368	 6.38998012449169E-02 
369	 6.36247333332443E-02 
370	 6.42938354570199E-02 
371	 6.43635784192777E-02 
372	 0.06384107605193 
373	 6.36542713854877E-02 
374	 6.37424642490261E-02 
375	 6.43146162703259E-02 
376	 6.49029638212075E-02 
377	 6.41840148158969E-02 
378	 6.44182559330943E-02 
379	 6.48566904523835E-02 
380	 0.064601413698615 
381	 6.45730293828454E-02 
382	 6.53238100420863E-02 
383	 6.60763894166752E-02 
384	 6.57380700723184E-02 
385	 6.60553563058197E-02 
386	 0.065900956690183 
387	 6.54957814979667E-02 
388	 6.66645104576572E-02 
389	 0.067056445077349 
390	 6.71779602609073E-02 
391	 6.76276396691662E-02 
392	 6.77947453044222E-02 
393	 6.78453052529188E-02 
394	 6.80155739824135E-02 
395	 6.84428824472422E-02 
396	 6.86260528283126E-02 
397	 6.89390240075113E-02 
398	 6.92439371602908E-02 
399	 6.89868429458848E-02 
400	 6.89923736168276E-02 
401	 6.90861636925661E-02 
402	 6.91574609040251E-02 
403	 6.96528894361097E-02 
404	 0.069981216662125 
405	 7.00133072729967E-02 
406	 6.99193412177258E-02 
407	 7.04511841580455E-02 
408	 7.07355565336695E-02 
409	 7.07406823690474E-02 
410	 7.12905167853304E-02 
411	 7.13541946303638E-02 
412	 7.13913280461202E-02 
413	 7.18160930466308E-02 
414	 7.23279349430692E-02 
415	 7.26436240938215E-02 
416	 7.27910593131976E-02 
417	 7.29403833022834E-02 
418	 7.31102749457113E-02 
419	 7.35777925370276E-02 
420	 7.41699305004467E-02 
421	 0.074257256863003 
422	 7.45255742716329E-02 
423	 7.50214587837647E-02 
424	 7.55970343165093E-02 
425	 7.59706735237906E-02 
426	 7.62770759886713E-02 
427	 7.67619432684725E-02 
428	 7.75894418916397E-02 
429	 7.79863545679294E-02 
430	 7.84175361306587E-02 
431	 7.90344404433296E-02 
432	 0.079489640164494 
433	 7.99996129236121E-02 
434	 8.05051293578668E-02 
435	 8.09596210367415E-02 
436	 8.15385901078774E-02 
437	 8.20702396245305E-02 
438	 0.082589265398505 
439	 8.32229879326652E-02 
440	 8.38796029783215E-02 
441	 8.43894450536608E-02 
442	 8.47419018924966E-02 
443	 8.51616853835037E-02 
444	 0.085628554596187 
445	 8.60610793146365E-02 
446	 8.64184720153475E-02 
447	 8.69173871143148E-02 
448	 8.73209486352797E-02 
449	 8.76164305868559E-02 
450	 8.79593708477062E-02 
451	 8.82914227337248E-02 
452	 8.86477632873847E-02 
453	 8.90007691059866E-02 
454	 8.91701887625763E-02 
455	 8.92468920235772E-02 
456	 8.93885519836878E-02 
457	 0.089710540985549 
458	 8.99821433185737E-02 
459	 9.01142758137516E-02 
460	 9.02282677362717E-02 
461	 0.090614750516682 
462	 9.06498721375545E-02 
463	 9.05961892083429E-02 
464	 9.07732249495707E-02 
465	 9.11868139166178E-02 
466	 9.13359620403508E-02 
467	 9.13771064833135E-02 
468	 9.17195979994523E-02 
469	 9.19138027093762E-02 
470	 9.20123390714944E-02 
471	 0.092113631150796 
472	 9.23102234703673E-02 
473	 9.25736694839531E-02 
474	 9.28832279598944E-02 
475	 9.31816201292002E-02 
476	 9.32527261469351E-02 
477	 9.35576604878645E-02 
478	 0.094020272684652 
479	 9.42227039106082E-02 
480	 9.43974133869201E-02 
481	 9.46511880812392E-02 
482	 0.095026479727931 
483	 9.54809227078923E-02 
484	 9.58647563322174E-02 
485	 9.62020104627274E-02 
486	 9.65802838448323E-02 
487	 9.70102904216115E-02 
488	 9.73287704877291E-02 
489	 0.097648164740253 
490	 9.83255422198734E-02 
491	 9.89602211777641E-02 
492	 9.94349826334154E-02 
493	 9.97877101968025E-02 
494	 0.100310322002986 
495	 0.100853720890113 
496	 0.101374409880441 
497	 0.101893372063568 
498	 0.102513372729658 
499	 0.103068051250231 
500	 0.103537368005449 
501	 0.104164885327691 
502	 0.104826291634293 
503	 0.105446545420594 
504	 0.105999949701007 
505	 0.106583849924136 
506	 0.107228171036678 
507	 0.107930673318467 
508	 0.108661082454199 
509	 0.10939152732823 
510	 0.110033790467177 
511	 0.110595511896817 
512	 0.111339356594483 
513	 0.111966080717765 
514	 0.112641369705305 
515	 0.113625275417955 
516	 0.114351597814724 
517	 0.115073130651765 
518	 0.115872987488937 
519	 0.116539033534759 
520	 0.117297703347421 
521	 0.118083650454742 
522	 0.118807044337579 
523	 0.11951524257906 
524	 0.120242735053798 
525	 0.121010608066864 
526	 0.121821084071828 
527	 0.12254990444943 
528	 0.123287610732275 
529	 0.124076636897636 
530	 0.124805257333534 
531	 0.125536734885679 
532	 0.126283152901808 
533	 0.127036121982414 
534	 0.127803137628958 
535	 0.128449512588984 
536	 0.129033071466306 
537	 0.129825404625384 
538	 0.130600873761393 
539	 0.131303083289987 
540	 0.131943159642665 
541	 0.132597497522375 
542	 0.133337079564622 
543	 0.134086208478149 
544	 0.134699120365739 
545	 0.135275727259876 
546	 0.135990842530764 
547	 0.136802303798429 
548	 0.137221665591435 
549	 0.137765251236298 
550	 0.138473432816248 
551	 0.139192828575653 
552	 0.139716926953653 
553	 0.140239996499402 
554	 0.140832207342606 
555	 0.141393122753912 
556	 0.141950348192751 
557	 0.142517286548159 
558	 0.143074130033515 
559	 0.143532122945079 
560	 0.143890214655826 
561	 0.144212369563705 
562	 0.144598313651881 
563	 0.145030311512336 
564	 0.145452846990457 
565	 0.145807754185138 
566	 0.146034663106008 
567	 0.146315941393687 
568	 0.146594239292183 
569	 0.146774584732662 
570	 0.147108045644763 
571	 0.147430223306546 
572	 0.147622328828295 
573	 0.147650545945513 
574	 0.147822966260997 
575	 0.148043818837848 
576	 0.148202910406826 
577	 0.148510748249197 
578	 0.148604694355673 
579	 0.148561456703768 
580	 0.148697787706778 
581	 0.148735760651222 
582	 0.148790849678576 
583	 0.14891160225527 
584	 0.14895204532275 
585	 0.148790665686545 
586	 0.148487847128 
587	 0.148180762769658 
588	 0.147962017491001 
589	 0.147815520489225 
590	 0.147704230211663 
591	 0.147576108057399 
592	 0.147504690418808 
593	 0.147368234408418 
594	 0.147091773425039 
595	 0.146856278809622 
596	 0.146542017677632 
597	 0.146136833288048 
598	 0.145715585099591 
599	 0.14552272674699 
600	 0.145327519209303 
601	 0.145037551676254 
602	 0.144909341627705 
603	 0.144704177169779 
604	 0.144491364732579 
605	 0.14439401686303 
606	 0.144267383417674 
607	 0.144151472805322 
608	 0.144099504034968 
609	 0.144157997220074 
610	 0.144030696412287 
611	 0.143949536853726 
612	 0.144053952791714 
613	 0.143854283752645 
614	 0.143754243720715 
615	 0.143797348429642 
616	 0.143801805348012 
617	 0.143547711829656 
618	 0.143372482334306 
619	 0.143405556786693 
620	 0.143354133894054 
621	 0.143292714664713 
622	 0.143271036385606 
623	 0.143279976041727 
624	 0.143026254874667 
625	 0.142860688406789 
626	 0.142849167400379 
627	 0.142767866201904 
628	 0.142678539815509 
629	 0.142592733838684 
630	 0.142550575887281 
631	 0.142721831335222 
632	 0.142672526916783 
633	 0.142464868430073 
634	 0.142383928926416 
635	 0.142358969775846 
636	 0.142314890208585 
637	 0.142211485837045 
638	 0.142058285364229 
639	 0.141937894112394 
640	 0.141845889393761 
641	 0.141742133206707 
642	 0.141581164016856 
643	 0.141293162822259 
644	 0.140925518688609 
645	 0.140622677779407 
646	 0.140398299469661 
647	 0.140166101788615 
648	 0.139935456413095 
649	 0.140020616888226 
650	 0.139836084298877 
651	 0.139470727963574 
652	 0.139222947785097 
653	 0.138758765289237 
654	 0.138485706012187 
655	 0.138349497133645 
656	 0.137637463781992 
657	 0.137324209882856 
658	 0.13717724408041 
659	 0.136829945410274 
660	 0.136283816230864 
661	 0.13592234793406 
662	 0.135722194412918 
663	 0.135418012852496 
664	 0.135094615447791 
665	 0.13487016668211 
666	 0.134719191738475 
667	 0.134339063576337 
668	 0.134231528978575 
669	 0.13422712125608 
670	 0.134041197762276 
671	 0.134022230462446 
672	 0.134023068231814 
673	 0.133954698339637 
674	 0.133815791660397 
675	 0.133809152844367 
676	 0.133945989519877 
677	 0.134110493519809 
678	 0.133930370576583 
679	 0.134074066713463 
680	 0.134439740318683 
681	 0.134611694862705 
682	 0.134733762879363 
683	 0.134989464447976 
684	 0.135283195888991 
685	 0.135142705819039 
686	 0.135185527028802 
687	 0.135479443796599 
688	 0.135863696444439 
689	 0.136330761389371 
690	 0.13650065129975 
691	 0.136538811458865 
692	 0.136895147480825 
693	 0.137187757948582 
694	 0.137535136970188 
695	 0.137887816606673 
696	 0.137859791053654 
697	 0.137962765466959 
698	 0.138046575831334 
699	 0.137852355298538 
700	 0.137675754116726 
701	 0.137641301086421 
702	 0.137673909459054 
703	 0.13755041430905 
704	 0.137229944169447 
705	 0.136849954809635 
706	 0.136489284834301 
707	 0.13601690999069 
708	 0.135447671401453 
709	 0.134812776050968 
710	 0.134138053766572 
711	 0.133383022551262 
712	 0.1323943934394 
713	 0.131242844612076 
714	 0.130191277139681 
715	 0.128651900863331 
716	 0.127163642291648 
717	 0.126308386364 
718	 0.124678102994652 
719	 0.123418293263452 
720	 0.122527739989182 
721	 0.121386289831939 
722	 0.120148019560487 
723	 0.118680284922003 
724	 0.117156653794736 
725	 0.115758776690692 
726	 0.114274162689079 
727	 0.112827481775939 
728	 0.111434043962972 
729	 0.109454745049282 
730	 0.107672264147477 
731	 0.106260452503168 
732	 0.104960282530511 
733	 0.103533080798102 
734	 0.102284382434712 
735	 0.10134713266718 
736	 0.100564567598166 
737	 0.100112530633259 
738	 9.98325371424798E-02 
739	 9.95487326608076E-02 
740	 9.92306416355905E-02 
741	 9.91799016234106E-02 
742	 9.92233256327659E-02 
743	 9.90044001652272E-02 
744	 9.89167721794012E-02 
745	 9.89034100484238E-02 
746	 9.88502462929663E-02 
747	 9.86295297041487E-02 
748	 9.86880581556292E-02 
749	 9.87697389205015E-02 
750	 0.098616918154629 
751	 9.85976041445278E-02 
752	 9.85759547057404E-02 
753	 9.84778218300357E-02 
754	 9.83098108985639E-02 
755	 9.84531808287726E-02 
756	 9.83940995656664E-02 
757	 9.80274723387932E-02 
758	 9.79441831086722E-02 
759	 9.73579961329583E-02 
760	 9.64918662077992E-02 
761	 9.66085600134962E-02 
762	 9.72292435533664E-02 
763	 9.74610016888014E-02 
764	 9.74378656017992E-02 
765	 9.75876231401851E-02 
766	 9.77397237269767E-02 
767	 9.80361457441398E-02 
768	 9.84323279544676E-02 
769	 9.86878757681483E-02 
770	 9.87124219252805E-02 
771	 0.098717298037742 
772	 9.88614273148939E-02 
773	 9.89698087003204E-02 
774	 9.91773382198572E-02 
775	 9.93915045699909E-02 
776	 9.94907719381426E-02 
777	 9.98081888227531E-02 
778	 0.100044959579917 
779	 0.100145513475852 
780	 0.100339017920373 
781	 0.100570360559846 
782	 0.100748979588217 
783	 0.100874278185302 
784	 0.101193093469389 
785	 0.101200530092818 
786	 0.101215786130997 
787	 0.101685696227005 
788	 0.102051008375602 
789	 0.10226663739283 
790	 0.102470421296775 
791	 0.102890458057715 
792	 0.103171608907518 
793	 0.103434543571812 
794	 0.103748607827947 
795	 0.103981200149809 
796	 0.104290501897506 
797	 0.10453373290519 
798	 0.104647151384399 
799	 0.105123304337565 
800	 0.105293289310068 
801	 0.10529862980184 
802	 0.105650604846211 
803	 0.10581116967156 
804	 0.10592771598532 
805	 0.106059802225747 
806	 0.106106130395442 
807	 0.106042313851051 
808	 0.105816782609347 
809	 0.105491814560747 
810	 0.105437851844158 
811	 0.105177906990538 
812	 0.104716555478437 
813	 0.104254239516275 
814	 0.103754215018666 
815	 0.103583967309643 
816	 0.10339978987597 
817	 0.102508241910137 
818	 0.102303641855746 
819	 0.102131678175292 
820	 0.101502270174013 
821	 0.100369190426889 
822	 9.95445351290074E-02 
823	 9.90018096982881E-02 
824	 9.83084936566327E-02 
825	 9.66779153821162E-02 
826	 9.51681453074592E-02 
827	 9.37770337668772E-02 
828	 0.092272910746896 
829	 9.09940983299202E-02 
830	 9.02321314110182E-02 
831	 8.97087203574428E-02 
832	 8.88280543487073E-02 
833	 8.78691635114338E-02 
834	 8.72701330706504E-02 
835	 8.69532999279244E-02 
836	 8.62027798715125E-02 
837	 8.61117777680989E-02 
838	 8.61490783281634E-02 
839	 8.57787089873518E-02 
840	 8.53581640041837E-02 
841	 8.51137694842514E-02 
842	 8.50030994142287E-02 
843	 8.48789960059085E-02 
844	 8.47157789215283E-02 
845	 8.46541267223813E-02 
846	 8.45379857743978E-02 
847	 8.41027960416222E-02 
848	 8.40900882038978E-02 
849	 8.39789520328114E-02 
850	 8.35183511308221E-02 
851	 8.29995111915346E-02 
852	 8.27610100484243E-02 
853	 8.27585324674701E-02 
854	 8.27073357044651E-02 
855	 8.20176650589183E-02 
856	 8.22784818469103E-02 
857	 8.25161143861857E-02 
858	 8.17635287279917E-02 
859	 8.17284975884134E-02 
860	 8.17398425444884E-02 
861	 8.16648849223873E-02 
862	 8.15819386063458E-02 
863	 8.10477922983886E-02 
864	 8.07690080663478E-02 
865	 8.07574596514798E-02 
866	 8.03959168647202E-02 
867	 8.02990957608045E-02 
868	 8.02784599328859E-02 
869	 8.01985323134499E-02 
870	 8.01287007017202E-02 
871	 7.95584725409941E-02 
872	 7.91191580773999E-02 
873	 7.91752931013934E-02 
874	 7.89368301113363E-02 
875	 7.87563711235163E-02 
876	 7.85636546970653E-02 
877	 7.82138784515848E-02 
878	 7.77316686769654E-02 
879	 7.72942604982282E-02 
880	 7.70119635511202E-02 
881	 7.69493018700967E-02 
882	 7.72710112733644E-02 
883	 7.68895909815887E-02 
884	 7.61283212932029E-02 
885	 7.62345507903503E-02 
886	 7.62212396748025E-02 
887	 7.63263859493299E-02 
888	 7.62850974128413E-02 
889	 7.52946541201414E-02 
890	 7.54368762264828E-02 
891	 7.54756508704015E-02 
892	 0.074685014357573 
893	 7.44363845839763E-02 
894	 7.41840790747717E-02 
895	 7.41061071468399E-02 
896	 7.42015227992666E-02 
897	 7.33465686557049E-02 
898	 7.33715938043215E-02 
899	 7.34919777077783E-02 
900	 7.26145434923953E-02 
901	 7.19298358423747E-02 
902	 7.20866772521575E-02 
903	 7.19330291826629E-02 
904	 7.04820129313676E-02 
905	 7.11513358310001E-02 
906	 7.12183862738443E-02 
907	 7.06990055811768E-02 
908	 7.14211844545219E-02 
909	 0.0717259610276 
910	 7.09270167783909E-02 
911	 0.069677988386639 
912	 6.95423995674292E-02 
913	 6.99673080317147E-02 
914	 0.06988875680125 
915	 6.91728499540674E-02 
916	 6.87665886418742E-02 
917	 6.83366509914501E-02 
918	 0.068020398356608 
919	 6.75095820020617E-02 
920	 6.59826842177512E-02 
921	 6.75444490246271E-02 
922	 6.86536430993359E-02 
923	 6.70271410438038E-02 
924	 6.61190385596359E-02 
925	 6.59658287938471E-02 
926	 6.63551828621538E-02 
927	 6.67411664920957E-02 
928	 6.62070220022378E-02 
929	 6.45681862040065E-02 
930	 6.41463240105586E-02 
931	 6.70000423787788E-02 
932	 6.21360079725264E-02 
933	 0.058329735261547 
934	 6.00989828880373E-02 
935	 6.49524247064674E-02 
936	 6.47880758086733E-02 
937	 6.05146252711708E-02 
938	 5.88579606857959E-02 
939	 6.31311757792004E-02 
940	 5.86182105495762E-02 
941	 0.060087317497533 
942	 6.34736821478308E-02 
943	 5.80770266103673E-02 
944	 0.057189313358845 
945	 0.059168282297965 
946	 6.14269934223945E-02 
947	 6.09958521206986E-02 
948	 5.21832999553504E-02 
949	 5.01248139775955E-02 
950	 5.60137864957557E-02 
951	 6.08510561173242E-02 
952	 6.02179687591397E-02 
953	 5.63780020261331E-02 
954	 5.41240701266894E-02 
955	 5.72044053138448E-02 
956	 0.056199103135985 
957	 5.71429751348799E-02 
958	 6.03493397226179E-02 
959	 6.14410603587207E-02 
960	 5.99648166736809E-02 
961	 5.77568550594761E-02 
962	 5.69264212036024E-02 
963	 0.058601579150622 
964	 5.96902590447669E-02 
965	 5.64957162660579E-02 
966	 5.35204210635488E-02 
967	 5.85618551052463E-02 
968	 6.00049868516142E-02 
969	 5.93938733780027E-02 
970	 5.81887079391851E-02 
971	 5.70401491168853E-02 
972	 0.060330892576244 
973	 6.09013685495379E-02 
974	 0.057713404648634 
975	 5.67704916684632E-02 
976	 5.77971433630305E-02 
977	 6.05643206167722E-02 
978	 6.21067555197925E-02 
979	 5.89591133351826E-02 
980	 5.98024335502785E-02 
981	 5.98069110261345E-02 
982	 5.86419397414169E-02 
983	 5.99208238258414E-02 
984	 5.93538061486014E-02 
985	 5.91271159131676E-02 
986	 5.86027281700759E-02 
987	 5.58634486503723E-02 
988	 5.98241616587233E-02 
989	 6.30338602805909E-02 
990	 6.26957871103663E-02 
991	 6.09024768673332E-02 
992	 5.82129727864987E-02 
993	 5.64010205999764E-02 
994	 5.71481369251249E-02 
995	 6.05002075625181E-02 
996	 5.92125638762356E-02 
997	 5.75762062959398E-02 
998	 5.94032786576543E-02 
999	 0.064836810680426 
1000	 6.16068752423415E-02 
1001	 5.67813395463898E-02 
1002	 5.76473185345937E-02 
1003	 5.75088537048323E-02 
1004	 0.056609823447367 
1005	 5.61050783526172E-02 
1006	 5.51907296637535E-02 
1007	 5.43305652272357E-02 
1008	 5.42483468517927E-02 
1009	 5.41346124381028E-02 
1010	 5.38763552174865E-02 
1011	 5.41228549695639E-02 
1012	 5.46621604879417E-02 
1013	 5.47026372780955E-02 
1014	 5.48653395323882E-02 
1015	 5.52820929425138E-02 
1016	 5.53366525460662E-02 
1017	 5.50718648587077E-02 
1018	 5.50254167462138E-02 
1019	 0.054817381218172 
1020	 5.47121041053098E-02 
1021	 0.054597998861573 
1022	 5.47413030663398E-02 
1023	 5.48356937631471E-02 
1024	 0.055158826340581 
1025	 5.55946043381912E-02 
1026	 5.57693254047365E-02 
1027	 0.055757430650939 
1028	 5.54333590960107E-02 
1029	 5.56444221982395E-02 
1030	 5.58318403780334E-02 
1031	 5.60608869315421E-02 
1032	 0.05680823533755 
1033	 5.70695908515206E-02 
1034	 5.72524937274552E-02 
1035	 5.70870228261857E-02 
1036	 5.63150206212446E-02 
1037	 5.61529087563019E-02 
1038	 5.61019744742148E-02 
1039	 5.57161632645137E-02 
1040	 5.65602841551755E-02 
1041	 5.66028642326648E-02 
1042	 5.66119827297405E-02 
1043	 5.63871705356837E-02 
1044	 5.62845898452173E-02 
1045	 5.58625988313528E-02 
1046	 5.59421327960308E-02 
1047	 5.64720319242881E-02 
1048	 5.65177779824781E-02 
1049	 5.65437761663394E-02 
1050	 5.65677250887568E-02 
1051	 5.61251486897591E-02 
1052	 0.056077386985425 
1053	 5.63723679602243E-02 
1054	 5.66180701065538E-02 
1055	 5.72830264035543E-02 
1056	 0.057425576091848 
1057	 5.73427317936768E-02 
1058	 0.056975955816654 
1059	 5.68899710713418E-02 
1060	 5.65661739405745E-02 
1061	 5.63662045929732E-02 
1062	 5.62907699985111E-02 
1063	 5.64426752345132E-02 
1064	 5.66559671516392E-02 
1065	 5.67699383779493E-02 
1066	 5.75585886360507E-02 
1067	 5.75109096824303E-02 
1068	 5.63093532669942E-02 
1069	 5.60581678880976E-02 
1070	 5.60661922436308E-02 
1071	 5.59532663279008E-02 
1072	 5.61415671102338E-02 
1073	 5.66275989194229E-02 
1074	 5.68051464478764E-02 
1075	 0.056683692729953 
1076	 5.66087969569288E-02 
1077	 5.67819756799425E-02 
1078	 5.64546016676893E-02 
1079	 5.52487401324735E-02 
1080	 5.52785151990054E-02 
1081	 5.60283634488218E-02 
1082	 5.61046803608972E-02 
1083	 5.67645451148806E-02 
1084	 0.056757585547831 
1085	 5.54441515363195E-02 
1086	 5.49876116170282E-02 
1087	 5.50407526302134E-02 
1088	 5.49246376597715E-02 
1089	 5.48010273596612E-02 
1090	 5.50135497884164E-02 
1091	 5.51393769254671E-02 
1092	 5.51464830867415E-02 
1093	 5.51639520354904E-02 
1094	 5.54787687851255E-02 
1095	 5.53785080628838E-02 
1096	 5.48495326193853E-02 
1097	 5.46236347213581E-02 
1098	 5.42671836494231E-02 
1099	 0.0542404608922 
1100	 5.48354782497775E-02 
1101	 5.48813595107361E-02 
1102	 5.44152414724499E-02 
1103	 5.43955233575897E-02 
1104	 5.44316912957321E-02 
1105	 5.42871745097193E-02 
1106	 5.43880565660593E-02 
1107	 5.54216117998135E-02 
1108	 0.055240966789948 
1109	 5.44364368201319E-02 
1110	 5.43885061045318E-02 
1111	 5.45878614293776E-02 
1112	 5.44810998080728E-02 
1113	 5.49382686511634E-02 
1114	 5.49704240047331E-02 
1115	 5.36686740472673E-02 
1116	 5.33536305931756E-02 
1117	 5.38260326251728E-02 
1118	 5.43606266106213E-02 
1119	 5.69306065804905E-02 
1120	 5.79959098726233E-02 
1121	 5.80680514286032E-02 
1122	 5.69861529600874E-02 
1123	 5.64569309618606E-02 
1124	 5.58549931416388E-02 
1125	 5.78057388050288E-02 
1126	 5.91876331540978E-02 
1127	 5.39143313667299E-02 
1128	 4.96983788519006E-02 
1129	 5.01986428689042E-02 
1130	 0.051220307107693 
1131	 5.17171713157422E-02 
1132	 5.81841455084551E-02 
1133	 5.83233188850641E-02 
1134	 5.33063699909432E-02 
1135	 5.30727392424157E-02 
1136	 5.32174485199025E-02 
1137	 5.21244317061824E-02 
1138	 5.16337842585598E-02 
1139	 5.24456767945058E-02 
1140	 5.03158196832263E-02 
1141	 5.05026955517691E-02 
1142	 5.08548602485765E-02 
1143	 5.08515178539461E-02 
1144	 5.27175016291142E-02 
1145	 5.26346063191045E-02 
1146	 0.051429190242749 
1147	 5.17072736882518E-02 
1148	 0.051752858953064 
1149	 5.09803626512708E-02 
1150	 4.95534731823611E-02 
1151	 4.73108759930846E-02 
1152	 4.72566533346266E-02 
1153	 4.71098666652957E-02 
1154	 4.75535160046087E-02 
1155	 4.96958542681649E-02 
1156	 5.02149832314376E-02 
1157	 5.00625225054713E-02 
1158	 4.99588844550094E-02 
1159	 4.90136204840024E-02 
1160	 4.89601543378632E-02 
1161	 4.87580434827395E-02 
1162	 4.77714459114478E-02 
1163	 4.78908565531281E-02 
1164	 4.91124803792593E-02 
1165	 4.93947801238479E-02 
1166	 4.89229782231476E-02 
1167	 4.95535735138285E-02 
1168	 4.96950754261738E-02 
1169	 4.90843831875514E-02 
1170	 0.04955506502801 
1171	 4.99094570555049E-02 
1172	 4.98860185979412E-02 
1173	 4.96847354592173E-02 
1174	 4.97111038411007E-02 
1175	 4.99530496599386E-02 
1176	 4.91072400726041E-02 
1177	 4.85005345361473E-02 
1178	 4.89144739444168E-02 
1179	 4.91530652352954E-02 
1180	 0.049033101157567 
1181	 4.89430117342884E-02 
1182	 4.86493984164491E-02 
1183	 4.84676937320258E-02 
1184	 4.86208145908773E-02 
1185	 4.89141045185472E-02 
1186	 0.04937964975809 
1187	 4.91583960684564E-02 
1188	 0.0489319015496 
1189	 4.92566240590278E-02 
1190	 4.89414594040824E-02 
1191	 4.81385242430405E-02 
1192	 4.79150103932896E-02 
1193	 4.78683128107059E-02 
1194	 4.80494348346257E-02 
1195	 0.048213681782386 
1196	 4.88754298200797E-02 
1197	 4.93510478462304E-02 
1198	 4.89661271161892E-02 
1199	 4.86632211945329E-02 
1200	 4.86623399193715E-02 
1201	 4.85946922571679E-02 
1202	 4.83629792464889E-02 
1203	 4.83389441883117E-02 
1204	 4.86342657023621E-02 
1205	 4.89698629360831E-02 
1206	 4.90142276835874E-02 
1207	 4.88560408614126E-02 
1208	 4.88495654866348E-02 
1209	 4.88470848628494E-02 
1210	 4.90021558887191E-02 
1211	 0.049144543817917 
1212	 4.91680192216139E-02 
1213	 4.91199887643338E-02 
1214	 4.89276184346089E-02 
1215	 4.85594675712414E-02 
1216	 0.048636662820878 
1217	 0.048972994205764 
1218	 4.88706855590693E-02 
1219	 4.89137269860783E-02 
1220	 4.92058196277665E-02 
1221	 4.89460809291237E-02 
1222	 4.85400980055334E-02 
1223	 4.86156896011458E-02 
1224	 4.89247144540054E-02 
1225	 0.048884781551422 
1226	 4.87142448907866E-02 
1227	 4.89384328416675E-02 
1228	 4.89411321024138E-02 
1229	 4.86599990473546E-02 
1230	 4.88453433046297E-02 
1231	 4.91327832306221E-02 
1232	 4.91357848653002E-02 
1233	 4.90594385482904E-02 
1234	 4.90849564503797E-02 
1235	 4.91100147890936E-02 
1236	 4.88062582485097E-02 
1237	 4.86415134372335E-02 
1238	 4.86017149428255E-02 
1239	 4.88357004336434E-02 
1240	 4.89531346083118E-02 
1241	 4.89373891135517E-02 
1242	 4.92098774860788E-02 
1243	 4.94873601728753E-02 
1244	 4.92054697794995E-02 
1245	 4.92048237128858E-02 
1246	 0.049447624271335 
1247	 4.93643965175539E-02 
1248	 4.92780718068652E-02 
1249	 4.92708268784855E-02 
1250	 4.91759815433972E-02 
1251	 0.048993875426119 
1252	 4.89957588761627E-02 
1253	 4.88327535109537E-02 
1254	 4.85332165079394E-02 
1255	 4.86225865345793E-02 
1256	 4.86638726132079E-02 
1257	 4.88768260822383E-02 
1258	 4.88059115432669E-02 
1259	 4.85328647603104E-02 
1260	 4.85407098361977E-02 
1261	 4.86670441745128E-02 
1262	 4.84008699228367E-02 
1263	 4.80176054123605E-02 
1264	 0.048018374505708 
1265	 0.047833724338104 
1266	 4.80087550171364E-02 
1267	 4.87308262105678E-02 
1268	 4.89376621857096E-02 
1269	 4.87045205402192E-02 
1270	 4.82496044099633E-02 
1271	 4.79014353194846E-02 
1272	 4.79415437145703E-02 
1273	 4.81230837162828E-02 
1274	 0.048252978565973 
1275	 0.048166369517415 
1276	 4.80159073172413E-02 
1277	 4.79619767488884E-02 
1278	 4.79961411114334E-02 
1279	 4.80464202035678E-02 
1280	 4.83347152484297E-02 
1281	 4.84968698554904E-02 
1282	 4.82209208167261E-02 
1283	 4.81856734930952E-02 
1284	 4.86359425334628E-02 
1285	 4.85208770516422E-02 
1286	 4.79102485149712E-02 
1287	 4.78111274274423E-02 
1288	 4.77232093527072E-02 
1289	 4.77158335879607E-02 
1290	 0.048042214611348 
1291	 4.81347322805301E-02 
1292	 4.82865598156323E-02 
1293	 4.82697874419724E-02 
1294	 4.78586009438644E-02 
1295	 4.77471893154278E-02 
1296	 4.77771461669318E-02 
1297	 0.047838563052309 
1298	 4.83198002890183E-02 
1299	 4.87109475339015E-02 
1300	 4.79251744401449E-02 
1301	 4.72323779701653E-02 
1302	 4.78160060011362E-02 
1303	 4.78392463580023E-02 
1304	 4.72846251233098E-02 
1305	 4.78217346792644E-02 
1306	 4.80022103207808E-02 
1307	 4.71114707604667E-02 
1308	 0.0465533549346 
1309	 4.68716462203238E-02 
1310	 4.67849084695067E-02 
1311	 4.57350008734808E-02 
1312	 4.54799453117712E-02 
1313	 4.61748665911766E-02 
1314	 4.63111885205228E-02 
1315	 4.62226270539605E-02 
1316	 4.60851798836993E-02 
1317	 4.58388978263796E-02 
1318	 4.57035699868851E-02 
1319	 4.50691927401277E-02 
1320	 4.52834454176604E-02 
1321	 4.67700199894197E-02 
1322	 4.72918316599249E-02 
1323	 4.67147118232529E-02 
1324	 4.63505439954247E-02 
1325	 4.58823055225212E-02 
1326	 4.52862166628259E-02 
1327	 0.045255393407304 
1328	 4.53625971538606E-02 
1329	 4.60383104249121E-02 
1330	 4.63742337401566E-02 
1331	 4.53336486036607E-02 
1332	 4.53305794984208E-02 
1333	 4.61016310646713E-02 
1334	 4.52839030509726E-02 
1335	 4.40538900406373E-02 
1336	 4.31551117200553E-02 
1337	 4.35648673447427E-02 
1338	 4.33008244612477E-02 
1339	 4.27306011006289E-02 
1340	 4.44129017255881E-02 
1341	 4.57132856697397E-02 
1342	 4.45433973512336E-02 
1343	 4.39885929502041E-02 
1344	 4.60675742634412E-02 
1345	 4.77904471352597E-02 
1346	 4.77138391324046E-02 
1347	 4.76439392865301E-02 
1348	 4.97426222965869E-02 
1349	 5.38806969340083E-02 
1350	 5.49732940881752E-02 
1351	 5.80840606527009E-02 
1352	 8.36844292760954E-02 
1353	 0.104004064719925 
1354	 9.71345233143896E-02 
1355	 9.15020782053783E-02 
1356	 0.16174364636896 
1357	 0.141847364238231 
1358	 7.14969992281507E-02 
1359	 0.127662938112798 
1360	 0.198813481259114 
1361	 0.184565375498876 
1362	 0.387913011994715 
1363	 0.723519603669582 
1364	 0.609488768439506 
1365	 0.363140868158479 
1366	 0.337921604678816 
1367	 0.396441282150454 
1368	 0.368153230234799 
1369	 0.609375626917628 
1370	 0.834981615258384 
1371	 0.808847494819101 
1372	 0.679152990309554 
1373	 0.733414732117668 
1374	 0.92407401814015 
1375	 0.75472942570613 
1376	 0.468874429378002 
1377	 0.624471660485602 
1378	 0.460894438938373 
1379	-9.11152527404138E-02 
1380	-0.183891380758055 
1381	-0.508740469987011 
1382	-0.400309599271954 
1383	 3.01892655429033 
1384	 4.35467057624043 
1385	 1.99583431097627 
1386	 2.30243349247317 
1387	 0.990956633267996 
1388	 0.600442310383151 
1389	 1.27981930149852 
1390	 1.63745776935148 
1391	 1.05298575876591 
1392	 0.193220120579999 
1393	 0.210623315383633 
1394	 0.474520007005639 
1395	 0.734320995101664 
1396	 1.12070523222709 
1397	 1.94953689513435 
1398	 1.64894132960246 
1399	 1.7965108242067 
1400	 2.34962358719288 
1401	 4.67545803526308 
1402	 16.2799593755424 
1403	 0.283589772578504 
1404	 0.41153492895029 
1405	 0.496043944395694 
1406	 0.660376627100142 
1407	 0.481176761512271 
1408	 0.329861651877771 
1409	 0.405976554360306 
1410	 0.398151995870716 
1411	 0.311202184924285 
1412	 0.470437336835311 
1413	 0.411887266373331 
1414	 9.81895476260556E-02 
1415	 2.49409711545881E-02 
1416	 4.53211760536481E-02 
1417	 6.72246982568405E-02 
1418	 0.100558875185451 
1419	 0.107721181920932 
1420	 0.13608792249613 
1421	 0.130306963758278 
1422	 0.105808196450299 
1423	 8.09560498622903E-02 
1424	 3.56954927304395E-02 
1425	 0.035048990963044 
1426	 5.99735547945639E-02 
1427	 5.51860353135639E-02 
1428	 4.94890287804964E-02 
1429	 5.54814554344995E-02 
1430	 5.61879490840401E-02 
1431	 4.59811461945917E-02 
1432	 3.58207136262476E-02 
1433	 0.039100016969263 
1434	 3.45862190934865E-02 
1435	 3.14601951908993E-02 
1436	 4.39904042303519E-02 
1437	 5.93348441152009E-02 
1438	 5.81633555024493E-02 
1439	 4.84593294725031E-02 
1440	 4.32555032560502E-02 
1441	 0.044063400838063 
1442	 4.13912386219986E-02 
1443	 4.33277952202931E-02 
1444	 4.84638726232482E-02 
1445	 5.07196558419203E-02 
1446	 5.10319994606266E-02 
1447	 4.79413918364126E-02 
1448	 4.59560393349339E-02 
1449	 0.042956702106004 
1450	 4.05862297143978E-02 
1451	 3.97463361969296E-02 
1452	 3.63629116794617E-02 
1453	 3.44580948263487E-02 
1454	 3.41773016000103E-02 
1455	 3.47028053700542E-02 
1456	 3.44169682411817E-02 
1457	 3.51778899053828E-02 
1458	 3.55387673544242E-02 
1459	 3.52801432099454E-02 
1460	 3.38118862568944E-02 
1461	 3.14592207977727E-02 
1462	 3.15426088543352E-02 
1463	 3.12981303122629E-02 
1464	 3.17121985188886E-02 
1465	 3.50389688351456E-02 
1466	 3.73845730415823E-02 
1467	 3.87008689812721E-02 
1468	 0.040018816676063 
1469	 4.32725918842183E-02 
1470	 0.043879178266197 
1471	 4.08749987277181E-02 
1472	 4.08453772175632E-02 
1473	 4.29684136651377E-02 
1474	 4.09939792898943E-02 
1475	 3.71040922617508E-02 
1476	 3.63862089774015E-02 
1477	 3.49378716542248E-02 
1478	 0.033911086156157 
1479	 3.55386579588515E-02 
1480	 3.49833959598228E-02 
1481	 3.24189056613998E-02 
1482	 3.09990946898629E-02 
1483	 2.95725529624232E-02 
1484	 2.96797103190362E-02 
1485	 3.04148346439908E-02 
1486	 3.08331131791332E-02 
1487	 0.032089290568928 
1488	 3.27362642202045E-02 
1489	 0.033572621321617 
1490	 3.30944183148519E-02 
1491	 3.13535289929857E-02 
1492	 3.12011441080207E-02 
1493	 3.12896810629372E-02 
1494	 0.030805512418299 
1495	 3.07527212280834E-02 
1496	 3.10389299237614E-02 
1497	 0.03073320624633 
1498	 3.07430753448039E-02 
1499	 3.16493463128858E-02 
1500	 3.20237975312688E-02 
1501	 3.21539404240791E-02 
1502	 3.20977131460951E-02 
1503	 3.16345194970428E-02 
1504	 3.16955793335751E-02 
1505	 3.19711443042528E-02 
1506	 3.18232236746876E-02 
1507	 3.16436889611731E-02 
1508	 0.031948164237432 
1509	 3.22011176217045E-02 
1510	 3.25827529043054E-02 
1511	 3.25878531860304E-02 
1512	 3.22978401059748E-02 
1513	 3.23366446395257E-02 
1514	 3.21754240670694E-02 
1515	 3.26030549937433E-02 
1516	 3.33242492942386E-02 
1517	 3.29356498345302E-02 
1518	 3.26044064030658E-02 
1519	 3.28015287262252E-02 
1520	 3.27797289902014E-02 
1521	 3.28919253294782E-02 
1522	 3.29594405262208E-02 
1523	 3.28114814615676E-02 
1524	 3.29218305405928E-02 
1525	 3.32506011908764E-02 
1526	 3.35049330194395E-02 
1527	 3.32705691434123E-02 
1528	 3.30118909838325E-02 
1529	 3.33138970991974E-02 
1530	 3.33359800662241E-02 
1531	 3.33767458953281E-02 
1532	 0.034008505390928 
1533	 3.43931794394138E-02 
1534	 3.43822924944209E-02 
1535	 3.43696290763893E-02 
1536	 3.44197383101417E-02 
1537	 3.44109379569598E-02 
1538	 3.42169257493787E-02 
1539	 3.42527763842564E-02 
1540	 3.44471261612582E-02 
1541	 3.41930695129199E-02 
1542	 0.034000968967462 
1543	 3.40422980175432E-02 
1544	 3.40701512433862E-02 
1545	 3.41631425687468E-02 
1546	 3.43134320374492E-02 
1547	 0.034390155012069 
1548	 3.43863062501668E-02 
1549	 3.43982830890388E-02 
1550	 3.45097939634013E-02 
1551	 3.49868729365456E-02 
1552	 3.52987457917447E-02 
1553	 3.54627457737704E-02 
1554	 0.035956074674733 
1555	 0.036177449714667 
1556	 3.57744356059444E-02 
1557	 3.55115889919751E-02 
1558	 3.56936264401713E-02 
1559	 3.55824344226646E-02 
1560	 0.035392959902077 
1561	 3.55433520271866E-02 
1562	 3.57020868598852E-02 
1563	 3.55928650346843E-02 
1564	 3.54449468152296E-02 
1565	 3.58503481001881E-02 
1566	 3.62989564847845E-02 
1567	 3.64835622159962E-02 
1568	 3.68841603397173E-02 
1569	 3.69758754258954E-02 
1570	 3.65215907206832E-02 
1571	 3.63088222928844E-02 
1572	 3.66882833792886E-02 
1573	 3.70803493633359E-02 
1574	 3.71210915733372E-02 
1575	 3.71580389919831E-02 
1576	 0.037218539059659 
1577	 3.70627022393045E-02 
1578	 3.68025759912451E-02 
1579	 3.64923039060467E-02 
1580	 3.66649984448327E-02 
1581	 3.73112351328055E-02 
1582	 3.74413062140307E-02 
1583	 3.73775294041188E-02 
1584	 3.76085112616336E-02 
1585	 3.77796528309014E-02 
1586	 3.75526320052455E-02 
1587	 3.71412292688126E-02 
1588	 3.68027467791776E-02 
1589	 0.036707140063632 
1590	 3.72135219406736E-02 
1591	 3.76854229300376E-02 
1592	 3.76768502634855E-02 
1593	 3.75562583455202E-02 
1594	 3.74671865361932E-02 
1595	 3.77723653755984E-02 
1596	 3.81460409158165E-02 
1597	 3.79159134782377E-02 
1598	 3.76581625625432E-02 
1599	 0.037826414481381 
1600	 3.82781230701817E-02 
1601	 3.83523405660199E-02 
1602	 3.80380372656041E-02 
1603	 0.038134643897995 
1604	 3.80349490798624E-02 
1605	 3.77656229672165E-02 
1606	 3.79690575159483E-02 
1607	 3.78686764808737E-02 
1608	 3.76389264366321E-02 
1609	 3.79063581903939E-02 
1610	 3.80018927756125E-02 
1611	 3.80055492162899E-02 
1612	 3.81363285537584E-02 
1613	 3.81178518594901E-02 
1614	 3.84194648222419E-02 
1615	 3.85481095686743E-02 
1616	 0.038020440807311 
1617	 3.78781829182058E-02 
1618	 3.79796046940374E-02 
1619	 3.78157948011816E-02 
1620	 0.038243102135398 
1621	 3.88721228672085E-02 
1622	 3.85893620152709E-02 
1623	 3.80857348094576E-02 
1624	 3.80901105926943E-02 
1625	 3.79959389305992E-02 
1626	 3.80009716122875E-02 
1627	 3.86893160968887E-02 
1628	 3.89221785809414E-02 
1629	 3.83714786121566E-02 
1630	 3.82875257133303E-02 
1631	 3.85439474760616E-02 
1632	 3.84971105554895E-02 
1633	 3.86588211702896E-02 
1634	 3.88540819017764E-02 
1635	 3.86724989062575E-02 
1636	 3.84451093886606E-02 
1637	 3.83365217887076E-02 
1638	 3.85271982287716E-02 
1639	 3.87334067509878E-02 
1640	 3.88071903923343E-02 
1641	 3.87641637705973E-02 
1642	 3.85837979758946E-02 
1643	 3.86314191686345E-02 
1644	 3.88083950555148E-02 
1645	 3.88871675537098E-02 
1646	 3.87537106069633E-02 
1647	 3.86288564474197E-02 
1648	 3.84416537701811E-02 
1649	 3.82886461102843E-02 
1650	 3.88242189065165E-02 
1651	 3.89471457191737E-02 
1652	 0.038900559388168 
1653	 3.89119214002378E-02 
1654	 3.90293466982098E-02 
1655	 0.039618263086803 
1656	 0.039652749332409 
1657	 3.92790173266477E-02 
1658	 0.039428668836264 
1659	 3.97346864867261E-02 
1660	 3.93856359817176E-02 
1661	 3.87695907839227E-02 
1662	 3.91367211193098E-02 
1663	 3.95504756719246E-02 
1664	 3.92026375102027E-02 
1665	 3.94447091394306E-02 
1666	 3.95287183007321E-02 
1667	 3.87029586370754E-02 
1668	 0.039293421705942 
1669	 3.90016947143481E-02 
1670	 3.89437824138744E-02 
1671	 3.96667564964068E-02 
1672	 3.95079320237155E-02 
1673	 0.039124145848676 
1674	 3.93269212246063E-02 
1675	 3.87108339463452E-02 
1676	 3.82075941124326E-02 
1677	 3.89234770482499E-02 
1678	 3.91277161457395E-02 
1679	 3.87034890137725E-02 
1680	 3.92034418273716E-02 
1681	 3.96250896507708E-02 
1682	 3.92557381435408E-02 
1683	 3.86466538450601E-02 
1684	 3.77046746901485E-02 
1685	 3.78155705061346E-02 
1686	 3.86345574898832E-02 
1687	 3.88110594708109E-02 
1688	 3.93221410479681E-02 
1689	 3.95413077152409E-02 
1690	 3.90575487776249E-02 
1691	 3.95980550429451E-02 
1692	 4.04674694577528E-02 
1693	 0.040340005789135 
1694	 4.00252040445513E-02 
1695	 4.00804089509279E-02 
1696	 4.03470562882035E-02 
1697	 0.04019083099628 
1698	 3.96738030626747E-02 
1699	 3.94113085373413E-02 
1700	 0.039056294843769 
1701	 3.88690139967336E-02 
1702	 3.86861769365977E-02 
1703	 0.038160090907638 
1704	 3.81786190377679E-02 
1705	 3.85628011951766E-02 
1706	 3.89529991808606E-02 
1707	 3.91137705608627E-02 
1708	 3.90349274328284E-02 
1709	 0.038803754235257 
1710	 3.89193283694599E-02 
1711	 4.00806626075963E-02 
1712	 3.99310640424459E-02 
1713	 3.88787386210434E-02 
1714	 3.90249285089287E-02 
1715	 3.93360484727868E-02 
1716	 3.99205519472168E-02 
1717	 4.01941859848544E-02 
1718	 3.97742437051894E-02 
1719	 3.99896708396894E-02 
1720	 4.01511321087223E-02 
1721	 3.99021721401492E-02 
1722	 3.96432524698544E-02 
1723	 3.90053004914846E-02 
1724	 3.85457164592369E-02 
1725	 3.83174313099517E-02 
1726	 3.83239371209929E-02 
1727	 3.87245741560062E-02 
1728	 3.86555853030526E-02 
1729	 3.86678237400173E-02 
1730	 3.94216144373988E-02 
1731	 3.94747931879172E-02 
1732	 3.88079511975786E-02 
1733	 3.85667385418896E-02 
1734	 3.85934382855625E-02 
1735	 3.78393177470685E-02 
1736	 3.78475811927554E-02 
1737	 3.89456356152064E-02 
1738	 3.88505042794574E-02 
1739	 3.86006868591786E-02 
1740	 3.86198050140879E-02 
1741	 3.86078546994291E-02 
1742	 3.79769730489089E-02 
1743	 3.73365600800503E-02 
1744	 3.80353519729498E-02 
1745	 3.80510488161904E-02 
1746	 3.82593668161373E-02 
1747	 3.85660013278653E-02 
1748	 3.85770321291092E-02 
1749	 3.82561926799362E-02 
1750	 3.78588586787547E-02 
1751	 3.76942653065951E-02 
1752	 3.70416922858538E-02 
1753	 3.71082632806846E-02 
1754	 3.78491768821101E-02 
1755	 3.81609393398714E-02 
1756	 0.038677676570672 
1757	 0.039111035822242 
1758	 3.96755059952673E-02 
1759	 3.83584388162518E-02 
1760	 3.71517081028685E-02 
1761	 3.69544466572841E-02 
1762	 3.46325006839863E-02 
1763	 3.44499789056152E-02 
1764	 3.62456242112485E-02 
1765	 3.70551751192535E-02 
1766	 3.93036526799703E-02 
1767	 4.01770040405619E-02 
1768	 3.89579298426889E-02 
1769	 0.036809735600492 
1770	 3.49979726590376E-02 
1771	 3.60217556679301E-02 
1772	 3.66373415638455E-02 
1773	 3.74316122084224E-02 
1774	 3.85882354667759E-02 
1775	 3.59286976311388E-02 
1776	 3.58621121287147E-02 
1777	 3.74551882438357E-02 
1778	 3.76447765396442E-02 
1779	 3.84841422958534E-02 
1780	 3.94241098228052E-02 
1781	 4.00080056563664E-02 
1782	 3.92846176984239E-02 
1783	 0.038288268829492 
1784	 3.73040567326314E-02 
1785	 3.37122273546105E-02 
1786	 3.25534230200711E-02 
1787	 3.34574673633463E-02 
1788	 3.50246086701163E-02 
1789	 3.82889060005028E-02 
1790	 3.96335996741312E-02 
1791	 4.11855440808299E-02 
1792	 3.66907627401908E-02 
1793	 3.06785705020691E-02 
1794	 3.53074549683672E-02 
1795	 3.40052423253681E-02 
1796	 3.18106499409998E-02 
1797	 0.041896703937862 
1798	 3.54817335676727E-02 
1799	 3.65018990127693E-02 
1800	 5.76738644228982E-02 
1801	 6.84826762102317E-02 
1802	 8.29720756066144E-02 
1803	 0.095232592559352 
1804	 8.07080173790628E-02 
1805	 9.16940989945126E-02 
1806	 0.1426856893821 
1807	 0.173023789503098 
1808	 0.214371244887576 
1809	 0.232787310138329 
1810	 0.156628442544041 
1811	 0.118436308504397 
1812	 7.24614493326799E-02 
1813	 6.43689079350973E-02 
1814	 0.100520760037105 
1815	 0.15659853134212 
1816	 0.535857080948884 
1817	 0.770451391731638 
1818	 1.10761869599952 
1819	 0.253314619806893 
1820	 5.93920589326172E-02 
1821	 0.889872124792879 
1822	 1.26673486852173 
1823	 2.90476331278575 
1824	 2.87851874273449 
1825	 0.900072092277418 
1826	 0.601369391747946 
1827	 0.37784520994994 
1828	 0.152637546734406 
1829	-0.772488473360817 
1830	-1.68535555116251 
1831	-9.31546252890845E-02 
1832	-0.472573838335933 
1833	 0.536942299990909 
1834	-0.582080264523258 
1835	-2.78004645687317 
1836	-6.79293601354398 
1837	 5.17597557032805 
1838	 4.20699836238975 
1839	 6.08129502403161 
1840	 3.01749304393581 
1841	 4.21921544465037 
1842	-3.83972314242965 
1843	-0.34781417591136 
1844	-0.455217524955287 
1845	-0.292071035779935 
1846	-0.217883644346184 
1847	-0.226802877822257 
1848	-0.289018457474139 
1849	-1.60174794294676 
1850	-1.79858907382536 
1851	-7.41504727910753 
1852	-42.7363906597809 
1853	-8.65588336270502 
1854	-1.22569294050294 
1855	 0.338171331826847 
1856	 0.313777287595586 
1857	-0.502837730742499 
1858	-1.08315474197732 
1859	-4.6884807158867 
1860	 3.56792061260382 
1861	 1.3494751392647 
1862	 0.338642150482716 
1863	-0.421076609603358 
1864	-0.495777780297374 
1865	-0.98140641576587 
1866	-9.39291449861781 
1867	 7.42950211344577 
1868	-0.573425591168129 
1869	-0.229097233292243 
1870	 0.301459898818494 
1871	 0.113747643078516 
1872	 0.362301373454167 
1873	 0.752311234974807 
1874	 0.431919656441465 
1875	 0.290504470658918 
1876	 0.299250584841028 
1877	 0.81261904259852 
1878	 1.06783266113079 
1879	 2.91545976720744 
1880	-1.02249498459425 
1881	-0.543104531620972 
1882	 0.291815577515229 
1883	 0.480137503881461 
1884	 1.99836056413394 
1885	-1.43526242808626 
1886	-4.65367207010772E-02 
1887	-0.212683136074572 
1888	-0.726806580190761 
1889	 1.27946641192291 
1890	 1.59401642272258 
1891	 3.00809958717149 
1892	 3.88877094721489 
1893	 26.7999429220713 
1894	-11.8664162860619 
1895	-2.62942392324392 
1896	-5.61798485525029 
1897	 1.59431849693192 
1898	 0.712726878959962 
1899	 0.423740795475124 
1900	 0.107679528147843 
1901	-0.540650025283078 
1902	-0.72328540841243 
1903	-0.834953904724536 
1904	-1.42295487158195 
1905	 2.18329076834647 
1906	 0.209700017713209 
1907	-0.727106140827877 
1908	-11.1735470402357 
1909	 4.74290856831568 
1910	 0.878825974617355 
1911	 0.405108271471873 
1912	 0.789125363311814 
1913	 1.02572463207057 
1914	 1.39472516502835 
1915	 2.7133946770761 
1916	-35.589742469889 
1917	-1.16357079020298 
1918	-0.289123175996928 
1919	-0.347555652655667 
1920	-0.188986997790127 
1921	-8.82694306546928E-02 
1922	-0.743203605786155 
1923	-5.03899258797729 
1924	-0.079121871415022 
1925	 9.53187549677828E-03 
1926	-0.222290996287523 
1927	-0.471689367422676 
1928	-0.240838038533463 
1929	-0.517885111352332 
1930	-1.32581005894108 
1931	-1.30202676380488 
1932	-1.17950212897498 
1933	-1.6361141397976 
1934	-1.07400170625096 
1935	-0.947207189660676 
1936	-0.900565550564467 
1937	-0.151968383163395 
1938	 6.09808371829393E-03 
1939	 0.123364336088238 
1940	 0.354359617325495 
1941	 0.447345589725216 
1942	 0.085219517894566 
1943	-1.48040186855143E-02 
1944	 2.09840825571974E-03 
1945	-6.88044393802748E-02 
1946	-5.76033560748864E-02 
1947	-3.40879295461664E-03 
1948	 2.62025774470747E-02 
1949	 3.31896464147872E-02 
1950	 5.10348785446649E-02 
1951	 6.92336722001468E-02 
1952	 6.70471549361922E-02 
1953	 3.42922811881555E-02 
1954	 0.057481920836314 
1955	 5.21055398038908E-02 
1956	 1.51695536668076E-02 
1957	 7.51635685738341E-03 
1958	-2.48836722964374E-03 
1959	 5.75388602117636E-03 
1960	 2.28336956551744E-02 
1961	 3.48846715033634E-02 
1962	 3.02457286778116E-02 
1963	 2.45339384988853E-02 
1964	 1.59391325023498E-02 
1965	 7.29008408939686E-03 
1966	 1.09259516726486E-02 
1967	 2.26636394982463E-02 
1968	 2.98343850840822E-02 
1969	 3.50693892374994E-02 
1970	 3.18803695480572E-02 
1971	 2.28035294574399E-02 
1972	 2.39056244929131E-02 
1973	 0.021081325977832 
1974	 1.72962605511082E-02 
1975	 2.36013221053159E-02 
1976	 2.53441139569626E-02 
1977	 2.21408484476867E-02 
1978	 2.77834961721041E-02 
1979	 2.85323915501201E-02 
1980	 2.63943057807252E-02 
1981	 1.90675178573557E-02 
1982	 0.019469411825936 
1983	 1.99470954973137E-02 
1984	 1.78508396100112E-02 
1985	 1.87481001763658E-02 
1986	 1.99466351255208E-02 
1987	 1.70670710813445E-02 
1988	 1.43987297224633E-02 
1989	 1.38817412494112E-02 
1990	 1.10119357189333E-02 
1991	 8.87049548940956E-03 
1992	 1.10166605239264E-02 
1993	 1.57387868662866E-02 
1994	 1.86541491575311E-02 
1995	 2.36017226817827E-02 
1996	 2.58858175946098E-02 
1997	 2.63254903053055E-02 
1998	 2.46111376855113E-02 
1999	 2.26400179031275E-02 
2000	 2.50650823036991E-02 
2001	 2.52247515038347E-02 
2002	 1.85123858025789E-02 
2003	 0.015241889813069 
2004	 1.93148738021728E-02 
2005	 2.29404840234834E-02 
2006	 2.35678930786905E-02 
2007	 2.24162829767048E-02 
2008	 1.73435730467536E-02 
2009	 1.32764252499872E-02 
2010	 1.00943446103472E-02 
2011	 8.74519754867842E-03 
2012	 8.18561113332651E-03 
2013	 4.65067442080874E-03 
2014	 6.47994177872627E-03 
2015	 6.79193520581629E-03 
2016	 8.51402996548153E-03 
2017	 1.41920193948486E-02 
2018	 2.16068002936469E-02 
2019	 2.54294434165698E-02 
2020	 2.71782668576727E-02 
2021	 2.68286413887747E-02 
2022	 0.020785211689651 
2023	 1.72499736734949E-02 
2024	 1.65959759815507E-02 
2025	 1.73863908040671E-02 
2026	 1.73282463860115E-02 
2027	 0.018312517933108 
2028	 2.03079047064585E-02 
2029	 2.05669193441468E-02 
2030	 2.19996808818507E-02 
2031	 2.36809182070595E-02 
2032	 2.44208375980848E-02 
2033	 2.43105032313598E-02 
2034	 2.52758041984797E-02 
2035	 2.69585958589025E-02 
2036	 2.81331032611069E-02 
2037	 0.029808994637539 
2038	 2.90410271049048E-02 
2039	 2.90756402141272E-02 
2040	 2.95241741886095E-02 
2041	 2.94676454696611E-02 
2042	 2.92977120397105E-02 
2043	 2.87511086662594E-02 
2044	 2.78559879975553E-02 
2045	 2.56935780512147E-02 
2046	 2.37016904430938E-02 
2047	 2.13022736409782E-02 
2048	 1.97544698461006E-02 
2049	 1.81994941247252E-02 
2050	 1.80924331874609E-02 
2051	 1.97868677523247E-02 
2052	 2.33654825095263E-02 
2053	 2.50053720155677E-02 
2054	 2.24976792388396E-02 
2055	 2.44145025113152E-02 
2056	 2.49073040969957E-02 
2057	 2.28931090183795E-02 
2058	 2.26881115878376E-02 
2059	 2.55761411451067E-02 
2060	 2.49211035971189E-02 
2061	 2.13362978481479E-02 
2062	 2.21273443502071E-02 
2063	 2.25054914183905E-02 
2064	 1.92664514819564E-02 
2065	 1.90514959850907E-02 
2066	 2.16301007555499E-02 
2067	 2.29766780331293E-02 
2068	 2.37714619482603E-02 
2069	 2.51896678954094E-02 
2070	 2.39728393746993E-02 
2071	 2.20090289694758E-02 
2072	 2.20711818133625E-02 
2073	 0.021881575205125 
2074	 2.13902709226989E-02 
2075	 2.21799931312527E-02 
2076	 2.47208999021174E-02 
2077	 0.02458112852524 
2078	 2.34259000805313E-02 
2079	 2.33471425050897E-02 
2080	 2.22643536264173E-02 
2081	 2.16860865098064E-02 
2082	 2.37781363666036E-02 
2083	 2.50142558937391E-02 
2084	 2.54097034838263E-02 
2085	 2.69588822752406E-02 
2086	 2.63516400769118E-02 
2087	 0.024953704861419 
2088	 2.60115641633934E-02 
2089	 2.62114607359414E-02 
2090	 2.51059792079264E-02 
2091	 2.47035511785502E-02 
2092	 2.49951096076469E-02 
2093	 2.43027601122654E-02 
2094	 2.50359344135709E-02 
2095	 2.86053146031401E-02 
2096	 0.029891849473266 
2097	 3.00009115388797E-02 
2098	 2.91354425068486E-02 
2099	 2.69538584837191E-02 
2100	 2.59489425597451E-02 
2101	 2.34612973843542E-02 
2102	 0.023530753877292 
2103	 2.50230180471504E-02 
2104	 2.58473916589877E-02 
2105	 2.77189415123001E-02 
2106	 2.86332268469397E-02 
2107	 2.84019150463763E-02 
2108	 2.83196989587989E-02 
2109	 2.71791148609169E-02 
2110	 0.026858323213565 
2111	 2.88917958791914E-02 
2112	 3.04736308069465E-02 
2113	 3.05734980769869E-02 
2114	 3.06356661818121E-02 
2115	 3.11239073797491E-02 
2116	 2.89102432305891E-02 
2117	 2.86257143692599E-02 
2118	 3.16050410235084E-02 
2119	 3.16597279937776E-02 
2120	 2.96699028349342E-02 
2121	 2.95493843753053E-02 
2122	 2.98933240476194E-02 
2123	 2.86748823411861E-02 
2124	 2.93885034414652E-02 
2125	 3.15948076724998E-02 
2126	 3.10449983810009E-02 
2127	 3.07917069533881E-02 
2128	 2.88412611604881E-02 
2129	 2.76289255677314E-02 
2130	 3.11035927687059E-02 
2131	 3.22593944116165E-02 
2132	 3.30785112020881E-02 
2133	 3.41588016396942E-02 
2134	 3.37658942263705E-02 
2135	 0.030206149506241 
2136	 2.91994910557217E-02 
2137	 2.84801028956529E-02 
2138	 2.92184262231472E-02 
2139	 3.24451949010341E-02 
2140	 3.25309417788062E-02 
2141	 3.15093721907133E-02 
2142	 3.13615348069538E-02 
2143	 2.96811491363931E-02 
2144	 2.87234134308651E-02 
2145	 2.88174860485633E-02 
2146	 2.89236391210627E-02 
2147	 0.028537802614485 
2148	 2.79805740845593E-02 
2149	 2.76182987337687E-02 
2150	 2.79012909906613E-02 
2151	 2.79094393012815E-02 
2152	 2.75927372416673E-02 
2153	 2.81165144789557E-02 
2154	 3.09855648620327E-02 
2155	 3.33872779404091E-02 
2156	 3.17234457392679E-02 
2157	 3.09888847184468E-02 
2158	 2.88678773768462E-02 
2159	 2.86975018273508E-02 
2160	 3.00984625437475E-02 
2161	 0.029914178464382 
2162	 2.99466053690976E-02 
2163	 2.91136859167049E-02 
2164	 2.54643811480383E-02 
2165	 2.43123815014391E-02 
2166	 2.50578541719601E-02 
2167	 2.53614203037658E-02 
2168	 2.64089365265246E-02 
2169	 2.71465607039607E-02 
2170	 2.87342416007884E-02 
2171	 2.73664622373345E-02 
2172	 0.026884646698984 
2173	 0.025799719514302 
2174	 2.31093442984395E-02 
2175	 0.024385619658329 
2176	 2.64458168575413E-02 
2177	 2.68518057883926E-02 
2178	 2.96083599332802E-02 
2179	 3.22915707107572E-02 
2180	 3.38749874048147E-02 
2181	 3.49393584470629E-02 
2182	 3.39745043262071E-02 
2183	 0.033583666942073 
2184	 3.10717632843022E-02 
2185	 2.80137309154483E-02 
2186	 2.77336283496652E-02 
2187	 3.03204459381333E-02 
2188	 2.93712070221796E-02 
2189	 2.77300748443702E-02 
2190	 2.72446187619211E-02 
2191	 2.39374342577793E-02 
2192	 0.024087285857725 
2193	 2.86262234937573E-02 
2194	 3.15558116735569E-02 
2195	 3.63544354431805E-02 
2196	 3.76927642362342E-02 
2197	 3.59410507333644E-02 
2198	 3.53826211504206E-02 
2199	 3.42368995742733E-02 
2200	 3.15584776867386E-02 
2201	 2.74797653542588E-02 
2202	 3.15430057981086E-02 
2203	 3.57263210085762E-02 
2204	 3.50595851040286E-02 
2205	 3.61540871546278E-02 
2206	 3.34806547567913E-02 
2207	 2.85364229394686E-02 
2208	 2.68623660224412E-02 
2209	 2.78960151322137E-02 
2210	 2.99073816817688E-02 
2211	 2.88672260457602E-02 
2212	 2.91551012099979E-02 
2213	 3.05747269542228E-02 
2214	 2.91927174033757E-02 
2215	 2.94642941985038E-02 
2216	 0.028192381248454 
2217	 2.77072402020467E-02 
2218	 2.57724167162336E-02 
2219	 2.62428322507853E-02 
2220	 3.00335087302064E-02 
2221	 3.02733105518393E-02 
2222	 2.86779414658627E-02 
2223	 2.84104583617431E-02 
2224	 2.64237783546731E-02 
2225	 0.026909485388516 
2226	 3.00835443944854E-02 
2227	 3.02768000012096E-02 
2228	 3.06551881279088E-02 
2229	 3.01282714819853E-02 
2230	 2.65561006990118E-02 
2231	 2.61012689086462E-02 
2232	 2.83638704908196E-02 
2233	 2.78155243504245E-02 
2234	 2.64212682780032E-02 
2235	 2.54676736241169E-02 
2236	 2.52645209094067E-02 
2237	 2.42995076854035E-02 
2238	 2.43726459260205E-02 
2239	 2.79306572757413E-02 
2240	 2.98551326922016E-02 
2241	 2.77608579605491E-02 
2242	 2.43323581623639E-02 
2243	 2.09994660958515E-02 
2244	 1.77300412197375E-02 
2245	 1.68561562785481E-02 
2246	 0.021200286059568 
2247	 2.74881717737214E-02 
2248	 3.19535038799386E-02 
2249	 3.32776522846127E-02 
2250	 3.02689233840871E-02 
2251	 2.72256807792945E-02 
2252	 2.78825895414685E-02 
2253	 2.72647573628282E-02 
2254	 2.58599156079084E-02 
2255	 2.41647567685468E-02 
2256	 2.08035400430398E-02 
2257	 1.94580172742731E-02 
2258	 2.15230597213619E-02 
2259	 2.31859599172012E-02 
2260	 2.36133968690935E-02 
2261	 2.24823854266779E-02 
2262	 0.023831423348798 
2263	 2.62271387581538E-02 
2264	 2.57450281598828E-02 
2265	 2.58750482166972E-02 
2266	 2.51955789421859E-02 
2267	 1.96417333466372E-02 
2268	 1.83467369845556E-02 
2269	 2.00516360543387E-02 
2270	 2.15998904295842E-02 
2271	 2.41431533583682E-02 
2272	 2.69542255036676E-02 
2273	 3.07903898434135E-02 
2274	 3.38703073536742E-02 
2275	 4.09337097266455E-02 
2276	 0.042359287909586 
2277	 3.75746260936274E-02 
2278	 3.64928397568724E-02 
2279	 3.24783809591919E-02 
2280	 2.82483616086079E-02 
2281	 2.34386733283001E-02 
2282	 2.88151367588856E-02 
2283	 3.26049481450659E-02 
2284	 3.01304558348791E-02 
2285	 2.87271231798699E-02 
2286	 0.027063890443284 
2287	 2.25261360087835E-02 
2288	 1.90867122963993E-02 
2289	 1.96772707796107E-02 
2290	 1.97432438533836E-02 
2291	 1.87502019589053E-02 
2292	 1.85229534926053E-02 
2293	 1.86855174645058E-02 
2294	 2.59420678021336E-02 
2295	 2.69160522190678E-02 
2296	 2.46151775010872E-02 
2297	 3.13329228295304E-02 
2298	 2.69921034524212E-02 
2299	 2.36302333076032E-02 
2300	 2.55409247999998E-02 
2301	 2.08111179028132E-02 
2302	 0.022598779308968 
2303	 2.26824655469979E-02 
2304	 2.21120084799431E-02 
2305	 2.88981818702179E-02 
2306	 2.37045767495912E-02 
2307	 1.43130069186876E-02 
2308	 9.4285913965036E-03 
2309	 2.51632697396321E-03 
2310	 1.00186689555798E-02 
2311	 2.44766089817879E-02 
2312	 3.09815021745969E-02 
2313	 3.72222843981797E-02 
2314	 3.41189232840517E-02 
2315	 1.95805263571192E-02 
2316	 1.14723122341435E-02 
2317	 5.09978003261726E-03 
2318	-3.51935742248825E-03 
2319	 1.00515051470406E-04 
2320	 6.59552714804259E-03 
2321	 1.12241014043682E-02 
2322	 2.02496906411811E-02 
2323	 1.66117711455455E-02 
2324	 1.96692118758152E-02 
2325	 0.032317808190252 
2326	 2.67868690234375E-02 
2327	 2.31390197289354E-02 
2328	 1.58083409869971E-02 
2329	 8.77853414250409E-03 
2330	 1.98177383519113E-02 
2331	 0.027990921562297 
2332	 3.88162865082844E-02 
2333	 3.73730113749425E-02 
2334	 1.81532224073809E-02 
2335	 2.71543746704733E-02 
2336	 4.36955573981519E-02 
2337	 5.11722795625093E-02 
2338	 0.063141460120247 
2339	 6.59925569649445E-02 
2340	 6.04515815254602E-02 
2341	 0.044682386744087 
2342	 3.96156691796151E-02 
2343	 3.39998011940788E-02 
2344	-4.62101050666452E-03 
2345	-3.00530582909171E-02 
2346	-1.49640207294632E-02 
2347	-7.72629452533546E-04 
2348	-1.41099315224298E-03 
2349	 1.41967380022558E-02 
2350	 2.5332945571774E-03 
2351	-2.81897563641707E-02 
2352	-1.93451390691463E-02 
2353	-1.55084617408757E-02 
2354	-1.83900761861213E-02 
2355	-1.10811711695374E-02 
2356	-1.41027614235938E-02 
2357	-9.55728694090748E-03 
2358	-8.23114147867479E-03 
2359	-2.26621502128148E-02 
2360	-2.17301794416816E-02 
2361	-1.69761478269437E-02 
2362	 6.00905208989583E-03 
2363	 4.38977771681869E-02 
2364	 3.94557448311396E-02 
2365	 2.73428819238803E-02 
2366	 1.95223075263916E-02 
2367	-1.62600164480416E-02 
2368	-1.90300024648835E-02 
2369	 2.54735398828363E-02 
2370	 4.06811603136079E-02 
2371	 5.89817083338322E-02 
2372	 0.102735466694118 
2373	 4.08819037760478E-02 
2374	-7.91106933519369E-02 
2375	-0.12005193601541 
2376	-0.135648711922579 
2377	-7.67043905216973E-02 
2378	 8.5533721780423E-03 
2379	 4.33814742615805E-02 
2380	 3.93171100086236E-02 
2381	 7.59368428347981E-03 
2382	 7.17251407219162E-03 
2383	-6.03892924552006E-02 
2384	-0.120280398927269 
2385	-0.119791037083208 
2386	-0.217657468264084 
2387	-0.204812154470137 
2388	-0.111897003563399 
2389	-9.42570266233798E-02 
2390	-6.87291640065776E-03 
2391	 2.91861555593253E-02 
2392	-9.7522869452579E-03 
2393	-0.025795119546683 
2394	-2.83352144888211E-02 
2395	-3.05320282249448E-02 
2396	-8.00437197299939E-02 
2397	-0.101104278675801 
2398	-0.1077371644193 
2399	-0.116643388625238 
2400	-3.45785729555783E-02 
2401	-0.014019438373823 
2402	-2.35473511375424E-02 
2403	-1.21214364194093E-02 
2404	-0.041899631520746 
2405	-3.32174027780527E-02 
2406	 4.62261651972285E-03 
2407	 0.123193746323839 
2408	 0.285995928789436 
2409	 0.339257841129893 
2410	 0.257050653345618 
2411	 9.46620452203154E-02 
2412	-5.15273766142522E-02 
2413	-0.068876245670834 
2414	-4.54440693665366E-03 
2415	 2.53925436509396E-02 
2416	 6.91310991479271E-02 
2417	 0.180129478759188 
2418	 0.107733423550688 
2419	-1.63337975888634E-02 
2420	 7.48261486675095E-02 
2421	-1.40973990516543E-02 
2422	-0.104932151956609 
2423	-0.141811836876193 
2424	-0.428008715430113 
2425	-0.704110258098444 
2426	-0.917535633871905 
2427	-0.532359780095625 
2428	-0.307800777204215 
2429	-0.322178225508774 
2430	-0.136589251950714 
2431	-0.112183597715957 
2432	-0.305707332368179 
2433	-5.55589043570124E-02 
2434	 9.56030033480067E-02 
2435	-2.95539441432582E-02 
2436	-0.184700577847994 
2437	-0.280314175484336 
2438	-0.480619148467354 
2439	-0.519472073825721 
2440	-9.32527142402838E-02 
2441	 0.049452087489649 
2442	-9.98517366422211E-02 
2443	-0.215017851927417 
2444	-0.116519448582613 
2445	 4.87026972818882E-02 
2446	-0.164489655194419 
2447	-0.149320708455927 
2448	-0.154877692269028 
2449	-0.329724603740294 
2450	-0.499361280926581 
2451	-2.30670178846629 
2452	 0.753417133447176 
2453	 0.151575844721538 
2454	-0.542497088280169 
2455	-0.479776610497113 
2456	-0.721765553727831 
2457	 4.97770127092186 
2458	-4.72147368818734 
2459	-6.29817445763928 
2460	-10.3228028797641 
2461	 3.45850493152093 
2462	-0.323731825102508 
2463	-0.134452023434723 
2464	-0.131252813634186 
2465	-7.55448614644885E-02 
2466	 8.69124749565035E-02 
2467	-1.15061753769228 
2468	-10.6626657887707 
2469	-1.08766394339058 
2470	-0.367293782518288 
2471	-2.14063166594557 
2472	-4.78106713599797 
2473	 1.26964465332085 
2474	 1.02861155442577 
2475	 2.35367418931632 
2476	-1.61513814518022E-02 
2477	-0.91358536131443 
2478	 1.55453763129622 
2479	 1.43813891698737 
2480	 1.62902947347878 
2481	 1.18930546562749 
2482	 1.92822727006616 
2483	-0.91507176573994 
2484	 0.129643782353178 
2485	-9.46229723776307E-02 
2486	 0.362063141094939 
2487	 0.247930722039113 
2488	 3.27427058112736 
2489	 8.28173509163273 
2490	 36.605747820526 
2491	-1.0533628652769 
2492	 0.102439377551877 
2493	 0.584250613127608 
2494	 8.60629968942211E-02 
2495	-0.429055637057318 
2496	-0.366122223772251 
2497	 1.20623415757559 
2498	-3.54739230817915 
2499	-1.17036915613838 
2500	-1.62518853578137 
