Wavelength	rt0714yellow200008.asd
350	 0.101916511734827 
351	 0.10056684455767 
352	 0.10007600939236 
353	 0.100442219840246 
354	 0.101035887855606 
355	 0.100722731835866 
356	 9.99397663233388E-02 
357	 0.099721152994187 
358	 0.10060800585019 
359	 0.100399751837958 
360	 9.99064009985701E-02 
361	 9.95364224171518E-02 
362	 9.93240837099872E-02 
363	 9.91773357110265E-02 
364	 9.92685613848031E-02 
365	 9.94313278357179E-02 
366	 9.89505381046765E-02 
367	 9.86111492184386E-02 
368	 9.87284745838274E-02 
369	 9.91882172421003E-02 
370	 9.89425805562764E-02 
371	 9.84551522032657E-02 
372	 9.84456221212821E-02 
373	 9.94646700664984E-02 
374	 0.099512035958515 
375	 9.93216373878354E-02 
376	 9.94932749815108E-02 
377	 0.100003717740677 
378	 0.100003525013534 
379	 9.96209634276559E-02 
380	 9.92881386769127E-02 
381	 9.94685635234802E-02 
382	 0.100050390569873 
383	 0.100508169491618 
384	 0.100351000059471 
385	 0.100785632174729 
386	 0.100943157279033 
387	 0.100713071253857 
388	 0.100986351679914 
389	 0.101853535773271 
390	 0.102236059822851 
391	 0.101800729103392 
392	 0.102552802665081 
393	 0.102837616680065 
394	 0.102710352069843 
395	 0.102844714075508 
396	 0.103536163259677 
397	 0.103708972679685 
398	 0.103389595872575 
399	 0.103543764860286 
400	 0.103568565551125 
401	 0.103757183080516 
402	 0.104231464633216 
403	 0.104455354850294 
404	 0.10465452771219 
405	 0.104774494106351 
406	 0.104748464504735 
407	 0.104981179488772 
408	 0.105299385659172 
409	 0.105613165756981 
410	 0.105945488711067 
411	 0.106092498291913 
412	 0.106106958103952 
413	 0.106184467609087 
414	 0.106779069660109 
415	 0.107213924567562 
416	 0.107507964452908 
417	 0.107884602572108 
418	 0.107839747630508 
419	 0.108169211462577 
420	 0.108918366517018 
421	 0.109267288528104 
422	 0.109610452457993 
423	 0.109983608822084 
424	 0.110397917321867 
425	 0.111006689669577 
426	 0.111490993825715 
427	 0.111968998217789 
428	 0.112694632598071 
429	 0.113245531551599 
430	 0.113829641427383 
431	 0.114469887442163 
432	 0.114914049978693 
433	 0.115588940385353 
434	 0.116248083597904 
435	 0.116684431195083 
436	 0.117253428429672 
437	 0.117855255840299 
438	 0.118496435615357 
439	 0.119216645795484 
440	 0.119875329092741 
441	 0.1204531755377 
442	 0.120959753110421 
443	 0.121420824707645 
444	 0.121898150163719 
445	 0.122341386392844 
446	 0.122723114730732 
447	 0.123246401796056 
448	 0.123688275274665 
449	 0.124088972576276 
450	 0.124651092298932 
451	 0.124927811791734 
452	 0.125211055717585 
453	 0.125634876527162 
454	 0.125776311817063 
455	 0.126014228915587 
456	 0.126305871226682 
457	 0.126491115546031 
458	 0.126645146512056 
459	 0.12682692468296 
460	 0.127051790604935 
461	 0.127285173395496 
462	 0.127390542887467 
463	 0.12750458693816 
464	 0.127733155160824 
465	 0.127936093015288 
466	 0.128201084701934 
467	 0.128472311435827 
468	 0.128644251568344 
469	 0.1287949182547 
470	 0.128928668268301 
471	 0.129090673754217 
472	 0.129386942712708 
473	 0.12954458885134 
474	 0.129763063071505 
475	 0.130195453263201 
476	 0.130364924749719 
477	 0.130572318373907 
478	 0.130939334282274 
479	 0.131419324752591 
480	 0.13160575868844 
481	 0.131875258781426 
482	 0.1324099644727 
483	 0.132777688583274 
484	 0.133207291693276 
485	 0.133701379543065 
486	 0.134182748646756 
487	 0.134603313598663 
488	 0.134917124772045 
489	 0.135276792217851 
490	 0.135994199010238 
491	 0.136689642369296 
492	 0.137207850845116 
493	 0.137567786752392 
494	 0.138115602702765 
495	 0.13874155399457 
496	 0.139369204730471 
497	 0.13994996096762 
498	 0.140561389008236 
499	 0.141197304206241 
500	 0.141824743042573 
501	 0.142385142187856 
502	 0.142931207888238 
503	 0.143598586471992 
504	 0.14443988195375 
505	 0.145103274421372 
506	 0.145735522285656 
507	 0.146414257556285 
508	 0.147149970975847 
509	 0.147981867232188 
510	 0.148763909799817 
511	 0.149427742447948 
512	 0.150149090929924 
513	 0.150893290963667 
514	 0.151668870417387 
515	 0.152486873363233 
516	 0.153323467455941 
517	 0.15420712769992 
518	 0.155091330610571 
519	 0.155842458325467 
520	 0.156471084601126 
521	 0.157179369707872 
522	 0.158082345745381 
523	 0.158837201325158 
524	 0.159632383210901 
525	 0.160495009111589 
526	 0.161335880759703 
527	 0.162103261096124 
528	 0.16292531295818 
529	 0.163833541991704 
530	 0.164621471403098 
531	 0.165433482382197 
532	 0.166250233743441 
533	 0.167008744677127 
534	 0.167760151292169 
535	 0.168537432717475 
536	 0.169365497234109 
537	 0.170255184678217 
538	 0.170964118572317 
539	 0.171634504756436 
540	 0.172419226392001 
541	 0.173168808155034 
542	 0.173954670089815 
543	 0.174752614094614 
544	 0.175487021334443 
545	 0.176161800026377 
546	 0.176836121291553 
547	 0.17753769085887 
548	 0.178219057530897 
549	 0.178949129920292 
550	 0.179714857903504 
551	 0.180456397134337 
552	 0.181027562598023 
553	 0.181623547644122 
554	 0.18229496798036 
555	 0.1829043596048 
556	 0.183463212383072 
557	 0.184039028220731 
558	 0.184649445300185 
559	 0.185121851396421 
560	 0.185556365950965 
561	 0.186006658770268 
562	 0.186488942552148 
563	 0.186929873625709 
564	 0.187329538202333 
565	 0.18770206822929 
566	 0.188073958631205 
567	 0.188383692446446 
568	 0.188602077183481 
569	 0.188771008245202 
570	 0.189243242707903 
571	 0.189626214639927 
572	 0.189760666727133 
573	 0.189795263384617 
574	 0.190091508016574 
575	 0.190413316979378 
576	 0.19052664823838 
577	 0.19072037506228 
578	 0.190785498790685 
579	 0.190812878073688 
580	 0.19103301391676 
581	 0.191112637775747 
582	 0.191121494773695 
583	 0.191108763581896 
584	 0.19099513078258 
585	 0.190758641012571 
586	 0.190385655847799 
587	 0.189899634445634 
588	 0.189491460358873 
589	 0.189183697667316 
590	 0.189011164586104 
591	 0.188998005137028 
592	 0.18872381084213 
593	 0.188444386134718 
594	 0.188349566809877 
595	 0.187966241388238 
596	 0.187476533986775 
597	 0.186983259582101 
598	 0.186550996610471 
599	 0.186259555663309 
600	 0.18594581131566 
601	 0.185566220327513 
602	 0.185329555022878 
603	 0.185211994812322 
604	 0.185112980201593 
605	 0.184932777390373 
606	 0.184729546635379 
607	 0.184592824720213 
608	 0.184554771476176 
609	 0.18457865384553 
610	 0.184489694840293 
611	 0.184361466028412 
612	 0.18428763034548 
613	 0.184257752491232 
614	 0.184140050338439 
615	 0.184035907873338 
616	 0.184115973883442 
617	 0.183868641074556 
618	 0.183646630082853 
619	 0.183638654835371 
620	 0.183629022362844 
621	 0.183632527875762 
622	 0.183621686484175 
623	 0.183541459607356 
624	 0.183233446194941 
625	 0.182984834171212 
626	 0.182843776054143 
627	 0.182627675679565 
628	 0.182591789399632 
629	 0.182609569269602 
630	 0.182572108886312 
631	 0.182625692851823 
632	 0.182672184532744 
633	 0.182589606952725 
634	 0.182312461829316 
635	 0.182263449729248 
636	 0.182337975894953 
637	 0.182395003777478 
638	 0.182326920896592 
639	 0.182073298773756 
640	 0.181890299929454 
641	 0.181954799683127 
642	 0.181740133465493 
643	 0.181363681274535 
644	 0.180935075734703 
645	 0.180545103250561 
646	 0.180100942046183 
647	 0.17981117058606 
648	 0.179809232514286 
649	 0.179993736432593 
650	 0.179805485173879 
651	 0.179368734903129 
652	 0.179055635059762 
653	 0.178723182554151 
654	 0.178401236066561 
655	 0.178014048963663 
656	 0.17739359700388 
657	 0.177001456806329 
658	 0.176751051810044 
659	 0.17644773907785 
660	 0.175937426826631 
661	 0.175618269535124 
662	 0.175460034792479 
663	 0.175177654392127 
664	 0.174849265152891 
665	 0.174566949239593 
666	 0.174349106674368 
667	 0.174077389718255 
668	 0.173936677021126 
669	 0.173797463921189 
670	 0.173527867870553 
671	 0.173537143052568 
672	 0.173486794522265 
673	 0.17335269309425 
674	 0.173413803092365 
675	 0.173290652347157 
676	 0.173265775360803 
677	 0.173469019122856 
678	 0.173308390949732 
679	 0.173304901065264 
680	 0.173489374556086 
681	 0.173672360548971 
682	 0.173842151279515 
683	 0.173968993716472 
684	 0.173953303553198 
685	 0.173575834420494 
686	 0.173272573948219 
687	 0.173315488683734 
688	 0.173671115326318 
689	 0.173799019434593 
690	 0.1737383645413 
691	 0.173582627373407 
692	 0.173450728060958 
693	 0.173254444219943 
694	 0.173326333641614 
695	 0.173628375729832 
696	 0.173516508361539 
697	 0.173204953938287 
698	 0.172702207345599 
699	 0.172079909642214 
700	 0.171775598761781 
701	 0.171497461020019 
702	 0.171175430516581 
703	 0.170912028461633 
704	 0.170278215654449 
705	 0.169576070891682 
706	 0.169028461924656 
707	 0.168414303593347 
708	 0.167609674098277 
709	 0.166732539046798 
710	 0.165937410908315 
711	 0.165010445706272 
712	 0.163789634534819 
713	 0.162357340386587 
714	 0.160991585395339 
715	 0.159133563678756 
716	 0.15710497956616 
717	 0.155483050949093 
718	 0.153838244428997 
719	 0.152719346671031 
720	 0.15191223579257 
721	 0.150821714708491 
722	 0.149416764233129 
723	 0.147741022474743 
724	 0.146114709341157 
725	 0.144713351302011 
726	 0.143145198925628 
727	 0.141592650913587 
728	 0.140162092179108 
729	 0.13821877244949 
730	 0.136542860191004 
731	 0.135320406870117 
732	 0.13428090071709 
733	 0.133002600206899 
734	 0.131806635002289 
735	 0.130864379265202 
736	 0.130077113221267 
737	 0.129797245956624 
738	 0.129649641159407 
739	 0.129306694253342 
740	 0.129108701231056 
741	 0.129005151387501 
742	 0.12894657844331 
743	 0.128882547986268 
744	 0.12879261354232 
745	 0.12880155335381 
746	 0.128836852145265 
747	 0.128547625279335 
748	 0.128619989405637 
749	 0.128711891994486 
750	 0.128468476455807 
751	 0.128394894523749 
752	 0.128355446455928 
753	 0.128353248402836 
754	 0.128428358747952 
755	 0.128321970703141 
756	 0.128169942628978 
757	 0.127990573581539 
758	 0.127464738750825 
759	 0.12623791596756 
760	 0.124914708160691 
761	 0.125072412963243 
762	 0.12526861232352 
763	 0.125809554032001 
764	 0.126412681175796 
765	 0.12679872236704 
766	 0.127174968149434 
767	 0.127609144474606 
768	 0.12800759186536 
769	 0.128116821412796 
770	 0.128205269746941 
771	 0.128326888762999 
772	 0.128486195968413 
773	 0.128696656719263 
774	 0.128751374783606 
775	 0.128814870568602 
776	 0.129131234119457 
777	 0.12935558867877 
778	 0.129409822581489 
779	 0.129441861095266 
780	 0.129772650062374 
781	 0.129967198238629 
782	 0.129973326172339 
783	 0.129943678126316 
784	 0.130346169924406 
785	 0.130509680082866 
786	 0.130494371618507 
787	 0.130603593116396 
788	 0.130871030184084 
789	 0.131108608325233 
790	 0.131360897995983 
791	 0.131831591287142 
792	 0.132166692958563 
793	 0.132445804446273 
794	 0.132707596679513 
795	 0.132811782507493 
796	 0.13291761692009 
797	 0.133094052128549 
798	 0.133342333304199 
799	 0.133513392764668 
800	 0.133794262046183 
801	 0.134120462533499 
802	 0.134298012285315 
803	 0.134316289117598 
804	 0.134448562732013 
805	 0.134678332367642 
806	 0.13466618893272 
807	 0.1347105545922 
808	 0.134412540218846 
809	 0.133694194203692 
810	 0.133659118653509 
811	 0.133349810295401 
812	 0.132608918441347 
813	 0.131712083867185 
814	 0.131337816174124 
815	 0.130977174411595 
816	 0.130502879150013 
817	 0.130185500396625 
818	 0.130242668300162 
819	 0.130162996429701 
820	 0.129583133349201 
821	 0.128353579190166 
822	 0.127504041633726 
823	 0.126928447998609 
824	 0.126200769833797 
825	 0.124965679532876 
826	 0.123751094636027 
827	 0.122480647444541 
828	 0.121009120044275 
829	 0.119647035847756 
830	 0.118825467696258 
831	 0.118295372446663 
832	 0.117426687646765 
833	 0.11679251405932 
834	 0.116391759898144 
835	 0.116024546896412 
836	 0.115359519880818 
837	 0.115202885003939 
838	 0.115312931557109 
839	 0.11530987277453 
840	 0.115101097907119 
841	 0.114796007419825 
842	 0.114556702607805 
843	 0.114496649687991 
844	 0.11444136239041 
845	 0.114178078911547 
846	 0.113830476675117 
847	 0.113714389771739 
848	 0.113620424403071 
849	 0.11351001817454 
850	 0.113308204243305 
851	 0.112888748768958 
852	 0.11239178405045 
853	 0.11221839679975 
854	 0.112364691333479 
855	 0.111869437012253 
856	 0.112024310739311 
857	 0.112367178238669 
858	 0.112162085830711 
859	 0.111476220060744 
860	 0.111198386439358 
861	 0.111314319855797 
862	 0.111313887041832 
863	 0.11099282033851 
864	 0.110772316895476 
865	 0.110741392784213 
866	 0.110621931211712 
867	 0.110172102417427 
868	 0.109964617215617 
869	 0.110088926797485 
870	 0.10989341718288 
871	 0.109501375481751 
872	 0.109138525312984 
873	 0.108953477133548 
874	 0.108861259320418 
875	 0.108540713177165 
876	 0.108220861695893 
877	 0.108113094733192 
878	 0.107637772127669 
879	 0.1076712005093 
880	 0.107743308091477 
881	 0.107080488165726 
882	 0.107160780028028 
883	 0.106632917593352 
884	 0.105891475914765 
885	 0.106395539661653 
886	 0.105970060589659 
887	 0.105458604385498 
888	 0.105350755039108 
889	 0.10533377049638 
890	 0.10517628433827 
891	 0.104889578400426 
892	 0.104382441791747 
893	 0.103286485924309 
894	 0.102988282544713 
895	 0.103252791777581 
896	 0.103239984433856 
897	 0.102014610832231 
898	 0.101826101788165 
899	 0.102472783732402 
900	 0.102670435300591 
901	 0.101121906584516 
902	 0.100901828051941 
903	 0.101491065399161 
904	 0.101273767734758 
905	 0.100906712167349 
906	 9.98760336835895E-02 
907	 0.099237136008424 
908	 0.100504016824238 
909	 0.099483364151936 
910	 9.89867895831256E-02 
911	 9.95811663601621E-02 
912	 9.93784859009693E-02 
913	 9.94312612205288E-02 
914	 9.87263984694387E-02 
915	 9.75562846281273E-02 
916	 9.76463900140215E-02 
917	 9.70760836413589E-02 
918	 9.69645201353366E-02 
919	 9.70838671658383E-02 
920	 9.51170610775558E-02 
921	 9.64466249209431E-02 
922	 9.78531688324054E-02 
923	 9.68143934432531E-02 
924	 9.57960308340584E-02 
925	 9.55534310272659E-02 
926	 9.52615621330136E-02 
927	 9.40872873017576E-02 
928	 9.35063143050112E-02 
929	 9.41599500425497E-02 
930	 9.52379758322521E-02 
931	 9.45751285323196E-02 
932	 0.089779867716216 
933	 9.24125310386026E-02 
934	 9.64257648366399E-02 
935	 0.091343392792035 
936	 9.20145773720727E-02 
937	 9.32294869791194E-02 
938	 9.18864315770817E-02 
939	 8.79228913281895E-02 
940	 8.83261980851247E-02 
941	 8.90438285107689E-02 
942	 8.91101817765028E-02 
943	 8.96860551502416E-02 
944	 9.48172460547034E-02 
945	 9.08081045288487E-02 
946	 8.40715471697685E-02 
947	 8.84191482256999E-02 
948	 8.21924350650981E-02 
949	 8.35778068529324E-02 
950	 9.12507548351326E-02 
951	 9.21285083931962E-02 
952	 9.14085791840962E-02 
953	 9.20962529527833E-02 
954	 9.16328739489347E-02 
955	 8.62334725448953E-02 
956	 8.84939180899377E-02 
957	 9.24198712546948E-02 
958	 9.22121929608975E-02 
959	 8.63017746656032E-02 
960	 8.94904903796612E-02 
961	 9.06372111006452E-02 
962	 8.82071335644594E-02 
963	 8.85062209780876E-02 
964	 0.088156396017884 
965	 8.83975461739593E-02 
966	 8.97795198276412E-02 
967	 9.16550110835775E-02 
968	 9.04070572276288E-02 
969	 0.090433920837873 
970	 9.11896021240115E-02 
971	 8.84408730104209E-02 
972	 8.99343934803806E-02 
973	 0.090923139460415 
974	 8.93433789835901E-02 
975	 8.77058673876635E-02 
976	 9.08236124088335E-02 
977	 9.37067971194319E-02 
978	 9.29807756090506E-02 
979	 8.91129861697059E-02 
980	 8.94142215760758E-02 
981	 9.19855456057652E-02 
982	 9.29815945109778E-02 
983	 8.95481478093662E-02 
984	 8.99800490324447E-02 
985	 8.97421265737022E-02 
986	 8.85476251027121E-02 
987	 9.00419230052812E-02 
988	 9.32878470094461E-02 
989	 9.53188275246029E-02 
990	 9.45221445319929E-02 
991	 9.14022432337268E-02 
992	 9.10810043191796E-02 
993	 9.06075228771417E-02 
994	 9.06858748578029E-02 
995	 0.093537029135256 
996	 9.17278326633697E-02 
997	 0.089855785186236 
998	 9.07988033197611E-02 
999	 9.40198784555537E-02 
1000	 9.17005456202019E-02 
1001	 8.64820359295016E-02 
1002	 8.68096566512093E-02 
1003	 8.66330226477677E-02 
1004	 8.63663354903422E-02 
1005	 8.61142025657467E-02 
1006	 8.52543402229967E-02 
1007	 8.49501597827139E-02 
1008	 8.58112161721916E-02 
1009	 0.086127474938067 
1010	 8.62709200291349E-02 
1011	 8.64148144770126E-02 
1012	 8.58586104172396E-02 
1013	 8.57446420689381E-02 
1014	 8.58354493942056E-02 
1015	 8.65864778620707E-02 
1016	 0.086760109264729 
1017	 8.68089707113249E-02 
1018	 8.67977732914054E-02 
1019	 8.64580633079527E-02 
1020	 8.62737686895314E-02 
1021	 8.61179329905446E-02 
1022	 8.60993518605398E-02 
1023	 0.085657949425699 
1024	 8.58438741449829E-02 
1025	 0.086304834949597 
1026	 0.086363006304603 
1027	 8.62350069963613E-02 
1028	 8.59517340949097E-02 
1029	 8.59845684921442E-02 
1030	 8.57732295795802E-02 
1031	 0.085810312649749 
1032	 8.64245634258688E-02 
1033	 0.086620629905652 
1034	 8.66799132611466E-02 
1035	 8.65744631513186E-02 
1036	 0.086033934855521 
1037	 8.59894070322778E-02 
1038	 8.61309486666242E-02 
1039	 8.61438446778418E-02 
1040	 0.08625743926562 
1041	 8.64607772955386E-02 
1042	 8.65134351169281E-02 
1043	 8.61848337833441E-02 
1044	 8.62700875883381E-02 
1045	 8.66611831561502E-02 
1046	 8.67885373635579E-02 
1047	 8.68893334256302E-02 
1048	 8.69442476726252E-02 
1049	 0.087012400811701 
1050	 8.69220941757464E-02 
1051	 8.66754353346825E-02 
1052	 8.64953991417182E-02 
1053	 8.57842935870154E-02 
1054	 8.57980740763898E-02 
1055	 8.67626330799364E-02 
1056	 8.70247930939045E-02 
1057	 0.087164595396124 
1058	 8.76612647262172E-02 
1059	 8.73379996517895E-02 
1060	 8.59079308338386E-02 
1061	 8.55382160745085E-02 
1062	 8.52014980992034E-02 
1063	 8.52662987568452E-02 
1064	 8.61219348382354E-02 
1065	 8.63983548264386E-02 
1066	 8.68188568760506E-02 
1067	 8.68395709402812E-02 
1068	 8.62370981874737E-02 
1069	 8.60288585927395E-02 
1070	 8.57034804670123E-02 
1071	 8.55652196760607E-02 
1072	 8.54618756953172E-02 
1073	 8.60469513355818E-02 
1074	 8.59264858552532E-02 
1075	 8.55830136599023E-02 
1076	 8.54267419126866E-02 
1077	 8.49824729346883E-02 
1078	 8.49317631901052E-02 
1079	 8.53255144938062E-02 
1080	 8.54358751194246E-02 
1081	 8.55933918726345E-02 
1082	 8.55234484009972E-02 
1083	 8.50357255016252E-02 
1084	 8.49905633214374E-02 
1085	 8.52388844432561E-02 
1086	 8.52649017684053E-02 
1087	 8.55472781392475E-02 
1088	 0.085543460728394 
1089	 8.50764179092754E-02 
1090	 8.45908010594507E-02 
1091	 8.45558070258926E-02 
1092	 8.47788689815711E-02 
1093	 8.48552163453172E-02 
1094	 8.52142115351661E-02 
1095	 8.53530092280094E-02 
1096	 8.53571881909038E-02 
1097	 8.51989090423001E-02 
1098	 8.49991835479715E-02 
1099	 8.46475626123648E-02 
1100	 8.38830784599433E-02 
1101	 8.34616699450053E-02 
1102	 8.31231157689615E-02 
1103	 8.28151087815051E-02 
1104	 0.083168222737203 
1105	 0.082276307926125 
1106	 8.12897958497057E-02 
1107	 8.11369142146409E-02 
1108	 8.02801699045835E-02 
1109	 7.98302449939745E-02 
1110	 7.99030657248429E-02 
1111	 8.06914596247845E-02 
1112	 8.06361687127015E-02 
1113	 8.14203271591916E-02 
1114	 8.13238061548181E-02 
1115	 7.89376108156679E-02 
1116	 7.82574574382635E-02 
1117	 7.77991147014366E-02 
1118	 7.78026853057592E-02 
1119	 8.23643484444974E-02 
1120	 8.39637156106564E-02 
1121	 8.46659719546613E-02 
1122	 8.17430618918712E-02 
1123	 7.92444437278372E-02 
1124	 7.31849989749006E-02 
1125	 0.075271706999367 
1126	 8.33003797248803E-02 
1127	 8.70755343545592E-02 
1128	 8.75791149700625E-02 
1129	 0.085361576419788 
1130	 0.077041605065016 
1131	 7.54515295520997E-02 
1132	 7.49795778750454E-02 
1133	 7.55997603270049E-02 
1134	 7.84491430859728E-02 
1135	 8.00366016019787E-02 
1136	 8.24014263034052E-02 
1137	 8.21614626745682E-02 
1138	 7.96889573807094E-02 
1139	 8.11636305654822E-02 
1140	 8.05946900237963E-02 
1141	 7.74225487358683E-02 
1142	 7.78138638428773E-02 
1143	 7.86002594653325E-02 
1144	 7.50144443179593E-02 
1145	 7.46724378882217E-02 
1146	 7.84873254705132E-02 
1147	 7.85561483066372E-02 
1148	 8.00849754557002E-02 
1149	 8.16537573289991E-02 
1150	 8.09296431545395E-02 
1151	 7.65417925280694E-02 
1152	 7.59647279039326E-02 
1153	 7.56860886339465E-02 
1154	 7.66211842257542E-02 
1155	 7.93650708175139E-02 
1156	 8.03639784329954E-02 
1157	 7.93799795891555E-02 
1158	 7.88594163996317E-02 
1159	 0.07802064937029 
1160	 7.74144203041875E-02 
1161	 7.86223713516025E-02 
1162	 7.91707642802577E-02 
1163	 7.89652742583982E-02 
1164	 0.079323367112951 
1165	 7.86614023964554E-02 
1166	 7.80977555974973E-02 
1167	 7.85862850815535E-02 
1168	 7.84987382937588E-02 
1169	 7.87701269589835E-02 
1170	 7.94075058450394E-02 
1171	 7.93109844829227E-02 
1172	 7.84578450607729E-02 
1173	 7.82057460546149E-02 
1174	 7.77408394800407E-02 
1175	 7.76739108206621E-02 
1176	 7.82659604368861E-02 
1177	 7.85405794454423E-02 
1178	 7.87389062983009E-02 
1179	 0.078943515434936 
1180	 7.83198956898298E-02 
1181	 7.75620092744898E-02 
1182	 7.77287792844702E-02 
1183	 7.79608873701919E-02 
1184	 7.83600267480804E-02 
1185	 7.90780828221138E-02 
1186	 7.90356803830392E-02 
1187	 7.85652170812584E-02 
1188	 7.84668355335506E-02 
1189	 7.87133726026715E-02 
1190	 7.87006865787585E-02 
1191	 7.85885482642372E-02 
1192	 7.86692863591438E-02 
1193	 7.86638439630083E-02 
1194	 7.86451038330515E-02 
1195	 7.89495169079787E-02 
1196	 7.90145957668975E-02 
1197	 7.86829530815599E-02 
1198	 7.84977388271336E-02 
1199	 7.82990064710498E-02 
1200	 7.82554068675715E-02 
1201	 7.86015201927933E-02 
1202	 7.87070334167041E-02 
1203	 7.84498861338273E-02 
1204	 7.84695501476198E-02 
1205	 7.87414701522751E-02 
1206	 7.87149754490823E-02 
1207	 7.87208869748636E-02 
1208	 7.89030040762505E-02 
1209	 7.84343754382761E-02 
1210	 7.79735905457645E-02 
1211	 7.81678976796233E-02 
1212	 7.84291036432474E-02 
1213	 7.89084826830039E-02 
1214	 7.90605396215938E-02 
1215	 7.92597404259739E-02 
1216	 7.88309268928748E-02 
1217	 7.84299166350805E-02 
1218	 7.86149944205559E-02 
1219	 7.89608116941149E-02 
1220	 7.89157266046219E-02 
1221	 7.88310794693485E-02 
1222	 7.87061024541766E-02 
1223	 7.84263729499062E-02 
1224	 0.078622247227725 
1225	 7.88327557083318E-02 
1226	 7.84005409941915E-02 
1227	 7.84465600262562E-02 
1228	 7.89103208308122E-02 
1229	 7.90208430596601E-02 
1230	 7.92083031042449E-02 
1231	 7.90595939550534E-02 
1232	 7.85712413103163E-02 
1233	 7.86681670506513E-02 
1234	 7.91644781131075E-02 
1235	 7.92324978575954E-02 
1236	 7.89725690985083E-02 
1237	 7.89539950715864E-02 
1238	 7.88974483217062E-02 
1239	 7.87451491848327E-02 
1240	 7.88907467462018E-02 
1241	 7.92901836574038E-02 
1242	 7.94608999567687E-02 
1243	 7.92295433095953E-02 
1244	 7.90934972731241E-02 
1245	 7.93572693871241E-02 
1246	 7.92308994682502E-02 
1247	 7.89720829239619E-02 
1248	 7.89907774561134E-02 
1249	 7.86585929823004E-02 
1250	 7.84595353755826E-02 
1251	 7.87562596926701E-02 
1252	 7.88850464613771E-02 
1253	 7.88780269524055E-02 
1254	 7.86834202661624E-02 
1255	 7.82807394135465E-02 
1256	 7.81951270173662E-02 
1257	 7.82344833187268E-02 
1258	 7.80582794250179E-02 
1259	 7.80274027516767E-02 
1260	 7.80499011005184E-02 
1261	 7.76775840412041E-02 
1262	 7.76850374519468E-02 
1263	 0.078158620020601 
1264	 7.84614193993952E-02 
1265	 7.80425166121321E-02 
1266	 0.077820909977217 
1267	 7.77498990426393E-02 
1268	 7.73757430615339E-02 
1269	 7.75077933358932E-02 
1270	 7.80410911197778E-02 
1271	 0.078045804379179 
1272	 7.78619098988808E-02 
1273	 7.78779456015432E-02 
1274	 7.79231171832586E-02 
1275	 7.79651136330203E-02 
1276	 7.79593810292394E-02 
1277	 7.80169521931336E-02 
1278	 7.79067033707313E-02 
1279	 7.75514806410063E-02 
1280	 7.76606342964033E-02 
1281	 7.77533743509264E-02 
1282	 7.79173064834831E-02 
1283	 7.80699792218475E-02 
1284	 7.84289239187322E-02 
1285	 7.83825900820347E-02 
1286	 7.81574887671569E-02 
1287	 7.81189460062385E-02 
1288	 7.78740100742422E-02 
1289	 7.77560370299997E-02 
1290	 7.78185890181319E-02 
1291	 7.78313997301088E-02 
1292	 7.79331541814751E-02 
1293	 0.078286823872123 
1294	 7.81438398451293E-02 
1295	 7.76886751647939E-02 
1296	 7.77196341599101E-02 
1297	 7.76124899424724E-02 
1298	 7.70202771466319E-02 
1299	 7.70504551397066E-02 
1300	 7.70613020154369E-02 
1301	 7.61532090342344E-02 
1302	 7.58470658970892E-02 
1303	 7.63168812534558E-02 
1304	 7.66131511338186E-02 
1305	 7.66172395446918E-02 
1306	 7.64412582864116E-02 
1307	 7.64732518880948E-02 
1308	 7.65795830018073E-02 
1309	 7.61972401236679E-02 
1310	 7.58926541753217E-02 
1311	 7.60231149287122E-02 
1312	 7.60231696430407E-02 
1313	 7.56045136892129E-02 
1314	 7.53302695064775E-02 
1315	 7.53498049261668E-02 
1316	 7.55298644865549E-02 
1317	 7.55834254954765E-02 
1318	 7.55974321194231E-02 
1319	 7.62598308125434E-02 
1320	 7.63746828373734E-02 
1321	 7.58916043746561E-02 
1322	 7.53494810986638E-02 
1323	 7.47712779164421E-02 
1324	 7.46075268743494E-02 
1325	 7.54209881130488E-02 
1326	 7.53621398921105E-02 
1327	 7.52211376929159E-02 
1328	 7.58946034625858E-02 
1329	 7.49994546539249E-02 
1330	 7.41707053070916E-02 
1331	 7.48274227848245E-02 
1332	 7.46711533313616E-02 
1333	 7.40934377909698E-02 
1334	 7.38937072508918E-02 
1335	 7.38355617613041E-02 
1336	 7.38200364991259E-02 
1337	 7.32796578263977E-02 
1338	 7.26908545276998E-02 
1339	 7.25193501189078E-02 
1340	 7.14800812068561E-02 
1341	 7.08997994786976E-02 
1342	 7.15967940623761E-02 
1343	 7.21431537454906E-02 
1344	 7.23208136389111E-02 
1345	 7.26556288826166E-02 
1346	 7.35190246185023E-02 
1347	 7.51818705832386E-02 
1348	 7.98535701873638E-02 
1349	 8.27056309875345E-02 
1350	 8.12476513290676E-02 
1351	 8.66996971555139E-02 
1352	 0.101814485095708 
1353	 0.110308959596106 
1354	 0.119395344318095 
1355	 0.133508028656517 
1356	 0.188310930776076 
1357	 0.222322826037523 
1358	 0.269386168206239 
1359	 0.353926676727203 
1360	 0.248787799222001 
1361	 9.64154783314223E-02 
1362	 3.16033196074168E-02 
1363	 9.98488898514709E-02 
1364	 9.27726472036655E-02 
1365	-0.250107888330381 
1366	-0.319369479535331 
1367	 0.370087700437282 
1368	 0.364375336036161 
1369	 0.150213078370462 
1370	 0.233300749777972 
1371	-8.11153233551549E-02 
1372	-0.045944535221245 
1373	 0.644518753059281 
1374	 0.959619250172606 
1375	 0.464415099776003 
1376	 0.324107783569685 
1377	 0.407537700429391 
1378	 0.38234369598273 
1379	 0.268819971634474 
1380	 0.287916368506677 
1381	 0.236159044684966 
1382	 0.337933693902629 
1383	 2.44911438529831 
1384	 2.48459263419593 
1385	 0.340069154896401 
1386	 0.136538160313438 
1387	-0.243194447354647 
1388	-0.269509228159863 
1389	 0.191852188071081 
1390	 0.482875509136995 
1391	 0.665737845971786 
1392	 0.515795551116461 
1393	 0.464564643080134 
1394	 0.212393741719499 
1395	 0.106169140609927 
1396	 0.614199228446984 
1397	 1.45428499991674 
1398	 0.506180605491255 
1399	-0.553903673108072 
1400	-1.98904643393896 
1401	-2.17704073218745 
1402	-1.95589466074737 
1403	-1.07957510280546E-02 
1404	-2.24881379779445E-02 
1405	 0.142978659106635 
1406	 0.439490306029475 
1407	 0.417427797825572 
1408	 0.399460131649339 
1409	 0.424801456209016 
1410	 0.377394843848686 
1411	 0.204623776672149 
1412	 0.038388683853866 
1413	 6.20827052906624E-02 
1414	 5.96886560753182E-02 
1415	 5.05891123179312E-03 
1416	 4.94015240319099E-02 
1417	 6.37265538523933E-02 
1418	-0.017729108578534 
1419	-2.53362115778074E-02 
1420	 2.28534596758736E-02 
1421	 4.50454587253724E-02 
1422	 6.07462994500933E-02 
1423	 5.17821047233909E-02 
1424	 3.55240170096613E-02 
1425	 4.35315431883631E-02 
1426	 4.79519436302046E-02 
1427	 4.65624400022862E-02 
1428	 6.65456671065289E-02 
1429	 6.89900745539276E-02 
1430	 0.033373176261437 
1431	 3.28811610546619E-02 
1432	 7.11463602663937E-02 
1433	 7.27545121115953E-02 
1434	 5.53222883942045E-02 
1435	 6.07849801783143E-02 
1436	 6.17926707827124E-02 
1437	 5.66885287142087E-02 
1438	 6.91471577892476E-02 
1439	 0.084186047705868 
1440	 6.95900946658767E-02 
1441	 4.61578094404619E-02 
1442	 4.07438949914859E-02 
1443	 0.037839344752726 
1444	 4.10858739330013E-02 
1445	 4.96030703986873E-02 
1446	 0.057337875093563 
1447	 6.81661279269265E-02 
1448	 6.85837219734453E-02 
1449	 5.85486279552397E-02 
1450	 4.92780134508364E-02 
1451	 4.82607582454524E-02 
1452	 5.31083256438378E-02 
1453	 5.49756844458251E-02 
1454	 5.48431676786158E-02 
1455	 5.20128247607249E-02 
1456	 5.21942078435861E-02 
1457	 5.27633464849514E-02 
1458	 5.22671359294111E-02 
1459	 5.30412218687252E-02 
1460	 5.25776112997129E-02 
1461	 5.01167162375826E-02 
1462	 4.94626037750795E-02 
1463	 4.84738071565859E-02 
1464	 4.91255849157422E-02 
1465	 5.18649653493976E-02 
1466	 0.052792871506762 
1467	 5.49350725009477E-02 
1468	 5.70341438506795E-02 
1469	 5.81316726823541E-02 
1470	 5.76862799088083E-02 
1471	 5.58275663148316E-02 
1472	 5.59283252175144E-02 
1473	 5.62013245002469E-02 
1474	 5.45228317922579E-02 
1475	 5.19747597996472E-02 
1476	 5.41931539134691E-02 
1477	 5.89629408093892E-02 
1478	 5.72920516931874E-02 
1479	 5.43758625415975E-02 
1480	 5.58084086276995E-02 
1481	 0.05539087449248 
1482	 5.41284929527751E-02 
1483	 5.64685027329954E-02 
1484	 5.77131482548691E-02 
1485	 0.055351633245922 
1486	 5.49103951292039E-02 
1487	 5.76327624876742E-02 
1488	 5.80571310401116E-02 
1489	 5.66236021699754E-02 
1490	 5.61533786837022E-02 
1491	 5.58654496158504E-02 
1492	 5.55863454758446E-02 
1493	 5.54299278260199E-02 
1494	 5.51963934802324E-02 
1495	 5.48015641296481E-02 
1496	 5.48959903545637E-02 
1497	 5.51602495150628E-02 
1498	 5.52718982825788E-02 
1499	 5.55824209069437E-02 
1500	 5.60491626358583E-02 
1501	 5.68671911665403E-02 
1502	 5.69131259647587E-02 
1503	 5.63553516805692E-02 
1504	 5.62877516609562E-02 
1505	 5.61277470722378E-02 
1506	 5.59273041443313E-02 
1507	 5.52966190741114E-02 
1508	 5.58983003378782E-02 
1509	 0.057496869307364 
1510	 0.057399063922421 
1511	 5.67344479925497E-02 
1512	 5.72384693428347E-02 
1513	 5.76209080546357E-02 
1514	 5.74983249865781E-02 
1515	 5.76772117801044E-02 
1516	 5.80797357876563E-02 
1517	 5.80652934585848E-02 
1518	 0.057856134548204 
1519	 5.81275501586162E-02 
1520	 5.86243320460989E-02 
1521	 5.85363296347075E-02 
1522	 5.81939282147394E-02 
1523	 5.87380282931717E-02 
1524	 5.93528196715808E-02 
1525	 5.92295923868769E-02 
1526	 5.94429547622923E-02 
1527	 5.97805354431702E-02 
1528	 5.95564461898078E-02 
1529	 5.95463778696864E-02 
1530	 5.97883320250106E-02 
1531	 5.97417899948237E-02 
1532	 5.99773164609738E-02 
1533	 6.02207300703725E-02 
1534	 6.00534412216838E-02 
1535	 6.03104038907871E-02 
1536	 6.06292524504681E-02 
1537	 6.06117508281817E-02 
1538	 6.08189002105195E-02 
1539	 6.10212783229968E-02 
1540	 6.10463871501258E-02 
1541	 6.13687007922697E-02 
1542	 6.17136944043162E-02 
1543	 6.13771665365812E-02 
1544	 6.10637035940896E-02 
1545	 6.11588621246201E-02 
1546	 6.10731925278931E-02 
1547	 6.11608301716825E-02 
1548	 6.15612017807209E-02 
1549	 6.17856113994512E-02 
1550	 6.17921746136534E-02 
1551	 6.17335878174206E-02 
1552	 6.18559364938192E-02 
1553	 0.062174677545162 
1554	 6.22145534263607E-02 
1555	 6.24636575600064E-02 
1556	 6.30796752531391E-02 
1557	 6.31414200159409E-02 
1558	 6.31553834593224E-02 
1559	 6.32525291570899E-02 
1560	 0.062951348663521 
1561	 6.27976614132025E-02 
1562	 6.28637975784494E-02 
1563	 6.30156701090784E-02 
1564	 6.33621150818026E-02 
1565	 6.36666765169193E-02 
1566	 0.063499352110213 
1567	 0.063218050889059 
1568	 6.32631901417506E-02 
1569	 6.32250827042842E-02 
1570	 6.29702429332322E-02 
1571	 0.06299537440478 
1572	 6.32878821759428E-02 
1573	 6.34230382306179E-02 
1574	 6.34107831289099E-02 
1575	 6.34374491088244E-02 
1576	 6.33480899659114E-02 
1577	 0.062764533706998 
1578	 6.28887859770333E-02 
1579	 0.063712781183909 
1580	 6.38109417180214E-02 
1581	 6.39019383760922E-02 
1582	 0.064197402893793 
1583	 6.42630729060614E-02 
1584	 6.43708549718514E-02 
1585	 6.47825709026171E-02 
1586	 6.51210281465577E-02 
1587	 6.49353065624634E-02 
1588	 6.46389805587559E-02 
1589	 6.46167353625461E-02 
1590	 6.50939463712358E-02 
1591	 0.065417331180421 
1592	 6.51240721818697E-02 
1593	 6.47899126650334E-02 
1594	 6.44770275094815E-02 
1595	 6.44407656726235E-02 
1596	 6.48584960188639E-02 
1597	 6.51620954776477E-02 
1598	 6.54810131822471E-02 
1599	 6.58718592872803E-02 
1600	 6.58664107076611E-02 
1601	 6.60114747970331E-02 
1602	 6.59309164237593E-02 
1603	 6.50182162355301E-02 
1604	 6.49182247401058E-02 
1605	 0.065443345767189 
1606	 6.55041851003082E-02 
1607	 6.56712001918715E-02 
1608	 6.57243391745753E-02 
1609	 6.55691998405058E-02 
1610	 0.065379352812754 
1611	 6.55685619088758E-02 
1612	 6.58535788828825E-02 
1613	 6.56025408405758E-02 
1614	 6.56124045883447E-02 
1615	 6.57334685490595E-02 
1616	 6.54993026200357E-02 
1617	 6.54020559530577E-02 
1618	 6.52740877068759E-02 
1619	 6.50984918233384E-02 
1620	 6.55723628311004E-02 
1621	 6.60928975207597E-02 
1622	 6.61939961295687E-02 
1623	 6.62807749604203E-02 
1624	 6.61288337437425E-02 
1625	 0.066186715845719 
1626	 6.62781996416826E-02 
1627	 6.60140004652324E-02 
1628	 0.066021508759748 
1629	 6.58461312198858E-02 
1630	 0.065901342680211 
1631	 6.65524186668051E-02 
1632	 6.64509842410293E-02 
1633	 6.61619058875798E-02 
1634	 6.63008857249545E-02 
1635	 6.62006461801007E-02 
1636	 6.63849411350124E-02 
1637	 6.67270714016378E-02 
1638	 6.63290842127792E-02 
1639	 0.065801935527555 
1640	 0.066150802934846 
1641	 6.66395652576945E-02 
1642	 6.63875337071973E-02 
1643	 6.63673683597763E-02 
1644	 6.64009294085967E-02 
1645	 0.06574540524911 
1646	 6.61190921086778E-02 
1647	 6.73005325139438E-02 
1648	 6.72460875074046E-02 
1649	 6.68050063519324E-02 
1650	 6.72943180388582E-02 
1651	 6.72619122069674E-02 
1652	 6.63046156724475E-02 
1653	 6.66916239993868E-02 
1654	 6.68832911205751E-02 
1655	 6.69327513955845E-02 
1656	 6.70462917157122E-02 
1657	 6.73542000492076E-02 
1658	 0.067352001735829 
1659	 6.68403055024267E-02 
1660	 6.68492636644651E-02 
1661	 6.71865910565819E-02 
1662	 6.71728272673512E-02 
1663	 6.71857935061135E-02 
1664	 6.72745953952925E-02 
1665	 6.73138168111155E-02 
1666	 6.72602150430013E-02 
1667	 6.70992602111181E-02 
1668	 0.067423136759535 
1669	 6.76877978767756E-02 
1670	 6.78803240646304E-02 
1671	 6.78848060989661E-02 
1672	 6.70383797107056E-02 
1673	 6.61794109697914E-02 
1674	 6.64948664048472E-02 
1675	 6.71432603940293E-02 
1676	 6.74065527271442E-02 
1677	 6.71229101520415E-02 
1678	 6.68636373249744E-02 
1679	 6.71638478882868E-02 
1680	 6.71423121466639E-02 
1681	 6.73051530414391E-02 
1682	 6.76183141803763E-02 
1683	 0.066691584990142 
1684	 6.63855377770627E-02 
1685	 6.71208466182968E-02 
1686	 6.69768216398043E-02 
1687	 6.65254840221535E-02 
1688	 6.61002359542144E-02 
1689	 6.62539174936104E-02 
1690	 6.70869621541806E-02 
1691	 6.79393350082952E-02 
1692	 6.90542910019059E-02 
1693	 6.88821885435338E-02 
1694	 6.76221323936319E-02 
1695	 6.74914073363143E-02 
1696	 6.78057737679558E-02 
1697	 6.73864167441903E-02 
1698	 6.73399519611053E-02 
1699	 6.73456167048749E-02 
1700	 6.63869079790656E-02 
1701	 6.62948064002348E-02 
1702	 6.69860627340461E-02 
1703	 6.68590001266023E-02 
1704	 6.65135477136748E-02 
1705	 0.066849100999062 
1706	 6.70519567422782E-02 
1707	 6.63439949739575E-02 
1708	 6.60866937165972E-02 
1709	 6.57604449892402E-02 
1710	 6.47178697651157E-02 
1711	 6.48952981896065E-02 
1712	 6.61135112660616E-02 
1713	 6.72670357128415E-02 
1714	 6.75820750314021E-02 
1715	 6.72781197421733E-02 
1716	 6.70700668278637E-02 
1717	 6.69819769048081E-02 
1718	 6.71617736103421E-02 
1719	 6.73920442846546E-02 
1720	 6.69564889927096E-02 
1721	 6.63047186849243E-02 
1722	 6.61525933080757E-02 
1723	 6.63776225260888E-02 
1724	 6.65495333625295E-02 
1725	 6.69439448225379E-02 
1726	 6.71252306421206E-02 
1727	 6.68695593002987E-02 
1728	 0.066048468587773 
1729	 6.52573842262726E-02 
1730	 6.53442016274381E-02 
1731	 0.065200822966688 
1732	 0.065435156226236 
1733	 0.06674264858182 
1734	 6.71394997641447E-02 
1735	 6.67368153338975E-02 
1736	 6.67361361370324E-02 
1737	 6.59532560830975E-02 
1738	 6.58198762777173E-02 
1739	 6.74201145123933E-02 
1740	 6.81294085503201E-02 
1741	 6.74715018612008E-02 
1742	 6.66780471135104E-02 
1743	 6.56975041617457E-02 
1744	 6.49225930492297E-02 
1745	 6.54120676479955E-02 
1746	 6.49717088221665E-02 
1747	 6.47913144608295E-02 
1748	 6.50620256251167E-02 
1749	 6.55428494393916E-02 
1750	 6.68552734565495E-02 
1751	 6.66472986100183E-02 
1752	 6.52029779193513E-02 
1753	 6.50805300153898E-02 
1754	 6.47393566048806E-02 
1755	 6.45019807740454E-02 
1756	 6.53817556233732E-02 
1757	 6.59749088224226E-02 
1758	 6.65076979389732E-02 
1759	 6.62051517883311E-02 
1760	 6.54324663324242E-02 
1761	 6.35188514064661E-02 
1762	 6.04963265314741E-02 
1763	 6.19530778338315E-02 
1764	 6.40029111634516E-02 
1765	 6.36464753461216E-02 
1766	 6.54305912534402E-02 
1767	 6.52514102003499E-02 
1768	 6.39962354168461E-02 
1769	 0.065024460996713 
1770	 6.47713519823165E-02 
1771	 6.28150508211863E-02 
1772	 6.20319050200515E-02 
1773	 0.062311271748807 
1774	 6.22044255963306E-02 
1775	 6.15613390726914E-02 
1776	 6.16603261293109E-02 
1777	 0.062011823430444 
1778	 6.24042522369979E-02 
1779	 6.54240660168948E-02 
1780	 6.58731776589434E-02 
1781	 6.15822656637471E-02 
1782	 6.03557175318403E-02 
1783	 0.060286081204821 
1784	 6.03915563603303E-02 
1785	 6.35520415235017E-02 
1786	 0.063803599536324 
1787	 6.06954020368111E-02 
1788	 6.02588027952733E-02 
1789	 6.07868493044391E-02 
1790	 0.063435911577311 
1791	 6.59543188107077E-02 
1792	 6.93397602530967E-02 
1793	 6.66321094520668E-02 
1794	 6.14834851625499E-02 
1795	 6.10965657186945E-02 
1796	 6.33417236992487E-02 
1797	 6.19279667861141E-02 
1798	 6.44002744359295E-02 
1799	 7.27716522266577E-02 
1800	 0.0666706051775 
1801	 0.065840005035478 
1802	 6.05703505479674E-02 
1803	 6.11395473633579E-02 
1804	 8.85056876846883E-02 
1805	 9.42146190643385E-02 
1806	 7.84042383879028E-02 
1807	 7.61276964053753E-02 
1808	 2.94463323929227E-02 
1809	 2.07676331901464E-02 
1810	 0.139229563465914 
1811	 0.144767835223231 
1812	 4.33415278496866E-02 
1813	 3.66434868546865E-02 
1814	-0.047389091942652 
1815	-3.31460683907787E-02 
1816	 0.62699105351109 
1817	 1.0627433050266 
1818	 0.905185864252501 
1819	 5.14047410249762E-02 
1820	 0.147211222745731 
1821	 1.32307024934597 
1822	 1.95748231377731 
1823	 4.50131908303255 
1824	 3.7714440611727 
1825	 0.426831772203169 
1826	-0.157456299705864 
1827	-1.08515427978667 
1828	-1.41707381177243 
1829	-0.864869773477863 
1830	-0.319357635724737 
1831	-1.05678046435997 
1832	-0.900224962765981 
1833	 0.929632402930817 
1834	 6.30888529627164 
1835	 1.84462768751914 
1836	 4.50695052711725 
1837	-1.96171898546737 
1838	-1.17049086384597 
1839	-1.87882263376336 
1840	-1.33781547530444 
1841	-2.96915250556339 
1842	 8.4207537040803 
1843	 1.50159764666107 
1844	 0.814094397464057 
1845	 0.933451237024314 
1846	 1.2433286131102 
1847	 1.28229614957444 
1848	 3.47540661186954 
1849	-2.78706407813866 
1850	 1.87599107081857 
1851	 17.9349589329484 
1852	 90.7171543350687 
1853	 30.8608979641492 
1854	 7.32263763775573 
1855	 1.22550949622166 
1856	 0.666477480950201 
1857	 0.82607084020786 
1858	 0.717470303770768 
1859	-1.00081991329212 
1860	 6.25155223194889 
1861	 3.67984006430503 
1862	 2.6086068450268 
1863	 3.85573978094589 
1864	 2.37222143633401 
1865	 2.45675223079458 
1866	 11.482378922113 
1867	-9.14986389410305 
1868	-2.39081891780558 
1869	-0.687851402752019 
1870	-8.89166105698726E-02 
1871	 7.94928667124157E-02 
1872	-4.29013153776354E-03 
1873	 0.273498637626939 
1874	 0.458580967749168 
1875	 0.341095331722912 
1876	 0.306260875341502 
1877	-2.30744563483722E-02 
1878	-0.377491107657993 
1879	-3.1134618322245 
1880	 1.71521517643797 
1881	 0.855682918350986 
1882	 0.454693883732703 
1883	-0.382434048103936 
1884	-1.13005725480231 
1885	 0.681718428114231 
1886	 0.879562905036456 
1887	 1.06584914944278 
1888	 1.06695227146266 
1889	-0.628384968669186 
1890	-1.35872710459596 
1891	-3.73935738238262 
1892	-4.56515093406911 
1893	-29.5993979327599 
1894	 12.1344817908552 
1895	 6.95918124250643 
1896	 36.9256754639096 
1897	-1.52849138357926 
1898	-1.76141432961187 
1899	-2.5411635167464 
1900	-2.23205532929419 
1901	-0.906309550996725 
1902	-0.768364364680379 
1903	-0.48676223021767 
1904	-0.936714076965062 
1905	 5.00073011351098 
1906	 1.3156830645755 
1907	 1.28866264412676 
1908	-1.87632911782786 
1909	 1.72686512716113 
1910	 0.377537706035279 
1911	-3.20148243421386E-02 
1912	-0.5858586265322 
1913	-1.25724124279924 
1914	-2.7349707050369 
1915	-5.86271651363541 
1916	 58.9845309180958 
1917	 2.75579821480111 
1918	 0.92304548465876 
1919	 0.561552345479405 
1920	 0.43506381069552 
1921	 7.93569468069118E-02 
1922	-0.863124107140351 
1923	-14.2478122010748 
1924	-2.5811320782839 
1925	-1.43294810546181 
1926	-1.08050370858018 
1927	-0.749699198056418 
1928	-0.763596054643348 
1929	-1.21247249445841 
1930	-1.05112879777012 
1931	-0.495547906753795 
1932	 5.82958055692027E-03 
1933	 0.565500183945429 
1934	 0.788986526112642 
1935	 0.626264642299946 
1936	 0.424248009431258 
1937	 0.472137256336616 
1938	 0.50991005116041 
1939	 0.471025381157637 
1940	 0.421746397286457 
1941	 0.377833788242157 
1942	 1.37953090998971E-02 
1943	-0.140546025857688 
1944	-9.08374372809479E-02 
1945	-0.140086282472076 
1946	-5.07375411997261E-02 
1947	 9.03169423301017E-02 
1948	 0.111637315339238 
1949	 0.141497411133818 
1950	 0.173914487929045 
1951	 0.160002596221561 
1952	 0.153988498784347 
1953	 0.147789575611526 
1954	 0.103904225515331 
1955	 0.113678397502104 
1956	 0.1310314658836 
1957	 6.59391396181096E-02 
1958	 6.12822252580817E-02 
1959	 5.39697265988055E-02 
1960	 2.23088805370074E-02 
1961	 2.38481868854227E-02 
1962	 4.81578199555264E-02 
1963	 6.07680602409148E-02 
1964	 5.66928761717636E-02 
1965	 6.68567117776323E-02 
1966	 6.87943183920479E-02 
1967	 6.72068426095959E-02 
1968	 5.23991037492503E-02 
1969	 4.92887665773626E-02 
1970	 4.66936189953862E-02 
1971	 3.70537140099713E-02 
1972	 0.03635100386136 
1973	 0.039181211848725 
1974	 3.88186586932037E-02 
1975	 3.62108170265894E-02 
1976	 3.41563758347773E-02 
1977	 0.038626833392001 
1978	 3.86126937503613E-02 
1979	 3.97096603471001E-02 
1980	 4.22953165975265E-02 
1981	 5.05316838866173E-02 
1982	 4.86580545263817E-02 
1983	 4.82441419903128E-02 
1984	 5.34756963377804E-02 
1985	 0.052200956240909 
1986	 4.94597028911687E-02 
1987	 4.86528110643599E-02 
1988	 0.045719600206881 
1989	 3.97230065143891E-02 
1990	 3.85934929694362E-02 
1991	 4.09447924223471E-02 
1992	 4.11822957157837E-02 
1993	 4.01851210977718E-02 
1994	 3.95154144694405E-02 
1995	 3.82635874245242E-02 
1996	 0.037198595897263 
1997	 3.26657372725196E-02 
1998	 3.05213754701787E-02 
1999	 3.33094277858466E-02 
2000	 3.29938323917469E-02 
2001	 3.30855661020825E-02 
2002	 3.25320176156911E-02 
2003	 0.031103900923937 
2004	 2.88584113757606E-02 
2005	 3.61497821846769E-02 
2006	 4.82928474917233E-02 
2007	 4.84143228859345E-02 
2008	 5.16665093284727E-02 
2009	 0.053402743510836 
2010	 4.51929224606308E-02 
2011	 4.69226793668333E-02 
2012	 5.83758866629471E-02 
2013	 6.05072950595903E-02 
2014	 6.09645136980167E-02 
2015	 6.41672647895318E-02 
2016	 5.69485362647639E-02 
2017	 4.92595892225916E-02 
2018	 3.88196275153227E-02 
2019	 3.17308860003416E-02 
2020	 3.62320662106357E-02 
2021	 4.18482457700826E-02 
2022	 4.42499364198613E-02 
2023	 4.39774465081858E-02 
2024	 4.42990986714161E-02 
2025	 4.05120612821084E-02 
2026	 3.96556432834995E-02 
2027	 4.00706384001142E-02 
2028	 4.33301625822985E-02 
2029	 4.31138653404605E-02 
2030	 4.21863431067787E-02 
2031	 4.43704043311325E-02 
2032	 4.65721059639849E-02 
2033	 4.66171673139345E-02 
2034	 4.71013208068872E-02 
2035	 4.63019044518158E-02 
2036	 4.23008266392778E-02 
2037	 4.20842435345431E-02 
2038	 4.40091862315307E-02 
2039	 4.38209069034615E-02 
2040	 0.043255941103879 
2041	 4.37455320619992E-02 
2042	 4.29295891729954E-02 
2043	 4.31858766285262E-02 
2044	 4.56405710488248E-02 
2045	 4.62097118995825E-02 
2046	 4.47434165409615E-02 
2047	 4.57932401600403E-02 
2048	 4.66833822231879E-02 
2049	 4.76969737085533E-02 
2050	 5.16786744206365E-02 
2051	 0.051275670610461 
2052	 4.97802033937341E-02 
2053	 0.052622672773287 
2054	 5.13648173252448E-02 
2055	 5.09581868584737E-02 
2056	 0.051738356109521 
2057	 5.19159870090926E-02 
2058	 5.26875536190765E-02 
2059	 5.62850275618545E-02 
2060	 5.63265859351841E-02 
2061	 5.47471731240598E-02 
2062	 5.38260735301503E-02 
2063	 5.01514799170088E-02 
2064	 4.77233552711715E-02 
2065	 4.73751363949131E-02 
2066	 0.044940626677469 
2067	 4.20321022082851E-02 
2068	 0.043610441389627 
2069	 4.61003898065543E-02 
2070	 4.72981616411216E-02 
2071	 4.89090362194552E-02 
2072	 4.92611185354569E-02 
2073	 4.97262769532494E-02 
2074	 4.91314002552656E-02 
2075	 4.95436070307237E-02 
2076	 5.05339470293945E-02 
2077	 5.10210110721016E-02 
2078	 5.14268691784752E-02 
2079	 5.12705654462505E-02 
2080	 5.02209704168452E-02 
2081	 5.07434688702175E-02 
2082	 5.10666254737436E-02 
2083	 5.21311516337234E-02 
2084	 5.52202189582605E-02 
2085	 5.78464004960513E-02 
2086	 5.65299385114553E-02 
2087	 5.37461963749474E-02 
2088	 5.21135411326597E-02 
2089	 4.91175307228278E-02 
2090	 4.77941050847193E-02 
2091	 4.87626056703788E-02 
2092	 4.95681257287557E-02 
2093	 5.03720693075824E-02 
2094	 5.12486777907464E-02 
2095	 5.32643311005815E-02 
2096	 5.45406304716457E-02 
2097	 5.42479343966317E-02 
2098	 5.49518348833605E-02 
2099	 5.64880309628918E-02 
2100	 5.85765695653234E-02 
2101	 5.89575945051987E-02 
2102	 5.85276936324035E-02 
2103	 5.66527921385629E-02 
2104	 5.59044701870673E-02 
2105	 5.47929763979104E-02 
2106	 5.57035142999739E-02 
2107	 5.58996939169817E-02 
2108	 5.34789027622164E-02 
2109	 5.33558623596877E-02 
2110	 5.14818870953884E-02 
2111	 5.10602287558816E-02 
2112	 5.20364213532175E-02 
2113	 5.23014501611127E-02 
2114	 5.26454232522669E-02 
2115	 5.33493577881508E-02 
2116	 5.38828242451173E-02 
2117	 5.43690410344321E-02 
2118	 5.51500476621165E-02 
2119	 5.54057240276221E-02 
2120	 5.52858050874525E-02 
2121	 5.58974423156519E-02 
2122	 5.38049017599192E-02 
2123	 5.20903112222053E-02 
2124	 5.22503878149162E-02 
2125	 5.30853299513612E-02 
2126	 5.54868707066925E-02 
2127	 5.67832068080518E-02 
2128	 5.72894275803675E-02 
2129	 5.69016470931382E-02 
2130	 5.58521254174719E-02 
2131	 5.68261231295823E-02 
2132	 5.75325540315317E-02 
2133	 5.62271095653936E-02 
2134	 5.58814996510776E-02 
2135	 5.60393764861634E-02 
2136	 5.65507959109867E-02 
2137	 0.056895600997318 
2138	 5.78405176984009E-02 
2139	 6.06367240942297E-02 
2140	 6.14657409487272E-02 
2141	 6.07286750115717E-02 
2142	 6.11540487299841E-02 
2143	 6.19574674201967E-02 
2144	 0.061361565083386 
2145	 0.062250283663503 
2146	 6.25468792045365E-02 
2147	 5.98985367129373E-02 
2148	 6.14470111477797E-02 
2149	 6.07051323253578E-02 
2150	 5.82213680024357E-02 
2151	 6.07133500075348E-02 
2152	 5.97617548732802E-02 
2153	 5.65869006753372E-02 
2154	 5.65586724487845E-02 
2155	 5.76301944416078E-02 
2156	 0.057424134573015 
2157	 5.77909175602592E-02 
2158	 6.14403990906738E-02 
2159	 6.14629779762797E-02 
2160	 0.058363247682022 
2161	 5.76804744604272E-02 
2162	 5.58958051273941E-02 
2163	 5.72294139521169E-02 
2164	 6.23030476509569E-02 
2165	 6.33546622353947E-02 
2166	 6.41242739167815E-02 
2167	 0.065064615425756 
2168	 6.43028559211099E-02 
2169	 6.28189078726518E-02 
2170	 6.13977053833179E-02 
2171	 6.03859513973229E-02 
2172	 5.67094255443582E-02 
2173	 5.47177510733802E-02 
2174	 5.60022536760239E-02 
2175	 5.72245936896725E-02 
2176	 5.82544811413214E-02 
2177	 5.98511697206734E-02 
2178	 5.82187258161018E-02 
2179	 5.63024928250122E-02 
2180	 5.74657169834292E-02 
2181	 5.60809121508089E-02 
2182	 5.37761232896437E-02 
2183	 5.28138916674248E-02 
2184	 5.06019486661393E-02 
2185	 0.049484779055601 
2186	 5.04420726875598E-02 
2187	 5.54707106034106E-02 
2188	 5.78214978496824E-02 
2189	 6.09352689837986E-02 
2190	 6.28299282882557E-02 
2191	 6.44591110477719E-02 
2192	 6.38880471416785E-02 
2193	 0.060176065388374 
2194	 5.81448266167716E-02 
2195	 0.054789495874933 
2196	 5.32131496722226E-02 
2197	 5.37340068894613E-02 
2198	 5.40999078949623E-02 
2199	 5.52456735341948E-02 
2200	 5.52461374536592E-02 
2201	 0.054055280654611 
2202	 5.49526928491364E-02 
2203	 0.06006011840471 
2204	 6.19656982491012E-02 
2205	 6.33991809256865E-02 
2206	 6.55336922317199E-02 
2207	 6.19527299622939E-02 
2208	 5.93457625643264E-02 
2209	 0.056434706634997 
2210	 5.46312649800857E-02 
2211	 0.054197788388866 
2212	 5.21545435732323E-02 
2213	 5.29919931106026E-02 
2214	 5.54913903072194E-02 
2215	 5.87965513334199E-02 
2216	 5.80739616981834E-02 
2217	 5.63541920110751E-02 
2218	 5.29402712236971E-02 
2219	 5.10757672122694E-02 
2220	 4.70628768198914E-02 
2221	 4.70809562782558E-02 
2222	 5.05233408738298E-02 
2223	 5.26580190413231E-02 
2224	 5.58913810791925E-02 
2225	 5.74435464473048E-02 
2226	 5.89641432108412E-02 
2227	 0.060723609125773 
2228	 6.29645037067558E-02 
2229	 6.13938205773921E-02 
2230	 5.65476242560805E-02 
2231	 5.29965512782758E-02 
2232	 4.56734620960969E-02 
2233	 4.28147868243048E-02 
2234	 4.24412980798398E-02 
2235	 4.49519171282283E-02 
2236	 4.97640762275414E-02 
2237	 5.31149352085528E-02 
2238	 5.43811951805453E-02 
2239	 5.39237991820399E-02 
2240	 5.45856836002868E-02 
2241	 5.89937198289994E-02 
2242	 6.16106688600567E-02 
2243	 6.34330517007828E-02 
2244	 6.40819285027138E-02 
2245	 5.95607744484657E-02 
2246	 5.38058295384266E-02 
2247	 5.72038499447293E-02 
2248	 6.20037657044809E-02 
2249	 0.059960780750742 
2250	 0.058816550934272 
2251	 5.60417290062079E-02 
2252	 5.26032013347854E-02 
2253	 5.16775295067517E-02 
2254	 5.72978641425889E-02 
2255	 6.58066112609283E-02 
2256	 0.068653685559977 
2257	 7.25905624360474E-02 
2258	 7.31832459191025E-02 
2259	 6.86946907981022E-02 
2260	 0.066775452461689 
2261	 6.62999604725228E-02 
2262	 6.28388968784466E-02 
2263	 5.58355769790781E-02 
2264	 5.41845429445626E-02 
2265	 5.46630909942313E-02 
2266	 0.054251624765314 
2267	 0.059327895712484 
2268	 5.81209377983571E-02 
2269	 4.95482812547121E-02 
2270	 4.69367972861558E-02 
2271	 4.50176171530602E-02 
2272	 4.29154296055619E-02 
2273	 4.41476365999138E-02 
2274	 4.39713628406721E-02 
2275	 3.95491054197975E-02 
2276	 4.07179852390591E-02 
2277	 4.65547133235097E-02 
2278	 5.15503506420481E-02 
2279	 0.062571511655707 
2280	 6.57698311038015E-02 
2281	 6.50237403524949E-02 
2282	 6.18542792745004E-02 
2283	 6.23269930359841E-02 
2284	 6.05038811710101E-02 
2285	 5.78580117230928E-02 
2286	 6.28754777319482E-02 
2287	 6.20530970443606E-02 
2288	 0.056209367198602 
2289	 6.21368388398861E-02 
2290	 6.31835446542985E-02 
2291	 6.26808179872476E-02 
2292	 6.92254550212742E-02 
2293	 6.79009313966566E-02 
2294	 6.21366091383266E-02 
2295	 5.76875063367121E-02 
2296	 5.84331737585755E-02 
2297	 6.14765716241364E-02 
2298	 6.63871330810763E-02 
2299	 6.40235544466207E-02 
2300	 5.80079983684826E-02 
2301	 6.61323482850659E-02 
2302	 6.50884781108792E-02 
2303	 6.00800841912179E-02 
2304	 6.17706286310722E-02 
2305	 5.53066130449553E-02 
2306	 5.47655674041275E-02 
2307	 6.11916678547128E-02 
2308	 6.30050011877196E-02 
2309	 5.94275531904595E-02 
2310	 5.87160602278517E-02 
2311	 6.05189162230582E-02 
2312	 5.72436509764612E-02 
2313	 0.057046572095099 
2314	 0.061789341713228 
2315	 0.060106748932379 
2316	 5.47086359313838E-02 
2317	 4.75984640623359E-02 
2318	 3.66858066969949E-02 
2319	 3.63338546939714E-02 
2320	 3.97184328769608E-02 
2321	 4.14825961519491E-02 
2322	 4.42624359622356E-02 
2323	 3.73388048261443E-02 
2324	 3.64728541800476E-02 
2325	 4.12641222215113E-02 
2326	 4.67792184258916E-02 
2327	 0.054239657327773 
2328	 5.73409208289264E-02 
2329	 6.42465043446805E-02 
2330	 6.61643109723491E-02 
2331	 0.05621961655244 
2332	 4.86173086891879E-02 
2333	 5.26156127267402E-02 
2334	 4.94488648419681E-02 
2335	 4.90448063708405E-02 
2336	 6.20049507819722E-02 
2337	 5.15412224040362E-02 
2338	 3.76442817810504E-02 
2339	 3.72959094492986E-02 
2340	 3.54501016814219E-02 
2341	 0.040327600421465 
2342	 4.35687075508028E-02 
2343	 4.56867603012132E-02 
2344	 4.78479983708798E-02 
2345	 5.27969254922715E-02 
2346	 5.98472692775468E-02 
2347	 5.62525865573659E-02 
2348	 5.50610105653576E-02 
2349	 6.20338781672554E-02 
2350	 6.66862942892032E-02 
2351	 7.41049398981303E-02 
2352	 7.46473663605908E-02 
2353	 5.77701507075136E-02 
2354	 3.71705238409955E-02 
2355	 2.71311741327864E-02 
2356	 4.02848120646729E-02 
2357	 4.54645886888962E-02 
2358	 3.52861290598605E-02 
2359	 3.19003027775259E-02 
2360	 2.30494354201905E-02 
2361	 1.39474185701875E-02 
2362	 2.48249623059214E-02 
2363	 4.09441981317825E-02 
2364	 2.54727874111761E-02 
2365	 1.82556456730713E-02 
2366	 2.17577644564835E-02 
2367	 3.15633334639861E-03 
2368	 2.82480242963945E-03 
2369	 6.87772558719858E-03 
2370	 1.71818724614023E-02 
2371	 5.32569025450528E-02 
2372	 9.38675173815233E-02 
2373	 0.129385563800015 
2374	 0.122395719580081 
2375	 7.45849678019117E-02 
2376	 3.79577453704198E-02 
2377	-0.01443574352086 
2378	-3.33141161070336E-02 
2379	-2.53601523759728E-02 
2380	-4.13273710884054E-02 
2381	-5.76281065568063E-03 
2382	 4.18221976937034E-02 
2383	 6.64471920173098E-02 
2384	 0.13358443339992 
2385	 0.122158348705359 
2386	 5.26994135616639E-02 
2387	 2.83275876822954E-02 
2388	-1.02312560378319E-02 
2389	-7.05957202516137E-03 
2390	 4.76878775315902E-02 
2391	 8.54236160806166E-02 
2392	 5.43267489604792E-02 
2393	-7.37781811818454E-02 
2394	-0.134356166746059 
2395	-0.071410392275525 
2396	-1.92714385876072E-02 
2397	 8.22080473744853E-02 
2398	 0.246583122827311 
2399	 0.281461995741377 
2400	 0.258957541602008 
2401	 0.303991828036051 
2402	 0.270621069972589 
2403	 0.125540510055635 
2404	-1.70394438005461E-02 
2405	-0.116166270425169 
2406	-0.211223480998465 
2407	-0.18651285816145 
2408	 2.02602414628863E-02 
2409	 0.108808469555355 
2410	 7.67511181782206E-02 
2411	 0.108525945828678 
2412	 7.82017104231398E-02 
2413	 3.30282487346737E-02 
2414	 0.100067012011876 
2415	 0.226501296550908 
2416	 8.59427961117602E-03 
2417	-0.202967789158397 
2418	-0.209698623038535 
2419	-0.119230111544343 
2420	-6.23068757025766E-02 
2421	-4.23112723901972E-02 
2422	-2.34162115664341E-02 
2423	-0.184950319406973 
2424	-0.300235092284404 
2425	-0.113152507000338 
2426	-7.38573708342616E-02 
2427	-2.16268826455373E-02 
2428	 5.79180932551316E-02 
2429	 4.83691653332506E-02 
2430	 5.93230655337593E-02 
2431	 4.50802041675381E-02 
2432	 3.77149856702142E-02 
2433	-4.99632098448061E-03 
2434	-4.64614794872583E-02 
2435	 8.79107570728881E-02 
2436	 0.262190252574094 
2437	 0.279968016958197 
2438	 0.286161752287114 
2439	 0.191065733359801 
2440	 5.54378825455042E-02 
2441	-0.108131203853935 
2442	-0.055748618224102 
2443	 0.24509392285657 
2444	 0.193296801872985 
2445	 0.180198620030515 
2446	 0.727050532607525 
2447	 0.456205031984151 
2448	 0.530289701441599 
2449	 0.816501207142661 
2450	 0.854112307854625 
2451	 2.5923408284793 
2452	-18.3017730328187 
2453	 0.249738506615362 
2454	 2.06585519028176E-02 
2455	 0.530468273351009 
2456	 1.3502773106717 
2457	-7.62187570475214 
2458	-3.12399552021003 
2459	 1.27059192214619 
2460	 12.4222335277442 
2461	-11.300185494882 
2462	-6.16174788199289 
2463	-2.00996339147062 
2464	-1.37932364633697 
2465	-0.842706646491514 
2466	-0.969001827804558 
2467	-5.82472897527467 
2468	-27.2929751261752 
2469	-2.44417892331247 
2470	-1.76123126592522 
2471	 0.742896716817262 
2472	 1.74586348500541 
2473	-0.414429898689883 
2474	 0.373835861597384 
2475	 2.32977481617291 
2476	 1.7458287762366 
2477	 1.55119718059807 
2478	-2.35455233144099 
2479	-0.354392181924731 
2480	-0.460502185466084 
2481	-8.61352707383396E-02 
2482	 1.0501389894932 
2483	-1.87039499663568 
2484	-1.50077236611934 
2485	-0.804995807410651 
2486	 1.47559089008232 
2487	 2.13017674416303 
2488	 6.36538029193724 
2489	-1.18505482244099 
2490	-26.0967388793567 
2491	 2.57219926669738 
2492	 3.06574979085264 
2493	 1.73050383191035 
2494	 0.633938346523429 
2495	 1.27947741063795 
2496	 1.20393104227837 
2497	 1.5179834266424 
2498	-3.62718823087744 
2499	-1.49798488806675 
2500	-2.14816664109829 
