Wavelength	rt0714yellow300005.asd
350	 8.01866076974005E-02 
351	 8.06089782100394E-02 
352	 8.04545097238447E-02 
353	 8.04265915091382E-02 
354	 8.09047775204364E-02 
355	 8.09043489962726E-02 
356	 8.11794665899834E-02 
357	 8.11612237642265E-02 
358	 8.04878031000601E-02 
359	 8.14379937113435E-02 
360	 8.17086052094915E-02 
361	 8.11610721534779E-02 
362	 8.11965016706457E-02 
363	 8.18504466244106E-02 
364	 8.21521642582955E-02 
365	 8.18843123538983E-02 
366	 8.21352139678237E-02 
367	 8.23110804963441E-02 
368	 8.23436912604316E-02 
369	 8.23739792448598E-02 
370	 8.27850433836164E-02 
371	 8.33080721952728E-02 
372	 8.37484841336032E-02 
373	 8.39618459946662E-02 
374	 8.36408349912132E-02 
375	 8.42009301389488E-02 
376	 8.56395537214601E-02 
377	 8.58649553190739E-02 
378	 8.57643647393976E-02 
379	 8.58221276711421E-02 
380	 8.63234031399109E-02 
381	 8.72321006669532E-02 
382	 8.79254730780976E-02 
383	 8.82149186684722E-02 
384	 8.83438122900167E-02 
385	 8.97058677808541E-02 
386	 9.01919917527476E-02 
387	 8.99175541906786E-02 
388	 9.15955312036601E-02 
389	 9.20481007482567E-02 
390	 9.22552591335522E-02 
391	 9.32000945149735E-02 
392	 9.38949319514131E-02 
393	 0.094163516760201 
394	 9.44014595430984E-02 
395	 9.50933623837877E-02 
396	 9.59657537936427E-02 
397	 9.63986339453437E-02 
398	 9.65478699799555E-02 
399	 9.71786350325747E-02 
400	 9.77639083986928E-02 
401	 9.82229773987375E-02 
402	 9.86432078141947E-02 
403	 9.93387914848453E-02 
404	 9.98015075053307E-02 
405	 0.100190549953326 
406	 0.100843176712606 
407	 0.101604308938665 
408	 0.101992249731526 
409	 0.102287233678499 
410	 0.103423549883619 
411	 0.103769896204336 
412	 0.104021565325817 
413	 0.104820163948044 
414	 0.10566551932333 
415	 0.106550467971474 
416	 0.107271501860025 
417	 0.107682852770213 
418	 0.108324126253817 
419	 0.109233369129709 
420	 0.110215849581013 
421	 0.110900994939138 
422	 0.111786599699397 
423	 0.112814813297098 
424	 0.113810055300289 
425	 0.114592590133796 
426	 0.115490383973904 
427	 0.116625429584229 
428	 0.117955406321089 
429	 0.119183213464628 
430	 0.120436577270464 
431	 0.121699283254511 
432	 0.1227516265776 
433	 0.123949754159983 
434	 0.125208357953516 
435	 0.126407370158443 
436	 0.127648051692384 
437	 0.128804238140861 
438	 0.129999569460419 
439	 0.131422792444704 
440	 0.132609072078558 
441	 0.133756345612884 
442	 0.134933953066665 
443	 0.135909245460741 
444	 0.137000750094837 
445	 0.138066788697995 
446	 0.138943401017097 
447	 0.139911329549948 
448	 0.14075323753239 
449	 0.141522529636077 
450	 0.142442528124757 
451	 0.143097602538435 
452	 0.14363579041187 
453	 0.144238991386083 
454	 0.144998568974087 
455	 0.145611989952734 
456	 0.146084028390749 
457	 0.146537082393826 
458	 0.147025236055095 
459	 0.147481762686388 
460	 0.147913844756002 
461	 0.148399252963587 
462	 0.148772816292273 
463	 0.149105796621622 
464	 0.149510525836944 
465	 0.150086613932222 
466	 0.15062809578579 
467	 0.151068055536808 
468	 0.151451532640314 
469	 0.152046213317682 
470	 0.152545054050367 
471	 0.152861490752456 
472	 0.153266320446324 
473	 0.153932824226254 
474	 0.154580161929813 
475	 0.154988396942109 
476	 0.155623671805311 
477	 0.156196175523914 
478	 0.156745634572057 
479	 0.157500008100647 
480	 0.158029959437343 
481	 0.158610715016682 
482	 0.159420840972029 
483	 0.160259139154551 
484	 0.161052766870406 
485	 0.161850835684034 
486	 0.162746540479987 
487	 0.163752377164193 
488	 0.164665263908155 
489	 0.165498586120624 
490	 0.166480984765564 
491	 0.167640661459683 
492	 0.168715759164101 
493	 0.169594177811889 
494	 0.170749467084302 
495	 0.171896984858273 
496	 0.172990371364905 
497	 0.174117806424952 
498	 0.175405154054395 
499	 0.176620102801833 
500	 0.177727323229867 
501	 0.179050704680713 
502	 0.180313920858872 
503	 0.181600928740026 
504	 0.183008849171084 
505	 0.184249459322476 
506	 0.185506330118336 
507	 0.186819667260053 
508	 0.188111212482237 
509	 0.189485807289247 
510	 0.190846158719618 
511	 0.192131086953041 
512	 0.19344078850196 
513	 0.19478776876065 
514	 0.196172457434512 
515	 0.197585034096686 
516	 0.199093655061767 
517	 0.200654358897166 
518	 0.202201925219307 
519	 0.203670008182075 
520	 0.205036282882075 
521	 0.206413062666734 
522	 0.207888939049559 
523	 0.209329736114646 
524	 0.210851472190287 
525	 0.212353971031406 
526	 0.213643051528195 
527	 0.21524869535656 
528	 0.216911580588372 
529	 0.2184067122656 
530	 0.219803318672839 
531	 0.221157320137307 
532	 0.222568196365706 
533	 0.224105482214409 
534	 0.225626992325519 
535	 0.227034475197063 
536	 0.228380449212394 
537	 0.229866667594213 
538	 0.231334612871239 
539	 0.232738532338653 
540	 0.234088946479772 
541	 0.235480093309826 
542	 0.236899740775407 
543	 0.238286433715752 
544	 0.239568631899492 
545	 0.240823741431245 
546	 0.242135815901486 
547	 0.24348340063577 
548	 0.244646966545871 
549	 0.245777728935383 
550	 0.246973815672784 
551	 0.248268935131011 
552	 0.249434617708258 
553	 0.250530259818965 
554	 0.251611183203667 
555	 0.252698695433509 
556	 0.253653443073224 
557	 0.254744427622754 
558	 0.256069749269143 
559	 0.256902429822367 
560	 0.257688056120197 
561	 0.258526529383377 
562	 0.259315867180098 
563	 0.26021320275613 
564	 0.26104371461283 
565	 0.261731186049366 
566	 0.262466251355969 
567	 0.263318549258058 
568	 0.264113695610451 
569	 0.264664661922549 
570	 0.265321578556802 
571	 0.266011479121388 
572	 0.266614448171943 
573	 0.266998819754717 
574	 0.267544823349092 
575	 0.268055146326108 
576	 0.268377860478299 
577	 0.268999702906039 
578	 0.269403865660865 
579	 0.26960539142166 
580	 0.269928463522454 
581	 0.270190330369047 
582	 0.270359559460301 
583	 0.270492202104341 
584	 0.270790550429474 
585	 0.270879433522109 
586	 0.270775771565304 
587	 0.270661631927039 
588	 0.270742990094468 
589	 0.270852211944694 
590	 0.27092435121471 
591	 0.271037477538397 
592	 0.270982577678945 
593	 0.270828857862405 
594	 0.270672008226099 
595	 0.270509758583876 
596	 0.27020038037305 
597	 0.269781239282872 
598	 0.269391773362064 
599	 0.269023766228544 
600	 0.268625314210029 
601	 0.268264205276707 
602	 0.268236875249019 
603	 0.268154681272764 
604	 0.267980140653703 
605	 0.267802214486855 
606	 0.267696287217376 
607	 0.267657412108318 
608	 0.26767145507917 
609	 0.267718272078086 
610	 0.267773042042419 
611	 0.267812264630736 
612	 0.267818848300509 
613	 0.267783121655461 
614	 0.26773948176051 
615	 0.267726291550522 
616	 0.267747374973481 
617	 0.267472253657667 
618	 0.267397048010089 
619	 0.267645254255677 
620	 0.267607644082841 
621	 0.267681020077665 
622	 0.267734716651583 
623	 0.267567919135866 
624	 0.267442497229483 
625	 0.267410039636811 
626	 0.267474095933249 
627	 0.267589918920003 
628	 0.267559838152209 
629	 0.26744322358812 
630	 0.267371594754006 
631	 0.26754143853097 
632	 0.267543590139739 
633	 0.267366735891484 
634	 0.267207357094995 
635	 0.267180046649903 
636	 0.267209932816309 
637	 0.267239417231441 
638	 0.267274165673506 
639	 0.267081157037975 
640	 0.26692389876704 
641	 0.267045346034839 
642	 0.266986434269946 
643	 0.266788162172164 
644	 0.266542330124398 
645	 0.266379698913431 
646	 0.266393814866357 
647	 0.266338595718722 
648	 0.266107551647247 
649	 0.266092042292836 
650	 0.265828762803115 
651	 0.265434976030637 
652	 0.265207130187499 
653	 0.264960036116065 
654	 0.264594796564876 
655	 0.264108809931706 
656	 0.263689637047842 
657	 0.263456848726233 
658	 0.263112758277562 
659	 0.262482976284552 
660	 0.262010334723329 
661	 0.261773408781802 
662	 0.261618060320557 
663	 0.26128025578976 
664	 0.261050176097218 
665	 0.26084470959752 
666	 0.260591412203983 
667	 0.260311519867197 
668	 0.260279479006965 
669	 0.260235532957411 
670	 0.259910805157826 
671	 0.259958273105419 
672	 0.259994118073905 
673	 0.259902825459288 
674	 0.259861458005083 
675	 0.259818435442093 
676	 0.2598963562377 
677	 0.260091281092473 
678	 0.259985260795349 
679	 0.260064945522827 
680	 0.260292654376071 
681	 0.260411400291559 
682	 0.260469841001005 
683	 0.260604020589772 
684	 0.260798425725794 
685	 0.260833830911811 
686	 0.260814487445428 
687	 0.260929379793453 
688	 0.261221978088939 
689	 0.261263234949938 
690	 0.261156686846987 
691	 0.261150369033997 
692	 0.261488479929217 
693	 0.261221216141325 
694	 0.261026290936687 
695	 0.261121187373708 
696	 0.260599452945838 
697	 0.260349131399484 
698	 0.260162118077527 
699	 0.259646873262897 
700	 0.259156578337631 
701	 0.258771720574951 
702	 0.258431252671788 
703	 0.25796341649964 
704	 0.257353918111241 
705	 0.256697936125721 
706	 0.2560403053924 
707	 0.255231067293456 
708	 0.254348662684817 
709	 0.253524750122099 
710	 0.252810919231634 
711	 0.251713179535518 
712	 0.250554140916144 
713	 0.249497229472376 
714	 0.248455262697594 
715	 0.24728483967654 
716	 0.246126866740632 
717	 0.245129422401487 
718	 0.24363464796279 
719	 0.242073843717581 
720	 0.240681414337441 
721	 0.239288391701409 
722	 0.238173816783932 
723	 0.237035903828677 
724	 0.235705499296791 
725	 0.233924375478361 
726	 0.232311621745984 
727	 0.23085646418452 
728	 0.229332583366354 
729	 0.227231237645835 
730	 0.225286009051815 
731	 0.223687071176841 
732	 0.222222432216392 
733	 0.220743531910401 
734	 0.219535658215949 
735	 0.218626135694837 
736	 0.217649691554135 
737	 0.21697905341561 
738	 0.216573931912537 
739	 0.216265469461298 
740	 0.215755063634114 
741	 0.215519937107558 
742	 0.215485748984268 
743	 0.215315830396714 
744	 0.215208911227719 
745	 0.215152847403304 
746	 0.215082506729572 
747	 0.21488851778195 
748	 0.214827056892195 
749	 0.214745547994828 
750	 0.214528077755728 
751	 0.214544469339689 
752	 0.21446668653915 
753	 0.214372244045878 
754	 0.214497391204966 
755	 0.214383793151241 
756	 0.214402469659903 
757	 0.214648756883966 
758	 0.214725048377285 
759	 0.214550837183971 
760	 0.214159134103679 
761	 0.214070642662193 
762	 0.214427393741276 
763	 0.214421230805633 
764	 0.214126718204021 
765	 0.213925571803804 
766	 0.214013468541743 
767	 0.214042786250917 
768	 0.21400011309364 
769	 0.214167328224522 
770	 0.21421773403724 
771	 0.214154526081704 
772	 0.214102360815265 
773	 0.21433823732498 
774	 0.214454004733549 
775	 0.214484954279596 
776	 0.214637949151063 
777	 0.214856575536166 
778	 0.214963251993142 
779	 0.215006387105974 
780	 0.215252958355187 
781	 0.215513817926276 
782	 0.215512500063592 
783	 0.215346651481832 
784	 0.216031325624407 
785	 0.216240213663495 
786	 0.216213239019136 
787	 0.216600124643581 
788	 0.216970551969939 
789	 0.217312822634709 
790	 0.217482815397854 
791	 0.217333480654629 
792	 0.2178535686943 
793	 0.218335067226567 
794	 0.218409098082185 
795	 0.218640000731893 
796	 0.218918436020224 
797	 0.219125438834842 
798	 0.219230475673086 
799	 0.219517905849735 
800	 0.219775626028483 
801	 0.219951900573344 
802	 0.220082662851939 
803	 0.220073566937144 
804	 0.220038462712512 
805	 0.220053278141963 
806	 0.220122459389422 
807	 0.220122412451023 
808	 0.219901877091582 
809	 0.219563868735522 
810	 0.219898421857144 
811	 0.219883440188037 
812	 0.219562925777909 
813	 0.219341859144416 
814	 0.218809328901716 
815	 0.218626601245253 
816	 0.218445603976873 
817	 0.217353870762569 
818	 0.217189344348553 
819	 0.216896318089851 
820	 0.215957421790743 
821	 0.214863022782039 
822	 0.213996566760481 
823	 0.213305731740243 
824	 0.212493902916495 
825	 0.21101491138507 
826	 0.209675755562382 
827	 0.208279965907535 
828	 0.206550606950369 
829	 0.205524841793343 
830	 0.204525070403391 
831	 0.203544557011481 
832	 0.20306043230359 
833	 0.202269402234897 
834	 0.201447971180979 
835	 0.200752762542827 
836	 0.200018336932751 
837	 0.199753462125265 
838	 0.199608838926602 
839	 0.19930808566156 
840	 0.199314563328352 
841	 0.198922387360605 
842	 0.198392128860204 
843	 0.198199559141285 
844	 0.197967120911476 
845	 0.197677971234589 
846	 0.197413334480957 
847	 0.197298756072261 
848	 0.197301804596867 
849	 0.197026046422093 
850	 0.196470762913476 
851	 0.196155042331144 
852	 0.1957641076331 
853	 0.195464772325524 
854	 0.195307525889353 
855	 0.194864924451501 
856	 0.195082268082983 
857	 0.19535427653795 
858	 0.194948411066309 
859	 0.194213996341075 
860	 0.193992029666124 
861	 0.194126326671614 
862	 0.19400742229523 
863	 0.19395398763322 
864	 0.19344131112475 
865	 0.192783160624628 
866	 0.19292718430343 
867	 0.192599199617086 
868	 0.192551104499623 
869	 0.192824528683397 
870	 0.192254669096192 
871	 0.191636316290777 
872	 0.191426846605503 
873	 0.191582290441466 
874	 0.191118061034154 
875	 0.19091798756598 
876	 0.190644948507998 
877	 0.18996625171548 
878	 0.189964804075616 
879	 0.189815098208291 
880	 0.189460130335631 
881	 0.189217982426817 
882	 0.189197942442951 
883	 0.188622183436514 
884	 0.188190606758114 
885	 0.189235845648498 
886	 0.188337002651584 
887	 0.187812448622221 
888	 0.188302971156242 
889	 0.187928559706047 
890	 0.18755817397326 
891	 0.187383131985751 
892	 0.187371772143448 
893	 0.187264832299365 
894	 0.187198531342702 
895	 0.187388079830499 
896	 0.187655005431903 
897	 0.186601527346362 
898	 0.185792968853116 
899	 0.185895335706195 
900	 0.186453074489955 
901	 0.184902812184104 
902	 0.184718228954038 
903	 0.185452543715191 
904	 0.185354236702385 
905	 0.184432808675058 
906	 0.18408627657153 
907	 0.184501061466272 
908	 0.184814592694877 
909	 0.184341413372465 
910	 0.183481252474624 
911	 0.183110967260364 
912	 0.18401412543907 
913	 0.183757745568959 
914	 0.182954217282864 
915	 0.182714927252323 
916	 0.18375922366397 
917	 0.181715209318348 
918	 0.180110286767581 
919	 0.180361444815168 
920	 0.179712189396167 
921	 0.180208944301744 
922	 0.180818033631061 
923	 0.180494180329479 
924	 0.179339377183699 
925	 0.180078342771378 
926	 0.180831348062675 
927	 0.179538447763839 
928	 0.179432920945833 
929	 0.180200065495684 
930	 0.180076545229952 
931	 0.177086342075568 
932	 0.176021913323377 
933	 0.1800140874795 
934	 0.182889187817953 
935	 0.178495787821836 
936	 0.178912207578621 
937	 0.179456833044646 
938	 0.178951042723167 
939	 0.177825067386589 
940	 0.177306931876323 
941	 0.17651503811942 
942	 0.174320550210255 
943	 0.171434705883536 
944	 0.179451705830872 
945	 0.179365074818469 
946	 0.173530116734224 
947	 0.174808697986728 
948	 0.165845012426544 
949	 0.167541747394682 
950	 0.17658325160034 
951	 0.176068402503648 
952	 0.174596010619473 
953	 0.175008367283251 
954	 0.17553402290739 
955	 0.172661396923428 
956	 0.171607621826078 
957	 0.173045938295622 
958	 0.174812176533805 
959	 0.173904039164146 
960	 0.173189125958815 
961	 0.173446918086054 
962	 0.17279661118542 
963	 0.169090861934311 
964	 0.16912678469448 
965	 0.171721060916659 
966	 0.17386614926109 
967	 0.172852763194193 
968	 0.173066188063334 
969	 0.172988216785274 
970	 0.171794122001945 
971	 0.17014481494397 
972	 0.172012002520842 
973	 0.173042288722194 
974	 0.171599436907333 
975	 0.17015968019399 
976	 0.17322856350545 
977	 0.174408551399383 
978	 0.172774646464189 
979	 0.172769835437462 
980	 0.171933366408363 
981	 0.172069404995705 
982	 0.172643494472341 
983	 0.171485648551624 
984	 0.171327695299625 
985	 0.169725049082069 
986	 0.168247885581142 
987	 0.170902352388863 
988	 0.173211924352659 
989	 0.173802522536879 
990	 0.172749328504658 
991	 0.171027927891363 
992	 0.168623667916187 
993	 0.169082739606827 
994	 0.171351877410863 
995	 0.171627342489488 
996	 0.172126768650232 
997	 0.169984728296765 
998	 0.168834643363727 
999	 0.173208326320724 
1000	 0.169293328365076 
1001	 0.167185522068171 
1002	 0.167784480972389 
1003	 0.167894618444527 
1004	 0.168021284906088 
1005	 0.16812298530417 
1006	 0.168056652466978 
1007	 0.16785519533975 
1008	 0.168036424399429 
1009	 0.168155220069372 
1010	 0.167994659831199 
1011	 0.167588043017324 
1012	 0.167407609086115 
1013	 0.167817835390799 
1014	 0.167726761528637 
1015	 0.167614098831418 
1016	 0.167660809828316 
1017	 0.167360374311819 
1018	 0.167278706350996 
1019	 0.167620025534809 
1020	 0.167999459843909 
1021	 0.168767104271011 
1022	 0.168697350284833 
1023	 0.168424720251134 
1024	 0.167949152455704 
1025	 0.167079026807493 
1026	 0.166863587778299 
1027	 0.167005836549923 
1028	 0.168084560606624 
1029	 0.168268819666757 
1030	 0.168497610874947 
1031	 0.168293695853315 
1032	 0.167243204676335 
1033	 0.16711154669086 
1034	 0.167287487586216 
1035	 0.167255493720366 
1036	 0.167736418066231 
1037	 0.167900560122247 
1038	 0.167942362239152 
1039	 0.167391013291136 
1040	 0.167225384429507 
1041	 0.166993867363123 
1042	 0.167106516015066 
1043	 0.167351029897216 
1044	 0.167579326275251 
1045	 0.168246148211295 
1046	 0.168409269758523 
1047	 0.168218331500936 
1048	 0.168200523616567 
1049	 0.168220839399909 
1050	 0.168003053244294 
1051	 0.167431653111348 
1052	 0.167308114754522 
1053	 0.167102087026462 
1054	 0.167172403518919 
1055	 0.1680610010744 
1056	 0.168418793882492 
1057	 0.168603930575594 
1058	 0.16873932861716 
1059	 0.168521950940286 
1060	 0.167752903055872 
1061	 0.167462614750464 
1062	 0.166907422793304 
1063	 0.166991926535649 
1064	 0.167823573504356 
1065	 0.168044426529888 
1066	 0.168661956847185 
1067	 0.168547645733996 
1068	 0.167371578323725 
1069	 0.16689636372351 
1070	 0.166030851389255 
1071	 0.165876585212689 
1072	 0.166586167430385 
1073	 0.167371137275487 
1074	 0.167475903116866 
1075	 0.167656942276605 
1076	 0.167508683207906 
1077	 0.166369871899845 
1078	 0.166303680760055 
1079	 0.166877270389802 
1080	 0.166964777511802 
1081	 0.167390052363937 
1082	 0.167391446837014 
1083	 0.166695010171657 
1084	 0.166566045483824 
1085	 0.166679391390628 
1086	 0.166533171994013 
1087	 0.166581273731567 
1088	 0.166486331092141 
1089	 0.165704886933837 
1090	 0.165851333370716 
1091	 0.165636153807591 
1092	 0.165225594754962 
1093	 0.165414108487213 
1094	 0.166093814966746 
1095	 0.166117814782 
1096	 0.166459414098333 
1097	 0.166352783159898 
1098	 0.165072232905588 
1099	 0.164827622019905 
1100	 0.165421795622262 
1101	 0.165379880264848 
1102	 0.165373294027872 
1103	 0.165314988447226 
1104	 0.164894202738022 
1105	 0.164069769280869 
1106	 0.164655142661916 
1107	 0.16584450809727 
1108	 0.165734665082722 
1109	 0.165982252619469 
1110	 0.166244544681518 
1111	 0.165290223579187 
1112	 0.165161923721839 
1113	 0.167313440438338 
1114	 0.167036720189451 
1115	 0.163089888831381 
1116	 0.16316877791638 
1117	 0.165224652952219 
1118	 0.165702948955655 
1119	 0.171290182865277 
1120	 0.173973674115895 
1121	 0.171767584309599 
1122	 0.166792542478638 
1123	 0.167280307363605 
1124	 0.171109984861822 
1125	 0.173429961961695 
1126	 0.173416523347924 
1127	 0.172742600019442 
1128	 0.168825397418745 
1129	 0.168005662094943 
1130	 0.170477849457587 
1131	 0.170760479335553 
1132	 0.167848115005845 
1133	 0.168661250662171 
1134	 0.173452695334471 
1135	 0.172302252156484 
1136	 0.169418036128192 
1137	 0.168940135770534 
1138	 0.167214244767492 
1139	 0.163800046127995 
1140	 0.163471786079476 
1141	 0.166359051592804 
1142	 0.167794128655038 
1143	 0.166256098905068 
1144	 0.165223345276082 
1145	 0.16537822915215 
1146	 0.165572414985507 
1147	 0.164601453415768 
1148	 0.16323249542241 
1149	 0.162453492458458 
1150	 0.161904939523458 
1151	 0.160647831363897 
1152	 0.160944168959426 
1153	 0.162749039461069 
1154	 0.162719834128945 
1155	 0.162382296161352 
1156	 0.162370734618379 
1157	 0.160897618079224 
1158	 0.160442325814015 
1159	 0.161386156989977 
1160	 0.161369902612424 
1161	 0.161455680871482 
1162	 0.161476124451096 
1163	 0.160748956308529 
1164	 0.160451580881464 
1165	 0.160300421130425 
1166	 0.159862025111935 
1167	 0.159885712734357 
1168	 0.160354342360088 
1169	 0.160842735800209 
1170	 0.160954588387056 
1171	 0.160633245662977 
1172	 0.159179796054035 
1173	 0.158859027786336 
1174	 0.15845433210669 
1175	 0.159284912628125 
1176	 0.159928466647858 
1177	 0.159787721005161 
1178	 0.159735493519603 
1179	 0.1597165745172 
1180	 0.159515935988927 
1181	 0.159271999405655 
1182	 0.159507357011714 
1183	 0.159495666315016 
1184	 0.159306833562244 
1185	 0.159952920190039 
1186	 0.159880760008307 
1187	 0.159185760610292 
1188	 0.158937984267247 
1189	 0.158814061481367 
1190	 0.15876590084057 
1191	 0.15853548407149 
1192	 0.158543311754935 
1193	 0.158516454489425 
1194	 0.158822404452283 
1195	 0.159023157223275 
1196	 0.158913077232632 
1197	 0.158738699037512 
1198	 0.158668149393915 
1199	 0.158555715466997 
1200	 0.158615209909431 
1201	 0.158750373804544 
1202	 0.158623396491397 
1203	 0.158168493122177 
1204	 0.157886331656 
1205	 0.158047339318398 
1206	 0.157998193633504 
1207	 0.15785077134848 
1208	 0.158211563250363 
1209	 0.158299000727395 
1210	 0.157786631026365 
1211	 0.157779952215052 
1212	 0.158027785128884 
1213	 0.157700090893642 
1214	 0.157570470661389 
1215	 0.157651537995569 
1216	 0.157802849829652 
1217	 0.15726658131263 
1218	 0.157067607018801 
1219	 0.157257238162525 
1220	 0.157090005477947 
1221	 0.157024514928679 
1222	 0.157323088600239 
1223	 0.157275159612819 
1224	 0.156948661755965 
1225	 0.15705628409871 
1226	 0.157010865667294 
1227	 0.156704532582185 
1228	 0.156870826816619 
1229	 0.157032821837235 
1230	 0.15686931379436 
1231	 0.157172222211288 
1232	 0.157518605688742 
1233	 0.157073073266597 
1234	 0.156733888923531 
1235	 0.156622637581139 
1236	 0.156275209343352 
1237	 0.156074759720442 
1238	 0.15623843438176 
1239	 0.156365614504817 
1240	 0.156153479194102 
1241	 0.155925375131799 
1242	 0.155499916257564 
1243	 0.155438347481771 
1244	 0.155679162509378 
1245	 0.155465663215653 
1246	 0.155650946367175 
1247	 0.156340306549696 
1248	 0.156295846232303 
1249	 0.155987078418 
1250	 0.156104070002397 
1251	 0.155985109442649 
1252	 0.155401269863737 
1253	 0.155008208719973 
1254	 0.155166022377139 
1255	 0.155178611570232 
1256	 0.155139047181194 
1257	 0.155766712156401 
1258	 0.155857771482079 
1259	 0.155037257623644 
1260	 0.155046369828716 
1261	 0.155722131023046 
1262	 0.155606708595816 
1263	 0.155330041917677 
1264	 0.155246693185907 
1265	 0.154837082210342 
1266	 0.154804619277428 
1267	 0.155315843887466 
1268	 0.155304456310516 
1269	 0.155017651820149 
1270	 0.155074899001612 
1271	 0.155015193825964 
1272	 0.154864413861906 
1273	 0.154761613981812 
1274	 0.154501657215825 
1275	 0.154486573061809 
1276	 0.154577952985004 
1277	 0.154536954712441 
1278	 0.154678891859806 
1279	 0.154516280540432 
1280	 0.15410544992147 
1281	 0.154050899096241 
1282	 0.154091971771615 
1283	 0.154150285025191 
1284	 0.154550724086382 
1285	 0.154724704009632 
1286	 0.154743020811591 
1287	 0.154725191019881 
1288	 0.154737827976082 
1289	 0.154558569970118 
1290	 0.154137193155755 
1291	 0.153889415310978 
1292	 0.154166174446643 
1293	 0.15428729732737 
1294	 0.154342239768445 
1295	 0.154676659060351 
1296	 0.154552448480254 
1297	 0.154122467750614 
1298	 0.153997846115858 
1299	 0.153881476184718 
1300	 0.15368175878378 
1301	 0.153284453279881 
1302	 0.152887766737946 
1303	 0.153112988029889 
1304	 0.153721000961659 
1305	 0.153668977846981 
1306	 0.153422801613056 
1307	 0.153170732075127 
1308	 0.153229995842417 
1309	 0.152702507090427 
1310	 0.152517795038623 
1311	 0.153241225597402 
1312	 0.153347480347229 
1313	 0.152751583228558 
1314	 0.152795862582344 
1315	 0.153389053334877 
1316	 0.153368761117619 
1317	 0.15301793354933 
1318	 0.152970968168161 
1319	 0.152825360206373 
1320	 0.152859587709233 
1321	 0.153458388852098 
1322	 0.153271936091966 
1323	 0.152653169148909 
1324	 0.152609512226914 
1325	 0.151893573533994 
1326	 0.151630952468872 
1327	 0.152866341889881 
1328	 0.152832626689458 
1329	 0.152188063237837 
1330	 0.152118415520772 
1331	 0.150830757882536 
1332	 0.150049801341393 
1333	 0.150516545093595 
1334	 0.15069018436157 
1335	 0.151378324356619 
1336	 0.153552813664309 
1337	 0.153478497898102 
1338	 0.151697393262295 
1339	 0.151680584647148 
1340	 0.151648261361284 
1341	 0.150793796641022 
1342	 0.150107669600495 
1343	 0.151066535712228 
1344	 0.152102449146596 
1345	 0.151755139536241 
1346	 0.154370129332876 
1347	 0.156840928483354 
1348	 0.154167704178514 
1349	 0.152367276895344 
1350	 0.153571312938429 
1351	 0.157594204476832 
1352	 0.169301883823741 
1353	 0.174466123618477 
1354	 0.190928935277413 
1355	 0.175742267373965 
1356	 0.119573626019523 
1357	 5.37894889086841E-02 
1358	 7.71593428031345E-02 
1359	 0.209189676340849 
1360	 0.515053618907518 
1361	 0.660265169799993 
1362	 0.476584314916218 
1363	 0.19613080926866 
1364	 4.85624438004899E-02 
1365	-7.02501975290923E-02 
1366	-0.331189316446555 
1367	-0.322399347140461 
1368	-5.71724022273027E-02 
1369	 0.13428801404953 
1370	 0.105555393086149 
1371	 0.229589046372954 
1372	 0.312776367305253 
1373	 9.55831458336624E-02 
1374	 0.079983635085755 
1375	 0.694246948500909 
1376	 0.73287057095804 
1377	 0.779665842569762 
1378	 0.552209018356602 
1379	-8.13279659597285E-02 
1380	-0.042309975180957 
1381	 0.163255852837318 
1382	 0.203460212063653 
1383	 1.58447371313458 
1384	 2.48739992800301 
1385	 0.963322712941273 
1386	 0.73975057181461 
1387	 0.514630574283957 
1388	 0.445374688916415 
1389	 0.361854440324931 
1390	 0.44992550266727 
1391	 0.662197360313773 
1392	 0.932531383152669 
1393	 1.04785027182812 
1394	 0.731590495290255 
1395	 0.583035030092386 
1396	 0.894227647013829 
1397	 1.330117819036 
1398	 0.682500283184009 
1399	 0.512741019749092 
1400	 2.01156495445561 
1401	 5.09942065153137 
1402	 24.5389503461294 
1403	 0.962877159238383 
1404	 2.47161696017052E-02 
1405	 0.102845770737544 
1406	 0.413967589858315 
1407	 0.40491945810757 
1408	 0.570416557660344 
1409	 0.622747928217468 
1410	 0.420494248271745 
1411	 0.273145926759004 
1412	 0.248943481997366 
1413	 0.275903379939788 
1414	 0.2387833172833 
1415	 0.222959286633519 
1416	 0.3335777464403 
1417	 0.317948663464768 
1418	 0.232113871030211 
1419	 0.185559232748359 
1420	 0.124195811641481 
1421	 0.122901175182079 
1422	 0.163547768852982 
1423	 0.14422657925942 
1424	 0.109161448520668 
1425	 0.11182716557626 
1426	 0.108702096691619 
1427	 0.102198641483416 
1428	 0.115539487703324 
1429	 0.122726777801903 
1430	 0.111932337476216 
1431	 0.111050518701764 
1432	 0.125479765635169 
1433	 0.133752977825176 
1434	 0.137667154423389 
1435	 0.142427474537423 
1436	 0.154766957070192 
1437	 0.153534976149929 
1438	 0.127191528808456 
1439	 0.102708107471013 
1440	 9.07222766016827E-02 
1441	 9.60109679057393E-02 
1442	 0.108631603411935 
1443	 0.107819437496781 
1444	 0.10113674094846 
1445	 9.42086802276704E-02 
1446	 8.92630663655154E-02 
1447	 9.34192339521494E-02 
1448	 0.101975603159916 
1449	 0.107010120633984 
1450	 0.104508286387078 
1451	 0.102570317055384 
1452	 0.106830367689575 
1453	 0.105280530945482 
1454	 0.103270369205564 
1455	 0.105513372202947 
1456	 0.10728878228452 
1457	 0.10455491173254 
1458	 0.102725852034471 
1459	 0.103782211892893 
1460	 0.10550299107707 
1461	 0.106344392215183 
1462	 0.104278256487736 
1463	 0.102867839111804 
1464	 0.10390613807434 
1465	 0.100926205732813 
1466	 9.97128843525445E-02 
1467	 0.106008263082093 
1468	 0.107293593684476 
1469	 0.101438891500838 
1470	 0.100127734562451 
1471	 0.10310293235573 
1472	 0.104031417414978 
1473	 0.101987478853155 
1474	 0.103411855474746 
1475	 0.109612706135796 
1476	 0.109265450636165 
1477	 0.104945195721034 
1478	 0.105155639077962 
1479	 0.105358448365208 
1480	 0.104693474528704 
1481	 0.10592160007966 
1482	 0.106849390408216 
1483	 0.106820863189776 
1484	 0.105446208769166 
1485	 0.103324680050352 
1486	 0.10373979170571 
1487	 0.103871065871359 
1488	 0.104260533113712 
1489	 0.106918470652169 
1490	 0.107997628242125 
1491	 0.107910448487215 
1492	 0.107892944125631 
1493	 0.107704383430239 
1494	 0.10754517483748 
1495	 0.107409518127717 
1496	 0.107193689940173 
1497	 0.106752049234067 
1498	 0.106709467528848 
1499	 0.106746074145471 
1500	 0.106615199068642 
1501	 0.106599737421467 
1502	 0.106789917558201 
1503	 0.106677095431284 
1504	 0.10709015137618 
1505	 0.108057265285104 
1506	 0.108893487964454 
1507	 0.109005005728922 
1508	 0.109335448890303 
1509	 0.109968370994228 
1510	 0.110485386907847 
1511	 0.111046995469507 
1512	 0.111933961223331 
1513	 0.112272290024737 
1514	 0.111910983311924 
1515	 0.112326521872875 
1516	 0.112676320228184 
1517	 0.111841266439335 
1518	 0.111896878133237 
1519	 0.112697888798388 
1520	 0.112923176459175 
1521	 0.113823695670938 
1522	 0.114532785209598 
1523	 0.114602350938179 
1524	 0.115087686548335 
1525	 0.115077858701786 
1526	 0.114809801664138 
1527	 0.114558313253033 
1528	 0.114349405430727 
1529	 0.114958377894815 
1530	 0.115748050301996 
1531	 0.116116645560688 
1532	 0.116048522376905 
1533	 0.116258941309592 
1534	 0.116851413765366 
1535	 0.116815077105605 
1536	 0.117136446424059 
1537	 0.117714059166786 
1538	 0.117335393933479 
1539	 0.117212496740622 
1540	 0.117834031260587 
1541	 0.118003064434885 
1542	 0.117761628367566 
1543	 0.118099362207688 
1544	 0.118728249942705 
1545	 0.119085419660357 
1546	 0.119132750858161 
1547	 0.11917596549302 
1548	 0.119447075097669 
1549	 0.119761905278571 
1550	 0.120138105477528 
1551	 0.120308001402282 
1552	 0.120376615260131 
1553	 0.120767806852585 
1554	 0.121095123167199 
1555	 0.121036284340785 
1556	 0.121184960134459 
1557	 0.12146455775861 
1558	 0.121698963658017 
1559	 0.121890374166362 
1560	 0.121921802746149 
1561	 0.122451617666496 
1562	 0.122619440164628 
1563	 0.122798800710896 
1564	 0.123893133735301 
1565	 0.124115612976889 
1566	 0.12359571818429 
1567	 0.123914926930915 
1568	 0.124193466961763 
1569	 0.123464274046769 
1570	 0.123419028333988 
1571	 0.124203606563099 
1572	 0.12462666106603 
1573	 0.125460900006762 
1574	 0.126087432370935 
1575	 0.125781249900185 
1576	 0.125353482902806 
1577	 0.125057278906082 
1578	 0.125014333560399 
1579	 0.124747304370429 
1580	 0.124667891501764 
1581	 0.125252284450038 
1582	 0.125648353878569 
1583	 0.125442479531688 
1584	 0.124921152287069 
1585	 0.124943154278239 
1586	 0.125146364205404 
1587	 0.125114387752037 
1588	 0.125769982857455 
1589	 0.126305238558426 
1590	 0.125849224968203 
1591	 0.125889738203854 
1592	 0.126373260182577 
1593	 0.126137550281315 
1594	 0.126307798630172 
1595	 0.127255943672007 
1596	 0.127548176625764 
1597	 0.127337479895529 
1598	 0.12731803865624 
1599	 0.127192571732909 
1600	 0.127402821980726 
1601	 0.128132057547058 
1602	 0.12822715530227 
1603	 0.127821572146367 
1604	 0.12798281066314 
1605	 0.128236998715448 
1606	 0.128169390416424 
1607	 0.128290837770111 
1608	 0.128247659773532 
1609	 0.12820258368766 
1610	 0.128900225290967 
1611	 0.129321008218442 
1612	 0.129349679253955 
1613	 0.12944126233764 
1614	 0.129062701162483 
1615	 0.128876454401161 
1616	 0.129111772082103 
1617	 0.129361821628362 
1618	 0.129364301436806 
1619	 0.128929180065362 
1620	 0.129164001815242 
1621	 0.129958207411066 
1622	 0.129938065530419 
1623	 0.129662333101902 
1624	 0.129839662073685 
1625	 0.129989741325842 
1626	 0.130234945138403 
1627	 0.130670979309979 
1628	 0.130303460712111 
1629	 0.129431690154552 
1630	 0.129100114191266 
1631	 0.129033597846519 
1632	 0.129517489716673 
1633	 0.130096197822697 
1634	 0.130001826103965 
1635	 0.130265366028835 
1636	 0.130466370344354 
1637	 0.130185018840318 
1638	 0.130059192949881 
1639	 0.129955822504441 
1640	 0.130042947981345 
1641	 0.13007843462715 
1642	 0.130151669135254 
1643	 0.13023713378051 
1644	 0.130040698133851 
1645	 0.130197822676093 
1646	 0.130342022417781 
1647	 0.130524258276856 
1648	 0.131002669053125 
1649	 0.130730691790633 
1650	 0.130043661944132 
1651	 0.12994268072419 
1652	 0.130043029798484 
1653	 0.130694416174448 
1654	 0.13106562844682 
1655	 0.130867528160851 
1656	 0.130815882307708 
1657	 0.131014189550735 
1658	 0.131003174385826 
1659	 0.131067584954444 
1660	 0.131257579724676 
1661	 0.131194053088597 
1662	 0.13098807817382 
1663	 0.130579501889785 
1664	 0.130340304937211 
1665	 0.130297992026272 
1666	 0.130386664468132 
1667	 0.130625462520165 
1668	 0.131143139956281 
1669	 0.131350647426929 
1670	 0.131319598053354 
1671	 0.131400598599468 
1672	 0.131671306616019 
1673	 0.131934155729966 
1674	 0.1324082947295 
1675	 0.132612957544706 
1676	 0.132096496222342 
1677	 0.131066615227869 
1678	 0.130319334345296 
1679	 0.130663665239808 
1680	 0.130915733747514 
1681	 0.130773209567383 
1682	 0.131226714039123 
1683	 0.131506917084534 
1684	 0.130923333503734 
1685	 0.131044163891878 
1686	 0.131705675309515 
1687	 0.131442602927391 
1688	 0.13147322072504 
1689	 0.132297685974748 
1690	 0.132397511054789 
1691	 0.130838082592498 
1692	 0.129839114061543 
1693	 0.130318289055074 
1694	 0.130695945765574 
1695	 0.131861244026579 
1696	 0.132684878280897 
1697	 0.131852751229106 
1698	 0.130877240236057 
1699	 0.130387964493649 
1700	 0.130491556607382 
1701	 0.130456116359918 
1702	 0.130407547115858 
1703	 0.130753819985926 
1704	 0.130947131731198 
1705	 0.131556290685005 
1706	 0.131699278697194 
1707	 0.131091669612527 
1708	 0.131146319090257 
1709	 0.131509777868878 
1710	 0.131130943804168 
1711	 0.130614004598294 
1712	 0.131197878883776 
1713	 0.131343802853641 
1714	 0.131243340906219 
1715	 0.131508366392744 
1716	 0.131099199588626 
1717	 0.130933891485701 
1718	 0.130934375895734 
1719	 0.131095409630009 
1720	 0.130895888156844 
1721	 0.130459812785066 
1722	 0.130542276260581 
1723	 0.131221042467004 
1724	 0.131290239524823 
1725	 0.130516590217476 
1726	 0.130440548879315 
1727	 0.130580781939852 
1728	 0.130469249622774 
1729	 0.130843109510718 
1730	 0.131023445335062 
1731	 0.130865035380917 
1732	 0.129777465940015 
1733	 0.129055739100079 
1734	 0.129244403825616 
1735	 0.128286951896817 
1736	 0.128341544086587 
1737	 0.129936780295696 
1738	 0.130217345272674 
1739	 0.129753360378667 
1740	 0.129709898292449 
1741	 0.12974151719736 
1742	 0.129183478969985 
1743	 0.129017881379893 
1744	 0.129910813620584 
1745	 0.129108202447579 
1746	 0.12898278188664 
1747	 0.128990194936323 
1748	 0.127946490152526 
1749	 0.12745429060894 
1750	 0.127234157122945 
1751	 0.12711595105156 
1752	 0.127848065342021 
1753	 0.12838183531242 
1754	 0.128644187370605 
1755	 0.128387375940715 
1756	 0.127326829491206 
1757	 0.125920584991258 
1758	 0.12761269330596 
1759	 0.129268251508448 
1760	 0.128845065096133 
1761	 0.12772388313983 
1762	 0.126249084097035 
1763	 0.125567204317213 
1764	 0.126211737477036 
1765	 0.126545565201208 
1766	 0.125922807157989 
1767	 0.125578561823906 
1768	 0.12659123704617 
1769	 0.128352957652461 
1770	 0.129695999418054 
1771	 0.128620759035216 
1772	 0.125204205726979 
1773	 0.124588159287422 
1774	 0.125941225200975 
1775	 0.127741594785337 
1776	 0.128387621246645 
1777	 0.12555479953984 
1778	 0.124846032130532 
1779	 0.125993539225564 
1780	 0.126455602913856 
1781	 0.127324795196979 
1782	 0.127922163829224 
1783	 0.12824053195059 
1784	 0.129260732734064 
1785	 0.131576996230223 
1786	 0.131318553860067 
1787	 0.130050008655898 
1788	 0.126828007446794 
1789	 0.117973217196968 
1790	 0.115813873731885 
1791	 0.118045733514467 
1792	 0.12606068735812 
1793	 0.137922113508916 
1794	 0.140711927885077 
1795	 0.136851278430943 
1796	 0.136203752516977 
1797	 0.134580892632036 
1798	 0.13978308226502 
1799	 0.149725291254772 
1800	 0.139944641233647 
1801	 0.136886058061414 
1802	 0.134935843783648 
1803	 0.133586908722275 
1804	 0.138507541423703 
1805	 0.141130257768238 
1806	 0.143491283805657 
1807	 0.154077732086095 
1808	 0.179318249800245 
1809	 0.217772767857238 
1810	 0.288841303812445 
1811	 0.295975233058897 
1812	 0.21252890182645 
1813	 0.214983406787729 
1814	 0.160675201299375 
1815	 0.281453022981296 
1816	 1.33577987013855 
1817	 1.4029932353533 
1818	 1.27167968686302 
1819	 1.57968619380426E-02 
1820	-0.661190510342614 
1821	-1.34664653781296 
1822	-1.31711904141322 
1823	-0.291619308987267 
1824	 0.221724412126225 
1825	 0.524989660980015 
1826	 0.62000612979831 
1827	 0.13165551571352 
1828	-0.160109116524303 
1829	-1.14633693791451 
1830	-2.45722427577483 
1831	 1.05977689665093 
1832	 1.23049282048412 
1833	 4.87338078976437 
1834	 19.9564447737537 
1835	 1.79502064633783 
1836	 0.497821372446808 
1837	 1.42327284828084 
1838	 1.39472749287618 
1839	 2.46228819823303 
1840	 0.482704491751238 
1841	 0.13842362127821 
1842	-1.02052732979436 
1843	-0.108574221632642 
1844	-0.406066045222532 
1845	-0.347713796674102 
1846	 0.155881485386824 
1847	 0.238115286913976 
1848	 0.725801276987334 
1849	 0.227091519011562 
1850	 3.00435950882515 
1851	 11.9619099509493 
1852	 32.5957420110201 
1853	-6.60014241259765 
1854	-3.37632114004857 
1855	-1.37922945713184 
1856	-1.31525901685166 
1857	-0.705880834050206 
1858	-0.686409003546304 
1859	-1.78238257657238 
1860	 1.7502466034124 
1861	 2.18844674488664 
1862	 3.70243476215738 
1863	 4.11149436921189 
1864	 1.20733390000083 
1865	 0.966503907654996 
1866	 1.47657554670003 
1867	 0.352971400176894 
1868	-0.781588358022561 
1869	-0.823423779804639 
1870	-1.02817470952875 
1871	-0.518422147372875 
1872	-2.94210342663348E-02 
1873	-5.14035694055017E-02 
1874	-1.30205156609614E-03 
1875	 0.106348503967215 
1876	 0.118745803617418 
1877	-0.289865678384668 
1878	-0.439427299297622 
1879	 0.772214275656364 
1880	-0.104764453474627 
1881	 0.559805675397249 
1882	 0.419853934521633 
1883	 0.918347675278441 
1884	 3.26733445615311 
1885	-0.871525420570066 
1886	-3.06208405620492E-02 
1887	 0.198407991059369 
1888	-0.978601772198316 
1889	-1.50453627145385 
1890	-1.30490526476103 
1891	-1.68793460951567 
1892	 0.327862313953046 
1893	 2.41919383393607 
1894	 1.68791448723691 
1895	 0.960058809205168 
1896	 21.6822285772178 
1897	-2.56218882149801 
1898	-0.676898309394535 
1899	-0.417749256554762 
1900	-0.497515720103527 
1901	-0.559250845883687 
1902	-0.288110809940196 
1903	 0.141024901488722 
1904	 0.209022369365236 
1905	-1.11420744560665 
1906	-0.592473663269545 
1907	 0.601552474774247 
1908	 8.59539534025161 
1909	-0.457454775911229 
1910	 0.696378207180886 
1911	 0.656570796711338 
1912	 0.728653988373809 
1913	 0.947251155208602 
1914	 0.468305248718945 
1915	-0.318844851287903 
1916	 12.5050923890292 
1917	 0.26754853063061 
1918	 0.38046721419398 
1919	 0.424863532355928 
1920	 0.130039378401703 
1921	 0.148600869095923 
1922	 1.42379185114244 
1923	 5.23620983805406 
1924	 1.08313629124314 
1925	 1.20432128606808 
1926	 1.09073380444924 
1927	 0.904664527269087 
1928	 1.06648586567061 
1929	 0.788731165631842 
1930	 0.694062675450641 
1931	 0.514994561333601 
1932	 9.39297755538735E-02 
1933	 8.32898041110931E-02 
1934	-0.128592847373364 
1935	-0.460271992239836 
1936	-0.267958585737823 
1937	 0.397933973704383 
1938	 0.640564226154702 
1939	 0.673981692268386 
1940	 0.749098836117915 
1941	 0.581705592720766 
1942	 0.125722270279363 
1943	 1.19569556223397E-03 
1944	-4.82860411237329E-02 
1945	-3.60605267852067E-02 
1946	 6.17323963575057E-02 
1947	 6.07575734600295E-02 
1948	 8.67666039008682E-02 
1949	 0.17866256727902 
1950	 0.181144753961486 
1951	 0.167219179686835 
1952	 0.170036128460799 
1953	 0.176571094906109 
1954	 0.154451705229349 
1955	 0.124145812791986 
1956	 9.42583243803287E-02 
1957	 6.82261162647873E-02 
1958	 2.16730691362961E-02 
1959	 3.28492165613292E-03 
1960	 1.62251939363825E-02 
1961	 1.75538629168665E-02 
1962	 3.91507036305212E-02 
1963	 6.56890494429512E-02 
1964	 6.81223512973307E-02 
1965	 7.60039877985999E-02 
1966	 0.080354384952015 
1967	 8.16363984153579E-02 
1968	 7.45763978216563E-02 
1969	 7.77974736367475E-02 
1970	 7.59137007945918E-02 
1971	 6.93136162410925E-02 
1972	 6.72028951253586E-02 
1973	 0.063818431655652 
1974	 6.93491742975676E-02 
1975	 7.61938577193288E-02 
1976	 7.93503826295652E-02 
1977	 8.46499883826813E-02 
1978	 8.57750422076631E-02 
1979	 8.58151313853972E-02 
1980	 8.36385005939567E-02 
1981	 8.44065929796047E-02 
1982	 8.20413982268934E-02 
1983	 7.67568988831949E-02 
1984	 7.47978475946824E-02 
1985	 7.19042558673317E-02 
1986	 6.91160543340015E-02 
1987	 6.81674964514543E-02 
1988	 6.53504871938141E-02 
1989	 6.54490496848272E-02 
1990	 6.90851113466961E-02 
1991	 7.07418971786696E-02 
1992	 6.77924849787763E-02 
1993	 6.43142276421552E-02 
1994	 6.37532631696307E-02 
1995	 6.14793031166477E-02 
1996	 6.21921783427175E-02 
1997	 7.20940096512657E-02 
1998	 8.04626833946993E-02 
1999	 7.84757486967045E-02 
2000	 7.84449799101313E-02 
2001	 7.55980393127468E-02 
2002	 0.063580207097057 
2003	 6.66846655208225E-02 
2004	 7.83755829644631E-02 
2005	 7.68786949033548E-02 
2006	 7.71051352130041E-02 
2007	 7.54179668551366E-02 
2008	 6.60345123211281E-02 
2009	 6.10846214743265E-02 
2010	 5.99842583448296E-02 
2011	 6.21725258774185E-02 
2012	 6.63440531506231E-02 
2013	 6.97229097422117E-02 
2014	 7.40692698743949E-02 
2015	 7.48075053154695E-02 
2016	 7.24805569545143E-02 
2017	 6.92094874441896E-02 
2018	 6.88532952553432E-02 
2019	 7.02394927526071E-02 
2020	 7.53993646456429E-02 
2021	 7.86362328361746E-02 
2022	 7.33421858315732E-02 
2023	 7.22900248399139E-02 
2024	 7.27586744001179E-02 
2025	 7.12437299407754E-02 
2026	 7.16135413056936E-02 
2027	 7.59751423563851E-02 
2028	 7.73341062735876E-02 
2029	 7.44087148338539E-02 
2030	 7.51103482555293E-02 
2031	 7.56075952865136E-02 
2032	 7.55264732516354E-02 
2033	 7.70023449964251E-02 
2034	 7.61137472898737E-02 
2035	 0.073428896734036 
2036	 7.19496851140647E-02 
2037	 7.26523181350706E-02 
2038	 7.42504258692402E-02 
2039	 7.56305465203583E-02 
2040	 7.91621052490415E-02 
2041	 8.01033202107266E-02 
2042	 7.91885689714678E-02 
2043	 7.96272852201582E-02 
2044	 7.94826979855256E-02 
2045	 8.02420567823529E-02 
2046	 8.26417199921299E-02 
2047	 8.37357081916134E-02 
2048	 8.28438668614272E-02 
2049	 8.21578936952511E-02 
2050	 8.19921345253994E-02 
2051	 0.07883912442961 
2052	 7.93057856249002E-02 
2053	 8.09673504522745E-02 
2054	 7.97466246316504E-02 
2055	 8.20370483370205E-02 
2056	 8.27677463916951E-02 
2057	 8.21730910824037E-02 
2058	 0.082115916923665 
2059	 8.12030065984454E-02 
2060	 8.24237541646584E-02 
2061	 8.52048755438986E-02 
2062	 8.66713349102314E-02 
2063	 8.91207219673283E-02 
2064	 9.01936500814495E-02 
2065	 8.79404665469827E-02 
2066	 8.67726765201485E-02 
2067	 8.56004358036733E-02 
2068	 8.60386761824311E-02 
2069	 8.86344950058037E-02 
2070	 8.92178587479041E-02 
2071	 8.88864250725317E-02 
2072	 8.75515913021508E-02 
2073	 8.69142370164659E-02 
2074	 8.54816802955066E-02 
2075	 8.48746008564935E-02 
2076	 8.44354782320115E-02 
2077	 8.48231684148676E-02 
2078	 8.60450765189218E-02 
2079	 8.64850948803587E-02 
2080	 8.72699725693066E-02 
2081	 8.82206863333925E-02 
2082	 8.86578060950865E-02 
2083	 8.71461571414121E-02 
2084	 0.086973855851166 
2085	 8.88592819732156E-02 
2086	 8.87679922076355E-02 
2087	 8.78924171950031E-02 
2088	 8.84350945767628E-02 
2089	 8.89262100012701E-02 
2090	 9.03737824463483E-02 
2091	 9.19452938640879E-02 
2092	 9.27727739627057E-02 
2093	 9.32480403929185E-02 
2094	 9.29139514992074E-02 
2095	 9.17019179180232E-02 
2096	 9.10004155278752E-02 
2097	 8.89828094329959E-02 
2098	 8.79502846601843E-02 
2099	 8.71197454605004E-02 
2100	 8.79319042341808E-02 
2101	 8.93010408423633E-02 
2102	 9.08950132909748E-02 
2103	 9.10923874126308E-02 
2104	 9.02137560412727E-02 
2105	 9.11345124118589E-02 
2106	 9.19808754648222E-02 
2107	 9.19023527438091E-02 
2108	 9.45542993943155E-02 
2109	 9.59647100990415E-02 
2110	 0.093002066940203 
2111	 9.23348116783932E-02 
2112	 9.40109618657339E-02 
2113	 9.36607198857742E-02 
2114	 0.091457182590686 
2115	 0.091642965834862 
2116	 9.20631862151482E-02 
2117	 9.25792107892057E-02 
2118	 9.45628804143359E-02 
2119	 9.61823482224327E-02 
2120	 9.78592357014312E-02 
2121	 9.96320510428701E-02 
2122	 0.100725412043566 
2123	 0.101632171291613 
2124	 0.100125133299439 
2125	 9.75191736939539E-02 
2126	 9.76576159136551E-02 
2127	 9.76443900633108E-02 
2128	 9.67038544897107E-02 
2129	 9.77416511192992E-02 
2130	 9.85439702877652E-02 
2131	 9.80472206411192E-02 
2132	 0.100050252728253 
2133	 0.101918725066599 
2134	 0.102775513484591 
2135	 0.102656417425514 
2136	 0.102474495456393 
2137	 0.101641522128605 
2138	 0.101029483495128 
2139	 9.94623929703053E-02 
2140	 9.87199782838276E-02 
2141	 0.098152875093597 
2142	 9.83113028744342E-02 
2143	 9.93215338449821E-02 
2144	 0.100343924136761 
2145	 9.97031244658137E-02 
2146	 0.101355952252514 
2147	 0.103092307455811 
2148	 0.102051173341751 
2149	 0.101597557746061 
2150	 0.102890125425465 
2151	 0.10388212021378 
2152	 0.103275285938153 
2153	 0.101542020238379 
2154	 9.92811557783518E-02 
2155	 9.70843403255044E-02 
2156	 0.096633310811578 
2157	 9.75921777560386E-02 
2158	 0.102899510822577 
2159	 0.10448290966668 
2160	 0.104898850880072 
2161	 0.105345878417536 
2162	 0.104132117317555 
2163	 0.104093544048507 
2164	 0.105633451218576 
2165	 0.105303452750389 
2166	 0.103952514349938 
2167	 0.102857103796014 
2168	 0.10051745453867 
2169	 9.94147031813503E-02 
2170	 9.81265490864856E-02 
2171	 9.92861497586779E-02 
2172	 0.101574037854318 
2173	 0.100319161477709 
2174	 0.10146666374991 
2175	 0.102503251246639 
2176	 0.102360816163342 
2177	 0.102900118596454 
2178	 0.103141134401835 
2179	 0.104312688733685 
2180	 0.104899747085372 
2181	 0.105027767875025 
2182	 0.104350622330176 
2183	 0.101114953623953 
2184	 9.93889540095064E-02 
2185	 9.97061027906948E-02 
2186	 9.96032626141261E-02 
2187	 0.101904671053463 
2188	 0.101820081431674 
2189	 9.90061097814451E-02 
2190	 9.82453547332728E-02 
2191	 0.096874219540492 
2192	 9.72724936844494E-02 
2193	 0.101448925087226 
2194	 0.102673961048177 
2195	 0.103862143001597 
2196	 0.103057152495686 
2197	 9.76631904567011E-02 
2198	 9.61824623839286E-02 
2199	 9.57341510286796E-02 
2200	 9.59908099600672E-02 
2201	 9.69910399877876E-02 
2202	 9.75938965054407E-02 
2203	 9.74386699162827E-02 
2204	 9.85168940927593E-02 
2205	 0.100322525960859 
2206	 0.102795108886907 
2207	 0.105738267957684 
2208	 0.105790487213672 
2209	 0.104281011625066 
2210	 0.105263143888759 
2211	 0.104084460652562 
2212	 0.101062522525134 
2213	 0.10090553815632 
2214	 9.79672727024055E-02 
2215	 9.65183845818719E-02 
2216	 9.77058895513588E-02 
2217	 9.76289952904069E-02 
2218	 9.80441921391916E-02 
2219	 9.85944100654075E-02 
2220	 9.79461662590724E-02 
2221	 9.90335207383322E-02 
2222	 0.102313077303634 
2223	 0.104266756608502 
2224	 0.107019802805384 
2225	 0.107295772967797 
2226	 0.1051170225207 
2227	 0.104249087838597 
2228	 0.102570248167618 
2229	 0.100669925016628 
2230	 0.099014210142026 
2231	 9.86639594782197E-02 
2232	 9.80623858431198E-02 
2233	 9.88299581933308E-02 
2234	 0.104327721697287 
2235	 0.102912285612471 
2236	 9.80217623742679E-02 
2237	 0.099334152129998 
2238	 0.102522350310629 
2239	 0.103176847599426 
2240	 0.104594429246668 
2241	 0.101119172163546 
2242	 9.38047916371561E-02 
2243	 9.17872383600332E-02 
2244	 0.093675090300349 
2245	 9.56391244074396E-02 
2246	 9.55151561092736E-02 
2247	 9.41907180993506E-02 
2248	 9.27168240679941E-02 
2249	 9.28723131347246E-02 
2250	 9.50768522347741E-02 
2251	 9.71971445611913E-02 
2252	 0.10019287993772 
2253	 0.103840795603572 
2254	 0.105700502797469 
2255	 0.104753553948611 
2256	 0.100231127517398 
2257	 9.46413691255744E-02 
2258	 9.17724538899649E-02 
2259	 9.15778465054657E-02 
2260	 9.25804721191597E-02 
2261	 0.100055569680891 
2262	 9.92768470360911E-02 
2263	 9.34086801314536E-02 
2264	 9.34617688748897E-02 
2265	 9.09802259835557E-02 
2266	 9.11575639964427E-02 
2267	 9.85097233395037E-02 
2268	 0.101133123098437 
2269	 0.101732462164332 
2270	 0.102419968939852 
2271	 0.101717113745418 
2272	 0.101844733070994 
2273	 0.102171056475468 
2274	 0.10032306019828 
2275	 9.65124009773696E-02 
2276	 9.76226797085074E-02 
2277	 0.101364132043596 
2278	 0.101146622465369 
2279	 0.101232511674035 
2280	 0.101207880731277 
2281	 9.84937899168488E-02 
2282	 9.34320959303612E-02 
2283	 9.30285982596032E-02 
2284	 9.79619609262294E-02 
2285	 9.58721349982914E-02 
2286	 9.62295479323828E-02 
2287	 9.79705636478913E-02 
2288	 9.75069986762415E-02 
2289	 0.096342996166149 
2290	 9.60178792192525E-02 
2291	 0.100150714965491 
2292	 0.103280735521606 
2293	 0.106491825242254 
2294	 0.110103942836496 
2295	 0.106404804951024 
2296	 0.101818827771936 
2297	 0.103196062637375 
2298	 0.103528386652806 
2299	 0.102330362453853 
2300	 0.103817994639133 
2301	 0.111194872835126 
2302	 0.11276921440033 
2303	 0.109989739905616 
2304	 0.109336753578979 
2305	 0.100655984043499 
2306	 9.28485846563903E-02 
2307	 8.88993193603326E-02 
2308	 8.88583580565405E-02 
2309	 8.67310427697425E-02 
2310	 8.05900663269538E-02 
2311	 7.77212202039362E-02 
2312	 7.28157203705176E-02 
2313	 7.77806522885143E-02 
2314	 0.082911490248544 
2315	 7.70656277076385E-02 
2316	 8.89365005201259E-02 
2317	 9.83940229406179E-02 
2318	 9.23324665457108E-02 
2319	 9.54068685076681E-02 
2320	 8.29310204093116E-02 
2321	 6.61161989217976E-02 
2322	 7.16055839285913E-02 
2323	 8.05410346201469E-02 
2324	 8.98711060607391E-02 
2325	 9.08570289741078E-02 
2326	 7.99674728610222E-02 
2327	 7.49890934384153E-02 
2328	 7.66690397140271E-02 
2329	 8.37340233094594E-02 
2330	 8.66298234035774E-02 
2331	 8.74082476145401E-02 
2332	 0.093832537578066 
2333	 9.88372676915443E-02 
2334	 0.112100531010589 
2335	 0.119367339339014 
2336	 0.117508965246571 
2337	 0.120775733204202 
2338	 0.118478161632701 
2339	 0.113772543043186 
2340	 0.101893463562426 
2341	 8.86292973887578E-02 
2342	 9.54837648732026E-02 
2343	 0.110760632689577 
2344	 0.117142605147634 
2345	 0.108864094779537 
2346	 9.53771287997946E-02 
2347	 8.76201739157217E-02 
2348	 7.74124499450688E-02 
2349	 8.02941757044548E-02 
2350	 7.31554742117808E-02 
2351	 3.92103039142872E-02 
2352	 4.65938456249841E-02 
2353	 6.63475165647755E-02 
2354	 5.65853296440068E-02 
2355	 0.074490065972443 
2356	 9.61958358579467E-02 
2357	 8.46102832578642E-02 
2358	 7.88995321287687E-02 
2359	 7.48560478520495E-02 
2360	 6.99782741069201E-02 
2361	 0.072260931934261 
2362	 9.40574224883333E-02 
2363	 0.129997349708961 
2364	 0.134930176795181 
2365	 0.125281970649619 
2366	 0.129518544431786 
2367	 0.131983832655571 
2368	 0.129711626784024 
2369	 0.15037852670367 
2370	 0.184012252726199 
2371	 0.181685843184258 
2372	 0.172085925095852 
2373	 0.190018753847041 
2374	 0.197928110399131 
2375	 0.203779746478549 
2376	 0.20645768533854 
2377	 0.164634559057726 
2378	 0.107916159900405 
2379	 4.24196559071785E-02 
2380	 2.68042379705122E-02 
2381	 9.08343291635122E-02 
2382	 0.11960986012299 
2383	 0.151424529417404 
2384	 0.189233450454607 
2385	 0.137054902597732 
2386	 0.147191913294129 
2387	 0.228280828949767 
2388	 0.237488932550943 
2389	 0.220381710781981 
2390	 0.166239166164227 
2391	 6.91992585686404E-02 
2392	 2.87642975129917E-02 
2393	 0.054232630014952 
2394	 8.73994037203199E-02 
2395	 0.112061798557248 
2396	 0.140841827280311 
2397	 0.159181047833627 
2398	 0.136845863926391 
2399	 8.46667331287063E-02 
2400	 7.63917486901102E-02 
2401	 0.128977029873236 
2402	 0.181179735374358 
2403	 0.236742671824066 
2404	 0.267737974964253 
2405	 0.214430539342121 
2406	 0.182759490751745 
2407	 0.203224759906044 
2408	 0.301872562835934 
2409	 0.33740751837485 
2410	 5.82477550092143E-02 
2411	-3.07429344445342E-02 
2412	 0.126352768110662 
2413	 0.176619011403231 
2414	 0.401214805996436 
2415	 0.569240827602327 
2416	 0.378062997132798 
2417	 0.224294276287318 
2418	 0.119506247419666 
2419	-6.17847479124282E-03 
2420	-6.77293678937415E-02 
2421	-0.219959477422417 
2422	-0.3262959828684 
2423	-0.355725594677156 
2424	-0.421675256795339 
2425	-0.543537444354372 
2426	-0.433748903337753 
2427	 2.17687830356697E-02 
2428	 0.101141189240901 
2429	 0.215472760022723 
2430	 0.327549664390988 
2431	 0.341180914519406 
2432	 0.399399059535281 
2433	 0.229598236074741 
2434	 1.14994410143872E-02 
2435	-4.47687618847196E-03 
2436	-0.104971753129052 
2437	 2.64486685366275E-02 
2438	 0.292130905107065 
2439	 0.223570650014419 
2440	 0.120204845869336 
2441	 3.94668438120568E-02 
2442	-7.36350673386208E-02 
2443	-5.60032218476539E-02 
2444	 3.1080763429842E-03 
2445	 4.18909274193972E-02 
2446	 0.123059445057954 
2447	 0.393375036097095 
2448	 0.486177685198995 
2449	 0.136390908384423 
2450	 1.04627235694939E-02 
2451	-0.100829126704689 
2452	-6.73854033356131 
2453	 0.773033284337757 
2454	 1.07317842515273 
2455	 7.83674455896608E-02 
2456	-1.19433694531636 
2457	 5.89583563756725 
2458	 5.15086942851627 
2459	 3.6183562857363 
2460	 14.5310990421412 
2461	-13.0893782038928 
2462	-11.7871570818436 
2463	-3.01197573575054 
2464	-1.3484767449103 
2465	-1.09728227925612 
2466	-1.8260120526051 
2467	-13.0627940729365 
2468	-44.3373229861115 
2469	-2.61773136032405 
2470	-2.03429895131664E-03 
2471	 3.42497146747869 
2472	 2.62104374227523 
2473	-1.01884169506925 
2474	-0.835727020081948 
2475	-1.88928271141082 
2476	-1.38229257968006 
2477	-1.1726599464187 
2478	 1.37497599451699 
2479	 0.277777545911504 
2480	 0.441767969727818 
2481	 0.823157192141134 
2482	 2.15592745470099 
2483	-2.38909894999727 
2484	-1.05403598906759 
2485	-2.79683586333087 
2486	-1.067119099828 
2487	-0.647651372433772 
2488	-6.68132056478197 
2489	-6.26835895093534 
2490	-32.3766680765424 
2491	 3.07764005604173 
2492	 4.51394542871489 
2493	 2.71472351307872 
2494	 1.21504916092198 
2495	 1.59649594883439 
2496	 0.696255268686178 
2497	-1.00760857664273 
2498	 3.51667020556183 
2499	 0.847988699436688 
2500	 1.06378963727565 
