Wavelength	rt0714yellow300000.asd
350	 6.36867264878124E-02 
351	 6.24540511063677E-02 
352	 6.18696013480926E-02 
353	 0.062267773813065 
354	 6.30000420483729E-02 
355	 6.24604171746446E-02 
356	 6.20963450621865E-02 
357	 6.20985360219325E-02 
358	 6.22416807941976E-02 
359	 6.23525746372552E-02 
360	 6.25581561673294E-02 
361	 6.27099955191857E-02 
362	 6.25356711801261E-02 
363	 6.24482717385137E-02 
364	 0.063002455160612 
365	 6.37555533907687E-02 
366	 6.27668888124134E-02 
367	 0.062790456798882 
368	 6.33350251096341E-02 
369	 6.34574974725607E-02 
370	 6.39246683791753E-02 
371	 6.42506906453446E-02 
372	 6.41862030655696E-02 
373	 6.37956518296872E-02 
374	 6.42688026733141E-02 
375	 6.50901233545081E-02 
376	 6.56977106070552E-02 
377	 6.57736983204108E-02 
378	 6.58492242239429E-02 
379	 6.63419728595852E-02 
380	 6.71762441829287E-02 
381	 6.68279734701907E-02 
382	 6.75579072650563E-02 
383	 6.88709021341659E-02 
384	 6.91865993503691E-02 
385	 0.069816246713052 
386	 6.96977829411589E-02 
387	 0.069293518505363 
388	 7.07765806901544E-02 
389	 7.16992037983611E-02 
390	 7.19731089878808E-02 
391	 7.22007044044315E-02 
392	 7.34757824940549E-02 
393	 7.40926095997706E-02 
394	 7.42271951297335E-02 
395	 7.46562829508953E-02 
396	 7.51200699617627E-02 
397	 7.55522990385378E-02 
398	 7.59008174790317E-02 
399	 7.61339755366814E-02 
400	 0.076552013961907 
401	 0.076978768377745 
402	 0.077349344564948 
403	 7.80365673532106E-02 
404	 7.86306034804318E-02 
405	 7.89558894200392E-02 
406	 7.91004514553921E-02 
407	 8.00899477997344E-02 
408	 8.06879040267864E-02 
409	 8.07869492257912E-02 
410	 0.081460854365872 
411	 8.21711063353106E-02 
412	 8.26329256342573E-02 
413	 8.28885444031891E-02 
414	 8.36434052003169E-02 
415	 8.44470180087475E-02 
416	 8.51463202041095E-02 
417	 0.085723021742029 
418	 8.61715289241116E-02 
419	 8.68444997657953E-02 
420	 8.77434482236604E-02 
421	 8.84867315673871E-02 
422	 8.92089039733562E-02 
423	 9.00449619389093E-02 
424	 9.10208332556103E-02 
425	 9.18576765573234E-02 
426	 9.26662232520052E-02 
427	 9.36980663550983E-02 
428	 9.51331983296079E-02 
429	 9.62315059013683E-02 
430	 9.71661927269471E-02 
431	 9.81800006720659E-02 
432	 9.94808573857412E-02 
433	 0.100617728741627 
434	 0.101660475335216 
435	 0.102726947956845 
436	 0.103667058679838 
437	 0.1048391355809 
438	 0.106142017740842 
439	 0.107254025568262 
440	 0.108407398882866 
441	 0.109574964763855 
442	 0.11065694874889 
443	 0.111480343339829 
444	 0.112477608358631 
445	 0.113420209385002 
446	 0.114094610879661 
447	 0.115115483275135 
448	 0.115987971442004 
449	 0.116643066566422 
450	 0.11733848597868 
451	 0.117973706678905 
452	 0.11864799450369 
453	 0.119356518357844 
454	 0.119819762567628 
455	 0.120318990930227 
456	 0.120891443777045 
457	 0.121455199997319 
458	 0.121821196464674 
459	 0.122142169081758 
460	 0.122582064780155 
461	 0.123261704995388 
462	 0.123499108075341 
463	 0.123750623716117 
464	 0.12436498543515 
465	 0.124734911294144 
466	 0.1251820603665 
467	 0.125695203954725 
468	 0.126119968522606 
469	 0.126484669501574 
470	 0.126857980760596 
471	 0.127292868848734 
472	 0.127812386870105 
473	 0.128274389454562 
474	 0.12880586488297 
475	 0.129485075559951 
476	 0.129947058508446 
477	 0.130457417588959 
478	 0.13107497987558 
479	 0.131697933814917 
480	 0.132129970485452 
481	 0.132715394989969 
482	 0.133601865142758 
483	 0.134404974483969 
484	 0.135100223997823 
485	 0.135861924207457 
486	 0.136851598869517 
487	 0.137668703691603 
488	 0.13846492015187 
489	 0.139353225053977 
490	 0.140375419143925 
491	 0.141517796856257 
492	 0.142591565992303 
493	 0.143494208314388 
494	 0.144436230528156 
495	 0.145526736794301 
496	 0.146665441920251 
497	 0.147684841077155 
498	 0.148870190486881 
499	 0.150053684489047 
500	 0.151184570270946 
501	 0.152465247624336 
502	 0.153705343277937 
503	 0.154926968777923 
504	 0.156189124423545 
505	 0.157425031240878 
506	 0.158656190280176 
507	 0.159873141108224 
508	 0.161058247388238 
509	 0.162533066529919 
510	 0.163926296990264 
511	 0.165044489073915 
512	 0.166375594600712 
513	 0.167697504633063 
514	 0.169058783425235 
515	 0.170558806120263 
516	 0.171930852339633 
517	 0.173376271104687 
518	 0.174927855795304 
519	 0.176370598682374 
520	 0.177728143842693 
521	 0.179032075567113 
522	 0.180352474018063 
523	 0.181850599634082 
524	 0.183322098546422 
525	 0.184753449284867 
526	 0.186263859998584 
527	 0.187702625101848 
528	 0.189226368646502 
529	 0.190835656239873 
530	 0.192135298636631 
531	 0.193456675238974 
532	 0.194899896196606 
533	 0.196445744072851 
534	 0.197947885139673 
535	 0.199308274870015 
536	 0.200597949120471 
537	 0.20205577530145 
538	 0.203574498247222 
539	 0.205036237582399 
540	 0.206378656943382 
541	 0.207714541913994 
542	 0.209173820725391 
543	 0.210634060668731 
544	 0.211858850421076 
545	 0.213132651437211 
546	 0.214391909866586 
547	 0.215595766312418 
548	 0.216842685182647 
549	 0.218049339435671 
550	 0.21925073092042 
551	 0.220492558157243 
552	 0.221616664462509 
553	 0.222750304914817 
554	 0.223889660825923 
555	 0.224864351716387 
556	 0.225935601048598 
557	 0.227088187774983 
558	 0.228201136003245 
559	 0.229098468570183 
560	 0.229939962567387 
561	 0.230793555471535 
562	 0.231667695641334 
563	 0.23256386183479 
564	 0.233346168586696 
565	 0.234014320116038 
566	 0.234881698073535 
567	 0.235559211538497 
568	 0.236099798238695 
569	 0.236711095048045 
570	 0.23748070599325 
571	 0.238112780262343 
572	 0.238568566074846 
573	 0.239106139113431 
574	 0.239650454906069 
575	 0.240153259221533 
576	 0.240606365873382 
577	 0.24115834220691 
578	 0.241529103600783 
579	 0.241744717315925 
580	 0.242021729739392 
581	 0.242373493357269 
582	 0.242676191506672 
583	 0.242894552076119 
584	 0.243203053914071 
585	 0.243265680541779 
586	 0.243223967278631 
587	 0.243335147998736 
588	 0.243405888367647 
589	 0.243452145746565 
590	 0.243475180353587 
591	 0.243453956501832 
592	 0.243411098861328 
593	 0.243377010787847 
594	 0.24332529996684 
595	 0.243055533033219 
596	 0.242736985646063 
597	 0.242342537882106 
598	 0.241792426891054 
599	 0.241621668870894 
600	 0.241429776991022 
601	 0.241076392800684 
602	 0.241087544265054 
603	 0.240896607769377 
604	 0.24071995395983 
605	 0.240867929639622 
606	 0.240760298026003 
607	 0.240662251380217 
608	 0.240672802542319 
609	 0.240679406202752 
610	 0.240688111664037 
611	 0.2407487413966 
612	 0.240849736534283 
613	 0.240770430425858 
614	 0.240610644260213 
615	 0.240581087754985 
616	 0.240860513665139 
617	 0.240756578063122 
618	 0.24062133935562 
619	 0.240676802265609 
620	 0.240753331732297 
621	 0.240847662878924 
622	 0.24088216781142 
623	 0.240788143594535 
624	 0.240595069866408 
625	 0.240645552737175 
626	 0.240816760774379 
627	 0.2405779022576 
628	 0.240628052317962 
629	 0.24065702659919 
630	 0.240475516160085 
631	 0.24077547796717 
632	 0.240768031288234 
633	 0.240545356041479 
634	 0.240560996645432 
635	 0.24047031195871 
636	 0.24046616604309 
637	 0.240586482024552 
638	 0.240587866485449 
639	 0.240467209657525 
640	 0.240349795513804 
641	 0.240338910958137 
642	 0.240257860644049 
643	 0.240123075674001 
644	 0.239994223706343 
645	 0.239953358825228 
646	 0.23983205145843 
647	 0.239783653862083 
648	 0.239820220431195 
649	 0.239461755586322 
650	 0.23932671423197 
651	 0.239211842635277 
652	 0.238719305945649 
653	 0.238367346194199 
654	 0.23814202610071 
655	 0.237874732718732 
656	 0.237283832510576 
657	 0.236949390051938 
658	 0.236734942105711 
659	 0.236395997602589 
660	 0.235824915076529 
661	 0.235450279786031 
662	 0.235307275224631 
663	 0.235164994443835 
664	 0.234817812313884 
665	 0.234529510613865 
666	 0.234417459669979 
667	 0.234229299943832 
668	 0.234131788063375 
669	 0.234068188293477 
670	 0.233961846248125 
671	 0.234027821779968 
672	 0.233922341733422 
673	 0.23372821330749 
674	 0.233907664444183 
675	 0.233853952304243 
676	 0.233773225083024 
677	 0.233881578389964 
678	 0.234037382802687 
679	 0.234149988666282 
680	 0.234221498602729 
681	 0.234304238390242 
682	 0.234407924321139 
683	 0.234551986740887 
684	 0.234691646725116 
685	 0.234702247707784 
686	 0.23476615560969 
687	 0.234863319590991 
688	 0.23494069421805 
689	 0.23514118613754 
690	 0.235067071731351 
691	 0.234910216875067 
692	 0.235134910076144 
693	 0.234997279497594 
694	 0.234766492455272 
695	 0.234634582384756 
696	 0.234407990958468 
697	 0.234110776490353 
698	 0.23375421996961 
699	 0.233357788295272 
700	 0.232861531580599 
701	 0.232346319629098 
702	 0.231945707945535 
703	 0.231751812956816 
704	 0.231048312459873 
705	 0.23026416377815 
706	 0.229691001782125 
707	 0.228870358677424 
708	 0.228073754505076 
709	 0.227326161101426 
710	 0.226541302089361 
711	 0.225554208175968 
712	 0.224431098223297 
713	 0.223295008552386 
714	 0.222269415772118 
715	 0.220909289938214 
716	 0.219614179806279 
717	 0.21881442120661 
718	 0.217378713305367 
719	 0.216047049946825 
720	 0.214777362042088 
721	 0.213148746572998 
722	 0.212114319947247 
723	 0.211049336928978 
724	 0.209716637831446 
725	 0.208242722790814 
726	 0.206752108745354 
727	 0.205246474540847 
728	 0.203667411588586 
729	 0.201775224233332 
730	 0.200053898617003 
731	 0.198605050942917 
732	 0.197247053075989 
733	 0.195983300915807 
734	 0.194760613655996 
735	 0.193648850127717 
736	 0.192864650109336 
737	 0.192425738034179 
738	 0.1921073825293 
739	 0.191707702089655 
740	 0.191212596882215 
741	 0.191089506809967 
742	 0.191182797056318 
743	 0.191040310752342 
744	 0.190810313444587 
745	 0.190698586983898 
746	 0.190702147658748 
747	 0.190530150004851 
748	 0.190431523001893 
749	 0.190377914123907 
750	 0.190307991882287 
751	 0.190290643004068 
752	 0.19028062906204 
753	 0.190225128826133 
754	 0.190094674146162 
755	 0.190073234257297 
756	 0.189983637999773 
757	 0.189807553845146 
758	 0.189818374955065 
759	 0.189576906787507 
760	 0.189343884143569 
761	 0.189679619655816 
762	 0.189798898139975 
763	 0.189674645890743 
764	 0.189528716783201 
765	 0.189552090925442 
766	 0.189498327195043 
767	 0.189597166111208 
768	 0.189817074564514 
769	 0.189876256687436 
770	 0.189929533480045 
771	 0.189964549924991 
772	 0.189970320652664 
773	 0.190017944831281 
774	 0.190092990208601 
775	 0.190209213168368 
776	 0.190378265339023 
777	 0.190553818501174 
778	 0.190598566118961 
779	 0.190621332675568 
780	 0.19094709326672 
781	 0.19110575084556 
782	 0.19110670568402 
783	 0.191119814324421 
784	 0.191481396887148 
785	 0.191713521822821 
786	 0.191838538970349 
787	 0.192042120355346 
788	 0.192322537510176 
789	 0.192581000319503 
790	 0.192772802165259 
791	 0.192924275149718 
792	 0.193196326148462 
793	 0.193486009018964 
794	 0.193742799870241 
795	 0.1940633099879 
796	 0.194193265147277 
797	 0.194201028611899 
798	 0.194274230358274 
799	 0.194654658238512 
800	 0.19502828453933 
801	 0.195194979800532 
802	 0.195109231686822 
803	 0.195148209168633 
804	 0.195295922333771 
805	 0.195413775145915 
806	 0.195298418429766 
807	 0.195359304957664 
808	 0.195126348589637 
809	 0.194496396835007 
810	 0.194789451637147 
811	 0.194731957206352 
812	 0.194354955228639 
813	 0.194138699740386 
814	 0.193714779927548 
815	 0.193531210993779 
816	 0.193302070586828 
817	 0.192351173408942 
818	 0.192070403036939 
819	 0.191901697395742 
820	 0.191231483555759 
821	 0.189602809172903 
822	 0.189083980993193 
823	 0.1887572116045 
824	 0.187572673919423 
825	 0.186035781132139 
826	 0.184911313537933 
827	 0.18382578084127 
828	 0.182248006895921 
829	 0.181264290124043 
830	 0.180326139762291 
831	 0.179319979187748 
832	 0.178507028719252 
833	 0.177559077659462 
834	 0.176935015359271 
835	 0.176644438210369 
836	 0.176042193611252 
837	 0.175948624573386 
838	 0.17584990812566 
839	 0.175331387253133 
840	 0.174970600310479 
841	 0.174611698577718 
842	 0.174296641344312 
843	 0.174109185917417 
844	 0.1740758255291 
845	 0.173693766302945 
846	 0.17315653077631 
847	 0.173080888877682 
848	 0.173166095981884 
849	 0.172982183720751 
850	 0.172499015775251 
851	 0.172191492123582 
852	 0.171775938796912 
853	 0.171541923088069 
854	 0.171556882608341 
855	 0.171168069717393 
856	 0.171359717287758 
857	 0.171399950133512 
858	 0.170669739488692 
859	 0.17071287422577 
860	 0.170383545529634 
861	 0.169845433918157 
862	 0.169781400349066 
863	 0.169570972891233 
864	 0.169518125115175 
865	 0.169472554388131 
866	 0.168930648153182 
867	 0.168612808451446 
868	 0.168623177618619 
869	 0.168767828832385 
870	 0.168616566528289 
871	 0.167948907732219 
872	 0.167692899495629 
873	 0.168103174634492 
874	 0.167395035877532 
875	 0.166596928276858 
876	 0.166265459487283 
877	 0.166408965708668 
878	 0.165611075742221 
879	 0.165581747005029 
880	 0.16572547205419 
881	 0.164847698816368 
882	 0.165197569115904 
883	 0.164804957671795 
884	 0.16388177527028 
885	 0.164172482541351 
886	 0.164187889357048 
887	 0.164171279475502 
888	 0.164100067969097 
889	 0.163528223452966 
890	 0.163435433572843 
891	 0.16325966970747 
892	 0.162770622915109 
893	 0.162882417720166 
894	 0.162596296209457 
895	 0.16244184993174 
896	 0.162793661300326 
897	 0.162115908160431 
898	 0.161669827013127 
899	 0.161760182591505 
900	 0.16196428003184 
901	 0.160844120302807 
902	 0.161061741093249 
903	 0.161351832329644 
904	 0.15984622323461 
905	 0.159688392844525 
906	 0.159225944698819 
907	 0.159015074747908 
908	 0.160607873764795 
909	 0.159912958871832 
910	 0.158660934735966 
911	 0.158115221498356 
912	 0.158337704594666 
913	 0.157952882085795 
914	 0.157687166316919 
915	 0.157679315773543 
916	 0.157181853458251 
917	 0.156865415954405 
918	 0.156488974206962 
919	 0.155644528098133 
920	 0.153988010987375 
921	 0.1550268648723 
922	 0.156281092429822 
923	 0.155696467945482 
924	 0.154590896098874 
925	 0.155074480516947 
926	 0.15553425460184 
927	 0.154329987428863 
928	 0.154713716429612 
929	 0.15528904424003 
930	 0.155270645314373 
931	 0.153888623935174 
932	 0.149840414496377 
933	 0.151207636880697 
934	 0.154369056902439 
935	 0.152436832739223 
936	 0.15581113001097 
937	 0.153823500576044 
938	 0.150110376923293 
939	 0.150782878068992 
940	 0.153888838388194 
941	 0.152899127819005 
942	 0.149118379588629 
943	 0.148279525182682 
944	 0.15438490859478 
945	 0.155615328029496 
946	 0.150818461157688 
947	 0.146204255678175 
948	 0.141160510227711 
949	 0.140005255221772 
950	 0.144265561925706 
951	 0.15156072101868 
952	 0.151351662639257 
953	 0.150606632032558 
954	 0.150028288469486 
955	 0.146283843780225 
956	 0.145424648888452 
957	 0.147929244935296 
958	 0.150268394017219 
959	 0.148047476751079 
960	 0.146940084537613 
961	 0.148250876486662 
962	 0.149016674911938 
963	 0.14532880036661 
964	 0.144009356299383 
965	 0.146252007292359 
966	 0.148277585348949 
967	 0.145107556596247 
968	 0.146501011553825 
969	 0.147322834533897 
970	 0.146053817560699 
971	 0.145508959714949 
972	 0.147093723083931 
973	 0.148609411341174 
974	 0.147361506905544 
975	 0.142341954757836 
976	 0.144944124657557 
977	 0.148201953454301 
978	 0.148342349457475 
979	 0.146845684604007 
980	 0.144766704566952 
981	 0.145349300186384 
982	 0.147656965370688 
983	 0.14775295188117 
984	 0.146613869712821 
985	 0.144654386271986 
986	 0.143493703608203 
987	 0.14504086708615 
988	 0.146910155048294 
989	 0.148228792011295 
990	 0.147799511406801 
991	 0.145014240683511 
992	 0.144702322970133 
993	 0.144264488824107 
994	 0.143963126090982 
995	 0.145672912164259 
996	 0.145668790316016 
997	 0.145437847307534 
998	 0.145677062590099 
999	 0.146001887147274 
1000	 0.14474863392303 
1001	 0.161092492961002 
1002	 0.160889236018381 
1003	 0.161006280611671 
1004	 0.161547627841067 
1005	 0.161692128715107 
1006	 0.161866132372526 
1007	 0.162063931740295 
1008	 0.161518549451411 
1009	 0.160248938509705 
1010	 0.159836407924405 
1011	 0.1594507362693 
1012	 0.159351178497028 
1013	 0.15972413025263 
1014	 0.16005175233488 
1015	 0.160544540654269 
1016	 0.160850187295551 
1017	 0.161363033549651 
1018	 0.161606818900466 
1019	 0.161665112527683 
1020	 0.161456989316825 
1021	 0.161055285826031 
1022	 0.160605086277592 
1023	 0.159893438108569 
1024	 0.159386600817718 
1025	 0.159494859949585 
1026	 0.159973621951022 
1027	 0.160272386076056 
1028	 0.161016643957508 
1029	 0.161132784419666 
1030	 0.160843415926989 
1031	 0.160763329703504 
1032	 0.160249740601482 
1033	 0.160424050806488 
1034	 0.161282078824752 
1035	 0.16152322919403 
1036	 0.162037026214615 
1037	 0.16204286665973 
1038	 0.16120217197548 
1039	 0.160903740492852 
1040	 0.160179881835219 
1041	 0.159565568812151 
1042	 0.159520581066351 
1043	 0.159752335128741 
1044	 0.159977324343868 
1045	 0.160882391121321 
1046	 0.161079518666262 
1047	 0.160897026702326 
1048	 0.160872600635409 
1049	 0.160829395057245 
1050	 0.16055524851366 
1051	 0.159614579154967 
1052	 0.159694833955529 
1053	 0.16049019635308 
1054	 0.160713950976457 
1055	 0.161829376230161 
1056	 0.162077240899747 
1057	 0.161749489235156 
1058	 0.160067924970395 
1059	 0.159792259010828 
1060	 0.159528220621517 
1061	 0.159752740607872 
1062	 0.161070115478219 
1063	 0.16135208126533 
1064	 0.161531382374847 
1065	 0.161360276253402 
1066	 0.160268352195424 
1067	 0.159930486997692 
1068	 0.159611306080124 
1069	 0.159578213030726 
1070	 0.160595862687375 
1071	 0.160685689147479 
1072	 0.160043908450084 
1073	 0.159856092847663 
1074	 0.159785954864042 
1075	 0.159312317343643 
1076	 0.159317053490364 
1077	 0.160175960613426 
1078	 0.160259425711832 
1079	 0.159809188648294 
1080	 0.159782411064958 
1081	 0.159828990065486 
1082	 0.159770477758801 
1083	 0.15999522800514 
1084	 0.159893436646606 
1085	 0.159360289286417 
1086	 0.159102481584849 
1087	 0.1586797719074 
1088	 0.158491554595353 
1089	 0.158680405686581 
1090	 0.15886570029137 
1091	 0.158609139681492 
1092	 0.158124251584055 
1093	 0.158123636551417 
1094	 0.157753899403614 
1095	 0.157913327717422 
1096	 0.159135054508767 
1097	 0.15922137844352 
1098	 0.158990521046121 
1099	 0.15870618377634 
1100	 0.157481082628296 
1101	 0.157097680524719 
1102	 0.156712244518758 
1103	 0.156857951339506 
1104	 0.158295167901032 
1105	 0.158877549449937 
1106	 0.158730669272953 
1107	 0.159360305091669 
1108	 0.157917914398297 
1109	 0.156189206470988 
1110	 0.156022860125507 
1111	 0.157024566390961 
1112	 0.157033365157931 
1113	 0.158450633430183 
1114	 0.158892804120967 
1115	 0.157061640026839 
1116	 0.15649958133141 
1117	 0.156220991418234 
1118	 0.157150991790509 
1119	 0.160250239567307 
1120	 0.162507452449457 
1121	 0.167944757431748 
1122	 0.171270448771708 
1123	 0.163054265253679 
1124	 0.160901410885274 
1125	 0.160355914207746 
1126	 0.152438074357646 
1127	 0.157073692381574 
1128	 0.164690710507122 
1129	 0.164198982937238 
1130	 0.161273275739271 
1131	 0.159790700976991 
1132	 0.153800014056452 
1133	 0.153057492205699 
1134	 0.155254110675796 
1135	 0.156283310616147 
1136	 0.159427689107407 
1137	 0.158800103374105 
1138	 0.155061258896031 
1139	 0.155216229338624 
1140	 0.155528323029701 
1141	 0.154052545868887 
1142	 0.154813127167369 
1143	 0.155693637664922 
1144	 0.155662268373617 
1145	 0.157011134471494 
1146	 0.159119719830739 
1147	 0.158231544105521 
1148	 0.154847462015978 
1149	 0.155058979041594 
1150	 0.154647977459035 
1151	 0.154013379984921 
1152	 0.153584798470487 
1153	 0.15406112948571 
1154	 0.152680026113371 
1155	 0.149508149950136 
1156	 0.150706557501343 
1157	 0.150411021037465 
1158	 0.149704405386927 
1159	 0.15133270151027 
1160	 0.151234538184209 
1161	 0.15035134435149 
1162	 0.150778772050684 
1163	 0.151016633617659 
1164	 0.151073241597562 
1165	 0.151308173428135 
1166	 0.15121786683708 
1167	 0.150374141719171 
1168	 0.149681736396367 
1169	 0.149968398263078 
1170	 0.150275777947218 
1171	 0.150099374514521 
1172	 0.149582998931043 
1173	 0.149611060302893 
1174	 0.149497788832126 
1175	 0.149581958165414 
1176	 0.149886492715411 
1177	 0.149849333985483 
1178	 0.149650633784738 
1179	 0.149630777405677 
1180	 0.149309477185646 
1181	 0.148746019538825 
1182	 0.14883316246219 
1183	 0.149132897957033 
1184	 0.148725633083171 
1185	 0.148842395534199 
1186	 0.149486387454193 
1187	 0.148978695058371 
1188	 0.14845315615359 
1189	 0.148703137542677 
1190	 0.148405807678039 
1191	 0.147984918201116 
1192	 0.147824757924373 
1193	 0.148131663007307 
1194	 0.148293495105653 
1195	 0.148495284044077 
1196	 0.148567909890725 
1197	 0.148431719316571 
1198	 0.148619734677806 
1199	 0.148155276968883 
1200	 0.147605523452073 
1201	 0.148073993393439 
1202	 0.148206765274639 
1203	 0.148084312283555 
1204	 0.148326338367137 
1205	 0.147917440467015 
1206	 0.147241522467029 
1207	 0.14736825225924 
1208	 0.14765356581039 
1209	 0.147560311973576 
1210	 0.147625217395552 
1211	 0.147676214050722 
1212	 0.147467704241552 
1213	 0.147543151517453 
1214	 0.1475265382044 
1215	 0.147669005753815 
1216	 0.147492977638025 
1217	 0.14719746855011 
1218	 0.146957749862497 
1219	 0.146875747535297 
1220	 0.146974811993905 
1221	 0.147136687642389 
1222	 0.147107479376169 
1223	 0.14703383258897 
1224	 0.146992421547075 
1225	 0.146891951900387 
1226	 0.146831916332709 
1227	 0.146724125447145 
1228	 0.146804335263655 
1229	 0.14699218821975 
1230	 0.146920989486468 
1231	 0.146614471595131 
1232	 0.146181390731603 
1233	 0.14612146310801 
1234	 0.146227756644736 
1235	 0.146204744347295 
1236	 0.146410715998179 
1237	 0.146517719955577 
1238	 0.14639574980522 
1239	 0.146393396606575 
1240	 0.146615077511996 
1241	 0.146540139073023 
1242	 0.146244896745602 
1243	 0.145972410763814 
1244	 0.14607095693617 
1245	 0.146220820981127 
1246	 0.146147750857802 
1247	 0.146135902499333 
1248	 0.145915613971025 
1249	 0.1455083975768 
1250	 0.145381068442402 
1251	 0.145479751962286 
1252	 0.145721331587042 
1253	 0.14577931551449 
1254	 0.145530236718948 
1255	 0.14538105463862 
1256	 0.145405517618929 
1257	 0.145408577933747 
1258	 0.145296872839503 
1259	 0.145177987070915 
1260	 0.145242204742232 
1261	 0.145521905462389 
1262	 0.145325551855453 
1263	 0.145006849600166 
1264	 0.144984242206656 
1265	 0.144946085862313 
1266	 0.144298693209076 
1267	 0.144484149446718 
1268	 0.145232609053858 
1269	 0.145087716403118 
1270	 0.144670112672707 
1271	 0.144852915060704 
1272	 0.145098310252792 
1273	 0.145258371810345 
1274	 0.145339637880298 
1275	 0.144920399025759 
1276	 0.144784338763862 
1277	 0.144837503087461 
1278	 0.144707609171789 
1279	 0.14485591077649 
1280	 0.144721879953258 
1281	 0.144645767024549 
1282	 0.144608079349003 
1283	 0.144472887125889 
1284	 0.144196641034013 
1285	 0.14409880824109 
1286	 0.143897554453212 
1287	 0.143980731550424 
1288	 0.144455683471851 
1289	 0.144556589154581 
1290	 0.144568251095144 
1291	 0.144671132240948 
1292	 0.144615419385248 
1293	 0.144645645568569 
1294	 0.14440463016203 
1295	 0.143819159533483 
1296	 0.143792617641862 
1297	 0.144050991168969 
1298	 0.143696469358626 
1299	 0.143504848463706 
1300	 0.143734819146024 
1301	 0.143212658188485 
1302	 0.142846485548859 
1303	 0.14335167084032 
1304	 0.143401983730938 
1305	 0.143066834675139 
1306	 0.142694711598239 
1307	 0.142710382716338 
1308	 0.142528326445053 
1309	 0.141626468865037 
1310	 0.141332548462176 
1311	 0.141809545444958 
1312	 0.141720127546646 
1313	 0.141164703576124 
1314	 0.141008798709021 
1315	 0.140904136380494 
1316	 0.140930524706633 
1317	 0.141743529173335 
1318	 0.141620763197261 
1319	 0.140619079886481 
1320	 0.140424177366942 
1321	 0.140281890402285 
1322	 0.139757417663376 
1323	 0.14004524319295 
1324	 0.140415143831385 
1325	 0.140253102321036 
1326	 0.14032076846483 
1327	 0.140673546893259 
1328	 0.139856030959472 
1329	 0.139102862622265 
1330	 0.139581565576197 
1331	 0.13888666580276 
1332	 0.138907280314698 
1333	 0.139894565797124 
1334	 0.138379134951425 
1335	 0.1382350096738 
1336	 0.139454618289222 
1337	 0.139514964331591 
1338	 0.138615142410325 
1339	 0.138569073416191 
1340	 0.139008529114599 
1341	 0.138132640757746 
1342	 0.135473822940735 
1343	 0.13564086492445 
1344	 0.138001287696708 
1345	 0.137874873248064 
1346	 0.137763167195335 
1347	 0.140510937086809 
1348	 0.143930592174628 
1349	 0.145383766783323 
1350	 0.151876631253732 
1351	 0.160093912462581 
1352	 0.160435196075939 
1353	 0.155368056480971 
1354	 0.118611761518235 
1355	 0.147785080310479 
1356	 0.218568977359507 
1357	 0.1825560643201 
1358	 0.178513763119974 
1359	 0.293974379925475 
1360	 0.334199247118772 
1361	 6.97537611526246E-02 
1362	-0.169160302845373 
1363	 5.41375393236005E-02 
1364	 0.369299363472142 
1365	 0.23467610622071 
1366	 9.92680860426795E-02 
1367	 1.66681625088231E-02 
1368	 8.22016794122345E-02 
1369	 0.138396003472805 
1370	 0.055250916122035 
1371	 0.151709312737547 
1372	 5.44083989289569E-02 
1373	-0.568856959525994 
1374	-0.848057876730967 
1375	-0.280218786184707 
1376	-7.63810987049521E-02 
1377	-8.23114994468046E-02 
1378	 4.98669423904642E-02 
1379	 0.264183315932084 
1380	 0.18410426780824 
1381	-0.178273293189669 
1382	-0.324012820251959 
1383	-1.21333771113435 
1384	-1.61020082254307 
1385	-0.338500711690493 
1386	 7.65623956836108E-02 
1387	 0.293974933427814 
1388	 0.156997052965727 
1389	-0.470658090201521 
1390	-0.559570588248237 
1391	-0.450620887827316 
1392	-0.115503008862057 
1393	 5.36087511572241E-02 
1394	 1.03368721636915E-02 
1395	-0.154667934036417 
1396	-0.428512697930851 
1397	-0.327464705514686 
1398	 0.784494044847581 
1399	 1.9266304378112 
1400	 1.6434733718585 
1401	 0.334958531645024 
1402	 0.567735962652647 
1403	 0.34585805256 
1404	 0.207696327430808 
1405	 0.233352506848487 
1406	 0.350690359056737 
1407	 0.394690911122543 
1408	 0.420376818827108 
1409	 0.389581790669455 
1410	 0.354808313593914 
1411	 0.249940683943288 
1412	 0.172728007294039 
1413	 0.120242687337156 
1414	 1.03454474340952E-02 
1415	-5.76235949884479E-03 
1416	-9.66711157086401E-04 
1417	-1.79763444280198E-03 
1418	 2.84471593079655E-02 
1419	 6.01398911579209E-02 
1420	 0.082880795300869 
1421	 9.42216149061715E-02 
1422	 0.123933421768085 
1423	 0.118707206652535 
1424	 8.36224446651201E-02 
1425	 7.65287922150754E-02 
1426	 7.75824919674845E-02 
1427	 7.52250558573956E-02 
1428	 7.30066007509385E-02 
1429	 7.72896091961034E-02 
1430	 8.94959194021223E-02 
1431	 8.84562186203157E-02 
1432	 8.11589609042425E-02 
1433	 8.18190771747864E-02 
1434	 7.89170241222349E-02 
1435	 7.33269181351619E-02 
1436	 6.11078402830784E-02 
1437	 7.70362692135954E-02 
1438	 8.25547416188397E-02 
1439	 7.72092855606422E-02 
1440	 9.25195063049213E-02 
1441	 9.73386682146747E-02 
1442	 9.18248187478818E-02 
1443	 9.31346931232615E-02 
1444	 8.63681091319308E-02 
1445	 8.69469172147819E-02 
1446	 9.88792353528783E-02 
1447	 0.103455125204222 
1448	 9.79266411385013E-02 
1449	 9.10120639082529E-02 
1450	 9.05862376582527E-02 
1451	 0.085957808770224 
1452	 8.08381013301466E-02 
1453	 8.49104826914414E-02 
1454	 8.48004141887043E-02 
1455	 8.07575851259288E-02 
1456	 8.07827975718623E-02 
1457	 8.38159080397302E-02 
1458	 8.50628264857986E-02 
1459	 8.62645334224483E-02 
1460	 8.58233062570542E-02 
1461	 8.51735958114165E-02 
1462	 0.085289259635749 
1463	 8.34582222718638E-02 
1464	 8.36006987934821E-02 
1465	 8.69878225693043E-02 
1466	 8.67995978481497E-02 
1467	 8.48284771527509E-02 
1468	 8.35766645318207E-02 
1469	 8.02516753713009E-02 
1470	 7.94901033826719E-02 
1471	 8.07117102728448E-02 
1472	 8.05797340292161E-02 
1473	 8.00027929289598E-02 
1474	 8.07908514884741E-02 
1475	 8.16096807675825E-02 
1476	 0.083423798322361 
1477	 8.89860431758175E-02 
1478	 0.08908909613032 
1479	 8.47009985872438E-02 
1480	 8.47619170583073E-02 
1481	 8.46377071429832E-02 
1482	 8.54581325916815E-02 
1483	 9.00595353254482E-02 
1484	 9.07551775915197E-02 
1485	 8.92007133683902E-02 
1486	 0.088497221000729 
1487	 8.70771049113479E-02 
1488	 8.64740895019608E-02 
1489	 8.63746510150577E-02 
1490	 8.59455386304007E-02 
1491	 0.084992514069765 
1492	 8.55115220643001E-02 
1493	 8.70562525269779E-02 
1494	 8.73313639762156E-02 
1495	 8.74318277129893E-02 
1496	 8.80340906335808E-02 
1497	 8.82370237297145E-02 
1498	 8.84829149595018E-02 
1499	 8.97744981826581E-02 
1500	 9.01530970044907E-02 
1501	 8.92272117285516E-02 
1502	 8.91674245133662E-02 
1503	 8.93383200984135E-02 
1504	 8.97034326516455E-02 
1505	 9.04873577619948E-02 
1506	 9.12706334163678E-02 
1507	 9.18555636196805E-02 
1508	 9.18576366331319E-02 
1509	 9.16166394158484E-02 
1510	 9.22353458102957E-02 
1511	 9.26888266255407E-02 
1512	 9.27817079315214E-02 
1513	 9.32251711956443E-02 
1514	 0.093241297866565 
1515	 0.093596579489149 
1516	 9.44494072115775E-02 
1517	 9.46576224925019E-02 
1518	 9.50206736460792E-02 
1519	 9.55864081266876E-02 
1520	 9.55847246783311E-02 
1521	 9.56680287603024E-02 
1522	 9.63372770539865E-02 
1523	 9.67156714264679E-02 
1524	 9.66872551915047E-02 
1525	 9.70506551080859E-02 
1526	 0.09768526883827 
1527	 9.77490255908897E-02 
1528	 9.75559070454292E-02 
1529	 9.80437112609913E-02 
1530	 9.78554334817972E-02 
1531	 9.78958940542669E-02 
1532	 9.94151394063559E-02 
1533	 0.100113718873187 
1534	 0.100392175714628 
1535	 0.100891537604429 
1536	 0.100933546585823 
1537	 0.101375189747692 
1538	 0.101895938699838 
1539	 0.101848121861875 
1540	 0.102022363678767 
1541	 0.102573335198164 
1542	 0.102878584214154 
1543	 0.10296179571494 
1544	 0.10330299793726 
1545	 0.103614361762921 
1546	 0.10338412287427 
1547	 0.103273734011839 
1548	 0.103866297075243 
1549	 0.104617732242156 
1550	 0.104834263089197 
1551	 0.105127105779028 
1552	 0.1055486664974 
1553	 0.105113487636639 
1554	 0.10501534835265 
1555	 0.105462117473151 
1556	 0.105572305776962 
1557	 0.106384055220598 
1558	 0.107287364012074 
1559	 0.107156016166602 
1560	 0.106878887750258 
1561	 0.106860768011023 
1562	 0.106842662690098 
1563	 0.10737445895393 
1564	 0.108280503411191 
1565	 0.108222273157284 
1566	 0.108033831917816 
1567	 0.108555623373826 
1568	 0.108361059833121 
1569	 0.108285785413656 
1570	 0.109053028356713 
1571	 0.10933707633578 
1572	 0.109641376171222 
1573	 0.110386432482532 
1574	 0.11045516794952 
1575	 0.109624042283428 
1576	 0.109280563432586 
1577	 0.109992418355334 
1578	 0.110501450555087 
1579	 0.110560101081905 
1580	 0.111025313928437 
1581	 0.111251899972051 
1582	 0.110979998970793 
1583	 0.111158918379337 
1584	 0.111519609357091 
1585	 0.111358727187586 
1586	 0.111355975665663 
1587	 0.112197212395141 
1588	 0.112745824235943 
1589	 0.112768835478006 
1590	 0.112954198706988 
1591	 0.112790128726858 
1592	 0.112337202108567 
1593	 0.112095843318675 
1594	 0.112127528519931 
1595	 0.112405809170266 
1596	 0.112787414439418 
1597	 0.113077540906214 
1598	 0.113083086742269 
1599	 0.113017225126583 
1600	 0.113170870661776 
1601	 0.113476773200286 
1602	 0.113555990553593 
1603	 0.113485477457603 
1604	 0.113585319106576 
1605	 0.113726687913443 
1606	 0.114172342202394 
1607	 0.114557771799796 
1608	 0.11449189419444 
1609	 0.114349569476753 
1610	 0.114339743570401 
1611	 0.114022970899484 
1612	 0.11373478484435 
1613	 0.114140542930891 
1614	 0.114411516600861 
1615	 0.114701624865904 
1616	 0.114815869982987 
1617	 0.114407874171278 
1618	 0.114395637583611 
1619	 0.114626191120169 
1620	 0.115033538274032 
1621	 0.115723258148704 
1622	 0.115910411675547 
1623	 0.115943955911888 
1624	 0.115971565443585 
1625	 0.115255585360111 
1626	 0.114546054239847 
1627	 0.114519920804554 
1628	 0.114602211775047 
1629	 0.114681642148658 
1630	 0.115077853212757 
1631	 0.114836492856536 
1632	 0.114391360120964 
1633	 0.115044686429697 
1634	 0.115354916389717 
1635	 0.114972206932442 
1636	 0.11500201774373 
1637	 0.11512220179563 
1638	 0.115185336326213 
1639	 0.115430183621469 
1640	 0.115748411438524 
1641	 0.116067455904176 
1642	 0.11647243292288 
1643	 0.116726682945068 
1644	 0.116256538242311 
1645	 0.115606032927195 
1646	 0.115671322221905 
1647	 0.115635286626429 
1648	 0.11560100988592 
1649	 0.116016535798436 
1650	 0.115418792745397 
1651	 0.114816192274574 
1652	 0.115682893556753 
1653	 0.116105558118585 
1654	 0.115995756515343 
1655	 0.116502700700681 
1656	 0.11672085005821 
1657	 0.115700911654037 
1658	 0.115592846908175 
1659	 0.116397562372755 
1660	 0.11661920422334 
1661	 0.116814031917718 
1662	 0.116806918589007 
1663	 0.116557633668823 
1664	 0.116576578409271 
1665	 0.116641484113915 
1666	 0.116394124594328 
1667	 0.115884491892416 
1668	 0.115869724532618 
1669	 0.115952576097301 
1670	 0.116260404912723 
1671	 0.11609306573015 
1672	 0.115348538643458 
1673	 0.11493388917132 
1674	 0.11514587490198 
1675	 0.115730588617741 
1676	 0.11616917217573 
1677	 0.116176308290375 
1678	 0.115972383270836 
1679	 0.116466252352889 
1680	 0.11677096527107 
1681	 0.116369708035875 
1682	 0.116611644531865 
1683	 0.116860816016193 
1684	 0.116700720092503 
1685	 0.117120901709385 
1686	 0.117478379299333 
1687	 0.117080670476035 
1688	 0.116882607965842 
1689	 0.117042852501132 
1690	 0.116595302107752 
1691	 0.116020990030062 
1692	 0.115960238545217 
1693	 0.115967778908812 
1694	 0.116253554947273 
1695	 0.116537580242764 
1696	 0.116379022775755 
1697	 0.116066338560078 
1698	 0.115912356859959 
1699	 0.115819665898982 
1700	 0.11525629573941 
1701	 0.115217212804703 
1702	 0.116220263077843 
1703	 0.116722597148182 
1704	 0.116766840819922 
1705	 0.117096815341841 
1706	 0.116577638040851 
1707	 0.115716406435764 
1708	 0.116130419781979 
1709	 0.116146318010402 
1710	 0.115059652440802 
1711	 0.115024724923169 
1712	 0.115277203020251 
1713	 0.115022428787079 
1714	 0.115105969263749 
1715	 0.114406076580734 
1716	 0.114347755036942 
1717	 0.115474417183704 
1718	 0.115845523455153 
1719	 0.115641870807899 
1720	 0.115348578547879 
1721	 0.114431500328831 
1722	 0.114076065886792 
1723	 0.114682715609095 
1724	 0.114704687133414 
1725	 0.114419178022572 
1726	 0.114444595657967 
1727	 0.114167042867057 
1728	 0.114478936671285 
1729	 0.11491755385575 
1730	 0.113760022725195 
1731	 0.113152113371342 
1732	 0.114178771650394 
1733	 0.114617412036331 
1734	 0.114935216477428 
1735	 0.115086284305382 
1736	 0.11364020910667 
1737	 0.112222018546197 
1738	 0.113084363280655 
1739	 0.113969393826622 
1740	 0.113242871931784 
1741	 0.113997504400301 
1742	 0.114178244841105 
1743	 0.112744909689178 
1744	 0.112308511434456 
1745	 0.111354004087967 
1746	 0.111910161589865 
1747	 0.111795218055394 
1748	 0.112509898291658 
1749	 0.112416143701937 
1750	 0.110021643466811 
1751	 0.109313493267585 
1752	 0.109652640687046 
1753	 0.109985893071239 
1754	 0.111620096575657 
1755	 0.111692371415172 
1756	 0.110584136543426 
1757	 0.110363847165654 
1758	 0.109820610114236 
1759	 0.110118091537076 
1760	 0.111734090974035 
1761	 0.111248261079784 
1762	 0.110233591978365 
1763	 0.109965400677389 
1764	 0.108762838198853 
1765	 0.108428901336668 
1766	 0.109156080738774 
1767	 0.110379669609352 
1768	 0.110574210367821 
1769	 0.109121843752863 
1770	 0.109747279943364 
1771	 0.110974996785102 
1772	 0.110736694662073 
1773	 0.111509174265815 
1774	 0.109982877214921 
1775	 0.108769812213386 
1776	 0.10823947168026 
1777	 0.109775004476746 
1778	 0.109973983741087 
1779	 0.107600907735633 
1780	 0.105589124693637 
1781	 0.102817856818608 
1782	 0.103429978644943 
1783	 0.10753254656831 
1784	 0.108483557381712 
1785	 0.11091112001453 
1786	 0.110215113601213 
1787	 0.103039906497045 
1788	 0.10168959194334 
1789	 0.103451301963483 
1790	 0.110504764953712 
1791	 0.111192891398643 
1792	 0.107816414913128 
1793	 0.1066683177848 
1794	 0.102578432401548 
1795	 0.106196953969056 
1796	 0.120927987823033 
1797	 0.123741417422427 
1798	 0.114014804886855 
1799	 0.110192109092242 
1800	 0.105886284313706 
1801	 0.104583771096882 
1802	 0.128321644946573 
1803	 0.135104522086835 
1804	 0.116257473845 
1805	 0.11263374255106 
1806	 9.84986836662673E-02 
1807	 0.11261301063778 
1808	 0.224296888342173 
1809	 0.243228486904647 
1810	 0.167103127365685 
1811	 0.115631738824424 
1812	-0.104222257115254 
1813	-0.150013159698756 
1814	 6.30557517631112E-02 
1815	 0.17021988301588 
1816	 0.645797776256368 
1817	-8.84730513684041E-02 
1818	-0.23187242154789 
1819	 0.162247472479317 
1820	-0.342236343146061 
1821	-0.949765260240946 
1822	-1.00029264435718 
1823	-1.41742284489969 
1824	-1.04439500069327 
1825	 0.306957687165277 
1826	 0.509780514486075 
1827	 0.320206874676673 
1828	 0.232828151100501 
1829	-0.41266442599812 
1830	-1.96160464792064 
1831	 1.48524307999156 
1832	 1.40326782285692 
1833	 1.87002952699276 
1834	 5.63546559013266 
1835	 1.79150979506634 
1836	 2.7316973455082 
1837	-0.642193316685709 
1838	-0.453842024445207 
1839	-0.891505358154073 
1840	-0.723110288166883 
1841	-2.05952488667635 
1842	 11.1605798233262 
1843	 1.77699030820231 
1844	 0.10581162911342 
1845	-6.20296304324187E-02 
1846	-0.192927709422929 
1847	-0.222297726789407 
1848	-0.335231106005634 
1849	-1.2662500591177 
1850	-3.86981570415912 
1851	-7.02003570797147 
1852	-25.0368360164466 
1853	-15.6414351603838 
1854	-2.88088012013918 
1855	-0.209589276417064 
1856	-2.96862269246866E-02 
1857	 0.438878616360255 
1858	 0.722656400550375 
1859	 2.25313118015137 
1860	 9.36387912408347E-02 
1861	 0.11590486394768 
1862	 0.157066095686115 
1863	-6.99625447289078E-02 
1864	-0.462393070716388 
1865	-0.643887326310468 
1866	-3.54665048363331 
1867	 1.52155132126096 
1868	-2.08169517281497 
1869	-1.13843976194001 
1870	-0.492220095021186 
1871	-0.535547144804033 
1872	-0.121136620528552 
1873	 0.11758186441923 
1874	 4.99203380986584E-02 
1875	-0.229689466521179 
1876	-0.222865034727089 
1877	 0.234259968562813 
1878	 0.379369315465236 
1879	 1.13665960819633 
1880	-1.55130798272505 
1881	-1.25201507398049 
1882	-0.419587283677747 
1883	-0.968240622841349 
1884	-3.91752922811655 
1885	 1.53614873940898 
1886	 0.81407776109675 
1887	 1.04803084139138 
1888	-0.403901457751008 
1889	-2.7425460544159 
1890	-2.70083400255637 
1891	-5.72706666676656 
1892	-5.75325421061933 
1893	-28.1760869279023 
1894	 7.42789418382254 
1895	 3.10359473683092 
1896	 4.65424364795322 
1897	 1.38080561909175 
1898	 0.873569767343949 
1899	 0.336176453485594 
1900	-0.069998321512849 
1901	-0.434039343899817 
1902	-0.544720105822932 
1903	-0.800879199166883 
1904	-1.16148501902798 
1905	 3.55758483627105 
1906	 0.777016203660075 
1907	 1.25559299807223 
1908	 12.3532191415047 
1909	-6.01691629246077 
1910	-0.925492468163108 
1911	-0.32009324839858 
1912	-0.534082663636715 
1913	-0.624518396849724 
1914	-0.77858042668806 
1915	-1.09499084419281 
1916	 10.1874861539555 
1917	 0.649467917043096 
1918	-0.125428307680642 
1919	-0.339197210428874 
1920	-0.180733342536445 
1921	-0.85964820414939 
1922	-4.05648495919567 
1923	-16.9200856988779 
1924	-1.29987110202153 
1925	-0.205924545047887 
1926	 0.151792257526122 
1927	 0.469480582787353 
1928	 0.673590621999502 
1929	 0.229663936936981 
1930	-0.185154114704492 
1931	 1.29464420361363E-02 
1932	-0.123584380441823 
1933	-5.55639612970541E-02 
1934	 0.140805952654069 
1935	-0.143695122785833 
1936	-0.258619961934613 
1937	-0.246050236998855 
1938	-0.326161309183346 
1939	-0.265718698462969 
1940	-0.182244078998228 
1941	 3.23630238679476E-02 
1942	 0.237605917112995 
1943	 0.215015619059677 
1944	 0.155410546600413 
1945	 8.68396824290355E-02 
1946	-0.045430510019021 
1947	-0.078295982988696 
1948	-7.11320165127243E-02 
1949	-9.27237744680514E-02 
1950	-7.65923127038256E-03 
1951	 6.77813495551606E-02 
1952	 7.66156391805705E-02 
1953	 6.62320874890859E-02 
1954	 3.61500768289157E-02 
1955	-1.46839413480626E-03 
1956	-3.24832995095343E-02 
1957	-3.43817352380413E-02 
1958	 5.68008043916839E-03 
1959	 2.58468766333737E-02 
1960	 3.06467577023649E-02 
1961	 3.34627946311026E-02 
1962	 4.10379295900498E-02 
1963	 4.19539548500832E-02 
1964	 3.79815962386624E-02 
1965	 5.16694058546235E-02 
1966	 5.33561238224513E-02 
1967	 5.03168574174394E-02 
1968	 4.33314895040174E-02 
1969	 4.41591844673882E-02 
1970	 3.76825542602648E-02 
1971	 0.032268677590913 
1972	 3.35674018314177E-02 
1973	 3.52362173255208E-02 
1974	 3.47229232091819E-02 
1975	 0.035762784475912 
1976	 4.01047185490166E-02 
1977	 4.27135871569625E-02 
1978	 4.41279831950257E-02 
1979	 4.54620293844511E-02 
1980	 4.73496913728738E-02 
1981	 4.74389093205696E-02 
1982	 4.78116451734769E-02 
1983	 4.85088856207352E-02 
1984	 0.046806195989922 
1985	 4.67191112482855E-02 
1986	 4.49035229317087E-02 
1987	 4.35540247139125E-02 
1988	 4.69242788734863E-02 
1989	 4.66948795530739E-02 
1990	 4.82265504468612E-02 
1991	 4.78994494391672E-02 
1992	 4.55785743145312E-02 
1993	 4.71777279685887E-02 
1994	 4.81529451680597E-02 
1995	 4.88858231081879E-02 
1996	 5.14459083889415E-02 
1997	 5.06584432854407E-02 
1998	 4.75527415898913E-02 
1999	 4.59255672969756E-02 
2000	 4.28783436410582E-02 
2001	 0.045507322679947 
2002	 5.20340922108927E-02 
2003	 5.33943189989573E-02 
2004	 5.63361546359358E-02 
2005	 5.53313921598547E-02 
2006	 4.89069596212639E-02 
2007	 5.15108597694279E-02 
2008	 5.21811780966188E-02 
2009	 5.28896685344583E-02 
2010	 6.29329564685918E-02 
2011	 0.064546799800965 
2012	 5.95717696129444E-02 
2013	 5.48405686250141E-02 
2014	 5.36452698640217E-02 
2015	 4.78221897182525E-02 
2016	 4.46246085776988E-02 
2017	 0.045719299224698 
2018	 5.11714171954745E-02 
2019	 5.45927597170711E-02 
2020	 5.28898890220586E-02 
2021	 5.30053096567499E-02 
2022	 5.03125467231584E-02 
2023	 5.10184876600001E-02 
2024	 0.05183016860172 
2025	 5.43203828698445E-02 
2026	 5.58712774416881E-02 
2027	 5.82272526160783E-02 
2028	 5.82498581661201E-02 
2029	 5.62082719900121E-02 
2030	 5.49388899997442E-02 
2031	 5.22037605628828E-02 
2032	 4.85550685842843E-02 
2033	 4.84594675015172E-02 
2034	 5.12566256492998E-02 
2035	 5.39833821187088E-02 
2036	 5.68930584919245E-02 
2037	 5.83200296767871E-02 
2038	 5.79016397531022E-02 
2039	 5.79158879646646E-02 
2040	 5.68766941272217E-02 
2041	 5.62179447627628E-02 
2042	 5.50524285406845E-02 
2043	 5.50524353837563E-02 
2044	 5.53065108109022E-02 
2045	 5.65810835330685E-02 
2046	 5.60813690891294E-02 
2047	 5.72724674862562E-02 
2048	 5.90864948884517E-02 
2049	 5.62030721672726E-02 
2050	 5.49713845047846E-02 
2051	 5.63322379422644E-02 
2052	 5.51094960258338E-02 
2053	 5.34110873122715E-02 
2054	 5.30189186245711E-02 
2055	 5.35041445258217E-02 
2056	 0.055241101073685 
2057	 5.88930207063479E-02 
2058	 6.09609811665889E-02 
2059	 0.065165522679651 
2060	 6.55148134376005E-02 
2061	 6.17090206087524E-02 
2062	 0.06118005278222 
2063	 6.16135067095682E-02 
2064	 6.26676029665485E-02 
2065	 6.46198080503794E-02 
2066	 6.46333526321842E-02 
2067	 6.35417287330027E-02 
2068	 6.31369665711885E-02 
2069	 6.34376455804536E-02 
2070	 6.19203161983272E-02 
2071	 6.14895452309012E-02 
2072	 6.02868437232369E-02 
2073	 5.99533516325136E-02 
2074	 6.03707281306403E-02 
2075	 6.16384710610697E-02 
2076	 6.44963063928284E-02 
2077	 0.064859180039543 
2078	 6.48477462712229E-02 
2079	 6.42408536430694E-02 
2080	 6.21913649361139E-02 
2081	 0.058942454570329 
2082	 6.10230129977064E-02 
2083	 6.31197437432215E-02 
2084	 6.27236714906407E-02 
2085	 6.46070304621035E-02 
2086	 6.52257588970495E-02 
2087	 6.58483249323498E-02 
2088	 6.81748752385063E-02 
2089	 6.84414078747655E-02 
2090	 6.68638788844126E-02 
2091	 6.58548057771896E-02 
2092	 6.63320597057449E-02 
2093	 6.86663001309081E-02 
2094	 6.99613507488298E-02 
2095	 7.20652177097059E-02 
2096	 7.23743749563664E-02 
2097	 7.12456634041407E-02 
2098	 7.16014669295507E-02 
2099	 7.23311513244932E-02 
2100	 7.22177712560532E-02 
2101	 0.073087298283878 
2102	 7.27991222627879E-02 
2103	 7.18050914400608E-02 
2104	 7.24805963331562E-02 
2105	 7.52329983771405E-02 
2106	 0.077185030319247 
2107	 7.79489294334721E-02 
2108	 8.00828158473464E-02 
2109	 7.96185350869039E-02 
2110	 7.75736488182979E-02 
2111	 7.72555885447297E-02 
2112	 7.54760254240834E-02 
2113	 0.074769146239744 
2114	 7.49421895284885E-02 
2115	 7.41297542502437E-02 
2116	 7.28532867106044E-02 
2117	 7.30065963991535E-02 
2118	 7.34487453482292E-02 
2119	 7.42767835349485E-02 
2120	 7.68733664998568E-02 
2121	 7.74656394375379E-02 
2122	 7.72405492669386E-02 
2123	 7.73989325505488E-02 
2124	 7.85395330003072E-02 
2125	 7.90861634156064E-02 
2126	 8.02482676476155E-02 
2127	 7.93320362369078E-02 
2128	 0.075095173701531 
2129	 7.32372320537585E-02 
2130	 7.29317300319785E-02 
2131	 7.26346308059527E-02 
2132	 7.50254371071284E-02 
2133	 7.79366723331941E-02 
2134	 7.90034056715026E-02 
2135	 7.85315395867326E-02 
2136	 7.95242851386061E-02 
2137	 8.06790027399898E-02 
2138	 8.06535004370456E-02 
2139	 8.07464947164189E-02 
2140	 8.02688208938654E-02 
2141	 7.80805563026409E-02 
2142	 0.077124771039355 
2143	 7.61393301724773E-02 
2144	 0.076767445391162 
2145	 0.078663249225474 
2146	 0.078744235414434 
2147	 7.89400755475233E-02 
2148	 8.01931076888747E-02 
2149	 8.06918369817776E-02 
2150	 8.06480256662454E-02 
2151	 8.00389451334111E-02 
2152	 7.83373614754534E-02 
2153	 7.66942487658662E-02 
2154	 7.66991424748834E-02 
2155	 7.84238835082466E-02 
2156	 0.079533193886644 
2157	 7.88582020913727E-02 
2158	 7.50514567748488E-02 
2159	 7.52432029880251E-02 
2160	 7.74911222411936E-02 
2161	 7.73150264365333E-02 
2162	 7.71859607131482E-02 
2163	 7.81802161662737E-02 
2164	 7.80276263053307E-02 
2165	 7.77600767047856E-02 
2166	 8.00372266703038E-02 
2167	 8.10102295089489E-02 
2168	 7.85762071833467E-02 
2169	 7.81480728823221E-02 
2170	 7.98055027342512E-02 
2171	 8.08063870887157E-02 
2172	 7.85065290706936E-02 
2173	 7.83295653631616E-02 
2174	 0.078588723497441 
2175	 7.67474873145478E-02 
2176	 7.59523597185292E-02 
2177	 7.60391939480391E-02 
2178	 7.75273485054037E-02 
2179	 7.79605943711847E-02 
2180	 7.90534058112978E-02 
2181	 8.25141061357738E-02 
2182	 8.13697146642127E-02 
2183	 8.15513682150086E-02 
2184	 8.47793313040414E-02 
2185	 8.48766900603656E-02 
2186	 8.60116692859142E-02 
2187	 8.77719935607317E-02 
2188	 8.88967061912822E-02 
2189	 9.05514472609574E-02 
2190	 9.04391131613016E-02 
2191	 8.90341457482326E-02 
2192	 8.78897173667201E-02 
2193	 8.48041078117161E-02 
2194	 8.27246181035493E-02 
2195	 8.09840175534872E-02 
2196	 0.079754895414123 
2197	 7.84828660333627E-02 
2198	 7.82362074628556E-02 
2199	 7.88236224860336E-02 
2200	 8.18934260054628E-02 
2201	 7.98677774898269E-02 
2202	 7.62329888075172E-02 
2203	 7.83819219248361E-02 
2204	 7.82468694336479E-02 
2205	 8.24851105427655E-02 
2206	 9.03681892830319E-02 
2207	 8.86328843512744E-02 
2208	 8.65196414300924E-02 
2209	 8.57467865767774E-02 
2210	 8.26131959389573E-02 
2211	 8.39069250931799E-02 
2212	 8.40208874913591E-02 
2213	 8.01805461969209E-02 
2214	 8.00889694710732E-02 
2215	 7.94194348770353E-02 
2216	 7.89571188158289E-02 
2217	 8.12357095319429E-02 
2218	 8.79497092342684E-02 
2219	 8.91218668163538E-02 
2220	 8.96195238751717E-02 
2221	 8.99695891442209E-02 
2222	 0.086911642749054 
2223	 8.59820522803589E-02 
2224	 8.57546481128167E-02 
2225	 8.60703438279397E-02 
2226	 8.63310594472489E-02 
2227	 8.64649654277593E-02 
2228	 9.06364050290407E-02 
2229	 9.09979005992557E-02 
2230	 8.73900742110618E-02 
2231	 8.64519043232095E-02 
2232	 8.39242867306009E-02 
2233	 8.28895903850791E-02 
2234	 8.45048298321646E-02 
2235	 8.44215772954923E-02 
2236	 8.38968881058298E-02 
2237	 8.39219022614861E-02 
2238	 8.49624801951168E-02 
2239	 0.084555125604148 
2240	 8.23511210641187E-02 
2241	 7.82177868366138E-02 
2242	 7.16794666576937E-02 
2243	 7.21222858561088E-02 
2244	 7.97177637133132E-02 
2245	 8.27771416824702E-02 
2246	 8.34344593345174E-02 
2247	 8.40310483294727E-02 
2248	 8.35947993193786E-02 
2249	 8.91377778551742E-02 
2250	 9.39821750002632E-02 
2251	 9.35407332498126E-02 
2252	 8.83871805857339E-02 
2253	 8.14474692843036E-02 
2254	 7.93588949534517E-02 
2255	 7.76214471689468E-02 
2256	 7.78835562104193E-02 
2257	 8.05711369907617E-02 
2258	 7.95025869633586E-02 
2259	 8.02649016925372E-02 
2260	 7.99196919905749E-02 
2261	 7.85224348626866E-02 
2262	 7.64719058545721E-02 
2263	 7.07515093037645E-02 
2264	 7.27057644161766E-02 
2265	 8.25115641321358E-02 
2266	 8.31676998136052E-02 
2267	 0.084183151384676 
2268	 8.26216142719536E-02 
2269	 7.10505187803447E-02 
2270	 6.66906026366586E-02 
2271	 6.57552069667546E-02 
2272	 6.57218388175242E-02 
2273	 6.91145111249431E-02 
2274	 7.12513137907386E-02 
2275	 7.33270889717249E-02 
2276	 7.64734644368106E-02 
2277	 8.15541555628708E-02 
2278	 8.26590707007821E-02 
2279	 8.27665823450708E-02 
2280	 8.35345405011869E-02 
2281	 8.45369722997675E-02 
2282	 7.89328117840312E-02 
2283	 7.13669384982923E-02 
2284	 7.14129520127795E-02 
2285	 7.18160736760283E-02 
2286	 6.83996715582478E-02 
2287	 7.00425430925691E-02 
2288	 0.068272294783592 
2289	 6.48329571592666E-02 
2290	 0.067075942901249 
2291	 7.21073271881124E-02 
2292	 7.68547683529819E-02 
2293	 8.00765508481944E-02 
2294	 8.01339197318719E-02 
2295	 7.30596965952639E-02 
2296	 7.07585842535868E-02 
2297	 7.18824059907385E-02 
2298	 6.87328826591079E-02 
2299	 7.18474601849507E-02 
2300	 7.42823150564896E-02 
2301	 7.27810095259485E-02 
2302	 0.071505938677292 
2303	 7.02116578959678E-02 
2304	 6.89662851342715E-02 
2305	 6.81956220615724E-02 
2306	 7.07245897127879E-02 
2307	 7.52257542042579E-02 
2308	 8.41667491299433E-02 
2309	 8.41794197210361E-02 
2310	 8.45694210858178E-02 
2311	 9.06424198841117E-02 
2312	 7.94565576741301E-02 
2313	 7.61756272189525E-02 
2314	 8.47445156155237E-02 
2315	 8.39842800634932E-02 
2316	 8.61191507252327E-02 
2317	 9.22564384893362E-02 
2318	 8.84785273808494E-02 
2319	 8.36934851190415E-02 
2320	 0.089684842743514 
2321	 8.63913413355799E-02 
2322	 7.88206423661465E-02 
2323	 7.74164802590427E-02 
2324	 0.061869694013115 
2325	 4.80738088958111E-02 
2326	 4.50429021029803E-02 
2327	 3.07409552751537E-02 
2328	 0.019432765544821 
2329	 2.04328437925049E-02 
2330	 2.45331849372634E-02 
2331	 3.41319404130553E-02 
2332	 4.74022021375552E-02 
2333	 5.59893063078073E-02 
2334	 5.23547571079677E-02 
2335	 4.11250468032737E-02 
2336	 3.68553001611009E-02 
2337	 4.71702652780753E-02 
2338	 6.37384292582992E-02 
2339	 8.76998198139687E-02 
2340	 9.60913633177675E-02 
2341	 8.33217705593833E-02 
2342	 8.76072158078346E-02 
2343	 7.61159217112235E-02 
2344	 5.37779907311347E-02 
2345	 6.92464689087224E-02 
2346	 8.47696563898616E-02 
2347	 9.48487260258376E-02 
2348	 0.13425180179648 
2349	 0.156649147243033 
2350	 0.133279133950603 
2351	 0.112122910866217 
2352	 0.104299391147495 
2353	 0.081284013170055 
2354	 6.09147771585885E-02 
2355	 0.054976750381593 
2356	 5.40167834598115E-02 
2357	 6.31187816998142E-02 
2358	 7.74963451783817E-02 
2359	 9.00056665497192E-02 
2360	 9.86103128417279E-02 
2361	 8.96487658780453E-02 
2362	 7.21196811393009E-02 
2363	 0.06687635917217 
2364	 3.74805531934276E-02 
2365	-9.9374588114081E-03 
2366	-1.47957728533362E-02 
2367	-7.77848837501813E-03 
2368	-8.85546676347046E-03 
2369	-1.21697996876262E-02 
2370	-3.79079189716469E-02 
2371	-3.69216108199269E-02 
2372	-1.21884171910941E-02 
2373	-3.65217392201633E-04 
2374	 4.64928484105989E-02 
2375	 6.98725816721405E-02 
2376	 9.6753756842113E-03 
2377	 1.54842984712042E-03 
2378	 4.46850179694289E-02 
2379	 3.56960508383928E-02 
2380	 5.01222439071568E-02 
2381	 5.75721598315633E-02 
2382	 3.53326415087511E-02 
2383	 0.021468210158048 
2384	-6.11704552680132E-03 
2385	-6.50696640635565E-02 
2386	-0.13713120706134 
2387	-0.184587363945134 
2388	-0.203597558401921 
2389	-0.145709596147323 
2390	-3.37490655820685E-02 
2391	 4.09563458816308E-02 
2392	 0.131221654918995 
2393	 0.223510652187462 
2394	 0.203272395413206 
2395	 0.109748449178683 
2396	 2.31581954098475E-02 
2397	-3.73754668217908E-02 
2398	-4.04591610249281E-02 
2399	 4.77414325834868E-02 
2400	 0.13040131915944 
2401	 0.1235040194767 
2402	 0.103164407926533 
2403	 8.38261580252005E-02 
2404	 3.04901907633711E-02 
2405	 6.80675643319141E-03 
2406	 5.4515622878644E-03 
2407	-9.20924473975114E-02 
2408	-0.187641835690507 
2409	-0.100047896356386 
2410	-1.21694228805506E-02 
2411	 0.021023940780849 
2412	-4.06917868632456E-02 
2413	-0.202637507032582 
2414	-0.286699963472978 
2415	-0.316420073318834 
2416	-0.061690643955729 
2417	 0.285634255998983 
2418	 0.396983702285791 
2419	 0.360977933520253 
2420	 0.263118992232664 
2421	 9.91855180019435E-02 
2422	-3.43442899083301E-02 
2423	-0.060160337507802 
2424	 4.47481054881591E-02 
2425	 0.192442834961285 
2426	 0.488390371719451 
2427	 0.467031052483202 
2428	 0.29223352738513 
2429	 0.177397117879637 
2430	 2.76631757369477E-02 
2431	-0.186573496507771 
2432	-0.340840282417279 
2433	-0.469778298456486 
2434	-0.371727987027229 
2435	-0.214538181477009 
2436	-7.86254418140758E-03 
2437	 0.110682771343953 
2438	-0.159908818746952 
2439	-0.491394538874935 
2440	-0.249212037357638 
2441	 3.51513644135722E-02 
2442	 0.167393009136892 
2443	 0.378174803369584 
2444	 0.244415681785044 
2445	-0.191602885624324 
2446	-3.73219349246913E-02 
2447	-2.66375944531823E-02 
2448	-0.153452324997883 
2449	-0.223915824363721 
2450	-0.345813965247591 
2451	-2.17530699238713 
2452	 6.44154476704854 
2453	-0.506330071059387 
2454	 1.82510554000641E-02 
2455	 1.14844807463086 
2456	 1.51808100747493 
2457	 1.63621424866625 
2458	 2.19575055639118 
2459	 1.47109029632998 
2460	 15.9482650480877 
2461	-5.48330162796179 
2462	-2.8757875556368 
2463	-1.56297092820392 
2464	-0.441772011326484 
2465	-3.00345931829906E-02 
2466	 9.30199835600391E-02 
2467	-0.840412785750156 
2468	-10.9605714123377 
2469	-0.326461090202144 
2470	 1.98293605558676 
2471	 2.399746973023 
2472	-1.32067141568921 
2473	 0.730677130445605 
2474	 0.612254671704873 
2475	 1.19945505744112 
2476	 0.320653145014157 
2477	 1.01403738193853 
2478	-4.07682831490112 
2479	-1.64955517478655 
2480	-1.59133869097771 
2481	-0.804735758330379 
2482	-0.298390072464448 
2483	-0.850334501598354 
2484	-1.30327712943353 
2485	-2.92328719520176 
2486	-2.04877458116367 
2487	-2.35008768955566 
2488	-8.70534308684552 
2489	-5.11799758946632 
2490	-28.653410869722 
2491	 1.05421162940753 
2492	 0.557015995210988 
2493	 0.95609812944677 
2494	 0.238963444536051 
2495	 0.113739802266957 
2496	-0.207431325751524 
2497	-0.490997198550646 
2498	 1.12700985754203 
2499	-0.702423860705516 
2500	-2.53878154328017 
