Wavelength	rt0714yellow00000.asd
350	 6.29054349180811E-02 
351	 6.16342445185603E-02 
352	 0.060462193401703 
353	 6.12134679658997E-02 
354	 6.35490740099117E-02 
355	 6.28712320291395E-02 
356	 6.21400278123126E-02 
357	 0.062138965642757 
358	 6.26925141137622E-02 
359	 0.062641062736794 
360	 6.23281935121374E-02 
361	 6.22631007919478E-02 
362	 6.29007245824925E-02 
363	 6.35066072886121E-02 
364	 6.37390800340381E-02 
365	 6.35820872061672E-02 
366	 6.33708482079208E-02 
367	 6.39550165119223E-02 
368	 6.44881158902984E-02 
369	 6.42344708780283E-02 
370	 6.45709135477104E-02 
371	 6.46469019505169E-02 
372	 6.46269148696683E-02 
373	 6.51593368552304E-02 
374	 6.54669356997963E-02 
375	 6.58711968338449E-02 
376	 6.65285139226275E-02 
377	 6.72173143792595E-02 
378	 6.76955979455518E-02 
379	 6.77883649267307E-02 
380	 6.76519268181119E-02 
381	 6.83075193602127E-02 
382	 6.89956193914395E-02 
383	 6.95596093748733E-02 
384	 7.01282610143698E-02 
385	 0.070621380622148 
386	 7.07509955699461E-02 
387	 7.08810205948879E-02 
388	 7.20155465029142E-02 
389	 7.27459366758708E-02 
390	 7.30996609722595E-02 
391	 7.35453448584751E-02 
392	 7.49841488749056E-02 
393	 7.53333031130234E-02 
394	 7.51884800833039E-02 
395	 7.58857886863848E-02 
396	 7.68672626886535E-02 
397	 7.72593849232884E-02 
398	 7.71837789291849E-02 
399	 7.75620149147308E-02 
400	 7.80825082927423E-02 
401	 7.86387539977861E-02 
402	 7.91909741919999E-02 
403	 7.98042477981947E-02 
404	 8.01512999430211E-02 
405	 8.03789958287784E-02 
406	 8.08206234762518E-02 
407	 0.081779009227385 
408	 8.23121597896362E-02 
409	 8.24768084381275E-02 
410	 8.32966133676928E-02 
411	 8.36376384232529E-02 
412	 8.40033589504633E-02 
413	 8.48014730819757E-02 
414	 8.55282846626147E-02 
415	 0.086194399476099 
416	 8.68629215543887E-02 
417	 8.75923897803571E-02 
418	 8.81686126588855E-02 
419	 8.88683992006428E-02 
420	 0.089664759935297 
421	 9.01946832822665E-02 
422	 0.091001677427322 
423	 9.18985034846015E-02 
424	 9.26700758599018E-02 
425	 9.34489084135611E-02 
426	 9.43477980354812E-02 
427	 9.54568480295443E-02 
428	 9.67552773609489E-02 
429	 9.76755030776556E-02 
430	 9.86434195125218E-02 
431	 9.98321231791495E-02 
432	 0.101011828661677 
433	 0.102120798022255 
434	 0.103157400673314 
435	 0.104155976863122 
436	 0.105182541118829 
437	 0.106245891945627 
438	 0.10737148496473 
439	 0.108569912280048 
440	 0.10972176100614 
441	 0.110784127900272 
442	 0.111750615729378 
443	 0.11264979211171 
444	 0.11353311413029 
445	 0.114340655571325 
446	 0.115062833246928 
447	 0.116035254025923 
448	 0.116832182413004 
449	 0.11744738069007 
450	 0.118172032927844 
451	 0.118689729445338 
452	 0.11921927095724 
453	 0.119870549577555 
454	 0.120380343656777 
455	 0.120825161787047 
456	 0.121220033323118 
457	 0.121590384747304 
458	 0.122092616299162 
459	 0.122553722550196 
460	 0.122918215377429 
461	 0.123268086104533 
462	 0.123729787958769 
463	 0.124149578714352 
464	 0.124403800863947 
465	 0.124584888405608 
466	 0.124910092635548 
467	 0.125400674887437 
468	 0.125937325836027 
469	 0.126285690016016 
470	 0.126492026327032 
471	 0.126771820446559 
472	 0.127516143796499 
473	 0.127941591856707 
474	 0.128297853834363 
475	 0.12892563798287 
476	 0.129463904168579 
477	 0.129888216609043 
478	 0.130287867131896 
479	 0.130820399753715 
480	 0.131437442595265 
481	 0.132029907791032 
482	 0.132594611400006 
483	 0.133365503981892 
484	 0.134066752046345 
485	 0.134712082466512 
486	 0.13543445576233 
487	 0.136377059580256 
488	 0.137172826521102 
489	 0.137854476504763 
490	 0.138841052470834 
491	 0.139725437388947 
492	 0.140554467204229 
493	 0.141433053437725 
494	 0.142393163545153 
495	 0.143368610554643 
496	 0.144376883789234 
497	 0.145460026905454 
498	 0.146449564943626 
499	 0.147466373278095 
500	 0.148566249059259 
501	 0.14966578114791 
502	 0.150598047668906 
503	 0.151664802149839 
504	 0.153069207438342 
505	 0.154040869371388 
506	 0.155104691000709 
507	 0.156332061842541 
508	 0.157425737570095 
509	 0.158616160202509 
510	 0.159875368283464 
511	 0.161086457211485 
512	 0.161979296861626 
513	 0.163208481869724 
514	 0.164533481160506 
515	 0.165449161189536 
516	 0.16671979710382 
517	 0.168216756269612 
518	 0.169689221567415 
519	 0.170861714779529 
520	 0.172052584002803 
521	 0.173280812285704 
522	 0.174503991251335 
523	 0.175699991148019 
524	 0.176928733975253 
525	 0.178202045056439 
526	 0.179503875563053 
527	 0.180875024498476 
528	 0.182236017981525 
529	 0.183516040486268 
530	 0.184681631457869 
531	 0.185887739946425 
532	 0.187170560351033 
533	 0.188501954380452 
534	 0.189842108808136 
535	 0.190968646975619 
536	 0.191997493184157 
537	 0.193413867117839 
538	 0.194728857813514 
539	 0.195942454338868 
540	 0.197137608254172 
541	 0.198235309022297 
542	 0.199508908817383 
543	 0.200877187633651 
544	 0.202056281980591 
545	 0.203094187471855 
546	 0.204129224546374 
547	 0.205214839698879 
548	 0.206208051308205 
549	 0.207350312238017 
550	 0.208539463660844 
551	 0.20958162091615 
552	 0.210518576737884 
553	 0.211447370901963 
554	 0.212442967886461 
555	 0.213538720547902 
556	 0.214401656439408 
557	 0.215272426575667 
558	 0.216336172244956 
559	 0.217163118125428 
560	 0.217869379726385 
561	 0.218561278349327 
562	 0.219338515848627 
563	 0.220235902710771 
564	 0.220959292127957 
565	 0.221455890287238 
566	 0.222229174926076 
567	 0.222921182209288 
568	 0.223514065878825 
569	 0.224091656039773 
570	 0.224600212322777 
571	 0.225142826486275 
572	 0.225683407309254 
573	 0.226034720790348 
574	 0.226423410429641 
575	 0.226805239192839 
576	 0.227123596428044 
577	 0.227504255374953 
578	 0.227848426890374 
579	 0.228102003645653 
580	 0.228259937010499 
581	 0.228480625992533 
582	 0.228668885676495 
583	 0.228770356738487 
584	 0.22885860481861 
585	 0.228993177880603 
586	 0.229042520466096 
587	 0.228869302598725 
588	 0.228743005697939 
589	 0.228818028788117 
590	 0.228977430427453 
591	 0.228862110456001 
592	 0.228743438619976 
593	 0.228624302431521 
594	 0.228463569728463 
595	 0.228255726808872 
596	 0.227960764638839 
597	 0.227499635882126 
598	 0.226845153634876 
599	 0.22661257207212 
600	 0.226488471515756 
601	 0.226222494014071 
602	 0.22586751522543 
603	 0.225718733618026 
604	 0.225631378892181 
605	 0.225400945999187 
606	 0.225337677140241 
607	 0.22531632962561 
608	 0.225252349809802 
609	 0.225131120705843 
610	 0.225096117694388 
611	 0.225153068768736 
612	 0.225231503775272 
613	 0.225151371957776 
614	 0.224919981916512 
615	 0.224787683093473 
616	 0.225031034892643 
617	 0.22481568918098 
618	 0.224609468426369 
619	 0.224645626469273 
620	 0.224546977066265 
621	 0.224634712856625 
622	 0.224747265022879 
623	 0.224631030529359 
624	 0.224362320167387 
625	 0.224251325515545 
626	 0.224324579104793 
627	 0.224331306453127 
628	 0.224249676276393 
629	 0.224189225367863 
630	 0.224208917651029 
631	 0.224171121118538 
632	 0.224015221841538 
633	 0.223824346624531 
634	 0.223738011990635 
635	 0.223699064856063 
636	 0.223649709670224 
637	 0.223591639371763 
638	 0.223616077699391 
639	 0.223465818425399 
640	 0.223308920458474 
641	 0.223325470922744 
642	 0.223212590135538 
643	 0.222950766754078 
644	 0.22266100610718 
645	 0.222563533679099 
646	 0.222505403056079 
647	 0.222415832390247 
648	 0.222267730261966 
649	 0.222116485012224 
650	 0.221791811267814 
651	 0.221376925705021 
652	 0.221044649728227 
653	 0.220752313184498 
654	 0.220444913928411 
655	 0.220022165366208 
656	 0.21939441768359 
657	 0.218891413148847 
658	 0.218478555025777 
659	 0.218069691455963 
660	 0.217736128307215 
661	 0.217413792527665 
662	 0.217076248450131 
663	 0.216734447119997 
664	 0.216445365294932 
665	 0.216239205285469 
666	 0.216073945482959 
667	 0.215784027689953 
668	 0.215653063367142 
669	 0.21560515841344 
670	 0.215499928228467 
671	 0.215550495716451 
672	 0.215412732777559 
673	 0.215144970068992 
674	 0.215178882552281 
675	 0.215251061363279 
676	 0.21531307447714 
677	 0.215364526128827 
678	 0.215417139836959 
679	 0.215546573408629 
680	 0.215760633137798 
681	 0.21601898710584 
682	 0.216209328959871 
683	 0.216502037800538 
684	 0.216854767922627 
685	 0.216926410435843 
686	 0.217217893878294 
687	 0.217658409206523 
688	 0.218020876264636 
689	 0.218472439319936 
690	 0.218495044129043 
691	 0.218378795443939 
692	 0.218807681992771 
693	 0.218979053849851 
694	 0.219153143066594 
695	 0.219367264724138 
696	 0.219070248552264 
697	 0.219085166707063 
698	 0.219149930797408 
699	 0.218797915175853 
700	 0.218337884280358 
701	 0.218052499869658 
702	 0.217932338687519 
703	 0.217709438197429 
704	 0.217087699638378 
705	 0.21651704884874 
706	 0.216176305102057 
707	 0.215358285374451 
708	 0.214482482583813 
709	 0.21370825340496 
710	 0.213034295498452 
711	 0.212115939238881 
712	 0.211047767045959 
713	 0.209950858406824 
714	 0.208909771116667 
715	 0.207722332462633 
716	 0.206595845725206 
717	 0.20573555143328 
718	 0.204331146364181 
719	 0.202914139737932 
720	 0.201635231009405 
721	 0.200267240301959 
722	 0.199374167946245 
723	 0.198299612534971 
724	 0.196919955739457 
725	 0.195667604716972 
726	 0.194275508411506 
727	 0.19285917497124 
728	 0.191487658686708 
729	 0.189776625931146 
730	 0.188046843931412 
731	 0.18657599887584 
732	 0.18542260920548 
733	 0.184214162767791 
734	 0.18319890139952 
735	 0.182432157391472 
736	 0.181647153352633 
737	 0.181164828960189 
738	 0.180860490382417 
739	 0.18055950470121 
740	 0.180238098216973 
741	 0.180055423056314 
742	 0.180000028094661 
743	 0.179964336451505 
744	 0.179945025521013 
745	 0.179837725418126 
746	 0.179630064331134 
747	 0.179437854592208 
748	 0.179453700156948 
749	 0.179437691420794 
750	 0.179222369772708 
751	 0.179281457996543 
752	 0.179220168572169 
753	 0.179084533621088 
754	 0.179123131598622 
755	 0.1790639039222 
756	 0.17907648849271 
757	 0.179163939774997 
758	 0.178985859050581 
759	 0.178710391040577 
760	 0.17880066112546 
761	 0.179317796298692 
762	 0.178945017901991 
763	 0.178867802809338 
764	 0.178898690459089 
765	 0.178606367016879 
766	 0.178565580584835 
767	 0.178786769198529 
768	 0.179063067862942 
769	 0.178989307656298 
770	 0.178750012192169 
771	 0.178626255368661 
772	 0.178756912488872 
773	 0.178856804695113 
774	 0.178920257551573 
775	 0.179056865842997 
776	 0.179354827733089 
777	 0.179419840107894 
778	 0.179403660919213 
779	 0.179427219586048 
780	 0.179535001311083 
781	 0.179756340620558 
782	 0.179851457230478 
783	 0.179783623629847 
784	 0.180088761124652 
785	 0.180288342120406 
786	 0.18046333112396 
787	 0.18080724743317 
788	 0.181013939185594 
789	 0.181206776330501 
790	 0.181366888239102 
791	 0.18138115218731 
792	 0.18150863330057 
793	 0.18181620820509 
794	 0.182195449225511 
795	 0.182301598639714 
796	 0.182498786403799 
797	 0.182661765178001 
798	 0.182691291775022 
799	 0.18305056316061 
800	 0.183268523793126 
801	 0.18324805949373 
802	 0.183159531430094 
803	 0.183272978837755 
804	 0.18335489254649 
805	 0.183395243079321 
806	 0.183656385032714 
807	 0.183611429112598 
808	 0.183337457636719 
809	 0.183051564545698 
810	 0.182990467706767 
811	 0.182966090490191 
812	 0.182839576468815 
813	 0.182528583065022 
814	 0.182236557939966 
815	 0.181970828792773 
816	 0.181545157831258 
817	 0.180772734628371 
818	 0.180594912280508 
819	 0.180352453110718 
820	 0.179621420776674 
821	 0.178448630971269 
822	 0.177799786012901 
823	 0.17741137777636 
824	 0.176750026425083 
825	 0.175526375718135 
826	 0.17430805732798 
827	 0.173112804471164 
828	 0.171874845837545 
829	 0.170823226960423 
830	 0.170115976484958 
831	 0.16960471351456 
832	 0.168984053780971 
833	 0.168501819306483 
834	 0.167959690673195 
835	 0.167294337979158 
836	 0.166682158392549 
837	 0.166456038144941 
838	 0.166494046505239 
839	 0.166493126744848 
840	 0.1659615916889 
841	 0.165597755305379 
842	 0.165361837723746 
843	 0.165033908868495 
844	 0.164955029282373 
845	 0.164905941062145 
846	 0.164737285282974 
847	 0.164424833932656 
848	 0.164445218064749 
849	 0.164374282168767 
850	 0.163979732244235 
851	 0.163431794144754 
852	 0.163242956196886 
853	 0.163185954959589 
854	 0.162972932023859 
855	 0.162537391366084 
856	 0.162830749835807 
857	 0.163000041394101 
858	 0.162266495553793 
859	 0.161928107671924 
860	 0.161919699022012 
861	 0.161924946380195 
862	 0.161618943250639 
863	 0.161562036353931 
864	 0.161422660491704 
865	 0.161250926365432 
866	 0.161382566524965 
867	 0.160762332666381 
868	 0.160557747429866 
869	 0.161004545411066 
870	 0.160793711300235 
871	 0.159900059513144 
872	 0.159456536189784 
873	 0.159897257953931 
874	 0.159511480555794 
875	 0.159335669108982 
876	 0.159329941809347 
877	 0.159140092008882 
878	 0.158482765864422 
879	 0.158063970563237 
880	 0.158117353239927 
881	 0.158466023187578 
882	 0.158378770121182 
883	 0.157983918258992 
884	 0.157477641648185 
885	 0.157133655622424 
886	 0.157771301273539 
887	 0.157812605975087 
888	 0.15688076381961 
889	 0.156284734821558 
890	 0.157121276680835 
891	 0.157463350672512 
892	 0.156426807093425 
893	 0.156161474119685 
894	 0.156240878529501 
895	 0.156440043583129 
896	 0.156394323451848 
897	 0.155376988703806 
898	 0.155181038556359 
899	 0.155102553030631 
900	 0.15423897752896 
901	 0.154242964068771 
902	 0.154983180338972 
903	 0.155181125880812 
904	 0.153935437196755 
905	 0.154296511297897 
906	 0.153890751392925 
907	 0.153158448823461 
908	 0.15420804267467 
909	 0.154347232693872 
910	 0.153468595301763 
911	 0.152511498422033 
912	 0.152817792436522 
913	 0.152969178854099 
914	 0.15240880280821 
915	 0.1519389931137 
916	 0.153243124804959 
917	 0.151999982921705 
918	 0.151110437878592 
919	 0.151362146634311 
920	 0.149604366051789 
921	 0.15110391825301 
922	 0.151739259878255 
923	 0.149425554629412 
924	 0.150086200061165 
925	 0.150302929335464 
926	 0.150275458000553 
927	 0.150769370119884 
928	 0.150730472284666 
929	 0.149519451875756 
930	 0.149433125079177 
931	 0.152956927255296 
932	 0.150271904405732 
933	 0.147001300268204 
934	 0.148466809766703 
935	 0.154036556673679 
936	 0.150670415249315 
937	 0.15070005596586 
938	 0.151352130019272 
939	 0.14755124769953 
940	 0.144849649751036 
941	 0.144177845026181 
942	 0.145311854940026 
943	 0.147619236044871 
944	 0.152809021776754 
945	 0.155091971849134 
946	 0.151948603702239 
947	 0.144696559226987 
948	 0.136630053668866 
949	 0.139285631288268 
950	 0.147123173926858 
951	 0.146390079418663 
952	 0.143685473869743 
953	 0.14486926872561 
954	 0.146693046082258 
955	 0.142300219761114 
956	 0.144436406926817 
957	 0.145566280641386 
958	 0.144092234264228 
959	 0.143700158364067 
960	 0.144958593051383 
961	 0.142525487641707 
962	 0.139194387542464 
963	 0.141729023987446 
964	 0.141362138372059 
965	 0.140801747484538 
966	 0.141620094974421 
967	 0.143379217992677 
968	 0.143507683451782 
969	 0.142094842936045 
970	 0.14039751935012 
971	 0.14018728479271 
972	 0.141432813521459 
973	 0.142411169028621 
974	 0.142006209243073 
975	 0.140564462910907 
976	 0.142964736442801 
977	 0.144465573380681 
978	 0.143183312523607 
979	 0.141071786980005 
980	 0.139750238020897 
981	 0.141520128605081 
982	 0.143961480125582 
983	 0.142178796178976 
984	 0.141341218759448 
985	 0.14071436290783 
986	 0.140729874647466 
987	 0.142649091469315 
988	 0.144073065741091 
989	 0.144228172279366 
990	 0.143297947665616 
991	 0.142004558121888 
992	 0.140098403193838 
993	 0.139243916792841 
994	 0.139687059120683 
995	 0.140349046900903 
996	 0.139731079928371 
997	 0.140009818692392 
998	 0.142197906162691 
999	 0.144901806484518 
1000	 0.140142858284987 
1001	 0.139705723053346 
1002	 0.139621326387539 
1003	 0.139197026227488 
1004	 0.137980434459634 
1005	 0.137567479637389 
1006	 0.137372051966934 
1007	 0.137615012128771 
1008	 0.137824841563031 
1009	 0.138129039456981 
1010	 0.13796391945583 
1011	 0.137293114723334 
1012	 0.137081765005041 
1013	 0.136624643713662 
1014	 0.136737618477071 
1015	 0.137417725021575 
1016	 0.137979041566485 
1017	 0.139061653751878 
1018	 0.139372709932298 
1019	 0.139064536634922 
1020	 0.139220645480684 
1021	 0.139195263483518 
1022	 0.13932055260512 
1023	 0.14021180710135 
1024	 0.140601534153551 
1025	 0.140056767683303 
1026	 0.139770758935761 
1027	 0.139400766337816 
1028	 0.138604548218723 
1029	 0.138158817534275 
1030	 0.137793961908402 
1031	 0.137703186806364 
1032	 0.137859944632164 
1033	 0.13783716672766 
1034	 0.137991767029674 
1035	 0.138200000710649 
1036	 0.138279274070173 
1037	 0.138367201134779 
1038	 0.138793980878867 
1039	 0.138752626664149 
1040	 0.139095335231766 
1041	 0.139424592168495 
1042	 0.139299310970517 
1043	 0.139180828923753 
1044	 0.138869260760206 
1045	 0.137800569241924 
1046	 0.137479381462114 
1047	 0.137327674625008 
1048	 0.137492840565177 
1049	 0.138403292014026 
1050	 0.138565982598218 
1051	 0.138519071466641 
1052	 0.138652060319238 
1053	 0.138356431804378 
1054	 0.138279826127925 
1055	 0.138609604925294 
1056	 0.138836693555594 
1057	 0.139028554601644 
1058	 0.139188417239732 
1059	 0.139120686077009 
1060	 0.139066342259273 
1061	 0.138777838651381 
1062	 0.138017195192553 
1063	 0.137651747578951 
1064	 0.137212462919556 
1065	 0.137108284022632 
1066	 0.137468062915571 
1067	 0.137504625472297 
1068	 0.137531823124351 
1069	 0.137623333886239 
1070	 0.137633487196779 
1071	 0.137567459637165 
1072	 0.137478060872636 
1073	 0.137615280501736 
1074	 0.137505258899706 
1075	 0.137213434684385 
1076	 0.136987971826569 
1077	 0.13665036049316 
1078	 0.136632044461012 
1079	 0.136644047629394 
1080	 0.136774066553546 
1081	 0.137415727385569 
1082	 0.137486770020544 
1083	 0.13711650748248 
1084	 0.137196036739208 
1085	 0.137301327016787 
1086	 0.137386673278406 
1087	 0.138118063421478 
1088	 0.138108889793483 
1089	 0.137396622797629 
1090	 0.13683532437255 
1091	 0.136399620316771 
1092	 0.135626482487534 
1093	 0.1354583144622 
1094	 0.135891334170124 
1095	 0.135916546573474 
1096	 0.135836985675857 
1097	 0.135877592006143 
1098	 0.136082841574142 
1099	 0.136021419156319 
1100	 0.135973197900422 
1101	 0.135936361497443 
1102	 0.135233753016218 
1103	 0.135049938119318 
1104	 0.135165321461846 
1105	 0.135848624251047 
1106	 0.135620475244899 
1107	 0.135551843575822 
1108	 0.135125984495665 
1109	 0.134187213325108 
1110	 0.134376841030844 
1111	 0.136335219153497 
1112	 0.136492109712689 
1113	 0.135806235630602 
1114	 0.135494401823147 
1115	 0.134076893820089 
1116	 0.133005660610574 
1117	 0.132032333078794 
1118	 0.13266436451543 
1119	 0.135768363426422 
1120	 0.135229246679072 
1121	 0.132970604121251 
1122	 0.135091394277796 
1123	 0.126877355148954 
1124	 0.118206923196813 
1125	 0.123490861989737 
1126	 0.129743517441279 
1127	 0.135097499665913 
1128	 0.138961354542229 
1129	 0.138117825691381 
1130	 0.12834332001534 
1131	 0.127744939814586 
1132	 0.13013672073052 
1133	 0.130856229446507 
1134	 0.133668712383715 
1135	 0.134228690795918 
1136	 0.133337464922583 
1137	 0.131888679711344 
1138	 0.130027092085358 
1139	 0.127931545619394 
1140	 0.125386549552664 
1141	 0.125561310503761 
1142	 0.126894124287826 
1143	 0.127759256875291 
1144	 0.12737458607924 
1145	 0.12591122539705 
1146	 0.126855187713952 
1147	 0.127273548246455 
1148	 0.127894872930853 
1149	 0.129543982059871 
1150	 0.128845475877446 
1151	 0.124980617957853 
1152	 0.125038856091721 
1153	 0.126134489643628 
1154	 0.126712441874316 
1155	 0.128769322772592 
1156	 0.128537006326198 
1157	 0.12766482114183 
1158	 0.127393848133571 
1159	 0.126269769734259 
1160	 0.125838688212924 
1161	 0.126527732062637 
1162	 0.126586487779978 
1163	 0.126143344794129 
1164	 0.126739534165795 
1165	 0.127060812096653 
1166	 0.126239945552386 
1167	 0.126164993799461 
1168	 0.126509518925582 
1169	 0.126072740585693 
1170	 0.126132711999467 
1171	 0.126267208197008 
1172	 0.126497844256978 
1173	 0.126270538600065 
1174	 0.1260192890529 
1175	 0.125818543766638 
1176	 0.125331814209194 
1177	 0.125443548032759 
1178	 0.125761394926781 
1179	 0.126041239991348 
1180	 0.126304696028859 
1181	 0.12632759012572 
1182	 0.126212210518755 
1183	 0.125757413436497 
1184	 0.125510175126547 
1185	 0.125755297956005 
1186	 0.125841699324088 
1187	 0.125606864337536 
1188	 0.125123816710668 
1189	 0.124834191291129 
1190	 0.124773520040476 
1191	 0.124986726635636 
1192	 0.125210296428279 
1193	 0.125811920409135 
1194	 0.125767097025727 
1195	 0.125435237573145 
1196	 0.1254241703405 
1197	 0.125728654519805 
1198	 0.125685830060042 
1199	 0.125582726091016 
1200	 0.125677129256144 
1201	 0.125165737214646 
1202	 0.12505817218008 
1203	 0.125351745405665 
1204	 0.125114646150678 
1205	 0.125270486974111 
1206	 0.12558402600153 
1207	 0.125399734835364 
1208	 0.125635732039498 
1209	 0.125901303162099 
1210	 0.124988846761709 
1211	 0.123957064362764 
1212	 0.123735919212666 
1213	 0.124171420265541 
1214	 0.124353686818093 
1215	 0.125112099096023 
1216	 0.125445811848397 
1217	 0.12513697963918 
1218	 0.124489654982557 
1219	 0.124172785677036 
1220	 0.12450753761004 
1221	 0.124952992819198 
1222	 0.124971418345046 
1223	 0.124382381317454 
1224	 0.124085327065854 
1225	 0.124327765350503 
1226	 0.124156256935998 
1227	 0.12406635918957 
1228	 0.124380754775454 
1229	 0.124282810803742 
1230	 0.124013629953982 
1231	 0.124029675431278 
1232	 0.124029849024043 
1233	 0.123770199778443 
1234	 0.123396766237719 
1235	 0.123324333157724 
1236	 0.123628932390982 
1237	 0.123509503744829 
1238	 0.123182077372376 
1239	 0.123290164390056 
1240	 0.123325883638834 
1241	 0.123128003111504 
1242	 0.1232694959263 
1243	 0.123501597966794 
1244	 0.123541794651375 
1245	 0.12326336241828 
1246	 0.123350425613235 
1247	 0.123537323493024 
1248	 0.12329355332221 
1249	 0.123358978772206 
1250	 0.123680456202952 
1251	 0.123674954020628 
1252	 0.123345870636304 
1253	 0.123294445291333 
1254	 0.123432831971884 
1255	 0.123245868196651 
1256	 0.123129525632561 
1257	 0.123466604260912 
1258	 0.12349821835591 
1259	 0.123057822120462 
1260	 0.122930657386898 
1261	 0.123094881125573 
1262	 0.12298414783895 
1263	 0.122589894657637 
1264	 0.122628114092015 
1265	 0.12269134597579 
1266	 0.1223853754391 
1267	 0.122141705808611 
1268	 0.122193516170751 
1269	 0.122512909720371 
1270	 0.122719465504356 
1271	 0.122677568310983 
1272	 0.122439323759259 
1273	 0.122139381332174 
1274	 0.122266446300673 
1275	 0.12251274293108 
1276	 0.122515309848086 
1277	 0.122569586793973 
1278	 0.122508197472715 
1279	 0.122272720366958 
1280	 0.122111775382702 
1281	 0.122111759895594 
1282	 0.121945070668839 
1283	 0.121817351027841 
1284	 0.122135785559601 
1285	 0.122139886297558 
1286	 0.12163899954787 
1287	 0.121361644394539 
1288	 0.121299033190827 
1289	 0.121176661635444 
1290	 0.120985849208939 
1291	 0.120838566860362 
1292	 0.120806476254646 
1293	 0.120601778093691 
1294	 0.120541473623924 
1295	 0.120607414781637 
1296	 0.12050455848626 
1297	 0.120625876561565 
1298	 0.120997890659527 
1299	 0.120854006884561 
1300	 0.120652455650353 
1301	 0.120673292972276 
1302	 0.120261855843764 
1303	 0.119870788564393 
1304	 0.120122306575763 
1305	 0.120153147536024 
1306	 0.120185829347531 
1307	 0.12041889507317 
1308	 0.120283129505305 
1309	 0.119630838784171 
1310	 0.119632161114778 
1311	 0.119856685855657 
1312	 0.119648269355604 
1313	 0.11977456790575 
1314	 0.119628516476736 
1315	 0.118892499011089 
1316	 0.118237251695218 
1317	 0.11720500828285 
1318	 0.117046365965518 
1319	 0.117831822220911 
1320	 0.117442747457158 
1321	 0.116856764138493 
1322	 0.116491757430669 
1323	 0.116617663743516 
1324	 0.115995611449265 
1325	 0.115609025830473 
1326	 0.117125051535473 
1327	 0.11766550790477 
1328	 0.116597713846147 
1329	 0.116201466805192 
1330	 0.115966836640641 
1331	 0.11496195799954 
1332	 0.114073587018446 
1333	 0.113980737371323 
1334	 0.114515660490899 
1335	 0.11502734021341 
1336	 0.115202522717383 
1337	 0.115551181354823 
1338	 0.117595632261326 
1339	 0.117517937792117 
1340	 0.114706955168916 
1341	 0.1141417223165 
1342	 0.11368795762096 
1343	 0.113525649153124 
1344	 0.116352696649036 
1345	 0.117219297702432 
1346	 0.11513366365013 
1347	 0.114785967038501 
1348	 0.116254534568157 
1349	 0.11567477121638 
1350	 0.114105942774492 
1351	 0.113119185438286 
1352	 0.097126634190362 
1353	 9.41812064753614E-02 
1354	 0.13585075685051 
1355	 0.187040582847874 
1356	 0.194469515069698 
1357	 0.228553015897228 
1358	 0.236349657195121 
1359	 0.159790685500351 
1360	 0.240744689088409 
1361	 0.371279605950371 
1362	 0.140529955989478 
1363	-1.13002798037621E-02 
1364	 0.176965724801584 
1365	 0.101705526035859 
1366	-0.107653924395214 
1367	-0.128982689787683 
1368	-0.158935440614142 
1369	-0.393364690145441 
1370	-0.494057984389011 
1371	-0.231458794659325 
1372	 0.016527237984742 
1373	 0.449727737689717 
1374	 0.57377683286727 
1375	 0.321183636281452 
1376	 0.202410467232956 
1377	-0.228681127536513 
1378	-0.350527192750982 
1379	 6.36030739822921E-02 
1380	 0.135864307486557 
1381	 0.146874151428409 
1382	 7.04839029748207E-02 
1383	-0.663318799998416 
1384	-0.660970593270467 
1385	-0.098803411032406 
1386	-0.139560231062312 
1387	 0.130573701441339 
1388	 0.195637949230748 
1389	-8.89351518765584E-02 
1390	-0.129473792283334 
1391	 0.616103991414791 
1392	 0.396301429958243 
1393	-1.27881034054372E-02 
1394	 0.126980296085131 
1395	-3.80667688602908E-02 
1396	-0.333138235239879 
1397	 0.207883505618641 
1398	 2.31788056788037E-02 
1399	-0.716045420503411 
1400	 0.312196533999414 
1401	 0.925239220650226 
1402	-2.78545701746821 
1403	-0.177559795955767 
1404	-8.69302378729585E-02 
1405	-2.57767070639844E-02 
1406	 5.46577603096055E-02 
1407	 5.76283639794862E-02 
1408	 0.119668953003843 
1409	 6.37453501889629E-02 
1410	-0.115954121382188 
1411	-0.206922576541771 
1412	-0.336555160265052 
1413	-0.265743857683947 
1414	-0.103092444744258 
1415	-5.06075900453569E-02 
1416	 5.50006273447832E-02 
1417	 0.107651893813618 
1418	 8.50835942053359E-02 
1419	 9.18625408085694E-02 
1420	 0.134317823488992 
1421	 0.117145743805034 
1422	 0.050076565488574 
1423	 4.52165810922734E-02 
1424	 5.37460236228967E-02 
1425	 0.060128251573318 
1426	 9.03616161243784E-02 
1427	 9.75676289219777E-02 
1428	 8.98461650862659E-02 
1429	 8.19323731362779E-02 
1430	 6.40865093253286E-02 
1431	 6.37701688756761E-02 
1432	 0.074171551630855 
1433	 7.66561084110189E-02 
1434	 8.71075961689781E-02 
1435	 9.01861637808354E-02 
1436	 8.05979831256386E-02 
1437	 7.40430841724043E-02 
1438	 7.37142790232652E-02 
1439	 7.83801525656839E-02 
1440	 8.00007501746141E-02 
1441	 7.59320761816736E-02 
1442	 7.18105684086323E-02 
1443	 6.84023026666834E-02 
1444	 7.19838061179296E-02 
1445	 7.89836254655013E-02 
1446	 8.15607424904991E-02 
1447	 7.55146073611363E-02 
1448	 6.93950589734589E-02 
1449	 6.84514365031547E-02 
1450	 6.87518681776846E-02 
1451	 6.92751537233201E-02 
1452	 0.071852589485177 
1453	 7.18430856840433E-02 
1454	 7.00796303063104E-02 
1455	 6.61922019822783E-02 
1456	 6.74892122729569E-02 
1457	 6.95067035454462E-02 
1458	 6.95923025922418E-02 
1459	 0.071102703056332 
1460	 7.25978559867431E-02 
1461	 7.34656021548012E-02 
1462	 7.29890137369594E-02 
1463	 7.21706602425275E-02 
1464	 7.35538049768136E-02 
1465	 7.48240479590434E-02 
1466	 7.46220115077045E-02 
1467	 7.69841812116235E-02 
1468	 7.78069447389487E-02 
1469	 7.32825537437185E-02 
1470	 7.23125913626958E-02 
1471	 7.60176210002512E-02 
1472	 7.57545543076537E-02 
1473	 7.24955256347808E-02 
1474	 7.22558046126224E-02 
1475	 7.28346761688502E-02 
1476	 7.25645604375712E-02 
1477	 7.23852309089309E-02 
1478	 7.37242902758564E-02 
1479	 7.56355570864957E-02 
1480	 0.076125720426591 
1481	 7.78910781810474E-02 
1482	 7.79069523087587E-02 
1483	 7.61012692001913E-02 
1484	 7.43872384096091E-02 
1485	 0.07158002331577 
1486	 7.15828408997063E-02 
1487	 0.072473607155859 
1488	 7.24944454718231E-02 
1489	 7.37665048037724E-02 
1490	 0.074430110064386 
1491	 7.43603761657392E-02 
1492	 7.38738481013716E-02 
1493	 7.30356768476685E-02 
1494	 7.31926499589118E-02 
1495	 7.30369026071706E-02 
1496	 7.32382208319004E-02 
1497	 7.48823506165325E-02 
1498	 7.53547697036693E-02 
1499	 7.44922197972731E-02 
1500	 7.48434667623517E-02 
1501	 7.58781589631068E-02 
1502	 7.63676604335115E-02 
1503	 7.73338839375313E-02 
1504	 7.78394507071901E-02 
1505	 7.79750109366196E-02 
1506	 0.077523318459051 
1507	 7.72461798150701E-02 
1508	 7.77217279201069E-02 
1509	 7.83637203868074E-02 
1510	 7.84802219677692E-02 
1511	 7.86613970720091E-02 
1512	 7.90608450080253E-02 
1513	 7.94386816110499E-02 
1514	 7.96092219831591E-02 
1515	 8.00680658230654E-02 
1516	 8.08054336248674E-02 
1517	 0.080966355904633 
1518	 8.13189114789728E-02 
1519	 8.17191278883886E-02 
1520	 0.081761974567966 
1521	 8.20583961540953E-02 
1522	 8.20089015239042E-02 
1523	 8.20013039517455E-02 
1524	 8.25432892615657E-02 
1525	 8.26731934134768E-02 
1526	 8.26297440018719E-02 
1527	 8.27981854573936E-02 
1528	 8.27512664920627E-02 
1529	 8.30245685229585E-02 
1530	 8.38155028948899E-02 
1531	 8.45785241169113E-02 
1532	 0.084938386214269 
1533	 8.48661568894539E-02 
1534	 0.084995783083432 
1535	 8.52487352679168E-02 
1536	 8.52616584748746E-02 
1537	 8.54011927054156E-02 
1538	 8.56719456974647E-02 
1539	 0.085912592512459 
1540	 8.60012442604692E-02 
1541	 8.61147983723246E-02 
1542	 8.63066931617064E-02 
1543	 8.61355488231502E-02 
1544	 8.62279134900543E-02 
1545	 8.67883862734371E-02 
1546	 8.73848194768897E-02 
1547	 8.82564945991034E-02 
1548	 8.85363560886985E-02 
1549	 8.80364474363869E-02 
1550	 8.79083468306529E-02 
1551	 8.78715680937333E-02 
1552	 8.78939720521413E-02 
1553	 8.83693267133723E-02 
1554	 8.85441857109301E-02 
1555	 8.84174228055519E-02 
1556	 8.85543126442609E-02 
1557	 8.87825991402733E-02 
1558	 8.87941419578352E-02 
1559	 8.86457460091881E-02 
1560	 8.88348689633735E-02 
1561	 8.92656935294577E-02 
1562	 8.95364336356017E-02 
1563	 0.089777056571175 
1564	 9.00711504535226E-02 
1565	 9.01982632030346E-02 
1566	 9.01812182034184E-02 
1567	 9.05342314640128E-02 
1568	 9.10569861028487E-02 
1569	 9.10260592989879E-02 
1570	 9.09516501044706E-02 
1571	 9.16988024798484E-02 
1572	 9.23323157534603E-02 
1573	 9.22476094184977E-02 
1574	 9.24615221052834E-02 
1575	 9.26746969345524E-02 
1576	 9.22384991455268E-02 
1577	 9.20216000483091E-02 
1578	 9.22739407613448E-02 
1579	 9.24908161280581E-02 
1580	 9.27236027462981E-02 
1581	 0.092870576759425 
1582	 0.092808683819877 
1583	 9.29467733266539E-02 
1584	 9.29467270394681E-02 
1585	 9.23881003350869E-02 
1586	 0.092470699274278 
1587	 9.28276317426561E-02 
1588	 0.092399652096385 
1589	 9.30570202765833E-02 
1590	 9.41873804245666E-02 
1591	 9.37484519015559E-02 
1592	 9.33690780567813E-02 
1593	 9.36383981353278E-02 
1594	 9.38915204681783E-02 
1595	 9.42803247035714E-02 
1596	 9.42572329926632E-02 
1597	 9.39422473881508E-02 
1598	 9.37879683478378E-02 
1599	 9.36252034729015E-02 
1600	 9.40720187715047E-02 
1601	 9.47776642525698E-02 
1602	 0.094508281965273 
1603	 0.09409077800523 
1604	 9.44185361888852E-02 
1605	 9.47177789038541E-02 
1606	 9.46499675508779E-02 
1607	 9.47268012828383E-02 
1608	 9.49543316518577E-02 
1609	 9.48769384571124E-02 
1610	 9.46795763954213E-02 
1611	 9.48900156114814E-02 
1612	 9.51889315326663E-02 
1613	 9.53205271300898E-02 
1614	 0.095454852799965 
1615	 9.54440274328258E-02 
1616	 9.47996666585474E-02 
1617	 9.39579889082954E-02 
1618	 9.38226745097517E-02 
1619	 9.41352298593584E-02 
1620	 9.48156191508479E-02 
1621	 9.54870937950289E-02 
1622	 9.56718376492919E-02 
1623	 9.55413101778109E-02 
1624	 9.52466708867647E-02 
1625	 9.53977213755181E-02 
1626	 9.58762464665515E-02 
1627	 9.59576404044314E-02 
1628	 9.60725223708417E-02 
1629	 9.64519674850676E-02 
1630	 9.62269861169357E-02 
1631	 0.095859402264633 
1632	 9.60379364110434E-02 
1633	 0.095736964895309 
1634	 9.53001640298904E-02 
1635	 9.57856017364277E-02 
1636	 9.61904455675181E-02 
1637	 0.09616858628367 
1638	 9.62049620620978E-02 
1639	 9.60790256424466E-02 
1640	 9.61427854739081E-02 
1641	 9.62745501855945E-02 
1642	 9.61635819952399E-02 
1643	 0.095951031422586 
1644	 9.56577550987946E-02 
1645	 9.60696821644407E-02 
1646	 9.69451299168409E-02 
1647	 9.72899959040945E-02 
1648	 9.70683051414529E-02 
1649	 9.63945416125546E-02 
1650	 9.59975506965551E-02 
1651	 9.62292908876473E-02 
1652	 9.61757080022734E-02 
1653	 9.54650680913952E-02 
1654	 9.53445485417476E-02 
1655	 9.53349755511943E-02 
1656	 0.095330007031684 
1657	 9.55148035755683E-02 
1658	 9.56597221605272E-02 
1659	 9.60092524432149E-02 
1660	 9.60539167672275E-02 
1661	 9.58684386323923E-02 
1662	 0.09593298088802 
1663	 9.60280395977547E-02 
1664	 0.095967678212678 
1665	 9.58970702357487E-02 
1666	 9.62675743319537E-02 
1667	 9.65681565794456E-02 
1668	 9.58990819939935E-02 
1669	 0.096757718828936 
1670	 9.75031224165117E-02 
1671	 0.097201302950289 
1672	 9.72313688043809E-02 
1673	 9.70136810260219E-02 
1674	 9.65637836388224E-02 
1675	 9.62360423436769E-02 
1676	 9.60405538724253E-02 
1677	 9.64187752740519E-02 
1678	 9.66891061453746E-02 
1679	 9.65083084640881E-02 
1680	 9.67573298858533E-02 
1681	 9.69102335560668E-02 
1682	 9.62750941509687E-02 
1683	 9.61997554056377E-02 
1684	 9.65336704841134E-02 
1685	 9.64971535317133E-02 
1686	 9.66294154914975E-02 
1687	 9.64253600573338E-02 
1688	 9.60375847618825E-02 
1689	 9.60821567025718E-02 
1690	 9.63051295595405E-02 
1691	 9.64200920017856E-02 
1692	 9.65804236358887E-02 
1693	 9.67775146494232E-02 
1694	 9.64635961994362E-02 
1695	 9.61135597139308E-02 
1696	 9.61398623569724E-02 
1697	 9.60842559784842E-02 
1698	 9.59834355116327E-02 
1699	 0.096536955646262 
1700	 9.69566291930197E-02 
1701	 9.62285773652996E-02 
1702	 9.56509716488997E-02 
1703	 9.56159165664577E-02 
1704	 9.53585242041392E-02 
1705	 9.55917675897005E-02 
1706	 9.62407692984434E-02 
1707	 9.56764774186517E-02 
1708	 9.49339934885867E-02 
1709	 9.51321284600962E-02 
1710	 9.50401255342268E-02 
1711	 9.50075560599066E-02 
1712	 9.54212969511478E-02 
1713	 9.38957594678371E-02 
1714	 9.36639703317067E-02 
1715	 9.49839992591375E-02 
1716	 9.51485230634668E-02 
1717	 9.50375107877414E-02 
1718	 9.57841373877273E-02 
1719	 9.51808054402919E-02 
1720	 9.41814552291365E-02 
1721	 9.53218813630152E-02 
1722	 9.54489397050999E-02 
1723	 9.41574375699994E-02 
1724	 9.47494349761873E-02 
1725	 9.50270446143391E-02 
1726	 9.38906115400849E-02 
1727	 0.094376299949921 
1728	 9.51149513403774E-02 
1729	 9.44517916877307E-02 
1730	 9.43332416102859E-02 
1731	 9.44129444008199E-02 
1732	 9.39650617245642E-02 
1733	 0.093715713124109 
1734	 9.37699115787908E-02 
1735	 9.43845280407012E-02 
1736	 9.46284458815214E-02 
1737	 9.41616616696255E-02 
1738	 9.45838551111255E-02 
1739	 9.48363153584696E-02 
1740	 9.35181243159699E-02 
1741	 9.34839294042017E-02 
1742	 9.43701156218582E-02 
1743	 9.31788220823675E-02 
1744	 9.28238380731417E-02 
1745	 9.33987288536875E-02 
1746	 9.26008478895204E-02 
1747	 0.092387969592935 
1748	 9.29137690070026E-02 
1749	 9.25698333213686E-02 
1750	 9.13840585150206E-02 
1751	 9.12121039935019E-02 
1752	 9.16708974846836E-02 
1753	 9.12317150938093E-02 
1754	 9.05076341431957E-02 
1755	 9.05704205321342E-02 
1756	 0.090684666382574 
1757	 9.05021164938502E-02 
1758	 9.05138145663889E-02 
1759	 0.090788363594624 
1760	 8.98206070345853E-02 
1761	 8.98194534335919E-02 
1762	 9.03785984168295E-02 
1763	 8.95500827684901E-02 
1764	 9.00470571762333E-02 
1765	 9.09502143642383E-02 
1766	 8.96324122183114E-02 
1767	 0.087960855681927 
1768	 8.70526656817567E-02 
1769	 8.78896367727137E-02 
1770	 9.01579560171337E-02 
1771	 9.11068873508983E-02 
1772	 9.07223000392737E-02 
1773	 8.92523230452358E-02 
1774	 8.78060465946371E-02 
1775	 8.89786721101869E-02 
1776	 0.089966737355401 
1777	 9.20319017191022E-02 
1778	 9.17706297516792E-02 
1779	 0.088714470016926 
1780	 8.87051852711681E-02 
1781	 8.88555289663894E-02 
1782	 8.86644450231616E-02 
1783	 0.092644072737105 
1784	 9.32998586669261E-02 
1785	 8.91074078824008E-02 
1786	 8.82373086092142E-02 
1787	 8.76450997378296E-02 
1788	 8.89804006558035E-02 
1789	 9.45388656178046E-02 
1790	 9.48150455158225E-02 
1791	 9.61757543254077E-02 
1792	 9.46309377576798E-02 
1793	 8.84733079344211E-02 
1794	 0.089996973488195 
1795	 0.089986888146115 
1796	 8.88391333643569E-02 
1797	 9.41989021787612E-02 
1798	 9.17538368103745E-02 
1799	 8.94192081153503E-02 
1800	 8.29842623734597E-02 
1801	 7.90675775376933E-02 
1802	 7.69144130879381E-02 
1803	 8.31757160474242E-02 
1804	 0.116611284713674 
1805	 0.135102888389555 
1806	 0.156598057784478 
1807	 0.163263211189735 
1808	 0.101936731472185 
1809	 6.94221356663037E-02 
1810	 3.15072715162211E-02 
1811	 3.03085041438824E-02 
1812	 0.180534798766872 
1813	 0.170400885386623 
1814	 2.58736965334182E-02 
1815	-3.77505490197608E-02 
1816	-0.637822421860644 
1817	-0.148725982309588 
1818	 1.07833407716913 
1819	 0.267119920133691 
1820	 0.231772344455167 
1821	-7.81940509869757E-02 
1822	-0.254057789176533 
1823	 6.17371854016694E-02 
1824	 0.541662310173683 
1825	 0.796191225238716 
1826	 0.74736150421059 
1827	 0.522182033017026 
1828	 0.518419732212039 
1829	-0.258406390735967 
1830	-1.23504737795261 
1831	 0.295470294248882 
1832	 4.62325226410285E-02 
1833	 0.308576388386316 
1834	 0.343110048689263 
1835	 1.31645646111752 
1836	 1.83664754829643 
1837	 0.906187538735955 
1838	 1.10862261180478 
1839	 2.59994568308205 
1840	 1.36574690313619 
1841	 2.11308720283739 
1842	-3.35119219236789 
1843	-0.410136301208118 
1844	-0.18758983951145 
1845	-0.247284600699503 
1846	-0.364846388185705 
1847	-0.621449033648087 
1848	-3.9475803180887 
1849	 5.47870624093787 
1850	 3.64278648161035 
1851	-0.64300759896024 
1852	-29.5209158810498 
1853	-19.1169397933969 
1854	-5.13914046062819 
1855	-1.92832930484276E-02 
1856	 0.183256500719554 
1857	-0.502505754708259 
1858	-0.960076524220561 
1859	-4.08729962214739 
1860	 0.213004110681173 
1861	-0.953787918618046 
1862	-1.13833499733206 
1863	-1.45635022288355 
1864	-0.301671107678368 
1865	-0.527748638104664 
1866	-5.73836028630291 
1867	 4.09996325372476 
1868	 1.34341871384702 
1869	 0.631427404824973 
1870	 8.99280257252326E-02 
1871	-0.570468750411543 
1872	-0.582599784333615 
1873	-0.346104985771681 
1874	-0.24056965796566 
1875	-0.275863562096338 
1876	-0.370293490694564 
1877	-0.364053313704033 
1878	-0.429699012854913 
1879	-5.76434861503534 
1880	 3.71811315136353 
1881	 1.18241750776669 
1882	 0.389145284454436 
1883	 1.68718170654039 
1884	 4.03156354082935 
1885	-0.785496001082755 
1886	-1.07332924694379 
1887	-1.86762191285982 
1888	-5.25280101641747 
1889	-6.39250986016704 
1890	-3.43893705781557 
1891	-4.98647592483799 
1892	-3.0992433963257 
1893	-14.3710681115726 
1894	 5.69089275519906 
1895	 4.66880228000774 
1896	 25.1023477503526 
1897	-2.02483037595481 
1898	-1.6700803293974 
1899	-2.22269621330111 
1900	-2.30103556617055 
1901	-1.61324764835354 
1902	-1.37522281863922 
1903	-1.06475733573027 
1904	-1.59925611495606 
1905	 4.68291056140589E-02 
1906	-0.418653103418541 
1907	-0.915654371896444 
1908	-7.89652210084454 
1909	 3.02543934169155 
1910	 1.04143967873326 
1911	 0.897710282954044 
1912	 1.48027669888645 
1913	 1.77953943689269 
1914	 1.24718531428391 
1915	 1.47717352163055 
1916	-10.0053144814613 
1917	-0.207055195655503 
1918	 4.96590022306567E-03 
1919	-0.163551065812307 
1920	-0.411725645456557 
1921	-0.640248779906471 
1922	-2.47697513443118 
1923	-23.7404654005547 
1924	-2.15913698430386 
1925	-0.416294050315103 
1926	 0.284860016440279 
1927	 1.26491605938981 
1928	 2.9351054509952 
1929	 3.56995950658454 
1930	 1.9386232041635 
1931	 1.26692220681008 
1932	 0.964950470449944 
1933	 0.360416173150885 
1934	 4.26845635878331E-02 
1935	 2.74215681787177E-02 
1936	-0.243609282130537 
1937	-0.421119950009662 
1938	-0.339634883939327 
1939	-0.282130860076893 
1940	-0.221091557001266 
1941	-0.177085386795387 
1942	-0.125653157073304 
1943	-2.61563352471209E-02 
1944	 8.75280171230715E-02 
1945	 0.102177576632771 
1946	 0.102973074293102 
1947	 6.34290396014252E-02 
1948	-3.67926960483361E-02 
1949	-9.43995370089903E-02 
1950	-7.27223226572459E-02 
1951	-1.62014016729791E-02 
1952	-1.18561058265059E-02 
1953	-2.33163236579704E-02 
1954	-6.19892990059389E-02 
1955	-7.11991643011758E-02 
1956	-3.63423093452835E-02 
1957	 1.11818081215903E-02 
1958	 6.44331628184872E-02 
1959	 0.11189755714511 
1960	 0.108059075339412 
1961	 0.095284390623366 
1962	 8.01847462710893E-02 
1963	 5.55061772576159E-02 
1964	 4.53048631952739E-02 
1965	 3.38277232918461E-02 
1966	 0.02670325288279 
1967	 2.19040984384439E-02 
1968	 2.74070087081858E-02 
1969	 3.37082681534128E-02 
1970	 3.57812895196452E-02 
1971	 3.68376545947142E-02 
1972	 3.95104523112252E-02 
1973	 3.72661551404972E-02 
1974	 3.49969876601779E-02 
1975	 3.77576193575129E-02 
1976	 4.00398530002313E-02 
1977	 4.14137756768346E-02 
1978	 0.039354687928756 
1979	 3.88936535313039E-02 
1980	 3.85607063650583E-02 
1981	 4.09021365246603E-02 
1982	 3.99966311661007E-02 
1983	 4.00407957710862E-02 
1984	 4.17280064834355E-02 
1985	 3.83781809684412E-02 
1986	 3.54745841310372E-02 
1987	 3.77087374060296E-02 
1988	 0.038876142318004 
1989	 3.59103235769524E-02 
1990	 3.43841216374916E-02 
1991	 3.55856443631714E-02 
1992	 3.75636987508292E-02 
1993	 4.22287357809732E-02 
1994	 4.44667321083709E-02 
1995	 4.78124378101481E-02 
1996	 4.56496433285693E-02 
1997	 4.32704322832244E-02 
1998	 4.11138298286317E-02 
1999	 3.79667992655863E-02 
2000	 3.75446432061933E-02 
2001	 2.90656949011039E-02 
2002	 1.71043980789225E-02 
2003	 1.90280876678522E-02 
2004	 2.26106511388978E-02 
2005	 2.50806748503584E-02 
2006	 3.08020513041221E-02 
2007	 4.05087784224765E-02 
2008	 4.66115764413131E-02 
2009	 0.048910692117642 
2010	 5.47579241542034E-02 
2011	 5.97060084589738E-02 
2012	 6.27073955578008E-02 
2013	 5.31906099966593E-02 
2014	 4.61097484806231E-02 
2015	 4.58841201666352E-02 
2016	 4.50662217486725E-02 
2017	 4.77205625089223E-02 
2018	 5.39427067922598E-02 
2019	 5.63564131139427E-02 
2020	 5.25475514550764E-02 
2021	 0.051514756468731 
2022	 5.52846387216571E-02 
2023	 5.39521338629716E-02 
2024	 0.052187118879161 
2025	 4.96169297616097E-02 
2026	 0.048148326294269 
2027	 4.40471827358134E-02 
2028	 4.49691255675414E-02 
2029	 4.87264293789358E-02 
2030	 4.88287451398727E-02 
2031	 5.03997781522247E-02 
2032	 5.09565953321658E-02 
2033	 4.89370307178539E-02 
2034	 4.81404805552391E-02 
2035	 4.71971633010089E-02 
2036	 4.63649906149247E-02 
2037	 4.60025168414187E-02 
2038	 4.66278847296261E-02 
2039	 4.74710098464431E-02 
2040	 4.95612019697195E-02 
2041	 4.98936732124644E-02 
2042	 4.87048761013535E-02 
2043	 4.90984110177094E-02 
2044	 4.93362916089584E-02 
2045	 4.99553026510187E-02 
2046	 5.22076145243572E-02 
2047	 5.59456865615375E-02 
2048	 5.74788358837787E-02 
2049	 5.64877864106374E-02 
2050	 0.054018699705365 
2051	 5.44769244727623E-02 
2052	 5.46970599370882E-02 
2053	 5.39617130407669E-02 
2054	 5.69338294456932E-02 
2055	 5.69741019629919E-02 
2056	 5.69221021713262E-02 
2057	 5.57808110755332E-02 
2058	 5.65828364541912E-02 
2059	 5.89454601372842E-02 
2060	 5.87307146218946E-02 
2061	 5.78704188223366E-02 
2062	 5.80208372868804E-02 
2063	 5.55378179311011E-02 
2064	 5.29640427942699E-02 
2065	 5.22715963133617E-02 
2066	 5.25965014595761E-02 
2067	 5.39666796160226E-02 
2068	 5.57900475608973E-02 
2069	 0.057261357823735 
2070	 5.69020593482849E-02 
2071	 5.52883597335875E-02 
2072	 5.39884779474551E-02 
2073	 5.33623103926775E-02 
2074	 5.24559583783575E-02 
2075	 5.37801559488084E-02 
2076	 5.80735273950568E-02 
2077	 5.84344405277141E-02 
2078	 5.75808965763224E-02 
2079	 5.72709943745521E-02 
2080	 5.52976894633268E-02 
2081	 5.35352667034745E-02 
2082	 5.47899123155229E-02 
2083	 5.70298810455171E-02 
2084	 5.97125298307387E-02 
2085	 0.062897517350252 
2086	 6.32122573149103E-02 
2087	 6.45048411432798E-02 
2088	 6.55480964324379E-02 
2089	 6.39343344121507E-02 
2090	 0.063420074136709 
2091	 6.26681774124303E-02 
2092	 6.14081921232271E-02 
2093	 5.86192940676451E-02 
2094	 5.85543824226387E-02 
2095	 5.95558740863394E-02 
2096	 5.96518168721933E-02 
2097	 6.10154480847438E-02 
2098	 6.14676777388922E-02 
2099	 6.07889614462334E-02 
2100	 0.060756474855252 
2101	 6.07992805179447E-02 
2102	 5.91687172003398E-02 
2103	 5.66130594579532E-02 
2104	 5.63689466099251E-02 
2105	 5.65399162262566E-02 
2106	 5.69821037329617E-02 
2107	 5.81122027112925E-02 
2108	 5.84020354182573E-02 
2109	 6.06447127089563E-02 
2110	 6.18870222348564E-02 
2111	 6.28461998980533E-02 
2112	 0.063631821382441 
2113	 6.32432097991866E-02 
2114	 6.11748219210107E-02 
2115	 6.12408248588824E-02 
2116	 6.11476231213839E-02 
2117	 6.08206946425507E-02 
2118	 6.09259840764399E-02 
2119	 6.12616097441604E-02 
2120	 6.14296585549438E-02 
2121	 6.23219004500222E-02 
2122	 6.21429418015434E-02 
2123	 6.16633339971989E-02 
2124	 6.03360196075267E-02 
2125	 5.95866797786683E-02 
2126	 6.13406447661451E-02 
2127	 6.37723189605664E-02 
2128	 6.36114061284618E-02 
2129	 0.064105789824734 
2130	 6.58759463033019E-02 
2131	 6.48819555390348E-02 
2132	 6.35803097160124E-02 
2133	 6.32844248282888E-02 
2134	 0.064181319801815 
2135	 6.58643457966616E-02 
2136	 6.65742943014234E-02 
2137	 6.92662558385455E-02 
2138	 6.92096391002547E-02 
2139	 6.55777743778389E-02 
2140	 6.46046061770103E-02 
2141	 6.43522653828391E-02 
2142	 6.40877276104177E-02 
2143	 6.43708332140331E-02 
2144	 6.50239024371288E-02 
2145	 6.62463660367173E-02 
2146	 6.63169661577717E-02 
2147	 6.76454023314482E-02 
2148	 0.069431737105713 
2149	 6.89823616739916E-02 
2150	 6.87485614613283E-02 
2151	 6.86288635901791E-02 
2152	 6.66619973988606E-02 
2153	 6.39095962942942E-02 
2154	 6.34260776319625E-02 
2155	 6.52909553539923E-02 
2156	 0.067497880746419 
2157	 6.83288017141735E-02 
2158	 7.05597231237778E-02 
2159	 7.05483597596677E-02 
2160	 6.74434256370081E-02 
2161	 6.60061281155595E-02 
2162	 6.39944504326066E-02 
2163	 0.064144126008366 
2164	 6.57527742176632E-02 
2165	 6.63488463685907E-02 
2166	 6.92964425937828E-02 
2167	 6.98329234665414E-02 
2168	 0.068638251664112 
2169	 6.72097777711099E-02 
2170	 6.43127403039342E-02 
2171	 6.18711884783175E-02 
2172	 6.02584960446773E-02 
2173	 0.058230728345738 
2174	 6.10068405226277E-02 
2175	 0.063504691613891 
2176	 6.25652161134281E-02 
2177	 6.35032706345394E-02 
2178	 6.48161082515651E-02 
2179	 6.52507426983329E-02 
2180	 6.75398925464386E-02 
2181	 6.97933304222549E-02 
2182	 0.070334505046749 
2183	 6.96899489984937E-02 
2184	 0.068478537370174 
2185	 6.98066482701752E-02 
2186	 0.06933570086884 
2187	 6.63884421130286E-02 
2188	 0.065783895589034 
2189	 6.55149592710592E-02 
2190	 6.55626764943996E-02 
2191	 6.64104362435783E-02 
2192	 6.85658709359243E-02 
2193	 7.40941230939229E-02 
2194	 7.51849707758968E-02 
2195	 7.54286726245267E-02 
2196	 7.49531587223222E-02 
2197	 6.95906060159493E-02 
2198	 6.71695656280236E-02 
2199	 6.61960513837573E-02 
2200	 0.065317756500296 
2201	 6.43973687473389E-02 
2202	 6.37611179774586E-02 
2203	 6.44860132059557E-02 
2204	 6.25173183977829E-02 
2205	 6.33906058141143E-02 
2206	 6.51309098126252E-02 
2207	 6.42728757996664E-02 
2208	 6.85258085122109E-02 
2209	 7.07325302654019E-02 
2210	 6.93174367872705E-02 
2211	 7.13299133511602E-02 
2212	 7.27116900444804E-02 
2213	 6.72393838675016E-02 
2214	 6.39263968412128E-02 
2215	 6.68435735138369E-02 
2216	 0.064748519218619 
2217	 6.28282188501871E-02 
2218	 6.31132511898332E-02 
2219	 0.065007012021549 
2220	 6.47287998420863E-02 
2221	 6.52228293414376E-02 
2222	 7.19323623774865E-02 
2223	 7.27043763867807E-02 
2224	 6.74536500066965E-02 
2225	 6.54943689729447E-02 
2226	 6.46808498491394E-02 
2227	 6.18900681984293E-02 
2228	 5.76756925338491E-02 
2229	 5.41559364043335E-02 
2230	 4.65256178922962E-02 
2231	 4.58753386445018E-02 
2232	 5.15232595724725E-02 
2233	 5.36947215448537E-02 
2234	 5.74078644661172E-02 
2235	 6.37553776588619E-02 
2236	 6.36889879826633E-02 
2237	 6.16406826597053E-02 
2238	 6.58347160813978E-02 
2239	 6.93088477231176E-02 
2240	 0.071734169767721 
2241	 7.56184700442176E-02 
2242	 7.33558331310009E-02 
2243	 6.99217667316322E-02 
2244	 6.83597809891089E-02 
2245	 0.065361577545962 
2246	 6.37995775435865E-02 
2247	 6.27203669848381E-02 
2248	 6.28065378616903E-02 
2249	 6.42939484328851E-02 
2250	 6.67301653452977E-02 
2251	 6.92641359009623E-02 
2252	 7.16557278215285E-02 
2253	 7.21008654842962E-02 
2254	 7.03479000331801E-02 
2255	 6.65120324229731E-02 
2256	 5.58813141242171E-02 
2257	 5.35240457891208E-02 
2258	 5.87361622826279E-02 
2259	 5.71540715353463E-02 
2260	 5.84634813129465E-02 
2261	 6.50319271164264E-02 
2262	 6.45994085160898E-02 
2263	 5.91195143647247E-02 
2264	 5.94412445735372E-02 
2265	 6.11774712786045E-02 
2266	 6.12482083212119E-02 
2267	 6.23607575403032E-02 
2268	 6.37412817101383E-02 
2269	 6.33169579953855E-02 
2270	 6.47636732796074E-02 
2271	 6.84108954615631E-02 
2272	 6.84820480809633E-02 
2273	 6.81640673287937E-02 
2274	 6.67387050379294E-02 
2275	 6.31340438517837E-02 
2276	 6.13948567250684E-02 
2277	 5.65276753568541E-02 
2278	 5.71629935755904E-02 
2279	 6.30943883191958E-02 
2280	 6.46393097310689E-02 
2281	 6.82027210754889E-02 
2282	 7.14510843460529E-02 
2283	 6.69341749999695E-02 
2284	 6.71754153195898E-02 
2285	 6.93025595930871E-02 
2286	 6.75600052024696E-02 
2287	 0.065632128395158 
2288	 6.45181420243083E-02 
2289	 5.96001858719473E-02 
2290	 5.30400891556057E-02 
2291	 5.14538794429628E-02 
2292	 0.051149365640506 
2293	 4.69609125313823E-02 
2294	 4.93396308810507E-02 
2295	 5.77396432189097E-02 
2296	 5.94870431625765E-02 
2297	 5.56598317854597E-02 
2298	 5.57888250624878E-02 
2299	 5.81266700196549E-02 
2300	 5.14459574847812E-02 
2301	 5.98296761672155E-02 
2302	 7.31553207951729E-02 
2303	 6.82382198249804E-02 
2304	 0.063295715566071 
2305	 5.70897561907867E-02 
2306	 5.31544471072817E-02 
2307	 4.83364605004505E-02 
2308	 4.26393869490268E-02 
2309	 0.046386295287895 
2310	 4.56809333628852E-02 
2311	 0.049312237507881 
2312	 6.38776699613076E-02 
2313	 6.18153516077672E-02 
2314	 6.44869827199333E-02 
2315	 7.59943677041615E-02 
2316	 7.20634912759769E-02 
2317	 7.17460022490224E-02 
2318	 6.85780344260717E-02 
2319	 5.51197603509691E-02 
2320	 3.95836302067982E-02 
2321	 3.67378022577104E-02 
2322	 3.93543084929134E-02 
2323	 3.56029706946365E-02 
2324	 4.50780964804584E-02 
2325	 5.24400998494925E-02 
2326	 4.28890793511785E-02 
2327	 4.91365428484711E-02 
2328	 6.35456257135768E-02 
2329	 6.27980887681859E-02 
2330	 7.28101911303743E-02 
2331	 0.07845403795282 
2332	 6.47004217703115E-02 
2333	 5.54908148941933E-02 
2334	 4.89274867951311E-02 
2335	 4.93270411144978E-02 
2336	 0.063538049634205 
2337	 6.83880899249979E-02 
2338	 6.15668096997405E-02 
2339	 6.09060573445058E-02 
2340	 4.94759406957079E-02 
2341	 3.73030826891578E-02 
2342	 5.16370045750199E-02 
2343	 6.64218444945413E-02 
2344	 0.065469575700347 
2345	 7.67830109156532E-02 
2346	 9.78609159232313E-02 
2347	 9.76747664728762E-02 
2348	 8.84104217327654E-02 
2349	 0.076083726568898 
2350	 6.74851824255766E-02 
2351	 7.56758455803088E-02 
2352	 6.91305901329617E-02 
2353	 6.37797066212425E-02 
2354	 7.22624156936841E-02 
2355	 4.33777850483844E-02 
2356	 2.01831051736959E-02 
2357	 3.23688931649495E-02 
2358	 2.73937623412747E-02 
2359	 3.33829977345264E-02 
2360	 5.79602847903966E-02 
2361	 6.27985113602454E-02 
2362	 4.80441846472484E-02 
2363	 1.00397642043559E-02 
2364	-3.80127333423812E-02 
2365	-5.81517109551167E-02 
2366	-4.87219648480599E-02 
2367	-1.20336184916554E-02 
2368	 5.09736609442683E-02 
2369	 6.89338972414475E-02 
2370	 7.04469042166376E-02 
2371	 0.104993798233277 
2372	 0.101963138610397 
2373	 0.105602713772947 
2374	 0.11298903057887 
2375	 7.35799386758054E-02 
2376	 6.75113193707343E-02 
2377	 6.70335558812333E-02 
2378	 0.027105443942694 
2379	-2.89158171737357E-02 
2380	-7.90749993237488E-02 
2381	-0.095881719582408 
2382	-0.064811720430472 
2383	 0.011271956956785 
2384	 4.00608797887689E-02 
2385	-3.14157804372735E-02 
2386	-9.01541282070981E-02 
2387	-0.106192263398191 
2388	-8.35346885172753E-02 
2389	-0.101414336686556 
2390	-0.134417688012468 
2391	-0.102331905883868 
2392	-0.100570608007744 
2393	-0.038228912963528 
2394	 0.110567723012093 
2395	 7.14789989681845E-02 
2396	-1.63979510373611E-02 
2397	-1.57125736516653E-02 
2398	-0.063854028519918 
2399	-7.12131003516571E-02 
2400	 2.88730189420006E-02 
2401	 0.141313273331331 
2402	 0.185908022825473 
2403	 0.186862843703544 
2404	 0.210538314135522 
2405	 0.217114982855129 
2406	 0.240402797665603 
2407	 0.317266997049938 
2408	 0.486526251616659 
2409	 0.504893228888132 
2410	 0.271159066812578 
2411	 8.01005871051326E-02 
2412	-9.90244984742609E-02 
2413	-0.264268084685984 
2414	-0.285413596384052 
2415	-0.168926069364848 
2416	-9.58703018709044E-02 
2417	-8.15499475355537E-02 
2418	-0.236608584197067 
2419	-0.308883861662993 
2420	-0.187746536987484 
2421	-8.12465681417168E-02 
2422	 5.13592105748371E-02 
2423	 0.202504843079141 
2424	 0.075568966662423 
2425	-0.373693701633178 
2426	-0.951697904736854 
2427	-0.954924959167009 
2428	-0.642270026250508 
2429	-0.133928396555716 
2430	 0.158699526413017 
2431	 0.327671499312495 
2432	 0.322998334583668 
2433	 0.032091928220292 
2434	-0.165018688422723 
2435	-0.373287058606977 
2436	-0.564098522271062 
2437	-0.589516084419884 
2438	-0.855351379193712 
2439	-1.02481446490483 
2440	-0.700293094122027 
2441	-0.491383427390808 
2442	-0.478464774892131 
2443	-0.218636902613851 
2444	-0.131282112882441 
2445	-0.40325265736137 
2446	-0.717890819710445 
2447	-0.786785372620766 
2448	-0.864791898502469 
2449	-0.600053083026785 
2450	-0.759079030299622 
2451	-5.20536126643327 
2452	 53.2842139813078 
2453	-3.02371852264069 
2454	-1.96556188522902 
2455	-0.573629799342102 
2456	-0.188824050899122 
2457	-1.12350403586883 
2458	-9.83859561305081 
2459	-4.92396721188907 
2460	 2.14612981273208E-02 
2461	 6.05330360133231 
2462	-2.9876060350716 
2463	-2.81862148952344 
2464	-1.55842742745165 
2465	-1.66434052808471 
2466	-2.84721421148973 
2467	-14.5304798479742 
2468	-42.0238063242142 
2469	-1.8217611065608 
2470	-2.69225748782296 
2471	-5.38501435106772 
2472	 0.22504840456457 
2473	-0.354472647131069 
2474	-7.07277066076697E-02 
2475	-0.668535691846591 
2476	 0.163312298380036 
2477	 0.81423362544703 
2478	-2.04618075373458 
2479	-0.579975956056881 
2480	-0.326702847406623 
2481	-0.659195702092372 
2482	-1.02058986009642 
2483	-0.163190492674738 
2484	 0.538140832813122 
2485	 2.61117145115781 
2486	 0.996550830371356 
2487	 2.67175150557783 
2488	 17.9953028427326 
2489	 7.01025025156758 
2490	 30.1334984118428 
2491	-1.39286170710865 
2492	-1.33990847176904 
2493	-0.673864944708618 
2494	-5.28238349753282E-02 
2495	 0.222768292080566 
2496	 0.148532957964132 
2497	-0.393640931762659 
2498	 0.37339021190549 
2499	-2.11714898202184E-02 
2500	 0.383552960550363 
