Wavelength	rt0714yellow300009.asd
350	 8.08789449411233E-02 
351	 0.07979049812913 
352	 7.89662524617618E-02 
353	 0.079171149704548 
354	 8.00830222344229E-02 
355	 7.96548668799644E-02 
356	 7.88178388256687E-02 
357	 7.86737495932752E-02 
358	 7.96678105352701E-02 
359	 7.93461465363443E-02 
360	 7.90881401509663E-02 
361	 7.90490168279468E-02 
362	 0.078573423240243 
363	 7.85850108541745E-02 
364	 7.91469337310313E-02 
365	 7.96653511371758E-02 
366	 7.87410082849544E-02 
367	 7.84196304681518E-02 
368	 7.88314825321891E-02 
369	 7.94537655280388E-02 
370	 7.95579200772309E-02 
371	 7.92831351256463E-02 
372	 7.91715935326122E-02 
373	 7.97790274234997E-02 
374	 0.079654400925863 
375	 7.96509077432774E-02 
376	 8.02065610502583E-02 
377	 8.08529043445214E-02 
378	 8.09525613678523E-02 
379	 0.080859062786391 
380	 8.10250912835807E-02 
381	 8.13014318951094E-02 
382	 8.21148559336022E-02 
383	 8.28093533337947E-02 
384	 0.082555399600331 
385	 8.32329331389418E-02 
386	 8.31804294342273E-02 
387	 8.26826509699923E-02 
388	 8.43056149675379E-02 
389	 8.51080582339959E-02 
390	 8.53489631870847E-02 
391	 8.57329725802475E-02 
392	 8.64339920702298E-02 
393	 8.67287999567349E-02 
394	 8.68552738959712E-02 
395	 8.73009196147937E-02 
396	 8.78087395885159E-02 
397	 8.79566437365717E-02 
398	 8.79068853848023E-02 
399	 8.82697907195192E-02 
400	 8.85663623661742E-02 
401	 8.88120556167888E-02 
402	 8.91385057042908E-02 
403	 8.98171364528867E-02 
404	 9.00816299390042E-02 
405	 9.00845857410047E-02 
406	 9.03123832060541E-02 
407	 9.09342024038289E-02 
408	 9.15345563852412E-02 
409	 9.19134538104683E-02 
410	 9.21369973062677E-02 
411	 9.25618155853931E-02 
412	 9.29472100290274E-02 
413	 9.32067777583282E-02 
414	 0.093930179847515 
415	 9.44995766208678E-02 
416	 9.48813333861468E-02 
417	 9.52875191888772E-02 
418	 9.57921668368502E-02 
419	 9.64412624418238E-02 
420	 9.71599597013177E-02 
421	 9.77618741347304E-02 
422	 9.83091354844862E-02 
423	 9.88578069175707E-02 
424	 9.94687849795374E-02 
425	 0.100229977477176 
426	 0.100896806700324 
427	 0.101665942455493 
428	 0.102821143177648 
429	 0.103664850173818 
430	 0.104515776209248 
431	 0.105501014102685 
432	 0.106416938882186 
433	 0.107118138201998 
434	 0.107836823989752 
435	 0.108749038939809 
436	 0.109603432866205 
437	 0.110520893178777 
438	 0.1115002084236 
439	 0.112468061767615 
440	 0.113408160436876 
441	 0.11422470455282 
442	 0.114918829145239 
443	 0.115634664620949 
444	 0.11647012185036 
445	 0.117225312211883 
446	 0.117770629031257 
447	 0.11861276323912 
448	 0.119279360784593 
449	 0.119757297949976 
450	 0.120364459394955 
451	 0.120830626344696 
452	 0.121278184104229 
453	 0.121809945883697 
454	 0.122392486639783 
455	 0.122803554944812 
456	 0.123097829165552 
457	 0.123418268629954 
458	 0.123729749193558 
459	 0.124044843971212 
460	 0.124419053757178 
461	 0.124925480265102 
462	 0.125050115999732 
463	 0.125243736599357 
464	 0.12580805021857 
465	 0.126097798114906 
466	 0.126329914071906 
467	 0.126615455708414 
468	 0.127005696852063 
469	 0.127429765899888 
470	 0.127725104803435 
471	 0.12791606759928 
472	 0.128276822985031 
473	 0.128702120235693 
474	 0.129159041822871 
475	 0.129613922338525 
476	 0.129968325347668 
477	 0.130386855358591 
478	 0.130887082713636 
479	 0.131385869672252 
480	 0.131915968969338 
481	 0.132374274295043 
482	 0.132795323507573 
483	 0.133539226224807 
484	 0.134128636851254 
485	 0.134703893427322 
486	 0.135524809013665 
487	 0.136187749311065 
488	 0.13674128397766 
489	 0.137365700794629 
490	 0.138312494667815 
491	 0.139065117846013 
492	 0.139767719503111 
493	 0.14058844677269 
494	 0.141407996261343 
495	 0.142179105400623 
496	 0.14299717558327 
497	 0.143986621769465 
498	 0.144809831739652 
499	 0.145615240823671 
500	 0.146516349968324 
501	 0.147493995167586 
502	 0.148498507388442 
503	 0.149487191720305 
504	 0.150429224400165 
505	 0.151291937607079 
506	 0.152227661404432 
507	 0.153274819824216 
508	 0.154366531140003 
509	 0.15536465771949 
510	 0.156398103970639 
511	 0.157532030277075 
512	 0.158606450434373 
513	 0.15947652387804 
514	 0.160348319489332 
515	 0.161534992676274 
516	 0.162864334360675 
517	 0.164123816418702 
518	 0.165247734219206 
519	 0.166363070302744 
520	 0.167379152286693 
521	 0.168422788515991 
522	 0.169588986178461 
523	 0.170687433646462 
524	 0.171743457816841 
525	 0.172822329050776 
526	 0.174012886875166 
527	 0.175281064279889 
528	 0.17648432291376 
529	 0.177555733141099 
530	 0.178587368277327 
531	 0.179690959492989 
532	 0.180839057921463 
533	 0.181956027140391 
534	 0.183100007040541 
535	 0.184147938758323 
536	 0.185145287675306 
537	 0.186325674171099 
538	 0.187495685125699 
539	 0.188622125048292 
540	 0.189691033595874 
541	 0.190599730216262 
542	 0.191620149201678 
543	 0.192741636816346 
544	 0.193783419170808 
545	 0.194760176890402 
546	 0.195739173007104 
547	 0.196726246056603 
548	 0.19758617425857 
549	 0.198507431791685 
550	 0.199529274530292 
551	 0.200588500430346 
552	 0.201385515935511 
553	 0.20218371533641 
554	 0.203064110780309 
555	 0.203861385328082 
556	 0.204661834260295 
557	 0.205502921175954 
558	 0.206367455799609 
559	 0.20715189955008 
560	 0.207771828181677 
561	 0.208298611899955 
562	 0.208897707933863 
563	 0.209547202054106 
564	 0.210146236269819 
565	 0.210644125449165 
566	 0.211107475914171 
567	 0.211578023723485 
568	 0.21203663154275 
569	 0.212447000513204 
570	 0.212844668147668 
571	 0.213231423370673 
572	 0.213622659809729 
573	 0.214046995259934 
574	 0.214402830196611 
575	 0.214655615785051 
576	 0.214855813575049 
577	 0.215287503126327 
578	 0.215560752294307 
579	 0.215673019612869 
580	 0.21584855142717 
581	 0.21592077666416 
582	 0.216036332480189 
583	 0.216228862026513 
584	 0.216272812455278 
585	 0.216087127714472 
586	 0.215812433051051 
587	 0.215632471792595 
588	 0.215388586463328 
589	 0.215220633341081 
590	 0.215118296848193 
591	 0.214895226362662 
592	 0.214717288269175 
593	 0.214469757262737 
594	 0.214080974897934 
595	 0.213774869514067 
596	 0.213364191496868 
597	 0.212790730573653 
598	 0.212110870244562 
599	 0.211638165893531 
600	 0.211315414902231 
601	 0.21104593925916 
602	 0.210752095865399 
603	 0.210564636487777 
604	 0.210357183817475 
605	 0.210029959303609 
606	 0.210065598381981 
607	 0.210001944487904 
608	 0.209787602711935 
609	 0.209825877630909 
610	 0.20980682573538 
611	 0.209752243122563 
612	 0.209712605739784 
613	 0.209615438848564 
614	 0.209498968162534 
615	 0.209404805633869 
616	 0.209363832565239 
617	 0.209271372277883 
618	 0.209238943078942 
619	 0.209257499440092 
620	 0.209077632810762 
621	 0.20909407960386 
622	 0.209160839894666 
623	 0.209023350065627 
624	 0.20881346591817 
625	 0.208719630129451 
626	 0.208712615280878 
627	 0.208564745136598 
628	 0.208419597554724 
629	 0.208306530870882 
630	 0.208257555543155 
631	 0.208407692617599 
632	 0.208367890867014 
633	 0.208163061423276 
634	 0.208023126164025 
635	 0.208000469708806 
636	 0.208020010074489 
637	 0.207998236178642 
638	 0.20786320499217 
639	 0.207641227072379 
640	 0.207442696991593 
641	 0.207355666848266 
642	 0.20729479219007 
643	 0.207004431577195 
644	 0.20658264115965 
645	 0.206395679541381 
646	 0.206079673078438 
647	 0.205831527381181 
648	 0.205755445632932 
649	 0.205520273244608 
650	 0.205160046748274 
651	 0.204792230974828 
652	 0.204543859186471 
653	 0.204247766249848 
654	 0.203824377627183 
655	 0.203261268599692 
656	 0.202709051140518 
657	 0.202360893249379 
658	 0.20200034980951 
659	 0.201456167684847 
660	 0.200965327428118 
661	 0.200610380365072 
662	 0.200292318312977 
663	 0.199846392114248 
664	 0.199684614674334 
665	 0.199537250769592 
666	 0.199215974795372 
667	 0.198818206090061 
668	 0.198656769028879 
669	 0.198592890880912 
670	 0.198413155391877 
671	 0.198409087674521 
672	 0.198334386061342 
673	 0.198154923607902 
674	 0.198052375391381 
675	 0.197982952862658 
676	 0.198032167747318 
677	 0.198191983815063 
678	 0.198160721629537 
679	 0.198209758361093 
680	 0.19840486658444 
681	 0.19866588586821 
682	 0.198606923298836 
683	 0.198711992693526 
684	 0.198996250044206 
685	 0.198748539845933 
686	 0.198736532645776 
687	 0.198914732680206 
688	 0.199033388667185 
689	 0.199275600650155 
690	 0.199391074279858 
691	 0.199332134147291 
692	 0.199190878629964 
693	 0.199209193182776 
694	 0.199250835299712 
695	 0.199174506946342 
696	 0.198920603469542 
697	 0.198798539072871 
698	 0.198543114348731 
699	 0.197883278459603 
700	 0.197409632308184 
701	 0.196954943188676 
702	 0.196533035081476 
703	 0.196266793278328 
704	 0.195563104752793 
705	 0.194716262422419 
706	 0.193982856574209 
707	 0.193189368381748 
708	 0.192233895758341 
709	 0.191266770922634 
710	 0.190423927355883 
711	 0.189188970193895 
712	 0.187769187197944 
713	 0.18632243052278 
714	 0.184861450467567 
715	 0.183120358094509 
716	 0.181315944148765 
717	 0.179780661503798 
718	 0.177911374755289 
719	 0.176180691308384 
720	 0.17479707868391 
721	 0.173466242252309 
722	 0.171970544707604 
723	 0.170317288905013 
724	 0.168643169647622 
725	 0.166742950672871 
726	 0.164994980553525 
727	 0.163207509983512 
728	 0.16120280160235 
729	 0.159097971726423 
730	 0.157158464549859 
731	 0.155494104235533 
732	 0.15399164971672 
733	 0.15245255503478 
734	 0.151108848798311 
735	 0.150079077631399 
736	 0.149273291564114 
737	 0.148662573163642 
738	 0.148216246038743 
739	 0.147881392759446 
740	 0.147467664012058 
741	 0.147362598353099 
742	 0.147438918233151 
743	 0.147321752311537 
744	 0.147080567619151 
745	 0.14697861576494 
746	 0.146976296369777 
747	 0.146604408069404 
748	 0.146655990493271 
749	 0.146753835975781 
750	 0.146496635263704 
751	 0.146425776808761 
752	 0.146440223932284 
753	 0.146417355223666 
754	 0.146266284072257 
755	 0.146309917380942 
756	 0.14618813011829 
757	 0.145834320785104 
758	 0.145670492549565 
759	 0.145120943066524 
760	 0.144477126573311 
761	 0.144664287986609 
762	 0.144790684523419 
763	 0.145010499963457 
764	 0.14519448813914 
765	 0.145263107649582 
766	 0.145580763604215 
767	 0.145842162139626 
768	 0.145972705388178 
769	 0.146097043979581 
770	 0.146202047605553 
771	 0.146258673358613 
772	 0.146272665251696 
773	 0.146347565565988 
774	 0.146477774751511 
775	 0.146643365883563 
776	 0.146826437367539 
777	 0.147092830083437 
778	 0.147274317834826 
779	 0.147389148864186 
780	 0.147643796517279 
781	 0.147821336641105 
782	 0.147904587794318 
783	 0.147975023269624 
784	 0.148262158335169 
785	 0.148433481799618 
786	 0.148541470292978 
787	 0.148768932292216 
788	 0.149192977701375 
789	 0.149420140971941 
790	 0.149545532809777 
791	 0.150014196605753 
792	 0.15027799890729 
793	 0.150524222067991 
794	 0.150879074723503 
795	 0.151197432889098 
796	 0.15144648663266 
797	 0.151672968341519 
798	 0.151919966558778 
799	 0.152078639407081 
800	 0.152322500012396 
801	 0.152547097330933 
802	 0.152561442630384 
803	 0.152760373808115 
804	 0.152945097634215 
805	 0.15300945841608 
806	 0.153012415255804 
807	 0.153038252395414 
808	 0.152875301460742 
809	 0.152443909755894 
810	 0.152143510622819 
811	 0.151847604974948 
812	 0.151434592117049 
813	 0.150851093252003 
814	 0.150485152230658 
815	 0.150276731530177 
816	 0.149960352709213 
817	 0.149259175534816 
818	 0.148819757849173 
819	 0.14852666145467 
820	 0.148004738499176 
821	 0.146662276613466 
822	 0.145757862436352 
823	 0.145078472107307 
824	 0.144122225960893 
825	 0.14267926303496 
826	 0.14118509569943 
827	 0.139614229147582 
828	 0.137967134011217 
829	 0.1367481644211 
830	 0.135962672285931 
831	 0.135302100327002 
832	 0.13434969682006 
833	 0.133394113252448 
834	 0.132957976665127 
835	 0.132812570606655 
836	 0.131809065795184 
837	 0.131617212270296 
838	 0.131675669251515 
839	 0.131327052620542 
840	 0.130962138788315 
841	 0.130587835614097 
842	 0.130380114808721 
843	 0.130415799423471 
844	 0.130103874235527 
845	 0.129859382884365 
846	 0.129718501129341 
847	 0.129469068654294 
848	 0.129429582430245 
849	 0.129301356574966 
850	 0.128872198691848 
851	 0.128164938149196 
852	 0.127901777521354 
853	 0.127948560659541 
854	 0.127916105215683 
855	 0.127318394057645 
856	 0.127410064229937 
857	 0.127591225638832 
858	 0.127132723738364 
859	 0.12678614933026 
860	 0.126545043964068 
861	 0.126341219332495 
862	 0.126114184504593 
863	 0.126163169144874 
864	 0.126091333974126 
865	 0.125820901927764 
866	 0.125605829958774 
867	 0.125372159064177 
868	 0.125255862946901 
869	 0.125179199684164 
870	 0.124785162872562 
871	 0.12442230458833 
872	 0.124164037488823 
873	 0.123952989242154 
874	 0.123578364445148 
875	 0.123317280434674 
876	 0.122928121220902 
877	 0.122318242672798 
878	 0.122548022581027 
879	 0.122282363094202 
880	 0.121839267806874 
881	 0.122061533710148 
882	 0.121882665067682 
883	 0.121163196162465 
884	 0.120459301567225 
885	 0.12064121947682 
886	 0.120948599355998 
887	 0.120880575280722 
888	 0.120463253644548 
889	 0.120257446113021 
890	 0.120148522620992 
891	 0.119762450720357 
892	 0.119163066109832 
893	 0.119326401895775 
894	 0.118835780986994 
895	 0.118505465376649 
896	 0.118898585351639 
897	 0.117650511435452 
898	 0.11721993620985 
899	 0.117696458579123 
900	 0.118010833267355 
901	 0.116648630581737 
902	 0.116693254925066 
903	 0.117156596420675 
904	 0.116167079838005 
905	 0.115922919837705 
906	 0.115507056657519 
907	 0.115443230527562 
908	 0.116722750788436 
909	 0.115438307426199 
910	 0.114661440399215 
911	 0.114659303407581 
912	 0.113079476078736 
913	 0.11372227791957 
914	 0.113962846482787 
915	 0.113301035134207 
916	 0.114202783828055 
917	 0.113767373219121 
918	 0.112493163608295 
919	 0.111278876468522 
920	 0.11078145894419 
921	 0.111457630627438 
922	 0.111694493012281 
923	 0.110887636793518 
924	 0.111364870280844 
925	 0.110908212021864 
926	 0.109809394835111 
927	 0.109234771045282 
928	 0.110592102077004 
929	 0.112178032209372 
930	 0.112881763412678 
931	 0.111728936456042 
932	 0.107645774856379 
933	 0.108339847675547 
934	 0.11077207760419 
935	 0.108484795975611 
936	 0.109824015022687 
937	 0.107884590679766 
938	 0.105608486503526 
939	 0.107028107111607 
940	 0.108922319353339 
941	 0.104413310272517 
942	 0.100071484486422 
943	 0.106162639174301 
944	 0.109192029033857 
945	 0.108708935547027 
946	 0.10717798655573 
947	 0.106763215537818 
948	 9.84810050385451E-02 
949	 9.82306976937982E-02 
950	 0.10543907636315 
951	 0.108454094480678 
952	 0.103530619500277 
953	 0.103496083443048 
954	 0.107712392979205 
955	 0.106431939495419 
956	 0.103120063406083 
957	 0.103852956758957 
958	 0.105378539369881 
959	 0.100822070446432 
960	 0.106665386971356 
961	 0.107969997755799 
962	 0.102725275601816 
963	 0.100078945983159 
964	 0.101559263046996 
965	 0.104253554109378 
966	 0.105646086428772 
967	 0.104511122192515 
968	 0.102572996012389 
969	 0.102962623129837 
970	 0.104706023494909 
971	 0.104004183472074 
972	 0.105195789432744 
973	 0.104154297126308 
974	 0.101483476402588 
975	 0.102449659944028 
976	 0.102883972668802 
977	 0.103422737762798 
978	 0.104181408211134 
979	 0.104421286420782 
980	 0.103867337595031 
981	 0.104045490661701 
982	 0.104425078910712 
983	 0.103075335070323 
984	 0.101288563398559 
985	 0.10163918054467 
986	 0.102835525474762 
987	 0.101657139163512 
988	 0.104610625757937 
989	 0.10602953396534 
990	 0.105301755868541 
991	 0.105668393054332 
992	 0.10307452152836 
993	 0.101574977632375 
994	 0.101742481293149 
995	 0.101613274581483 
996	 0.103493760511821 
997	 0.102196018134005 
998	 0.1020449982949 
999	 0.109138668655559 
1000	 0.104918161718334 
1001	 9.63995676720844E-02 
1002	 9.61161922652743E-02 
1003	 9.58722527235998E-02 
1004	 9.46257837825096E-02 
1005	 9.41681566059344E-02 
1006	 9.42463256643126E-02 
1007	 9.43494536267924E-02 
1008	 9.45419247410294E-02 
1009	 9.49191319507337E-02 
1010	 9.44963644065427E-02 
1011	 9.37040003560525E-02 
1012	 9.33340700358513E-02 
1013	 0.09293012364408 
1014	 9.31892380388199E-02 
1015	 9.46653022291466E-02 
1016	 9.52286393997228E-02 
1017	 9.57096345905325E-02 
1018	 9.58961030508085E-02 
1019	 9.55280586382316E-02 
1020	 9.53444154811152E-02 
1021	 9.49515403809306E-02 
1022	 9.50534269359854E-02 
1023	 9.51561340487364E-02 
1024	 9.50807376850555E-02 
1025	 9.48229923253053E-02 
1026	 9.46249557543944E-02 
1027	 0.094668031502488 
1028	 9.48065586784695E-02 
1029	 9.47212549047476E-02 
1030	 0.094704509628961 
1031	 0.094749055887473 
1032	 9.43782293820753E-02 
1033	 9.45494165961961E-02 
1034	 9.57333934921001E-02 
1035	 9.59221156480412E-02 
1036	 9.54188995590709E-02 
1037	 9.54508325679874E-02 
1038	 9.55157999853025E-02 
1039	 9.49979976570923E-02 
1040	 9.53868589052449E-02 
1041	 9.61547426230151E-02 
1042	 9.61810806858701E-02 
1043	 0.095771886594194 
1044	 9.56941728867277E-02 
1045	 9.52683031258614E-02 
1046	 9.53196515747936E-02 
1047	 9.58668852355236E-02 
1048	 9.60626336936033E-02 
1049	 9.64421061950451E-02 
1050	 9.64771897922883E-02 
1051	 9.62375431194651E-02 
1052	 0.095945016404183 
1053	 9.49138177628957E-02 
1054	 9.47902250926002E-02 
1055	 9.54715572433854E-02 
1056	 9.55966279807824E-02 
1057	 9.57231423552591E-02 
1058	 9.63572449985716E-02 
1059	 9.63349053497952E-02 
1060	 9.53984991308715E-02 
1061	 9.53981204990562E-02 
1062	 9.58881858915429E-02 
1063	 9.59953743935612E-02 
1064	 9.63091533499487E-02 
1065	 9.63568197818056E-02 
1066	 9.61869337671503E-02 
1067	 9.58850225019147E-02 
1068	 0.095118846328137 
1069	 0.094927650516287 
1070	 9.47837791736247E-02 
1071	 9.47924673591047E-02 
1072	 9.55463310481656E-02 
1073	 9.58919441407878E-02 
1074	 9.61050572485794E-02 
1075	 9.62706979159352E-02 
1076	 9.60454053528427E-02 
1077	 9.53707845310314E-02 
1078	 9.51121976996087E-02 
1079	 9.46198349951478E-02 
1080	 9.44455974827959E-02 
1081	 9.47142742130205E-02 
1082	 9.47661056354665E-02 
1083	 9.48117066525749E-02 
1084	 9.48362117847829E-02 
1085	 9.47953299780801E-02 
1086	 9.48185852093496E-02 
1087	 9.50364872896054E-02 
1088	 9.49101849046012E-02 
1089	 0.09436408161099 
1090	 9.43878467523455E-02 
1091	 9.41362067650413E-02 
1092	 9.34588223860194E-02 
1093	 9.34109283057744E-02 
1094	 9.38667615667935E-02 
1095	 9.38739223069874E-02 
1096	 9.40924289777935E-02 
1097	 9.39029165008855E-02 
1098	 0.092885722865244 
1099	 9.27049701546781E-02 
1100	 9.30533360270005E-02 
1101	 9.30245602481476E-02 
1102	 9.31069186613774E-02 
1103	 9.33449996164837E-02 
1104	 0.093637455985915 
1105	 9.34239175895861E-02 
1106	 9.33701628615351E-02 
1107	 9.37074806007164E-02 
1108	 9.35219937699678E-02 
1109	 9.29903312887112E-02 
1110	 9.28525020186066E-02 
1111	 9.33248092368477E-02 
1112	 9.31590958941621E-02 
1113	 9.22186931631412E-02 
1114	 9.21375195186397E-02 
1115	 9.25729857160685E-02 
1116	 9.25366572698478E-02 
1117	 0.093507135833262 
1118	 9.37812713824079E-02 
1119	 9.10563213584719E-02 
1120	 9.09571512910915E-02 
1121	 9.44007425208702E-02 
1122	 9.50969341654424E-02 
1123	 9.54627005737481E-02 
1124	 9.96026167673935E-02 
1125	 9.80683724273259E-02 
1126	 9.66395552387514E-02 
1127	 9.98729442469099E-02 
1128	 0.100523166841917 
1129	 0.097607513687965 
1130	 9.07336839435762E-02 
1131	 8.99019732891323E-02 
1132	 8.89921709428215E-02 
1133	 8.82456116723477E-02 
1134	 9.19355526328247E-02 
1135	 9.22094339392112E-02 
1136	 8.84311315841433E-02 
1137	 8.81123940345794E-02 
1138	 8.91046965008189E-02 
1139	 8.93267509357513E-02 
1140	 9.05650493767607E-02 
1141	 9.23609512411501E-02 
1142	 9.38131058958437E-02 
1143	 9.31553564501036E-02 
1144	 9.06096148400609E-02 
1145	 9.13477527396145E-02 
1146	 9.07044424934204E-02 
1147	 8.74182680617277E-02 
1148	 8.79209676794973E-02 
1149	 8.86214369581402E-02 
1150	 8.81256354780586E-02 
1151	 8.74010347057865E-02 
1152	 8.76368260580705E-02 
1153	 8.72697035436487E-02 
1154	 0.087578259419523 
1155	 8.84362296963685E-02 
1156	 8.93539459128074E-02 
1157	 8.99773132939942E-02 
1158	 8.90154031381293E-02 
1159	 8.77426749272656E-02 
1160	 8.73761893430409E-02 
1161	 8.75841025612955E-02 
1162	 8.87000823922691E-02 
1163	 8.95487217369201E-02 
1164	 8.93059705236594E-02 
1165	 8.88400920473237E-02 
1166	 8.83886342092429E-02 
1167	 8.78840910000123E-02 
1168	 8.80382637660767E-02 
1169	 8.83583462538146E-02 
1170	 8.78431668996303E-02 
1171	 8.76460115945851E-02 
1172	 8.75680925299673E-02 
1173	 8.76917042782686E-02 
1174	 0.087819605726023 
1175	 8.81175197391306E-02 
1176	 8.88439551942131E-02 
1177	 0.088483197409341 
1178	 8.80738053447756E-02 
1179	 8.84703146474506E-02 
1180	 8.82722350320087E-02 
1181	 8.82744213136585E-02 
1182	 8.88513112093166E-02 
1183	 8.83289137055483E-02 
1184	 8.73990738238248E-02 
1185	 8.76657788348253E-02 
1186	 8.78711895013161E-02 
1187	 8.78022950615755E-02 
1188	 8.85020438516997E-02 
1189	 8.88271078391077E-02 
1190	 8.85174764213993E-02 
1191	 8.84531186704266E-02 
1192	 8.82992052972824E-02 
1193	 8.80283017120797E-02 
1194	 8.76133472073964E-02 
1195	 8.78520874054755E-02 
1196	 0.088249597685115 
1197	 0.088123229802993 
1198	 8.79487962275531E-02 
1199	 8.79373606383569E-02 
1200	 0.087729938871205 
1201	 8.76563094164165E-02 
1202	 0.087856501538958 
1203	 8.77918622861523E-02 
1204	 0.087542294041684 
1205	 8.74724580986234E-02 
1206	 8.75236654722105E-02 
1207	 8.73862847832825E-02 
1208	 8.70178308292331E-02 
1209	 8.67032912909213E-02 
1210	 8.69612526985369E-02 
1211	 8.77778963214735E-02 
1212	 8.78762330658032E-02 
1213	 0.087664747876899 
1214	 8.78265546602337E-02 
1215	 8.80027388275632E-02 
1216	 8.76038690569356E-02 
1217	 8.75246599420705E-02 
1218	 8.79074467050424E-02 
1219	 8.78654360151624E-02 
1220	 8.73517811044086E-02 
1221	 8.71893709830047E-02 
1222	 0.087722776248206 
1223	 0.088090374500708 
1224	 8.78302736053139E-02 
1225	 0.087506038017951 
1226	 8.74201803728289E-02 
1227	 8.72976252555407E-02 
1228	 8.74376263694547E-02 
1229	 8.78239882754857E-02 
1230	 8.77716350296846E-02 
1231	 8.74533345765116E-02 
1232	 8.73047018661789E-02 
1233	 8.74306675877378E-02 
1234	 8.77756767500291E-02 
1235	 8.77064369955752E-02 
1236	 8.70733492800184E-02 
1237	 8.70550847786095E-02 
1238	 8.72210538795537E-02 
1239	 8.72654913120942E-02 
1240	 8.70722798930337E-02 
1241	 8.73265296361065E-02 
1242	 8.77521367769568E-02 
1243	 8.75380193768352E-02 
1244	 8.74342744749081E-02 
1245	 0.087774070578554 
1246	 8.76330978504275E-02 
1247	 8.73429704535856E-02 
1248	 8.75024150289665E-02 
1249	 8.76950180554434E-02 
1250	 0.087375460951125 
1251	 8.71190374725147E-02 
1252	 8.73195070795927E-02 
1253	 8.73988357461508E-02 
1254	 0.087465343404121 
1255	 8.77539401892613E-02 
1256	 8.78110830540311E-02 
1257	 8.75159857928615E-02 
1258	 8.74725759107972E-02 
1259	 8.75764207936089E-02 
1260	 8.75390946385365E-02 
1261	 8.76026329899814E-02 
1262	 0.087611999567511 
1263	 8.76306487856622E-02 
1264	 8.72151436312135E-02 
1265	 8.69569952316102E-02 
1266	 8.69391561698816E-02 
1267	 8.70710426480551E-02 
1268	 0.087017390745848 
1269	 8.68863632780662E-02 
1270	 8.68487401752116E-02 
1271	 0.086572468628955 
1272	 8.65757972307919E-02 
1273	 8.66278074892497E-02 
1274	 8.64829728016001E-02 
1275	 8.68561191820905E-02 
1276	 8.70381263112102E-02 
1277	 8.68298564648975E-02 
1278	 8.69882477822945E-02 
1279	 8.70972682118793E-02 
1280	 8.70464229880236E-02 
1281	 8.69363212353135E-02 
1282	 8.69436929134349E-02 
1283	 8.68649965566105E-02 
1284	 8.65631706175159E-02 
1285	 8.65342538687137E-02 
1286	 8.67640689463693E-02 
1287	 8.68331141308904E-02 
1288	 0.086768601063356 
1289	 8.66543137275351E-02 
1290	 8.62619518958368E-02 
1291	 8.67457186555534E-02 
1292	 8.69034277835337E-02 
1293	 8.63797008596797E-02 
1294	 8.62030007369054E-02 
1295	 8.60460726612741E-02 
1296	 8.58798304423144E-02 
1297	 8.60379838823052E-02 
1298	 8.58300395214849E-02 
1299	 8.56328356399969E-02 
1300	 8.58020564737575E-02 
1301	 8.57303646507997E-02 
1302	 8.56961684644079E-02 
1303	 8.56152063653135E-02 
1304	 8.51196277876817E-02 
1305	 8.51986321887779E-02 
1306	 8.52799043870839E-02 
1307	 8.56020592224736E-02 
1308	 8.58296855066512E-02 
1309	 8.64436086127525E-02 
1310	 8.65237041035132E-02 
1311	 8.61695347980077E-02 
1312	 8.62252679390279E-02 
1313	 8.65493427051725E-02 
1314	 8.60096166244857E-02 
1315	 8.48040111418518E-02 
1316	 8.45505549789855E-02 
1317	 0.083783707082601 
1318	 8.35326014422994E-02 
1319	 8.53208188955153E-02 
1320	 8.55371244942282E-02 
1321	 8.45567648930732E-02 
1322	 8.39254595186011E-02 
1323	 8.42832834882973E-02 
1324	 8.46911063370745E-02 
1325	 8.52180942091561E-02 
1326	 8.51300877592655E-02 
1327	 8.45144805051184E-02 
1328	 8.34807623536088E-02 
1329	 8.34870409647174E-02 
1330	 8.45762875513095E-02 
1331	 8.44801987063019E-02 
1332	 8.37508189726378E-02 
1333	 8.30645170059563E-02 
1334	 8.26506083298792E-02 
1335	 8.20418658191188E-02 
1336	 8.03544127275469E-02 
1337	 8.07823933228879E-02 
1338	 8.31738435928341E-02 
1339	 8.32903745630354E-02 
1340	 8.40098957475972E-02 
1341	 8.38365052907168E-02 
1342	 7.99213291857068E-02 
1343	 7.88418394674382E-02 
1344	 7.99185357845812E-02 
1345	 8.07047303922433E-02 
1346	 8.49030897520105E-02 
1347	 8.61289768700333E-02 
1348	 8.35563356548602E-02 
1349	 8.31364414995236E-02 
1350	 7.75519880058458E-02 
1351	 7.42932723160753E-02 
1352	 8.16485835480373E-02 
1353	 9.14296648713638E-02 
1354	 0.117961846658633 
1355	 0.142547899642943 
1356	 0.115515887456862 
1357	 6.53207667462869E-02 
1358	 7.36214819779905E-02 
1359	 0.106219805736912 
1360	 0.328848254229489 
1361	 0.491282832196455 
1362	 0.220607208078611 
1363	-2.56426508787383E-02 
1364	-3.40167562091722E-02 
1365	 5.01713509514347E-02 
1366	-0.085539979189232 
1367	-0.544522063497345 
1368	-0.382053665714646 
1369	 9.93703067101565E-02 
1370	-1.48169002665687E-02 
1371	-0.120252845818434 
1372	 2.81398402468164E-02 
1373	-0.297746086895553 
1374	-0.530383466711681 
1375	 0.439383550849011 
1376	 0.471074858521887 
1377	-0.283036070706746 
1378	-0.299227259616113 
1379	 0.129068993670411 
1380	 0.130863439874391 
1381	 0.10031122173182 
1382	 0.255878301981651 
1383	 0.953428293601516 
1384	 1.03979709675864 
1385	 0.955504575082428 
1386	 0.99320888679594 
1387	 0.194104743860246 
1388	 9.41361852638691E-02 
1389	 0.311234993253101 
1390	 0.344195010155771 
1391	 0.353532434003816 
1392	 0.191564774282361 
1393	 0.123812090918026 
1394	 8.62583686269929E-02 
1395	-0.142734782788595 
1396	-0.41461800648299 
1397	-0.290486732613923 
1398	 0.136039985595068 
1399	 1.10950578195913 
1400	 3.48917722290714 
1401	 4.37565644658264 
1402	 12.3023367876281 
1403	 0.821162647245262 
1404	 0.518652045003776 
1405	 0.31333283017678 
1406	 2.09502112310336E-02 
1407	-0.173876107709065 
1408	-0.611304894881334 
1409	-0.551537875659188 
1410	-0.212146777755127 
1411	-7.78220090749411E-02 
1412	 0.181905328992571 
1413	 0.2506717822979 
1414	 0.173952388760806 
1415	 0.140709092624497 
1416	 6.10601566570643E-02 
1417	 7.41430070380964E-02 
1418	 0.121918136036117 
1419	 0.125868270670352 
1420	 0.16533191779946 
1421	 0.160363912187151 
1422	 0.106522834093748 
1423	 8.02199943213567E-02 
1424	 5.83329084924863E-02 
1425	 6.07186283130014E-02 
1426	 8.66012648367228E-02 
1427	 8.10223588946152E-02 
1428	 6.50066497854522E-02 
1429	 6.47378626317698E-02 
1430	 6.39387437392242E-02 
1431	 5.23794895536072E-02 
1432	 3.51860796322861E-02 
1433	 3.57449098505964E-02 
1434	 3.46056586737931E-02 
1435	 3.28921189182016E-02 
1436	 4.57338460234844E-02 
1437	 6.30674486195203E-02 
1438	 8.41813721810377E-02 
1439	 7.85771773183317E-02 
1440	 6.45501403146828E-02 
1441	 6.61199113422495E-02 
1442	 0.055975779315574 
1443	 4.85157909092169E-02 
1444	 6.02839902785476E-02 
1445	 6.39252751781526E-02 
1446	 5.72163854826875E-02 
1447	 0.056897152449886 
1448	 6.09856819112227E-02 
1449	 6.29330387896564E-02 
1450	 6.18350402468775E-02 
1451	 6.08253628331801E-02 
1452	 5.98916339365311E-02 
1453	 5.91577840760397E-02 
1454	 5.84924488966843E-02 
1455	 0.059340481476018 
1456	 5.93178069807336E-02 
1457	 5.77400830229567E-02 
1458	 5.74288349802847E-02 
1459	 5.81526073352735E-02 
1460	 0.058510781056001 
1461	 5.92637924983147E-02 
1462	 5.96712878384504E-02 
1463	 5.97838482229793E-02 
1464	 6.00985170493717E-02 
1465	 5.92540193412318E-02 
1466	 6.09912984149554E-02 
1467	 6.63800618954326E-02 
1468	 6.68853882785618E-02 
1469	 6.56796567953766E-02 
1470	 6.65993334294791E-02 
1471	 6.54453684136039E-02 
1472	 6.36111380021568E-02 
1473	 6.48099509549182E-02 
1474	 6.35076830325408E-02 
1475	 5.65210769006187E-02 
1476	 0.056000607706333 
1477	 0.060862580376119 
1478	 5.99210217169567E-02 
1479	 5.68240163965615E-02 
1480	 5.72620032738246E-02 
1481	 5.66827656695914E-02 
1482	 5.69650559528428E-02 
1483	 6.08990515177788E-02 
1484	 6.18029046292503E-02 
1485	 6.00468098655563E-02 
1486	 6.02890967164104E-02 
1487	 0.061342310801849 
1488	 6.10853669991028E-02 
1489	 6.06526433691897E-02 
1490	 6.07115499028257E-02 
1491	 6.06166857699355E-02 
1492	 0.060243737199378 
1493	 6.01717369499516E-02 
1494	 6.00425249770212E-02 
1495	 0.058964237505247 
1496	 5.89344971206331E-02 
1497	 5.99024412594151E-02 
1498	 0.06007742413788 
1499	 6.03274838904538E-02 
1500	 6.04137036692263E-02 
1501	 5.97156839261943E-02 
1502	 0.059820022647714 
1503	 6.06310263997593E-02 
1504	 6.08399400669932E-02 
1505	 6.09239051617377E-02 
1506	 6.12656705817897E-02 
1507	 6.15468351750064E-02 
1508	 6.11634944524622E-02 
1509	 6.15040535808847E-02 
1510	 6.22984463481643E-02 
1511	 0.061739851742886 
1512	 0.061246647522823 
1513	 6.16238073701448E-02 
1514	 6.18804207569534E-02 
1515	 6.21647321831185E-02 
1516	 6.27613043131198E-02 
1517	 6.31687953552551E-02 
1518	 6.31060538034994E-02 
1519	 0.063010714262625 
1520	 6.33176350277606E-02 
1521	 6.35526146166574E-02 
1522	 6.34020751920757E-02 
1523	 6.36649039814896E-02 
1524	 6.43311779292525E-02 
1525	 6.43441394265901E-02 
1526	 6.39580084689976E-02 
1527	 6.42467338882247E-02 
1528	 6.47712849162766E-02 
1529	 0.06503454324226 
1530	 6.52952471105194E-02 
1531	 6.50563955016689E-02 
1532	 6.48727223712884E-02 
1533	 6.54187538180144E-02 
1534	 6.57890021836329E-02 
1535	 6.59234403530125E-02 
1536	 6.63505298700139E-02 
1537	 6.67065366710191E-02 
1538	 6.66960529230801E-02 
1539	 6.69871218537259E-02 
1540	 6.74126576220033E-02 
1541	 0.067444414971671 
1542	 0.06751691288711 
1543	 6.75082394958678E-02 
1544	 6.73637818961513E-02 
1545	 6.74316670584902E-02 
1546	 6.76303864255325E-02 
1547	 6.77660155436214E-02 
1548	 6.78791792380271E-02 
1549	 6.79174956353949E-02 
1550	 6.78754181896218E-02 
1551	 6.79637950091645E-02 
1552	 6.81769906826729E-02 
1553	 0.068569613680241 
1554	 6.89066741294055E-02 
1555	 6.89519373766964E-02 
1556	 6.91047553342396E-02 
1557	 6.92208572752977E-02 
1558	 6.90822845066107E-02 
1559	 6.88433912316421E-02 
1560	 6.87330356345778E-02 
1561	 0.069159532389466 
1562	 6.96358448402481E-02 
1563	 6.98813835374994E-02 
1564	 7.01074980316599E-02 
1565	 6.99290927074195E-02 
1566	 6.97189772843764E-02 
1567	 6.99381460455823E-02 
1568	 6.99285909835564E-02 
1569	 6.95937630835182E-02 
1570	 6.96377382742758E-02 
1571	 0.070175033287257 
1572	 0.070755571015821 
1573	 0.070965869412645 
1574	 7.06176777357943E-02 
1575	 7.03964810443697E-02 
1576	 7.05770328246031E-02 
1577	 7.05397624883177E-02 
1578	 7.06214589873646E-02 
1579	 7.07660990503195E-02 
1580	 7.05253756367177E-02 
1581	 0.070429980115239 
1582	 7.06095077849858E-02 
1583	 7.07082077835731E-02 
1584	 7.10519709587948E-02 
1585	 7.16304574930861E-02 
1586	 7.16852615200422E-02 
1587	 7.14514379996902E-02 
1588	 0.071275352495162 
1589	 0.071041180900003 
1590	 7.13322626248227E-02 
1591	 7.16685979492132E-02 
1592	 7.13766495062097E-02 
1593	 7.12061842896449E-02 
1594	 7.16871435744958E-02 
1595	 7.21355081134232E-02 
1596	 7.19113408613941E-02 
1597	 7.21143304338241E-02 
1598	 7.22941773040087E-02 
1599	 7.15285959051312E-02 
1600	 7.15260337609868E-02 
1601	 7.22682947786122E-02 
1602	 7.22841885393852E-02 
1603	 7.22972984049313E-02 
1604	 0.072789387156092 
1605	 7.25887011007831E-02 
1606	 7.20629843759471E-02 
1607	 7.19983692204071E-02 
1608	 7.23280426829761E-02 
1609	 7.27404058435362E-02 
1610	 7.24724341555896E-02 
1611	 0.072324773351123 
1612	 7.23223747136094E-02 
1613	 7.19418079401964E-02 
1614	 7.22821918394207E-02 
1615	 7.28215502222439E-02 
1616	 7.29236299977914E-02 
1617	 7.33158608960464E-02 
1618	 7.36344378753545E-02 
1619	 7.33059719528596E-02 
1620	 0.072920123014576 
1621	 7.29193672484834E-02 
1622	 7.31932032686319E-02 
1623	 7.33387097769921E-02 
1624	 7.32564662996853E-02 
1625	 7.35299186968251E-02 
1626	 7.38417942309825E-02 
1627	 0.074162616574409 
1628	 7.46449111712178E-02 
1629	 7.44693312115638E-02 
1630	 7.37598583956522E-02 
1631	 7.33778319971665E-02 
1632	 7.35642018788897E-02 
1633	 7.36125597996537E-02 
1634	 7.33648368550357E-02 
1635	 7.34343287704584E-02 
1636	 7.37791777281743E-02 
1637	 7.38380697024433E-02 
1638	 7.36659608130696E-02 
1639	 7.37162260384931E-02 
1640	 7.35695652458414E-02 
1641	 7.34358249613756E-02 
1642	 0.074066726369842 
1643	 0.074308351698059 
1644	 7.37890596920517E-02 
1645	 7.40339056921053E-02 
1646	 7.43174986187828E-02 
1647	 7.36417828376725E-02 
1648	 0.073404109836812 
1649	 7.38284449309546E-02 
1650	 7.34839501696836E-02 
1651	 7.30259924513865E-02 
1652	 7.34528798044899E-02 
1653	 7.35753811524281E-02 
1654	 7.35704308564996E-02 
1655	 7.34542803093203E-02 
1656	 7.35416118467665E-02 
1657	 7.39895826707998E-02 
1658	 7.38029413840268E-02 
1659	 0.073054203337383 
1660	 7.34289085932481E-02 
1661	 7.43077895069677E-02 
1662	 7.41434855726811E-02 
1663	 0.074146433191935 
1664	 7.44556888104148E-02 
1665	 7.41489630114912E-02 
1666	 7.38954373983414E-02 
1667	 7.40900906473108E-02 
1668	 7.41095517947962E-02 
1669	 7.37831399224437E-02 
1670	 7.33916849596928E-02 
1671	 0.07389844613042 
1672	 7.43293595828178E-02 
1673	 7.40167423340334E-02 
1674	 7.41324069645993E-02 
1675	 0.074558506993948 
1676	 7.42962877974346E-02 
1677	 7.41920772117147E-02 
1678	 7.47479248418508E-02 
1679	 0.074987742325151 
1680	 7.46619662154608E-02 
1681	 0.074100320291196 
1682	 7.33821358881922E-02 
1683	 7.27964548421433E-02 
1684	 7.29905826731013E-02 
1685	 7.37060313730221E-02 
1686	 7.37151571900656E-02 
1687	 7.34907537804187E-02 
1688	 7.37967341600203E-02 
1689	 7.37429633809526E-02 
1690	 7.35574450761437E-02 
1691	 7.36768904572246E-02 
1692	 7.33337291878022E-02 
1693	 0.073526841874531 
1694	 7.42500221320601E-02 
1695	 7.38761991911394E-02 
1696	 7.33344840624445E-02 
1697	 7.30442978546601E-02 
1698	 7.25573029573921E-02 
1699	 7.25150743711544E-02 
1700	 7.33909442467133E-02 
1701	 7.35922702674338E-02 
1702	 7.24645269970029E-02 
1703	 7.22444749517418E-02 
1704	 7.23568314364453E-02 
1705	 7.21455477672655E-02 
1706	 7.31852170303976E-02 
1707	 7.39930504039351E-02 
1708	 7.34685991536759E-02 
1709	 7.35107684265543E-02 
1710	 7.36788534667319E-02 
1711	 7.33485293273113E-02 
1712	 7.34628059351758E-02 
1713	 7.25139583160947E-02 
1714	 7.23104201433095E-02 
1715	 7.31175912589545E-02 
1716	 0.072764911223847 
1717	 7.30172286364564E-02 
1718	 7.36900939654009E-02 
1719	 7.30780969690453E-02 
1720	 7.26048320894686E-02 
1721	 0.072842145267921 
1722	 7.30504909001157E-02 
1723	 7.30518433715961E-02 
1724	 7.27602767820573E-02 
1725	 7.26840304446221E-02 
1726	 7.24628528305029E-02 
1727	 7.17151438344765E-02 
1728	 7.17031333332157E-02 
1729	 7.20705130726241E-02 
1730	 7.17228903073215E-02 
1731	 7.22660028250081E-02 
1732	 7.34983666576108E-02 
1733	 0.073152034489089 
1734	 7.24391755465284E-02 
1735	 7.20132532448023E-02 
1736	 0.071093286372066 
1737	 7.14122212994306E-02 
1738	 7.24423747659994E-02 
1739	 7.21424419424548E-02 
1740	 7.13731876325839E-02 
1741	 7.10283308818331E-02 
1742	 7.09212494812951E-02 
1743	 7.08877365418285E-02 
1744	 7.11788326288631E-02 
1745	 7.12320176799453E-02 
1746	 6.91035091153575E-02 
1747	 6.95223353251622E-02 
1748	 7.29211980374359E-02 
1749	 7.25430897227145E-02 
1750	 7.08719531759252E-02 
1751	 7.06293740132048E-02 
1752	 6.81192972688684E-02 
1753	 6.80843589774613E-02 
1754	 0.071851653063924 
1755	 0.072391897387243 
1756	 7.13368072444585E-02 
1757	 7.08788768942452E-02 
1758	 6.96983584603421E-02 
1759	 6.93768245181667E-02 
1760	 6.97311603820688E-02 
1761	 7.01105548892999E-02 
1762	 7.05418721757943E-02 
1763	 6.97977992887351E-02 
1764	 6.87236820973627E-02 
1765	 6.85216265364673E-02 
1766	 6.72205248136613E-02 
1767	 6.58397762557882E-02 
1768	 6.69227842182177E-02 
1769	 6.89280469859407E-02 
1770	 0.070759897032497 
1771	 7.23385333915489E-02 
1772	 7.14180834148073E-02 
1773	 6.85638190809457E-02 
1774	 6.79919298756005E-02 
1775	 7.30139864466043E-02 
1776	 7.44636253764908E-02 
1777	 0.074255954054788 
1778	 7.39728853384087E-02 
1779	 6.98558571459438E-02 
1780	 6.86345719821087E-02 
1781	 7.09403485809569E-02 
1782	 7.16955844764113E-02 
1783	 7.36796138927527E-02 
1784	 7.32708976117881E-02 
1785	 6.87845372689655E-02 
1786	 6.82983685696847E-02 
1787	 6.84929818901546E-02 
1788	 6.89495074561696E-02 
1789	 7.48260851434131E-02 
1790	 7.46052190071175E-02 
1791	 6.99931368193961E-02 
1792	 7.47002706578674E-02 
1793	 7.10053410100355E-02 
1794	 6.28465664949431E-02 
1795	 7.21050557854352E-02 
1796	 7.06379325758825E-02 
1797	 0.065920163671614 
1798	 7.56595704534608E-02 
1799	 5.93636924440911E-02 
1800	 4.71402479646741E-02 
1801	 3.95649633498503E-02 
1802	 0.036955926066045 
1803	 3.92484599451457E-02 
1804	 5.44237010095032E-02 
1805	 5.29639428205698E-02 
1806	 2.25533780081902E-02 
1807	 2.74118543456167E-02 
1808	 8.29026507468602E-02 
1809	 0.102735617688005 
1810	 0.156610440157566 
1811	 0.195693012474256 
1812	 6.63773410849124E-02 
1813	 6.09293821595072E-02 
1814	 0.259483673641192 
1815	 0.304109290115938 
1816	 0.216162055213949 
1817	-0.323090777903586 
1818	-1.5136005439722 
1819	-0.559269501394849 
1820	-7.47656302340734E-02 
1821	 8.21793560805945E-02 
1822	 0.229695137122921 
1823	-0.526075398406455 
1824	-0.684405326168667 
1825	-0.235302301765103 
1826	-8.16948367091143E-02 
1827	 0.338196809093275 
1828	 0.488611902976538 
1829	 1.04500106080042 
1830	 2.7382609059892 
1831	 0.432051622527674 
1832	 0.163225241560556 
1833	-2.61123745044772 
1834	-10.2803073679533 
1835	-1.49610233552484 
1836	-2.71135390949819 
1837	-0.686138189233837 
1838	-0.998199563051149 
1839	-0.168393873659859 
1840	 0.919835048272413 
1841	 1.82291349207225 
1842	-9.29390255092647 
1843	-1.71914512831417 
1844	-0.612327660057281 
1845	-0.539474587739786 
1846	-0.290370932333017 
1847	-0.453422891187686 
1848	-3.19921422563513 
1849	 4.50463671606698 
1850	 8.39515709954245 
1851	 24.5358119243696 
1852	 104.891177046854 
1853	 51.9443020453431 
1854	 10.5218796885433 
1855	 1.53046161649563 
1856	 1.1046956606414 
1857	 1.44016708749194 
1858	 0.844690368986633 
1859	-3.71926903892579 
1860	 3.89014392346372 
1861	 2.34653194829756 
1862	 3.0016478908059 
1863	 2.36931552699857 
1864	 1.37288916453806 
1865	 1.45161910570895 
1866	 6.5275569607559 
1867	-7.30254363728551 
1868	-6.69421047703729 
1869	-3.25862126259718 
1870	-1.5462435080974 
1871	-1.3905683349813 
1872	-0.305247840285961 
1873	 0.434092760692792 
1874	 0.526817114761858 
1875	 0.365472212167915 
1876	 0.327838330543315 
1877	-0.171474915607205 
1878	-0.398333665457109 
1879	 1.61663625637317 
1880	-0.660975870440492 
1881	 0.106848140891407 
1882	 0.513166053298608 
1883	 1.32584666910788 
1884	 6.56254323767411 
1885	-3.66999391874553 
1886	-1.93388777668332 
1887	-3.27188652528261 
1888	-4.08993744447342 
1889	-0.076382412309716 
1890	 3.52873938122846 
1891	 8.22730478648756 
1892	 9.37582735788868 
1893	 40.1849445822599 
1894	-14.1964952845107 
1895	-7.26149835942966 
1896	 1.18690306559027 
1897	-1.01913058699843 
1898	-0.294921988559169 
1899	-0.111602393104415 
1900	-3.52683838286369E-02 
1901	 0.216661712539151 
1902	 0.32308850876031 
1903	 0.412799185156962 
1904	 0.303919708169109 
1905	 0.145244733744804 
1906	-0.15988210511298 
1907	 0.53136499014689 
1908	 4.83605542600371 
1909	-0.130453909253052 
1910	 0.414260219660697 
1911	 0.284573662442755 
1912	 0.110867258956499 
1913	 0.154066268208023 
1914	-0.297263630610174 
1915	-0.350013721692124 
1916	-10.8700847882843 
1917	-1.43235257693949 
1918	-0.646039185038765 
1919	-0.510359973330649 
1920	-8.50301515360926E-02 
1921	 0.183080565799051 
1922	-0.488540665611875 
1923	 4.74709410757696 
1924	 1.03905699761428 
1925	 0.430852583694508 
1926	 0.588816206425461 
1927	 1.37588302557772 
1928	 2.11822253903331 
1929	 2.09353735188489 
1930	 1.57227974693664 
1931	 1.47268956448389 
1932	 1.05641237377417 
1933	 0.452745234792602 
1934	 0.147272554606867 
1935	 9.18542253661614E-03 
1936	-8.07259044386249E-02 
1937	 8.80400590802976E-02 
1938	 0.241164803199893 
1939	 0.230489652837598 
1940	 0.165536724618192 
1941	 9.89316013544663E-02 
1942	 3.36752543405768E-02 
1943	 7.07783500692574E-02 
1944	 0.23504573003681 
1945	 0.223246288158847 
1946	 0.215775501018009 
1947	 0.246699379340188 
1948	 0.168738170181641 
1949	 0.119160957474837 
1950	 0.100203553377616 
1951	 6.11448829769776E-02 
1952	 2.68383312044163E-02 
1953	 4.86785049819177E-03 
1954	-4.00208255898381E-03 
1955	-0.001202700668436 
1956	-8.55159778509023E-03 
1957	-1.28244194932893E-02 
1958	 2.21057811212718E-02 
1959	 3.43384202664223E-02 
1960	 3.17856069496427E-02 
1961	 3.99906100369684E-02 
1962	 4.79374633183061E-02 
1963	 5.32114285273122E-02 
1964	 5.15316166168682E-02 
1965	 5.95077525511972E-02 
1966	 5.55223458345154E-02 
1967	 0.045712663316088 
1968	 3.14661355012376E-02 
1969	 3.11210025573893E-02 
1970	 2.85563592227781E-02 
1971	 2.75817163212931E-02 
1972	 3.53327543872928E-02 
1973	 3.99147058064573E-02 
1974	 3.62548659238019E-02 
1975	 3.69823825487619E-02 
1976	 4.33446388137953E-02 
1977	 4.42554986983752E-02 
1978	 4.26122322919315E-02 
1979	 4.22271012494429E-02 
1980	 4.25608918061771E-02 
1981	 3.89470476617625E-02 
1982	 3.70135785529581E-02 
1983	 4.07588474356641E-02 
1984	 4.34078619440359E-02 
1985	 0.043643948646165 
1986	 4.28628666271067E-02 
1987	 3.82152309395875E-02 
1988	 3.54075335402995E-02 
1989	 3.33114695669157E-02 
1990	 3.00445019404917E-02 
1991	 3.13783100239282E-02 
1992	 3.25230552902298E-02 
1993	 3.16793586779056E-02 
1994	 3.11031107514961E-02 
1995	 0.030323580679261 
1996	 3.02815275151473E-02 
1997	 0.032567128795175 
1998	 3.56965202522346E-02 
1999	 3.87632958153349E-02 
2000	 4.06398466047827E-02 
2001	 4.13356653883756E-02 
2002	 3.57530428232608E-02 
2003	 3.16444284609842E-02 
2004	 3.53206044736127E-02 
2005	 3.11446160501083E-02 
2006	 2.90261005205912E-02 
2007	 3.52857090902472E-02 
2008	 3.23246275286012E-02 
2009	 3.33260825213696E-02 
2010	 3.72632065456486E-02 
2011	 4.18560222946874E-02 
2012	 4.61775295694581E-02 
2013	 5.17518365918348E-02 
2014	 5.84725580388338E-02 
2015	 6.27805103351632E-02 
2016	 6.54247069062678E-02 
2017	 6.47531447839156E-02 
2018	 5.58114281396547E-02 
2019	 4.79755444047004E-02 
2020	 4.29517931370701E-02 
2021	 3.77743417814208E-02 
2022	 3.66723923135405E-02 
2023	 3.90617302305595E-02 
2024	 4.00782580534599E-02 
2025	 3.86950222294746E-02 
2026	 4.00496978744916E-02 
2027	 4.41175392747385E-02 
2028	 4.63523601532233E-02 
2029	 0.043892171478921 
2030	 4.61963839325105E-02 
2031	 4.70385743502015E-02 
2032	 4.31613864204984E-02 
2033	 4.17351847035428E-02 
2034	 4.14411283550237E-02 
2035	 3.82314413675768E-02 
2036	 3.70418866725692E-02 
2037	 3.97749341747459E-02 
2038	 3.95274870989703E-02 
2039	 3.90465310954252E-02 
2040	 3.92142411819145E-02 
2041	 3.90813899129065E-02 
2042	 3.70128096129061E-02 
2043	 3.69168101817226E-02 
2044	 3.85165281951171E-02 
2045	 3.82865265995551E-02 
2046	 4.00872178549725E-02 
2047	 4.24962438071498E-02 
2048	 4.54308360615843E-02 
2049	 5.11550752689714E-02 
2050	 5.27169266963857E-02 
2051	 5.04207282517569E-02 
2052	 4.72583714509877E-02 
2053	 4.23918845227951E-02 
2054	 0.042273925922379 
2055	 0.045043416236605 
2056	 4.52423191414234E-02 
2057	 4.63467660029969E-02 
2058	 4.65456665168114E-02 
2059	 4.38126226181249E-02 
2060	 4.28056133206125E-02 
2061	 4.30887116230997E-02 
2062	 4.32356291613115E-02 
2063	 4.30997405545326E-02 
2064	 4.41491968955075E-02 
2065	 4.34145450171621E-02 
2066	 4.27856939687972E-02 
2067	 4.43523433521987E-02 
2068	 4.61162777991588E-02 
2069	 4.67297695695943E-02 
2070	 4.80699584586252E-02 
2071	 5.11139961364232E-02 
2072	 5.20854539339418E-02 
2073	 5.27327116494161E-02 
2074	 5.59051943033053E-02 
2075	 5.60490025593065E-02 
2076	 5.27291160463423E-02 
2077	 5.11402380718161E-02 
2078	 4.83459944722695E-02 
2079	 4.74604880992467E-02 
2080	 4.75722883642734E-02 
2081	 4.75451779713567E-02 
2082	 5.05993813314836E-02 
2083	 5.41199635913402E-02 
2084	 5.50358264691766E-02 
2085	 5.55963131031954E-02 
2086	 5.37172677032245E-02 
2087	 0.051586302457122 
2088	 5.07125386215416E-02 
2089	 5.07928960880596E-02 
2090	 5.17451366280034E-02 
2091	 5.31269185683809E-02 
2092	 0.052940782370443 
2093	 5.11857333006958E-02 
2094	 5.13130094024741E-02 
2095	 5.09876644615814E-02 
2096	 5.14003621579461E-02 
2097	 5.45569104759113E-02 
2098	 5.56053743597502E-02 
2099	 5.63994705111328E-02 
2100	 5.50217848879367E-02 
2101	 5.21278581519794E-02 
2102	 0.051910919986515 
2103	 5.22532125660171E-02 
2104	 5.28305853661658E-02 
2105	 5.42135877098688E-02 
2106	 5.37636909702643E-02 
2107	 5.14644218135732E-02 
2108	 4.99758217437364E-02 
2109	 5.08515756023761E-02 
2110	 5.12173444723099E-02 
2111	 5.17196878322758E-02 
2112	 5.39329288450082E-02 
2113	 5.46417467198597E-02 
2114	 5.42526838140874E-02 
2115	 5.39560505797794E-02 
2116	 5.24582532773518E-02 
2117	 5.23802413389457E-02 
2118	 5.28833488380753E-02 
2119	 5.37272725214749E-02 
2120	 5.53233479490184E-02 
2121	 5.80902129264335E-02 
2122	 0.058929260125884 
2123	 5.93789740554093E-02 
2124	 6.09178061702741E-02 
2125	 5.91429586941638E-02 
2126	 5.88465176819754E-02 
2127	 6.00524874506641E-02 
2128	 5.83814429933194E-02 
2129	 5.84666343628251E-02 
2130	 5.90177699121061E-02 
2131	 5.86996542206691E-02 
2132	 5.88532148780576E-02 
2133	 5.89985278596047E-02 
2134	 5.93920330325723E-02 
2135	 5.94194487669149E-02 
2136	 5.91782641497709E-02 
2137	 5.89494813259291E-02 
2138	 5.93296004510933E-02 
2139	 5.96802022005494E-02 
2140	 5.92251112620135E-02 
2141	 5.98682838238857E-02 
2142	 5.92160154766974E-02 
2143	 5.63107694799447E-02 
2144	 5.51668081119616E-02 
2145	 5.45370000950832E-02 
2146	 5.39341871735465E-02 
2147	 5.44095435380282E-02 
2148	 5.47426852530029E-02 
2149	 5.38738930767055E-02 
2150	 5.20026580273685E-02 
2151	 5.25008031584923E-02 
2152	 5.43254883682077E-02 
2153	 5.41429575707042E-02 
2154	 5.57388299515977E-02 
2155	 5.81056420790982E-02 
2156	 5.68357793099444E-02 
2157	 5.67351288601247E-02 
2158	 5.79674376410387E-02 
2159	 5.81716702880385E-02 
2160	 5.74440252285142E-02 
2161	 5.61398607522857E-02 
2162	 5.46497728289849E-02 
2163	 5.31698120617857E-02 
2164	 0.04926852207233 
2165	 0.048446039858694 
2166	 5.09878723871391E-02 
2167	 5.12203885600732E-02 
2168	 5.10631452235378E-02 
2169	 5.17677834711609E-02 
2170	 5.32821584050817E-02 
2171	 5.04886437553393E-02 
2172	 5.02206360726873E-02 
2173	 0.050593152309738 
2174	 4.99682239358954E-02 
2175	 5.16408849274007E-02 
2176	 5.20775226212692E-02 
2177	 5.34192163215092E-02 
2178	 5.48454292500552E-02 
2179	 5.31862220024183E-02 
2180	 0.05198079317336 
2181	 5.04372970074436E-02 
2182	 4.95805739448218E-02 
2183	 5.06360626741898E-02 
2184	 5.41110302773985E-02 
2185	 5.80084851555354E-02 
2186	 5.81254298138167E-02 
2187	 5.37353053607455E-02 
2188	 5.29179634586589E-02 
2189	 5.14563221515671E-02 
2190	 5.14422253210085E-02 
2191	 5.38306683201895E-02 
2192	 5.58729215318619E-02 
2193	 5.93146293166832E-02 
2194	 5.95012633660527E-02 
2195	 5.95351214713096E-02 
2196	 5.76094242925943E-02 
2197	 4.75673209251413E-02 
2198	 4.57540962952869E-02 
2199	 4.75608249893278E-02 
2200	 5.14350915275694E-02 
2201	 5.53273555762984E-02 
2202	 5.89488337243645E-02 
2203	 5.83919713796672E-02 
2204	 5.55119809605654E-02 
2205	 5.39914360504298E-02 
2206	 5.20090929326006E-02 
2207	 4.97482993668103E-02 
2208	 4.99522326960714E-02 
2209	 5.31804167882451E-02 
2210	 5.60972784915524E-02 
2211	 5.64163645080461E-02 
2212	 0.056403547583325 
2213	 5.79799870153377E-02 
2214	 5.97632320763239E-02 
2215	 5.98568611081412E-02 
2216	 5.89008682173903E-02 
2217	 5.74898436239298E-02 
2218	 5.23845513848632E-02 
2219	 5.19458412286352E-02 
2220	 5.43568029353234E-02 
2221	 5.47915688515779E-02 
2222	 5.65620131978628E-02 
2223	 5.66890008679013E-02 
2224	 5.52752962077263E-02 
2225	 5.40669211670859E-02 
2226	 5.16247511978316E-02 
2227	 5.14942351464754E-02 
2228	 5.16192141387886E-02 
2229	 5.28804408935933E-02 
2230	 5.70328859067307E-02 
2231	 5.84606519327853E-02 
2232	 5.88137323032323E-02 
2233	 6.06063699872072E-02 
2234	 6.30759670409543E-02 
2235	 6.45402326404489E-02 
2236	 6.29970478125216E-02 
2237	 5.68955540684443E-02 
2238	 4.98693397462366E-02 
2239	 4.75898226969626E-02 
2240	 5.03235322542339E-02 
2241	 0.052443483989159 
2242	 5.34799338297864E-02 
2243	 5.48982942289334E-02 
2244	 5.54689824784523E-02 
2245	 5.78603558936002E-02 
2246	 6.11332001161564E-02 
2247	 5.93535186927695E-02 
2248	 5.63938738999454E-02 
2249	 5.84029048517487E-02 
2250	 5.78669160912603E-02 
2251	 5.67809603779421E-02 
2252	 6.18625971000358E-02 
2253	 6.45542288659054E-02 
2254	 6.30434025890343E-02 
2255	 6.11254155964158E-02 
2256	 6.14115125541461E-02 
2257	 5.71934725423279E-02 
2258	 5.17733587336009E-02 
2259	 0.05449173707802 
2260	 5.56912386325493E-02 
2261	 5.67324032833607E-02 
2262	 5.59383882155292E-02 
2263	 5.54038212578301E-02 
2264	 5.48319169073585E-02 
2265	 5.04516620832138E-02 
2266	 4.89843497834022E-02 
2267	 0.053035382212053 
2268	 5.27378480962034E-02 
2269	 4.71624372083449E-02 
2270	 4.67981121560006E-02 
2271	 4.96893990240802E-02 
2272	 5.03888554518425E-02 
2273	 5.24898248650447E-02 
2274	 5.55737400601169E-02 
2275	 5.75429589815983E-02 
2276	 5.81934678052208E-02 
2277	 6.05077239703316E-02 
2278	 6.16086025952347E-02 
2279	 5.82316846635345E-02 
2280	 5.68719989757692E-02 
2281	 5.60327758498335E-02 
2282	 6.04760883139204E-02 
2283	 5.93527210380027E-02 
2284	 5.63544144231759E-02 
2285	 5.71292675543891E-02 
2286	 5.40926153268509E-02 
2287	 0.045941776434848 
2288	 4.58825506175203E-02 
2289	 4.67831264820073E-02 
2290	 0.037756188921532 
2291	 0.03070531209464 
2292	 3.10082861914898E-02 
2293	 3.29013706068002E-02 
2294	 3.76753995024509E-02 
2295	 4.18667171850275E-02 
2296	 4.31777187439343E-02 
2297	 0.040035713006603 
2298	 3.30621567743784E-02 
2299	 3.38677646510823E-02 
2300	 3.63226573913075E-02 
2301	 3.65962340344924E-02 
2302	 4.06960622743825E-02 
2303	 5.09959485394902E-02 
2304	 5.66158519172379E-02 
2305	 0.057300726945727 
2306	 0.059192015843235 
2307	 4.90100913523524E-02 
2308	 0.041994039124948 
2309	 4.26621815823036E-02 
2310	 3.67432746446205E-02 
2311	 3.41084697609326E-02 
2312	 3.17767507356301E-02 
2313	 3.08144621395008E-02 
2314	 3.98029076654628E-02 
2315	 4.54178910742252E-02 
2316	 4.90569305233655E-02 
2317	 4.17627011843436E-02 
2318	 2.34957872057103E-02 
2319	 2.30640130088569E-02 
2320	 2.39036518227921E-02 
2321	 1.93982103486495E-02 
2322	 2.76290218336094E-02 
2323	 3.20860238286661E-02 
2324	 3.04479373595686E-02 
2325	 4.15163538171333E-02 
2326	 4.78868167483386E-02 
2327	 3.78655078277395E-02 
2328	 3.24363805747459E-02 
2329	 3.70671217725786E-02 
2330	 3.69824088241135E-02 
2331	 3.06974369613931E-02 
2332	 3.45384646856295E-02 
2333	 3.81946956197784E-02 
2334	 3.59717658358256E-02 
2335	 4.04226466964987E-02 
2336	 3.84620051959359E-02 
2337	 3.96756692289661E-02 
2338	 5.53179006431157E-02 
2339	 7.74227029998613E-02 
2340	 9.47663623746556E-02 
2341	 8.95457662905719E-02 
2342	 6.24347455666852E-02 
2343	 2.18174223701276E-02 
2344	-3.06865413863342E-03 
2345	-2.90992402354426E-03 
2346	 5.51216733029908E-03 
2347	 0.025364759918471 
2348	 4.96586453452482E-02 
2349	 4.62223322509386E-02 
2350	 3.12855105109163E-02 
2351	 3.98481941589906E-02 
2352	 3.60420298112296E-02 
2353	 1.48245102591983E-02 
2354	 3.73412844628702E-02 
2355	 6.28394989405542E-02 
2356	 4.29004200708979E-02 
2357	 4.34248364513612E-02 
2358	 3.43874142650601E-02 
2359	-5.94490437221316E-04 
2360	 2.29903227050259E-03 
2361	 1.50179168730479E-02 
2362	 2.45464213901959E-02 
2363	 4.96311399382591E-02 
2364	 7.51625073706363E-02 
2365	 7.30383896677678E-02 
2366	 5.50968540423375E-02 
2367	 5.16243982020714E-02 
2368	 4.67594543458326E-02 
2369	 5.33907861246218E-02 
2370	 6.64450253313055E-02 
2371	 6.58821311408759E-02 
2372	 5.95568949198468E-02 
2373	 2.62190707384108E-02 
2374	 9.14490814276155E-03 
2375	 0.046758009026429 
2376	 0.043802209337483 
2377	 0.033587271668015 
2378	 4.61573270188935E-02 
2379	 1.29545847421605E-03 
2380	-3.77664267808081E-02 
2381	-9.15443450168544E-03 
2382	 1.58426456355478E-03 
2383	-1.90477754814973E-02 
2384	-9.65808131108126E-03 
2385	-4.82394116266361E-02 
2386	-0.083293256756263 
2387	-5.24583172346384E-02 
2388	-7.25765126095164E-02 
2389	-3.03160488112435E-02 
2390	 2.06923039989228E-02 
2391	 0.021211879481508 
2392	 6.39208973548606E-02 
2393	 5.80913988045772E-02 
2394	 5.65561222844941E-02 
2395	 0.106102659069666 
2396	 7.96703366813598E-02 
2397	 2.92653810820046E-02 
2398	 2.35976704843645E-02 
2399	-1.29749154130226E-02 
2400	 8.22141064397001E-03 
2401	 0.110752963653044 
2402	 9.97812554941312E-02 
2403	 1.90405386938232E-02 
2404	-5.63460925216969E-02 
2405	-0.112263575042765 
2406	-0.1383593057905 
2407	-0.230331587577165 
2408	-0.27312595466935 
2409	-0.220067835554443 
2410	-0.289045713765498 
2411	-0.248846400549884 
2412	-0.184874667040684 
2413	-0.354032316068136 
2414	-0.37873606190152 
2415	-9.96556521465483E-02 
2416	-3.13177306284357E-02 
2417	-0.090456377804371 
2418	-3.15133797724335E-02 
2419	-0.119161267609103 
2420	-0.147863945698737 
2421	-0.101375155592375 
2422	-0.199468428316502 
2423	-0.297023073412639 
2424	-0.274112191817625 
2425	-0.113870254050735 
2426	 9.90613868156435E-02 
2427	-3.78252306925158E-02 
2428	-0.253125809745726 
2429	-0.364653875545038 
2430	-0.326752353167309 
2431	-0.284928062874449 
2432	-0.321698901923902 
2433	-0.327904951588028 
2434	-0.369134666979919 
2435	-0.44017363508474 
2436	-0.181386822553384 
2437	-8.26661514161823E-04 
2438	-0.142735315016225 
2439	-2.28739829056952E-02 
2440	 2.66977989908716E-02 
2441	-0.294691778430647 
2442	-0.188881861293374 
2443	-0.15126041311733 
2444	-0.314694093186731 
2445	-0.289010816006381 
2446	-0.378972940682623 
2447	-0.446541395138886 
2448	-0.744681322597306 
2449	-1.14115256820364 
2450	-1.52274871589552 
2451	-8.55014439630733 
2452	 46.6006083224308 
2453	-2.66126592276733 
2454	-2.46919202346237 
2455	-2.18717312851958 
2456	-3.86267280958676 
2457	 21.6421830238308 
2458	 16.6386480072595 
2459	 7.51119527396118 
2460	 24.5137052791714 
2461	-30.1427199409577 
2462	-18.1564921367048 
2463	-4.14238037888566 
2464	-2.27160419643506 
2465	-1.26061504727766 
2466	-1.7890461404871 
2467	-12.5328569499003 
2468	-37.6761403165547 
2469	-3.05711656052333 
2470	-3.45579819598224 
2471	-4.2716465099841 
2472	-3.79331148559106 
2473	 0.633131732832316 
2474	 0.368877998618731 
2475	 0.134282286125189 
2476	-9.14822207589955E-02 
2477	 0.785519472209259 
2478	-2.20902870305049 
2479	-0.478220019816826 
2480	-0.503624193280175 
2481	-0.408744554241405 
2482	 1.08176702623796 
2483	-1.87788783268001 
2484	 7.11128677591048E-02 
2485	-5.60636503656322E-03 
2486	 0.838361998769293 
2487	 1.68686843666129 
2488	 9.52759558180187 
2489	 7.62142240819011 
2490	 39.1736083992141 
2491	-2.8655659012327 
2492	-2.48514978000308 
2493	-1.17224274659863 
2494	-0.171287611131239 
2495	 0.711511804703021 
2496	 0.552702095333742 
2497	 0.726201387858538 
2498	-0.962762848305281 
2499	 0.060021323270683 
2500	 5.19493018800305E-02 
