Wavelength	rt0714yellow00007.asd
350	 7.42466065002083E-02 
351	 7.39130229809187E-02 
352	 7.32767162484632E-02 
353	 7.31895401390814E-02 
354	 7.38248582389815E-02 
355	 7.37977220838273E-02 
356	 7.37196350038532E-02 
357	 7.41716057341874E-02 
358	 7.51733656106396E-02 
359	 7.44554045711917E-02 
360	 7.40095254354344E-02 
361	 7.42666596339912E-02 
362	 7.44825786234905E-02 
363	 7.46266466966435E-02 
364	 7.49083688171209E-02 
365	 0.07516883536645 
366	 0.074618163336044 
367	 7.50136043797104E-02 
368	 7.56686129345644E-02 
369	 7.56648786946844E-02 
370	 7.56841833982661E-02 
371	 7.60691537301565E-02 
372	 7.64309093585336E-02 
373	 7.61627879794647E-02 
374	 7.67507363874078E-02 
375	 7.76776153038643E-02 
376	 7.83399025960551E-02 
377	 7.83624093556112E-02 
378	 7.86327445007917E-02 
379	 7.89066713381123E-02 
380	 7.89900537128862E-02 
381	 7.97198305842758E-02 
382	 8.06924349635164E-02 
383	 8.14279329964748E-02 
384	 8.16125308774127E-02 
385	 8.22899752238145E-02 
386	 8.25942968447596E-02 
387	 8.26028247099578E-02 
388	 8.35406339960239E-02 
389	 8.47936758208579E-02 
390	 8.53130790797089E-02 
391	 8.50300864924395E-02 
392	 0.086394068295879 
393	 8.71705566601657E-02 
394	 0.087404507710846 
395	 8.79378652593868E-02 
396	 8.88873590658361E-02 
397	 8.93393757671369E-02 
398	 8.93482850467731E-02 
399	 0.089783871398595 
400	 9.01998036630855E-02 
401	 9.05703649580627E-02 
402	 9.10017213261309E-02 
403	 9.17838888463854E-02 
404	 9.23916942304151E-02 
405	 9.27364344974728E-02 
406	 9.29837214391392E-02 
407	 9.36505009904406E-02 
408	 0.094295500293762 
409	 9.49167892235088E-02 
410	 9.59405355198018E-02 
411	 9.60942723154403E-02 
412	 9.62684349098619E-02 
413	 9.71247678640453E-02 
414	 0.09784777107268 
415	 9.86611112731145E-02 
416	 9.94317484421215E-02 
417	 9.99680843014802E-02 
418	 0.100500542988129 
419	 0.101314965326572 
420	 0.102284407393297 
421	 0.102875381477675 
422	 0.103780237792405 
423	 0.104735671612337 
424	 0.105513979956331 
425	 0.106582007264288 
426	 0.107422647918792 
427	 0.108293690239043 
428	 0.109686324487474 
429	 0.110921970031724 
430	 0.112039725652093 
431	 0.113151354637258 
432	 0.114373254931594 
433	 0.115562331756074 
434	 0.116596438140275 
435	 0.117503785396518 
436	 0.118719623876816 
437	 0.119986556041107 
438	 0.1211994323821 
439	 0.12235243450102 
440	 0.123577237950318 
441	 0.124681095611026 
442	 0.12563252737114 
443	 0.126683691230647 
444	 0.127742007736724 
445	 0.128665000366581 
446	 0.12940625705906 
447	 0.130355286100396 
448	 0.13120710586977 
449	 0.131910774637183 
450	 0.132614197891737 
451	 0.133288387639942 
452	 0.133880408743441 
453	 0.134401385801245 
454	 0.135003479389828 
455	 0.135521415843973 
456	 0.136023332740327 
457	 0.136596233434969 
458	 0.136967363835599 
459	 0.137279149379524 
460	 0.137649564942523 
461	 0.138137599273206 
462	 0.138601594172397 
463	 0.138945898242329 
464	 0.139197255515089 
465	 0.139677659774266 
466	 0.140153589666934 
467	 0.140572619744278 
468	 0.14097088979983 
469	 0.141347062222911 
470	 0.141626021823098 
471	 0.141935543556458 
472	 0.142673804904229 
473	 0.143232709477818 
474	 0.143674130003218 
475	 0.144180213777644 
476	 0.144665269247656 
477	 0.145189351043296 
478	 0.145746964602238 
479	 0.146296642328129 
480	 0.146917426288904 
481	 0.147553121796573 
482	 0.148194346004125 
483	 0.148965434500498 
484	 0.149705672846254 
485	 0.150469580105018 
486	 0.151343801182393 
487	 0.152132052892456 
488	 0.152918991138487 
489	 0.153801830190841 
490	 0.154860718350794 
491	 0.155792447281291 
492	 0.156706578447203 
493	 0.157709007466716 
494	 0.158664892372628 
495	 0.159737046541928 
496	 0.160861556054299 
497	 0.161890193421444 
498	 0.162986300679125 
499	 0.164140614218726 
500	 0.165320096889178 
501	 0.166484258913792 
502	 0.167721764038919 
503	 0.169027019293304 
504	 0.170344002066539 
505	 0.171532395506967 
506	 0.172691981947673 
507	 0.173867614282968 
508	 0.175061381444158 
509	 0.176426708890252 
510	 0.177855881932572 
511	 0.17919829834559 
512	 0.180272254014404 
513	 0.181597529183199 
514	 0.183077725121081 
515	 0.184389659966261 
516	 0.185848708182709 
517	 0.187373943887677 
518	 0.188864300427214 
519	 0.190249044766614 
520	 0.191535025117996 
521	 0.19284258292389 
522	 0.194258436744714 
523	 0.19563789331597 
524	 0.197087543926525 
525	 0.198515667594078 
526	 0.199746971793488 
527	 0.201303164642748 
528	 0.202868581359182 
529	 0.204231273381744 
530	 0.205625907981909 
531	 0.206969231785068 
532	 0.208329308944585 
533	 0.209772984211065 
534	 0.211071613024063 
535	 0.212329336816195 
536	 0.213619328768119 
537	 0.214945238737481 
538	 0.216413151558057 
539	 0.217829373548897 
540	 0.219045163832294 
541	 0.220278414847473 
542	 0.221647154237021 
543	 0.223014841487351 
544	 0.224136523137845 
545	 0.225376204770934 
546	 0.226614561042917 
547	 0.227751314214064 
548	 0.228846566894929 
549	 0.229910018249954 
550	 0.231001846058381 
551	 0.232159241155303 
552	 0.233190772854624 
553	 0.234209091977963 
554	 0.235254975501816 
555	 0.236261679900124 
556	 0.23718516781063 
557	 0.238164474980444 
558	 0.239241027036088 
559	 0.240040335510466 
560	 0.240728245083185 
561	 0.241438712730428 
562	 0.242265794008091 
563	 0.243059601398485 
564	 0.243789950746617 
565	 0.244462856858446 
566	 0.245124457015361 
567	 0.245761413701846 
568	 0.246314783199115 
569	 0.246757267467121 
570	 0.247343991095828 
571	 0.247917818756592 
572	 0.248347054933771 
573	 0.24856665452224 
574	 0.249013224199917 
575	 0.249475473331304 
576	 0.249747957753896 
577	 0.250200736502417 
578	 0.25044530569298 
579	 0.250571507942867 
580	 0.250921826498456 
581	 0.25117118818323 
582	 0.251308950148367 
583	 0.25140721909623 
584	 0.25163114856156 
585	 0.251653811925161 
586	 0.251551212366131 
587	 0.251520612019463 
588	 0.25152066655644 
589	 0.251491910765582 
590	 0.251452728678855 
591	 0.251493382495923 
592	 0.251351668236878 
593	 0.251159691330189 
594	 0.251031250361199 
595	 0.25075789214045 
596	 0.250429154027246 
597	 0.250061858589269 
598	 0.249642987270166 
599	 0.249246698541693 
600	 0.248897041606348 
601	 0.248638520761143 
602	 0.248577881276817 
603	 0.248389354524797 
604	 0.248166239161721 
605	 0.248093867698705 
606	 0.248041408252404 
607	 0.247999920858969 
608	 0.248012047796647 
609	 0.24815400946465 
610	 0.248061477623057 
611	 0.247943326644085 
612	 0.24798157711554 
613	 0.24790253891681 
614	 0.247803805285805 
615	 0.247731242164564 
616	 0.247688373981573 
617	 0.247523007739053 
618	 0.24744134134965 
619	 0.247519518654503 
620	 0.247577415409127 
621	 0.247531585015081 
622	 0.247429122647597 
623	 0.247352961395268 
624	 0.247268444304265 
625	 0.247274941428906 
626	 0.247318296306116 
627	 0.24720692405369 
628	 0.247078192893416 
629	 0.246982951454147 
630	 0.24695144418755 
631	 0.247042074846404 
632	 0.246918413811778 
633	 0.24671781078985 
634	 0.246742116289809 
635	 0.246590221635741 
636	 0.246457850521341 
637	 0.246421100019346 
638	 0.246308840579247 
639	 0.246068793928171 
640	 0.245862938191244 
641	 0.245825487748342 
642	 0.245704627719691 
643	 0.245431891432262 
644	 0.245130583247808 
645	 0.245053374796366 
646	 0.244824209349333 
647	 0.244601982316183 
648	 0.244510906362539 
649	 0.244374153847269 
650	 0.244137887330824 
651	 0.243797588331399 
652	 0.243412006452618 
653	 0.243174829214608 
654	 0.242909987611059 
655	 0.24251556821763 
656	 0.242083274117727 
657	 0.241755037932419 
658	 0.241428082353987 
659	 0.241000135722632 
660	 0.240541764446324 
661	 0.240255248367861 
662	 0.240038615926258 
663	 0.239638027389851 
664	 0.239350309787062 
665	 0.239120508931628 
666	 0.238880603290989 
667	 0.238624622312567 
668	 0.238403382375544 
669	 0.238268479183473 
670	 0.238230446299994 
671	 0.23811067208473 
672	 0.2380183135135 
673	 0.237970052873101 
674	 0.237887201176431 
675	 0.237770222798576 
676	 0.237849275444568 
677	 0.238150650663035 
678	 0.238059172827191 
679	 0.238205459957396 
680	 0.238475148608274 
681	 0.238511599414922 
682	 0.238826752654399 
683	 0.239230953171401 
684	 0.239520009846854 
685	 0.239559336422471 
686	 0.239866041497714 
687	 0.240331878026852 
688	 0.240689753725507 
689	 0.241141913034061 
690	 0.241379276558965 
691	 0.241544137996761 
692	 0.241990106840766 
693	 0.2421500681666 
694	 0.242304324603257 
695	 0.242527952218679 
696	 0.242383977021982 
697	 0.242405869455001 
698	 0.242468290756685 
699	 0.242295889070586 
700	 0.241975710185344 
701	 0.241592157244037 
702	 0.241309682984325 
703	 0.241271872635934 
704	 0.240736226383852 
705	 0.24013666521284 
706	 0.239762198651925 
707	 0.239146128008813 
708	 0.238485894228148 
709	 0.237874975730818 
710	 0.237292424661001 
711	 0.236277966500469 
712	 0.235216501039077 
713	 0.234283283955541 
714	 0.233350508277587 
715	 0.232238510449678 
716	 0.231209014949374 
717	 0.230478050364247 
718	 0.229024771968243 
719	 0.227662527273116 
720	 0.226590746177063 
721	 0.225490178027664 
722	 0.224586839468039 
723	 0.223552985230617 
724	 0.22232642201287 
725	 0.220977046752585 
726	 0.219679005435858 
727	 0.218485562642335 
728	 0.217323164604735 
729	 0.215772296178761 
730	 0.21429282076886 
731	 0.213070758040179 
732	 0.212020148606518 
733	 0.21088435445249 
734	 0.209921408513408 
735	 0.20923049504399 
736	 0.208642033997082 
737	 0.208371553894723 
738	 0.208149063292305 
739	 0.207753533639731 
740	 0.207421488306213 
741	 0.207281496158014 
742	 0.207220935853409 
743	 0.207034081640467 
744	 0.206946745712412 
745	 0.206933927874833 
746	 0.206886740471996 
747	 0.206620943795343 
748	 0.206588041948013 
749	 0.206607869805868 
750	 0.206460279811782 
751	 0.206353484290889 
752	 0.206334630496252 
753	 0.206320466923079 
754	 0.206195711760562 
755	 0.206256451807892 
756	 0.206210237077462 
757	 0.206012966781317 
758	 0.206078864722917 
759	 0.205961336892473 
760	 0.205837215842104 
761	 0.206065186407178 
762	 0.205780788661031 
763	 0.205664383761343 
764	 0.20574053826979 
765	 0.205796212308452 
766	 0.20575756107102 
767	 0.205710814433939 
768	 0.205694087705186 
769	 0.205704776323307 
770	 0.205706868888357 
771	 0.205719542525599 
772	 0.20575844103879 
773	 0.205793971872809 
774	 0.205890141310619 
775	 0.205950508112446 
776	 0.205879396104076 
777	 0.206029181762891 
778	 0.20612295481619 
779	 0.206146092464633 
780	 0.206367904153684 
781	 0.206435205844925 
782	 0.206355670988776 
783	 0.206285249736794 
784	 0.206567988942028 
785	 0.206772317678805 
786	 0.206891924631274 
787	 0.207058342541436 
788	 0.207254780188553 
789	 0.207398326307426 
790	 0.207494653266818 
791	 0.20762202961756 
792	 0.207737404774006 
793	 0.207941810691801 
794	 0.208236357646881 
795	 0.208431509577598 
796	 0.208531468619194 
797	 0.208620564983495 
798	 0.208775663851434 
799	 0.208941128169888 
800	 0.209102545849089 
801	 0.20920688806768 
802	 0.209211187459194 
803	 0.20925235275433 
804	 0.209368021025975 
805	 0.209458910237442 
806	 0.209314423270167 
807	 0.209402238915114 
808	 0.209301184760979 
809	 0.20881745460783 
810	 0.208798700506327 
811	 0.208792063319634 
812	 0.208543219073614 
813	 0.207993405894932 
814	 0.207881135070048 
815	 0.207705883747435 
816	 0.207300490173489 
817	 0.206865885850674 
818	 0.206495376152445 
819	 0.206184270145898 
820	 0.205731271849556 
821	 0.204717991585765 
822	 0.204269946477801 
823	 0.203849645692761 
824	 0.202927628418603 
825	 0.201997797470042 
826	 0.201062466128851 
827	 0.199961482980959 
828	 0.198692866604179 
829	 0.198109307575833 
830	 0.197598019654022 
831	 0.196887468313704 
832	 0.196091036205236 
833	 0.195543924403242 
834	 0.195281303516858 
835	 0.195019909170992 
836	 0.194174619815927 
837	 0.194089839879113 
838	 0.194266528263197 
839	 0.194065925923046 
840	 0.193544611535731 
841	 0.193309880056793 
842	 0.193240847910008 
843	 0.193027410944346 
844	 0.192982903301761 
845	 0.192669581499463 
846	 0.192275565838933 
847	 0.19235299614836 
848	 0.192488104056376 
849	 0.192273660217706 
850	 0.191737290447953 
851	 0.191431910320296 
852	 0.191261282689735 
853	 0.191260897209543 
854	 0.191299430466951 
855	 0.190878376852295 
856	 0.190767655947874 
857	 0.190795089517785 
858	 0.19062062188649 
859	 0.190313631631475 
860	 0.190070800888613 
861	 0.189948846195309 
862	 0.189886404319955 
863	 0.189688761989329 
864	 0.189405705444904 
865	 0.189134950906361 
866	 0.188983110941868 
867	 0.188856131757112 
868	 0.188778752511188 
869	 0.188736729662792 
870	 0.188647779821027 
871	 0.188280381943608 
872	 0.18813929146908 
873	 0.188319880048928 
874	 0.187630810236267 
875	 0.187428395052499 
876	 0.187578411475237 
877	 0.187536260849483 
878	 0.187136463571804 
879	 0.18672943620494 
880	 0.186470119050427 
881	 0.186389083046031 
882	 0.186564155204798 
883	 0.186067053510269 
884	 0.18544163921102 
885	 0.186057057521898 
886	 0.186057017966554 
887	 0.186037029286314 
888	 0.185975376901135 
889	 0.185010716428905 
890	 0.185204811034913 
891	 0.185471705160776 
892	 0.184894259004492 
893	 0.183973813303271 
894	 0.18449666132155 
895	 0.185264980901051 
896	 0.184851304988856 
897	 0.184348723983953 
898	 0.183998928247665 
899	 0.183931314132967 
900	 0.1839196311006 
901	 0.182893200666355 
902	 0.183393237188532 
903	 0.184153764276201 
904	 0.183195689233889 
905	 0.18267729978052 
906	 0.182623824693313 
907	 0.182778903586445 
908	 0.182755233819895 
909	 0.182982164728041 
910	 0.18249715325989 
911	 0.181512171607567 
912	 0.181304133318617 
913	 0.181941137732686 
914	 0.182001785347078 
915	 0.18133935000775 
916	 0.181338075881471 
917	 0.181094346084283 
918	 0.180485909495323 
919	 0.179621173810698 
920	 0.178766527424079 
921	 0.179498896625436 
922	 0.180264520365286 
923	 0.179819121152459 
924	 0.178856727893901 
925	 0.178737712745247 
926	 0.17902537303602 
927	 0.178896822270326 
928	 0.178570199074098 
929	 0.177988895539361 
930	 0.178132376870873 
931	 0.179887533607258 
932	 0.179151974085684 
933	 0.177454326591935 
934	 0.177528734393405 
935	 0.179974826265223 
936	 0.178905392414713 
937	 0.172934308082897 
938	 0.170496918735659 
939	 0.176154228678632 
940	 0.169676491536158 
941	 0.17223708476741 
942	 0.177553857758917 
943	 0.170661187335588 
944	 0.177574124380312 
945	 0.181434886563476 
946	 0.177357579898947 
947	 0.171104852058714 
948	 0.168177567035254 
949	 0.168196173278516 
950	 0.170889394062958 
951	 0.1750883048285 
952	 0.173063434422916 
953	 0.17285716583283 
954	 0.173249673937675 
955	 0.168078361426156 
956	 0.167975038983115 
957	 0.169848869114319 
958	 0.171220282647955 
959	 0.171381828351424 
960	 0.172013610898896 
961	 0.171797102657024 
962	 0.170504894786236 
963	 0.169251580130462 
964	 0.170860185551039 
965	 0.173358966737587 
966	 0.174000364636118 
967	 0.170956674693627 
968	 0.169416841897917 
969	 0.169641368232037 
970	 0.170283699999492 
971	 0.169680533607711 
972	 0.172172895765556 
973	 0.172520954381193 
974	 0.16971666171406 
975	 0.168077089322152 
976	 0.169859333648248 
977	 0.172094079002622 
978	 0.172651761294066 
979	 0.171484667741813 
980	 0.172015667574676 
981	 0.174037051339676 
982	 0.174006078649204 
983	 0.168143644298076 
984	 0.166955421198279 
985	 0.168983691693522 
986	 0.170403158072832 
987	 0.168309857616777 
988	 0.172300137267943 
989	 0.172687570511036 
990	 0.169700740562781 
991	 0.170642226443631 
992	 0.167707132190315 
993	 0.167567784603957 
994	 0.170116527157411 
995	 0.170389382642751 
996	 0.170771471874478 
997	 0.168845660642931 
998	 0.167534231523166 
999	 0.170732899476404 
1000	 0.168104612214781 
1001	 0.169644971015936 
1002	 0.169406247146946 
1003	 0.169290178135778 
1004	 0.169194088749711 
1005	 0.169134113496524 
1006	 0.169203324511948 
1007	 0.168978731532402 
1008	 0.168711352317004 
1009	 0.168264455044184 
1010	 0.168197695027568 
1011	 0.168246575256004 
1012	 0.16816776063836 
1013	 0.168767434289941 
1014	 0.168861077945773 
1015	 0.168520567110662 
1016	 0.168416081074758 
1017	 0.16821103839957 
1018	 0.168277084096453 
1019	 0.168702087038675 
1020	 0.168918486926196 
1021	 0.169387990663023 
1022	 0.169324271336715 
1023	 0.169325957497571 
1024	 0.169263902375594 
1025	 0.16956453999184 
1026	 0.169901352660764 
1027	 0.169889524885271 
1028	 0.169767296503671 
1029	 0.169528647732306 
1030	 0.168769379476479 
1031	 0.168768579451267 
1032	 0.169203486151563 
1033	 0.169380670760546 
1034	 0.169880949223607 
1035	 0.169965839677247 
1036	 0.169412011429558 
1037	 0.169412568833566 
1038	 0.16964470555151 
1039	 0.169990627602995 
1040	 0.169933110577703 
1041	 0.170067759284225 
1042	 0.169884784477749 
1043	 0.169042339168482 
1044	 0.168925324301343 
1045	 0.169173559846658 
1046	 0.169191136579055 
1047	 0.169335913219713 
1048	 0.169440752256121 
1049	 0.169559613323194 
1050	 0.169489251831889 
1051	 0.169307721916024 
1052	 0.169192792550821 
1053	 0.16903842974534 
1054	 0.168766376569371 
1055	 0.168203372958156 
1056	 0.168106243080764 
1057	 0.168159026407537 
1058	 0.168283581685003 
1059	 0.168250438877755 
1060	 0.168584897853746 
1061	 0.168583756189985 
1062	 0.168126262716631 
1063	 0.167948433293964 
1064	 0.167905207853937 
1065	 0.167875334127266 
1066	 0.167620882217025 
1067	 0.167784480364907 
1068	 0.168622971069536 
1069	 0.168829061658 
1070	 0.169059654498777 
1071	 0.1690099919993 
1072	 0.16835942738827 
1073	 0.167537615874113 
1074	 0.167561140694373 
1075	 0.168018297133149 
1076	 0.168153371751278 
1077	 0.168925499246903 
1078	 0.168839108768674 
1079	 0.167819610108688 
1080	 0.167555351397834 
1081	 0.167314163941637 
1082	 0.167284559472691 
1083	 0.167907074533581 
1084	 0.168037458525773 
1085	 0.168103504220333 
1086	 0.167878419431348 
1087	 0.166727080392243 
1088	 0.166459223237664 
1089	 0.16644527846285 
1090	 0.16696674679098 
1091	 0.166913805265333 
1092	 0.167276034221356 
1093	 0.167077195673088 
1094	 0.165859870147442 
1095	 0.16559503886239 
1096	 0.165892120041267 
1097	 0.166109514799967 
1098	 0.166565663657304 
1099	 0.166846398761988 
1100	 0.167349790820523 
1101	 0.16735307424132 
1102	 0.166939100540034 
1103	 0.166898542083753 
1104	 0.166975548786371 
1105	 0.166358429963718 
1106	 0.166091167067602 
1107	 0.165996711821609 
1108	 0.166201209350992 
1109	 0.166477266312519 
1110	 0.166743459957971 
1111	 0.167825722762217 
1112	 0.167859302316885 
1113	 0.166668335869155 
1114	 0.166574032703492 
1115	 0.167059523688349 
1116	 0.167196832796389 
1117	 0.167564519834155 
1118	 0.167700231379984 
1119	 0.167233740430004 
1120	 0.166608529302033 
1121	 0.164809377672918 
1122	 0.165841404158873 
1123	 0.168021965610328 
1124	 0.165873846849992 
1125	 0.167457494545651 
1126	 0.17268130951274 
1127	 0.171492502333199 
1128	 0.16704981146475 
1129	 0.166125242291973 
1130	 0.164640478400938 
1131	 0.163209571392336 
1132	 0.163060358508026 
1133	 0.164766874708729 
1134	 0.166982267614007 
1135	 0.166481696771465 
1136	 0.167523292132206 
1137	 0.166038495581789 
1138	 0.159990364417857 
1139	 0.158549873348284 
1140	 0.159995355151895 
1141	 0.162062066724363 
1142	 0.164744944325646 
1143	 0.163969700997953 
1144	 0.159412082590237 
1145	 0.158030554314734 
1146	 0.159012434099769 
1147	 0.158698247211657 
1148	 0.160362440853991 
1149	 0.159887109049375 
1150	 0.158272913302176 
1151	 0.154088588471771 
1152	 0.154340555789746 
1153	 0.156098019162866 
1154	 0.156372614251461 
1155	 0.157802849203856 
1156	 0.157727929962962 
1157	 0.156536708780181 
1158	 0.156396701846608 
1159	 0.156947167434075 
1160	 0.157456774832005 
1161	 0.158253822890707 
1162	 0.15806497091414 
1163	 0.157184211282974 
1164	 0.156804482843255 
1165	 0.15653276205429 
1166	 0.156857396247235 
1167	 0.157431239315779 
1168	 0.156891058925903 
1169	 0.156911835382852 
1170	 0.156937872940498 
1171	 0.156652134409188 
1172	 0.156253593527953 
1173	 0.156730768718308 
1174	 0.157556959274952 
1175	 0.157521486502348 
1176	 0.15816957904456 
1177	 0.158685151182881 
1178	 0.158055258908489 
1179	 0.157309317211331 
1180	 0.157031952782094 
1181	 0.156917121644953 
1182	 0.157133977629121 
1183	 0.157205116873212 
1184	 0.157005710211155 
1185	 0.157095816190582 
1186	 0.156881884129782 
1187	 0.156652244375458 
1188	 0.157067124611446 
1189	 0.156939372592298 
1190	 0.156437831562444 
1191	 0.156736165754856 
1192	 0.15677724981404 
1193	 0.15667508914574 
1194	 0.156360433839153 
1195	 0.156397368056029 
1196	 0.156064223857053 
1197	 0.156258233356891 
1198	 0.156894397383542 
1199	 0.157103017514327 
1200	 0.15708991895201 
1201	 0.156530462151967 
1202	 0.156031175596437 
1203	 0.156143318223428 
1204	 0.156501638909452 
1205	 0.156530691618727 
1206	 0.156293453521902 
1207	 0.156214955918454 
1208	 0.156351578469709 
1209	 0.156500773625982 
1210	 0.155980046965763 
1211	 0.155791483160262 
1212	 0.15647581775452 
1213	 0.156518230993023 
1214	 0.156354833584386 
1215	 0.15636901892198 
1216	 0.156615000042975 
1217	 0.156209339811687 
1218	 0.155825057477188 
1219	 0.156147178503329 
1220	 0.156427729495702 
1221	 0.156059268766727 
1222	 0.155674592303104 
1223	 0.156037216784176 
1224	 0.156072786291809 
1225	 0.155290576365158 
1226	 0.155173116599347 
1227	 0.155635223864776 
1228	 0.155568010388617 
1229	 0.155508374914535 
1230	 0.155793569891821 
1231	 0.155765810868018 
1232	 0.155548937283343 
1233	 0.155717140529242 
1234	 0.156096328624839 
1235	 0.156078384583552 
1236	 0.15555745884617 
1237	 0.155451054953056 
1238	 0.15539552750843 
1239	 0.155302413564318 
1240	 0.155374119566884 
1241	 0.155554983817157 
1242	 0.155727640617405 
1243	 0.155629419442467 
1244	 0.155296755367872 
1245	 0.155129335808458 
1246	 0.155021133292964 
1247	 0.154838253939558 
1248	 0.154744673153186 
1249	 0.154920903587262 
1250	 0.155097422611911 
1251	 0.155010813343055 
1252	 0.154628519271906 
1253	 0.154362914043173 
1254	 0.154505051083298 
1255	 0.154578454917212 
1256	 0.154439275121557 
1257	 0.154618202085418 
1258	 0.154612260195268 
1259	 0.153901759864601 
1260	 0.153631445528285 
1261	 0.154001059000487 
1262	 0.153979265852266 
1263	 0.153716283909438 
1264	 0.153362152097006 
1265	 0.153548949929293 
1266	 0.153830805596843 
1267	 0.15374945252734 
1268	 0.153600918901688 
1269	 0.153825763266542 
1270	 0.15364641308487 
1271	 0.153313569348058 
1272	 0.153779868300609 
1273	 0.154090068119949 
1274	 0.15409009168547 
1275	 0.154024001452529 
1276	 0.153931049100112 
1277	 0.154054965672178 
1278	 0.153975127669599 
1279	 0.153679005174913 
1280	 0.153539640287062 
1281	 0.153320888472653 
1282	 0.152613305043072 
1283	 0.152345879694584 
1284	 0.152390466859166 
1285	 0.152403517147593 
1286	 0.152531021225775 
1287	 0.152515827538474 
1288	 0.152551127176314 
1289	 0.15259922895663 
1290	 0.152610204249882 
1291	 0.152502774906792 
1292	 0.152556435479409 
1293	 0.152748097917155 
1294	 0.152510992911539 
1295	 0.15215831192034 
1296	 0.152281540459697 
1297	 0.152204383928962 
1298	 0.152208547703203 
1299	 0.152522189932385 
1300	 0.152104360920716 
1301	 0.151597733262294 
1302	 0.151767514477966 
1303	 0.152007998353651 
1304	 0.152111018412933 
1305	 0.152180937654172 
1306	 0.152152654921852 
1307	 0.151572469709973 
1308	 0.151509523631698 
1309	 0.1521676844095 
1310	 0.151816148616316 
1311	 0.15059018087384 
1312	 0.150321285410969 
1313	 0.150103798767098 
1314	 0.149881718153123 
1315	 0.150511727430039 
1316	 0.150622786234669 
1317	 0.150223433939727 
1318	 0.149745706515315 
1319	 0.148800756776922 
1320	 0.148768259837847 
1321	 0.149271787916232 
1322	 0.149185096203087 
1323	 0.149391961694664 
1324	 0.150142301488588 
1325	 0.150054761986199 
1326	 0.149678976381154 
1327	 0.149315166051528 
1328	 0.148400347239822 
1329	 0.148029529408383 
1330	 0.147821029348068 
1331	 0.147912213549899 
1332	 0.148955635676614 
1333	 0.148214936297168 
1334	 0.146309343605746 
1335	 0.145471518431394 
1336	 0.144161919629067 
1337	 0.143819888213771 
1338	 0.145346085144457 
1339	 0.145633168147458 
1340	 0.145739416283476 
1341	 0.146028642485706 
1342	 0.144734544055892 
1343	 0.145112919224652 
1344	 0.149013859368973 
1345	 0.149921989964337 
1346	 0.148966157017045 
1347	 0.150383427241702 
1348	 0.150733825965974 
1349	 0.148407099892567 
1350	 0.147179116878532 
1351	 0.147954089104668 
1352	 0.137588082478577 
1353	 0.125964169889934 
1354	 0.119194805683907 
1355	 0.14336953343119 
1356	 0.118985233635179 
1357	 0.129389327622698 
1358	 0.213145085469358 
1359	 0.219487024757769 
1360	 0.150581905017605 
1361	 0.011281448365441 
1362	-2.73906089278315E-02 
1363	 0.113468828233513 
1364	 3.33233068121646E-03 
1365	-0.100926932483742 
1366	 0.208792397276361 
1367	 0.386837582068735 
1368	 0.16667284855095 
1369	 6.16692541672648E-02 
1370	 8.13540236678387E-02 
1371	-0.42259511339274 
1372	-0.499345757908598 
1373	-0.203850783057924 
1374	 5.13630128376929E-02 
1375	 0.174052262810673 
1376	 0.22810982573521 
1377	 0.771471736462306 
1378	 0.994155649942234 
1379	 0.424916250109276 
1380	 0.344541370727412 
1381	 0.443966445520394 
1382	 0.456137959519339 
1383	 0.259946467434621 
1384	 2.50017638799452E-03 
1385	 9.46513010220482E-02 
1386	 0.106063139351412 
1387	 0.15957288071628 
1388	 0.245191573526811 
1389	 0.526305771156481 
1390	 0.660257379493932 
1391	 0.70668025110624 
1392	 0.705828314361666 
1393	 0.420091712830441 
1394	 0.275556812522981 
1395	 0.358609099253218 
1396	 0.420090492664469 
1397	-0.039424626272253 
1398	-0.328575070800402 
1399	-0.657703667843041 
1400	-0.456019288200345 
1401	 2.39096255436619 
1402	 10.8929894977104 
1403	 0.655351485470954 
1404	 0.447390679916787 
1405	 0.243524911129803 
1406	-0.1054626094028 
1407	-0.149808759184611 
1408	-0.134468378471633 
1409	-0.265022193891496 
1410	-0.418220330214898 
1411	-0.295030231267671 
1412	-0.23702357169847 
1413	-0.175164132346809 
1414	 5.27360107448221E-02 
1415	 0.115344473124762 
1416	 8.18213181109178E-02 
1417	 0.115415701827353 
1418	 0.186747148717925 
1419	 0.171893400492959 
1420	 0.108073349993918 
1421	 0.104464905568106 
1422	 0.108470498091184 
1423	 9.99760634041137E-02 
1424	 0.113232292040363 
1425	 0.109900184289722 
1426	 7.95496600349903E-02 
1427	 7.39882746983696E-02 
1428	 0.081963088567863 
1429	 8.56259978497521E-02 
1430	 9.45448236147601E-02 
1431	 9.49563818585559E-02 
1432	 0.093792277930295 
1433	 0.091441122667522 
1434	 7.72926689157391E-02 
1435	 0.073238279865505 
1436	 8.27984614446644E-02 
1437	 7.24546909300266E-02 
1438	 7.35067461734385E-02 
1439	 9.41031460104614E-02 
1440	 8.71163888367494E-02 
1441	 8.01157118160714E-02 
1442	 9.25137303319249E-02 
1443	 9.33761117982518E-02 
1444	 8.62269005856051E-02 
1445	 9.01071421297096E-02 
1446	 8.99345515926554E-02 
1447	 8.07596339010289E-02 
1448	 8.09256000341784E-02 
1449	 8.85096970521748E-02 
1450	 8.77806637700836E-02 
1451	 8.53940674665963E-02 
1452	 9.33250072345197E-02 
1453	 9.89892002396855E-02 
1454	 9.83398595257923E-02 
1455	 9.62111668326963E-02 
1456	 0.095256620544083 
1457	 8.94602135901726E-02 
1458	 8.97115372208698E-02 
1459	 9.55126385634732E-02 
1460	 0.094885819693501 
1461	 0.090960362105192 
1462	 9.16893242236943E-02 
1463	 9.34483761706971E-02 
1464	 0.091926659812758 
1465	 9.13138134767514E-02 
1466	 9.28095081598433E-02 
1467	 9.16573896793466E-02 
1468	 8.94171035824396E-02 
1469	 0.089771359293654 
1470	 9.22840194837644E-02 
1471	 9.33341796799827E-02 
1472	 9.22679588029548E-02 
1473	 9.43927532794838E-02 
1474	 0.096014562762055 
1475	 9.32833327498507E-02 
1476	 0.091473210097206 
1477	 9.32134512178041E-02 
1478	 0.092877097530114 
1479	 8.94028877782177E-02 
1480	 8.74674326939876E-02 
1481	 8.66669805295044E-02 
1482	 8.66004090683398E-02 
1483	 8.46243261191462E-02 
1484	 8.54776852825085E-02 
1485	 9.02774183663332E-02 
1486	 0.091803701188892 
1487	 9.18345245441226E-02 
1488	 9.29565409302123E-02 
1489	 9.38760343776671E-02 
1490	 9.41552719703949E-02 
1491	 9.44194364881983E-02 
1492	 9.52178178931831E-02 
1493	 9.61257118920449E-02 
1494	 0.096272605538125 
1495	 9.65636412401614E-02 
1496	 0.096869823831925 
1497	 9.60657888720714E-02 
1498	 9.61502655259248E-02 
1499	 9.73507495695453E-02 
1500	 9.78700611625911E-02 
1501	 0.098575916296806 
1502	 9.86106488208634E-02 
1503	 9.71364887321164E-02 
1504	 9.73448411959642E-02 
1505	 9.82198414985664E-02 
1506	 9.92166424130829E-02 
1507	 9.98246309817127E-02 
1508	 0.100701714856093 
1509	 0.10137645151587 
1510	 0.10156666416383 
1511	 0.102235865916961 
1512	 0.10293367291356 
1513	 0.103209830071563 
1514	 0.103331539406665 
1515	 0.10319002505747 
1516	 0.103590506909961 
1517	 0.104393121476696 
1518	 0.104604745631392 
1519	 0.104947585398335 
1520	 0.105394619346428 
1521	 0.105337290788922 
1522	 0.105678874312065 
1523	 0.106674494918466 
1524	 0.107158082452382 
1525	 0.106812446143662 
1526	 0.106754137511478 
1527	 0.107044971316155 
1528	 0.107464884628259 
1529	 0.108431132522033 
1530	 0.108889452750914 
1531	 0.108755509195982 
1532	 0.109206852387948 
1533	 0.109830377260703 
1534	 0.109908887794931 
1535	 0.109786800695924 
1536	 0.110298690457895 
1537	 0.111026908572186 
1538	 0.110925280266829 
1539	 0.110729575445612 
1540	 0.111341640589149 
1541	 0.1116691490134 
1542	 0.111469864373097 
1543	 0.11178908525143 
1544	 0.111841367652924 
1545	 0.111573083678662 
1546	 0.112046478856929 
1547	 0.113257981331262 
1548	 0.113908481578809 
1549	 0.113168079820487 
1550	 0.113080898979054 
1551	 0.113786775453056 
1552	 0.113839027497717 
1553	 0.114148485222866 
1554	 0.114882054103007 
1555	 0.115273809862759 
1556	 0.115152240149252 
1557	 0.114886316322043 
1558	 0.115273685736781 
1559	 0.115777936240485 
1560	 0.115730472388827 
1561	 0.115912925006113 
1562	 0.116482342354929 
1563	 0.11710081547828 
1564	 0.117447115068938 
1565	 0.117142857153481 
1566	 0.117155367301665 
1567	 0.117343774144067 
1568	 0.117090418069995 
1569	 0.117243515407856 
1570	 0.117645457739784 
1571	 0.118339822531421 
1572	 0.118959447689395 
1573	 0.119046652033784 
1574	 0.119212844685492 
1575	 0.119053942592076 
1576	 0.118656248418752 
1577	 0.118626208419341 
1578	 0.119121883563881 
1579	 0.120022074757079 
1580	 0.120028547746698 
1581	 0.119786560147618 
1582	 0.120499989802853 
1583	 0.120881811341747 
1584	 0.120783571364783 
1585	 0.12077169584485 
1586	 0.120834475063892 
1587	 0.120898615180165 
1588	 0.121185795714026 
1589	 0.121728185672134 
1590	 0.12187853115733 
1591	 0.121894067031372 
1592	 0.12178320614327 
1593	 0.12145965668249 
1594	 0.121816620491242 
1595	 0.122450434697767 
1596	 0.122248918061361 
1597	 0.122122240319507 
1598	 0.122453655780723 
1599	 0.121890273152578 
1600	 0.121373365305483 
1601	 0.121955371722039 
1602	 0.122227047234487 
1603	 0.122002057130365 
1604	 0.122395149856866 
1605	 0.122758570804019 
1606	 0.122622033863597 
1607	 0.122938215686834 
1608	 0.123366924136366 
1609	 0.123438515739222 
1610	 0.123701974266658 
1611	 0.124332806915627 
1612	 0.124272520733273 
1613	 0.123538536256947 
1614	 0.123714641696474 
1615	 0.124362011177936 
1616	 0.124147274594533 
1617	 0.123697569064883 
1618	 0.123917054084857 
1619	 0.124101789130122 
1620	 0.124325400510635 
1621	 0.124969979517177 
1622	 0.124990457671121 
1623	 0.124065420904754 
1624	 0.123767866659127 
1625	 0.12449297824007 
1626	 0.12471934705436 
1627	 0.124891541732907 
1628	 0.125163225941049 
1629	 0.125290755207667 
1630	 0.125400795472463 
1631	 0.124882610495379 
1632	 0.125062593870688 
1633	 0.125302760249538 
1634	 0.12505427753021 
1635	 0.125637821022418 
1636	 0.125681016604438 
1637	 0.125253800084469 
1638	 0.125076460147118 
1639	 0.124908324179113 
1640	 0.124963088763508 
1641	 0.124847803845014 
1642	 0.125143403018303 
1643	 0.125651515013947 
1644	 0.125572884232978 
1645	 0.125450850294569 
1646	 0.125249841750492 
1647	 0.125167273642218 
1648	 0.125454763903757 
1649	 0.125575769954109 
1650	 0.125344768186704 
1651	 0.12519499830972 
1652	 0.125157433819824 
1653	 0.125417504683392 
1654	 0.125767526552154 
1655	 0.1261896230508 
1656	 0.126196286603533 
1657	 0.125951934261793 
1658	 0.125928589200396 
1659	 0.125657514107851 
1660	 0.125594016635946 
1661	 0.126137781712411 
1662	 0.126627106709042 
1663	 0.127062972974905 
1664	 0.126727102060108 
1665	 0.126010458559778 
1666	 0.1259205900605 
1667	 0.125427580483947 
1668	 0.126013083298358 
1669	 0.12614075970011 
1670	 0.125767867343205 
1671	 0.126396107379162 
1672	 0.126356605731332 
1673	 0.125202080838609 
1674	 0.12507196548224 
1675	 0.125190612394307 
1676	 0.125126648873344 
1677	 0.125690049514501 
1678	 0.125747938995294 
1679	 0.125554955248911 
1680	 0.125573098802009 
1681	 0.125460099548124 
1682	 0.125845428873441 
1683	 0.126052537816474 
1684	 0.126213628063204 
1685	 0.127076950630271 
1686	 0.126959521528641 
1687	 0.126597539212327 
1688	 0.126854731725972 
1689	 0.126634188576702 
1690	 0.127008771548414 
1691	 0.1277462067013 
1692	 0.127286906913441 
1693	 0.126493660347073 
1694	 0.126549102417025 
1695	 0.126154875237452 
1696	 0.125412239007132 
1697	 0.126223958130386 
1698	 0.126481500139418 
1699	 0.125745255312702 
1700	 0.12655688253136 
1701	 0.12700828838269 
1702	 0.1261719369347 
1703	 0.126057372396669 
1704	 0.125869967987759 
1705	 0.125185956290842 
1706	 0.125856628389305 
1707	 0.126681664133352 
1708	 0.126157122933795 
1709	 0.125876900132505 
1710	 0.126085358342835 
1711	 0.126071927088866 
1712	 0.12566678073704 
1713	 0.125205536967107 
1714	 0.125081342678738 
1715	 0.124848925782234 
1716	 0.125825981272373 
1717	 0.125679425307819 
1718	 0.124896631989792 
1719	 0.124790855593004 
1720	 0.125108927241873 
1721	 0.125153150755723 
1722	 0.125010415435915 
1723	 0.125534604214951 
1724	 0.125287727128731 
1725	 0.124415833527647 
1726	 0.12529643894227 
1727	 0.125115959297715 
1728	 0.123712881534808 
1729	 0.124137559507285 
1730	 0.123972029464317 
1731	 0.123511040509325 
1732	 0.124357426420256 
1733	 0.124389147307711 
1734	 0.123507583858064 
1735	 0.12307432657054 
1736	 0.123046110140893 
1737	 0.122824363280835 
1738	 0.123056184124181 
1739	 0.123934477795643 
1740	 0.12424437724894 
1741	 0.123870589536864 
1742	 0.123072517215446 
1743	 0.122261550414629 
1744	 0.121704074197279 
1745	 0.12157953263164 
1746	 0.122675288876637 
1747	 0.122644924182418 
1748	 0.121594369065344 
1749	 0.12152897845138 
1750	 0.121736947955061 
1751	 0.12143503625019 
1752	 0.121717248252459 
1753	 0.121021660888231 
1754	 0.118896621905661 
1755	 0.118383773976425 
1756	 0.118168879764039 
1757	 0.118098866575817 
1758	 0.119054962254994 
1759	 0.119742830651752 
1760	 0.119382525248987 
1761	 0.118828268986159 
1762	 0.117891248923144 
1763	 0.117463190186489 
1764	 0.118075589281074 
1765	 0.118601752128045 
1766	 0.119981507427367 
1767	 0.120638867797597 
1768	 0.119739006572039 
1769	 0.119562525544558 
1770	 0.118871967385513 
1771	 0.117046337308594 
1772	 0.116696866740108 
1773	 0.118428099346913 
1774	 0.118173827809597 
1775	 0.118613288511335 
1776	 0.118983979102749 
1777	 0.11795378822058 
1778	 0.116975915896995 
1779	 0.115209465002234 
1780	 0.114260130903431 
1781	 0.112934838146492 
1782	 0.112949965394434 
1783	 0.116961290470453 
1784	 0.117590265175956 
1785	 0.115908129831395 
1786	 0.115479594579121 
1787	 0.112979981797269 
1788	 0.111632822008838 
1789	 0.110841448763929 
1790	 0.115209846337891 
1791	 0.122415137698625 
1792	 0.123678108117071 
1793	 0.123426660619254 
1794	 0.113680143350204 
1795	 9.70029263993658E-02 
1796	 0.102906306885486 
1797	 0.111539861094917 
1798	 0.116332050765333 
1799	 0.136072574173484 
1800	 0.128352696716678 
1801	 0.127997675402448 
1802	 0.131678592310633 
1803	 0.133148702004497 
1804	 0.132710979734291 
1805	 0.143447681310208 
1806	 0.172152352474951 
1807	 0.191785353925013 
1808	 0.243069492464366 
1809	 0.268029499328254 
1810	 0.200193055005784 
1811	 0.170949585030141 
1812	 0.119896001341711 
1813	 0.103962185116056 
1814	 0.200149611019016 
1815	 0.14038351425201 
1816	-0.129425816622178 
1817	-0.834726135024937 
1818	-3.0099099235841 
1819	-1.18325664037717 
1820	-0.205301340806823 
1821	 1.58226197025849 
1822	 2.47154484139372 
1823	 3.27201657812334 
1824	 2.27326667604028 
1825	-0.265775765310644 
1826	-0.612206581003377 
1827	-0.552225749740112 
1828	-0.594529819869443 
1829	 0.909391130984485 
1830	 2.00931133937818 
1831	-0.168455367372173 
1832	-9.26213209890223E-02 
1833	-0.825362869929601 
1834	-1.83417014159391 
1835	-0.957972863836401 
1836	-1.05343343749978 
1837	-1.36184435956199 
1838	-1.30620767135495 
1839	-1.36147266260611 
1840	-0.940925669266033 
1841	-0.482630230382241 
1842	-0.240796454322832 
1843	 6.34654442152893E-02 
1844	 0.199927121819509 
1845	 0.231805428333263 
1846	 0.59755342370699 
1847	 0.75233385623527 
1848	 2.09999031485584 
1849	-1.4170607720376 
1850	-0.85225589404781 
1851	 6.24754139995087 
1852	 73.8203436201325 
1853	 29.0011210742741 
1854	 5.90032322647221 
1855	 0.696712294569263 
1856	 0.353335300278239 
1857	-0.485205530670432 
1858	-0.766215679504033 
1859	 0.824090984358699 
1860	 0.590061959875394 
1861	 0.498268939644084 
1862	 0.179550910185282 
1863	 0.958413388373543 
1864	-7.23959034255832E-02 
1865	-0.341557324296473 
1866	-6.68623716545925 
1867	 6.13721379458198 
1868	-0.15027126826623 
1869	-0.220440405853557 
1870	 0.241750782780534 
1871	 0.371208916833481 
1872	-0.170749706484884 
1873	-9.40173598237819E-02 
1874	-8.32803990521356E-02 
1875	-0.29528897289312 
1876	-0.299673299239578 
1877	 0.394372429997536 
1878	 0.472070068414967 
1879	-2.96994563765652 
1880	 1.45023803931137 
1881	-6.31647603460172E-03 
1882	 8.46322270956177E-02 
1883	 0.116934628203624 
1884	-0.583466189638834 
1885	-0.324710984563575 
1886	-0.706987499404984 
1887	-1.17052293793794 
1888	-5.20837285904002 
1889	-5.81165443168805 
1890	-2.29124844527144 
1891	-1.38140236750034 
1892	 2.15426133805374 
1893	 29.4210490782676 
1894	-21.5265929816336 
1895	-18.6386641465493 
1896	-113.206163997982 
1897	 5.20173146807938 
1898	 1.95870375316762 
1899	 1.63177014795242 
1900	 1.10438842078373 
1901	 0.150386909002094 
1902	 0.282912192918636 
1903	 1.0112864069846 
1904	 2.41397007159281 
1905	-10.568088773635 
1906	-3.07611629118581 
1907	-3.58634614694469 
1908	-11.8865308611337 
1909	 2.6674131985145 
1910	 0.444477346857997 
1911	 0.631872826526931 
1912	 0.673093343272386 
1913	 0.61097132358211 
1914	 0.611541298762335 
1915	 0.946536338041681 
1916	-3.81280350705631 
1917	 0.155173921909339 
1918	 0.177929928460163 
1919	 0.190374055924588 
1920	 0.221773756443314 
1921	 0.349477784202658 
1922	 1.10426069458541 
1923	 11.9165882039432 
1924	 1.16341231196356 
1925	 0.852149983712288 
1926	 0.719332635237446 
1927	 0.684209333443189 
1928	-1.80001162136007E-02 
1929	 0.214180205066434 
1930	 9.60238680690169E-02 
1931	-0.367060633305028 
1932	 0.256932782725242 
1933	 0.355590227253764 
1934	-9.00664936888858E-02 
1935	-0.128657051182857 
1936	-0.188908375246574 
1937	-0.267746577871047 
1938	-7.86681362191524E-03 
1939	 0.105892170129174 
1940	 0.281541323584159 
1941	 0.179242821266295 
1942	 0.144180150971434 
1943	 0.164112505457493 
1944	 9.91920087609239E-02 
1945	 2.97337251128198E-02 
1946	 5.33736206513263E-02 
1947	 1.09486345393201E-02 
1948	-8.95556520462425E-02 
1949	-3.00315946905475E-02 
1950	-4.63974069986712E-02 
1951	-8.31333141051066E-02 
1952	-4.24131517248494E-02 
1953	 9.57284236024805E-02 
1954	 8.12578601540136E-02 
1955	 2.54329337347381E-02 
1956	 3.95161658704073E-02 
1957	-1.01637467063722E-03 
1958	-2.02219331204828E-03 
1959	 1.93435677517066E-02 
1960	 1.84961921454847E-04 
1961	-2.06398333523574E-02 
1962	-1.10621170894899E-02 
1963	 0.012104602150982 
1964	 3.26572743882648E-02 
1965	 5.19620103027104E-02 
1966	 5.62974151571292E-02 
1967	 4.92364032238328E-02 
1968	 3.93637065108005E-02 
1969	 4.27509037662497E-02 
1970	 4.49080740501678E-02 
1971	 4.78772421642064E-02 
1972	 5.28822142209936E-02 
1973	 5.45039931357916E-02 
1974	 5.56831675786422E-02 
1975	 5.51133092912314E-02 
1976	 5.42850555962991E-02 
1977	 5.79986438730241E-02 
1978	 6.10428133152391E-02 
1979	 0.059405796172887 
1980	 5.62663108352918E-02 
1981	 5.52555037657266E-02 
1982	 5.20167544158188E-02 
1983	 4.56042537123382E-02 
1984	 4.59486764076148E-02 
1985	 4.88137056281038E-02 
1986	 4.93352012533366E-02 
1987	 5.50749428457325E-02 
1988	 5.82825110853872E-02 
1989	 5.68068546048426E-02 
1990	 0.057741090845907 
1991	 5.49769003111758E-02 
1992	 5.34441013867149E-02 
1993	 5.47118785309418E-02 
1994	 5.59109199166303E-02 
1995	 0.058242345230036 
1996	 5.89706893237112E-02 
1997	 5.49154650452693E-02 
1998	 5.69091261272375E-02 
1999	 5.71808480568846E-02 
2000	 5.15578548994205E-02 
2001	 5.58635363048559E-02 
2002	 5.97064762618711E-02 
2003	 5.46391526894828E-02 
2004	 5.43543418499949E-02 
2005	 5.42045582301992E-02 
2006	 5.30760447526915E-02 
2007	 6.00960964801737E-02 
2008	 6.39930257622714E-02 
2009	 6.11533455553226E-02 
2010	 4.69270603448735E-02 
2011	 4.72846717478831E-02 
2012	 5.00853553083672E-02 
2013	 5.20416128851452E-02 
2014	 5.67432912899717E-02 
2015	 5.99043186398283E-02 
2016	 4.96420746258859E-02 
2017	 4.73318546874658E-02 
2018	 5.21946134631922E-02 
2019	 5.29459695832118E-02 
2020	 5.05006846964602E-02 
2021	 4.71043284494858E-02 
2022	 4.98313467805727E-02 
2023	 5.39180508686022E-02 
2024	 5.57793834827292E-02 
2025	 6.01772623751301E-02 
2026	 0.062916617553052 
2027	 6.35640168260533E-02 
2028	 0.063197265331804 
2029	 6.40545815175761E-02 
2030	 6.50481332150531E-02 
2031	 6.52827492905523E-02 
2032	 6.50546502487525E-02 
2033	 6.42183321882604E-02 
2034	 6.29758875010573E-02 
2035	 0.062383469428472 
2036	 6.10733623261222E-02 
2037	 6.15197309022879E-02 
2038	 6.32865059438735E-02 
2039	 0.063510950512585 
2040	 6.18771953740628E-02 
2041	 6.17237232662564E-02 
2042	 6.18510678872966E-02 
2043	 6.26519119376442E-02 
2044	 6.41660233423234E-02 
2045	 6.57044702878441E-02 
2046	 6.75467111962067E-02 
2047	 6.64990201522137E-02 
2048	 0.066472229203191 
2049	 6.73371888754937E-02 
2050	 6.51574348148455E-02 
2051	 6.60836594985706E-02 
2052	 6.77181603273316E-02 
2053	 0.064190874080685 
2054	 6.42546430792423E-02 
2055	 6.64559647393741E-02 
2056	 6.79552461862225E-02 
2057	 7.04500127019083E-02 
2058	 7.08048255518889E-02 
2059	 0.070630101592437 
2060	 6.99890596141168E-02 
2061	 6.61372356158602E-02 
2062	 6.41122855625728E-02 
2063	 6.85910133556426E-02 
2064	 7.34935773941329E-02 
2065	 7.58382075939284E-02 
2066	 7.95038157118547E-02 
2067	 7.98712715434217E-02 
2068	 0.073842784590167 
2069	 0.070419766681315 
2070	 0.070135030499089 
2071	 6.99218326403347E-02 
2072	 7.00378950906673E-02 
2073	 7.08210147330749E-02 
2074	 7.37826051489204E-02 
2075	 7.40962228025296E-02 
2076	 7.27767213401811E-02 
2077	 7.36042275762909E-02 
2078	 7.42700446265777E-02 
2079	 7.36564145637011E-02 
2080	 7.29330024643378E-02 
2081	 7.47544131941298E-02 
2082	 7.29180719681248E-02 
2083	 7.19665326675864E-02 
2084	 7.32578029103968E-02 
2085	 7.38140699919399E-02 
2086	 7.46807933787951E-02 
2087	 7.61581718789012E-02 
2088	 7.54777331775631E-02 
2089	 7.23194083022333E-02 
2090	 7.21192749952867E-02 
2091	 7.39076964077839E-02 
2092	 7.46937610786523E-02 
2093	 7.83685972768854E-02 
2094	 7.93609311603435E-02 
2095	 0.076811021661758 
2096	 7.66995742348162E-02 
2097	 7.75071778604089E-02 
2098	 7.79250080568132E-02 
2099	 7.83033589557611E-02 
2100	 8.03960869461193E-02 
2101	 8.18728391756379E-02 
2102	 8.21231045228162E-02 
2103	 0.081983484023389 
2104	 7.99144752199681E-02 
2105	 0.076546254170177 
2106	 7.63798316273711E-02 
2107	 0.078907437002025 
2108	 7.97175795565063E-02 
2109	 7.91313513805437E-02 
2110	 7.73093864220879E-02 
2111	 7.49339461339148E-02 
2112	 7.49619515789935E-02 
2113	 7.57126232147002E-02 
2114	 7.98036215056812E-02 
2115	 8.14663967212999E-02 
2116	 8.28697825920925E-02 
2117	 8.30992541326623E-02 
2118	 8.19239615434331E-02 
2119	 8.16650565880263E-02 
2120	 8.10455195016216E-02 
2121	 8.05155443702713E-02 
2122	 0.080067243286757 
2123	 0.080043039202849 
2124	 8.06407520943053E-02 
2125	 8.05707707110843E-02 
2126	 8.05344861441701E-02 
2127	 8.16793074228716E-02 
2128	 8.41970162720286E-02 
2129	 8.57767146479447E-02 
2130	 8.41209897796057E-02 
2131	 8.51310212328041E-02 
2132	 8.66587390678517E-02 
2133	 8.61021823873749E-02 
2134	 8.68185110672621E-02 
2135	 9.06142258288538E-02 
2136	 9.11083196980609E-02 
2137	 8.96492019287553E-02 
2138	 8.92857017122628E-02 
2139	 8.81733861675612E-02 
2140	 8.81683673987252E-02 
2141	 8.86514993998357E-02 
2142	 8.90116692602936E-02 
2143	 8.95553495418096E-02 
2144	 9.14071002965143E-02 
2145	 9.32216777087851E-02 
2146	 9.13880755122885E-02 
2147	 8.92901106838978E-02 
2148	 8.96210804656707E-02 
2149	 8.99694334105167E-02 
2150	 8.95372956643521E-02 
2151	 8.87352792075513E-02 
2152	 8.72028382560494E-02 
2153	 8.66388604720128E-02 
2154	 8.78480812917698E-02 
2155	 0.090615052233513 
2156	 9.34471774649549E-02 
2157	 9.37626677652763E-02 
2158	 9.11707062899991E-02 
2159	 9.09599240126808E-02 
2160	 9.05498762951812E-02 
2161	 9.03040524390512E-02 
2162	 9.12038367488485E-02 
2163	 9.05810412543124E-02 
2164	 8.76924793000993E-02 
2165	 8.75585713891275E-02 
2166	 8.97170258208896E-02 
2167	 9.09268108974884E-02 
2168	 9.38234566313665E-02 
2169	 9.41959005029799E-02 
2170	 9.24432109836122E-02 
2171	 9.02240188860806E-02 
2172	 8.91138448762522E-02 
2173	 8.85636308321614E-02 
2174	 8.88996576076854E-02 
2175	 8.94723090811719E-02 
2176	 8.94251269681677E-02 
2177	 8.97532539561604E-02 
2178	 9.03501399143385E-02 
2179	 8.86840845280679E-02 
2180	 8.78531540083528E-02 
2181	 8.73325041423254E-02 
2182	 8.72915342463658E-02 
2183	 8.84824348097088E-02 
2184	 8.78234348086787E-02 
2185	 8.78081885056542E-02 
2186	 8.83923273587453E-02 
2187	 0.088267539450114 
2188	 0.090146126772245 
2189	 9.58258538217651E-02 
2190	 9.67269473326599E-02 
2191	 0.095858334316215 
2192	 9.49834786009367E-02 
2193	 9.12408968495994E-02 
2194	 8.82098810748448E-02 
2195	 8.48211353568232E-02 
2196	 8.34517596757159E-02 
2197	 0.081780250308348 
2198	 8.21622156428102E-02 
2199	 8.65362217705854E-02 
2200	 8.88714208202174E-02 
2201	 8.88363688931562E-02 
2202	 0.08798748170178 
2203	 8.51947258006958E-02 
2204	 8.42352707791517E-02 
2205	 8.61412769282292E-02 
2206	 8.87256952866807E-02 
2207	 9.04005412789172E-02 
2208	 9.08209274028541E-02 
2209	 8.99282353665348E-02 
2210	 8.87631436793781E-02 
2211	 8.82743522002819E-02 
2212	 8.99091925234479E-02 
2213	 9.15049802291548E-02 
2214	 8.93911573983868E-02 
2215	 8.91434018723447E-02 
2216	 0.08815446282147 
2217	 8.67135359318957E-02 
2218	 8.55470550070514E-02 
2219	 8.60301769016418E-02 
2220	 8.52229949426384E-02 
2221	 8.66870731176504E-02 
2222	 9.19558982275702E-02 
2223	 9.29162822629351E-02 
2224	 0.093110533285201 
2225	 9.24725880440881E-02 
2226	 8.80591187454129E-02 
2227	 0.086445921196227 
2228	 8.78490040082903E-02 
2229	 8.68643176772622E-02 
2230	 8.43859327252539E-02 
2231	 8.30280361084573E-02 
2232	 7.98098801431855E-02 
2233	 7.76779063734677E-02 
2234	 7.47761283969317E-02 
2235	 7.85700260813062E-02 
2236	 8.24135298100006E-02 
2237	 8.39919227645982E-02 
2238	 8.86162403877482E-02 
2239	 8.87407857253402E-02 
2240	 8.55505129813851E-02 
2241	 8.35908615039962E-02 
2242	 7.96224874355947E-02 
2243	 7.98575731484767E-02 
2244	 8.04626849386477E-02 
2245	 7.98491070197506E-02 
2246	 8.32037163620725E-02 
2247	 8.04843794858764E-02 
2248	 7.57741413523102E-02 
2249	 7.94291957252005E-02 
2250	 0.079839524950709 
2251	 7.77844581000177E-02 
2252	 8.12584938957275E-02 
2253	 8.06474825947566E-02 
2254	 8.01147548475148E-02 
2255	 8.49661585812674E-02 
2256	 8.41874694163066E-02 
2257	 0.0804306972965 
2258	 7.85440353199788E-02 
2259	 7.43740389836941E-02 
2260	 7.25843128708842E-02 
2261	 7.48785494658955E-02 
2262	 7.64770217724476E-02 
2263	 7.78841294815142E-02 
2264	 7.84717578796299E-02 
2265	 0.079743965413079 
2266	 7.93537003190205E-02 
2267	 7.69499810726737E-02 
2268	 7.62977813561119E-02 
2269	 7.58364268428452E-02 
2270	 7.65403060061362E-02 
2271	 7.91808171305118E-02 
2272	 7.93388843545744E-02 
2273	 8.01425091845849E-02 
2274	 7.84582301181015E-02 
2275	 7.12369752719352E-02 
2276	 0.069292556142796 
2277	 6.87894815132536E-02 
2278	 6.86822806923357E-02 
2279	 7.30844623268411E-02 
2280	 7.46673067617713E-02 
2281	 7.32427337452838E-02 
2282	 7.58531778774528E-02 
2283	 8.04889048488281E-02 
2284	 7.73506877096187E-02 
2285	 7.33652982046879E-02 
2286	 7.14486394837361E-02 
2287	 0.06481755261858 
2288	 5.97927727652332E-02 
2289	 6.06415783394172E-02 
2290	 6.40309614128715E-02 
2291	 7.25870221384305E-02 
2292	 8.15221409695702E-02 
2293	 8.23279190355934E-02 
2294	 7.59218364080518E-02 
2295	 6.70985988892252E-02 
2296	 6.54134687430189E-02 
2297	 7.25279390244156E-02 
2298	 8.08628949574875E-02 
2299	 8.15504161682872E-02 
2300	 7.82192751374609E-02 
2301	 7.36976433264497E-02 
2302	 6.83280155201427E-02 
2303	 6.29880769303198E-02 
2304	 5.71390077686446E-02 
2305	 5.77769617002616E-02 
2306	 6.03555269968106E-02 
2307	 6.96574689913226E-02 
2308	 7.61690327431923E-02 
2309	 6.93081701280534E-02 
2310	 6.54939546935074E-02 
2311	 6.16713985964206E-02 
2312	 0.056614953258196 
2313	 6.09803079371861E-02 
2314	 6.84686186275246E-02 
2315	 7.30658082525725E-02 
2316	 7.75154893453885E-02 
2317	 7.91609736863977E-02 
2318	 7.96875613284058E-02 
2319	 7.54962812981174E-02 
2320	 7.13914802051209E-02 
2321	 7.23015967536855E-02 
2322	 0.072207072732438 
2323	 0.074640434884083 
2324	 8.15743742926356E-02 
2325	 9.32527774469411E-02 
2326	 9.52923736931606E-02 
2327	 7.95678732979891E-02 
2328	 6.69745758151659E-02 
2329	 5.87511822929662E-02 
2330	 0.04805441041317 
2331	 5.62252275523513E-02 
2332	 6.57984141456756E-02 
2333	 6.49876395726046E-02 
2334	 7.06389937198396E-02 
2335	 7.14379906945641E-02 
2336	 6.87942238899441E-02 
2337	 5.79995063357401E-02 
2338	 4.81649957131152E-02 
2339	 5.64792128981198E-02 
2340	 6.35448402114279E-02 
2341	 8.06777886206413E-02 
2342	 0.102789868312187 
2343	 0.101625385912907 
2344	 9.90332614514027E-02 
2345	 0.102149562951501 
2346	 8.77859165225103E-02 
2347	 6.49036351559499E-02 
2348	 6.01820710081677E-02 
2349	 0.05238017482159 
2350	 4.18901524109065E-02 
2351	 0.074084158427479 
2352	 9.24464762040988E-02 
2353	 7.68252442111546E-02 
2354	 8.01503508084726E-02 
2355	 8.63741748841748E-02 
2356	 7.93555229993998E-02 
2357	 0.070882366983566 
2358	 6.46972361951935E-02 
2359	 4.50184339028952E-02 
2360	 2.77716158124721E-02 
2361	 2.19026421532441E-02 
2362	 2.43459135434189E-02 
2363	 4.36235401025379E-02 
2364	 0.034018496927386 
2365	 2.85540507632879E-02 
2366	 4.00264302846201E-02 
2367	 4.31804322658196E-02 
2368	 6.62536795704074E-02 
2369	 6.71559275934236E-02 
2370	 5.50816243863272E-02 
2371	 4.92508187514801E-02 
2372	 0.038961322436448 
2373	 0.039776884329595 
2374	 7.70384114525387E-02 
2375	 0.127298679811691 
2376	 0.112413557325991 
2377	 0.131512914066402 
2378	 0.185120892736769 
2379	 0.125922882200618 
2380	 5.54068629792456E-02 
2381	 6.52003729922199E-02 
2382	 0.021249275455776 
2383	-2.46192869743016E-02 
2384	-3.73361604217421E-02 
2385	-0.106559891056776 
2386	-0.117805145393769 
2387	-6.59535976464568E-02 
2388	-2.63494127295294E-02 
2389	-6.77048794122555E-03 
2390	-3.22155901390489E-02 
2391	-6.10995279899387E-02 
2392	-0.048455100545546 
2393	-3.69891072242249E-02 
2394	-3.05754390906497E-04 
2395	 2.60770389405019E-02 
2396	-1.68960713467339E-02 
2397	 9.49183307211973E-04 
2398	 2.16199930993663E-02 
2399	 1.20967543859113E-02 
2400	 5.83504097292676E-02 
2401	 0.066909340568924 
2402	 0.01611565000441 
2403	 1.58037511204097E-03 
2404	 2.67558151555393E-02 
2405	 3.65021852930694E-02 
2406	 7.43612624876053E-02 
2407	-0.03108206535849 
2408	-0.243750996494891 
2409	-0.265711202400072 
2410	-0.322277243535309 
2411	-0.314722321320902 
2412	 5.22165174756125E-02 
2413	 0.263935047483366 
2414	 0.166876609902001 
2415	 7.05749920648553E-02 
2416	-0.256441428468577 
2417	-0.593944002878658 
2418	-0.400578974220361 
2419	-1.03028985744514E-02 
2420	 9.30496487024932E-02 
2421	 0.316457866029891 
2422	 0.256904012949487 
2423	-6.28848608828083E-03 
2424	 1.73512035380358E-02 
2425	-6.58898237469165E-02 
2426	-0.327887889274266 
2427	-5.83512104950772E-03 
2428	 7.40868933777303E-02 
2429	 2.15516542290667E-02 
2430	 7.99508999768698E-02 
2431	 0.132267274022828 
2432	 0.22832110647305 
2433	 0.392541563255062 
2434	 0.340238639240012 
2435	 0.245209718993943 
2436	 0.146971281105933 
2437	-4.14448138502504E-02 
2438	-0.115572531385936 
2439	-6.80459082729353E-02 
2440	-0.329578183015082 
2441	-0.46343548907395 
2442	-0.342356072769465 
2443	-0.398673628587742 
2444	-0.20161556787066 
2445	-7.19584984838331E-03 
2446	 3.96901297892997E-02 
2447	 0.362229564957659 
2448	 0.397938833545085 
2449	 0.33698344602762 
2450	 0.304895587062342 
2451	-1.24930606470787 
2452	-10.3689003121454 
2453	-0.136297016447218 
2454	-0.233707801339336 
2455	-0.293343182680795 
2456	-3.08735188623082 
2457	 15.1808733465076 
2458	 4.88516230549623 
2459	 0.56314235716984 
2460	-19.4198580495558 
2461	 25.9906214811378 
2462	 6.95944907422918 
2463	-1.09530816470224 
2464	-1.10652312899393 
2465	-0.57789786724443 
2466	-0.721987811087472 
2467	-2.34133988363038 
2468	-4.84656237337364 
2469	-1.35373097454002 
2470	-3.08953863089943 
2471	-1.66097904438846 
2472	 0.72265766527325 
2473	 0.273877758305195 
2474	 0.773950872822081 
2475	 2.00754688246848 
2476	 2.62414514108342 
2477	 3.46969344825024 
2478	-3.74535979099381 
2479	-0.687038826470503 
2480	-0.109336152661385 
2481	 0.435635981002111 
2482	 0.654163582435523 
2483	-0.787832381002491 
2484	 0.363524339108039 
2485	 0.45546529454405 
2486	 0.247590544526665 
2487	 2.30566613390237 
2488	 12.2642291301417 
2489	 7.79280302783512 
2490	 46.7914348020697 
2491	-1.13522714502278 
2492	-0.085277030834639 
2493	 0.323958380142215 
2494	-0.163792548620624 
2495	-1.11568970667655 
2496	-1.32912498895568 
2497	-1.36848181995065 
2498	-0.751631190605081 
2499	-0.778143999474337 
2500	-0.940540687289666 
