Wavelength	rt0714yellow300004.asd
350	 8.37816707520803E-02 
351	 8.35323995052514E-02 
352	 8.35478947172745E-02 
353	 8.36239284782384E-02 
354	 8.37657432193932E-02 
355	 8.45182366436951E-02 
356	 0.084070560280703 
357	 8.38180889858624E-02 
358	 8.51208716873696E-02 
359	 8.47716355578858E-02 
360	 8.41673058741317E-02 
361	 8.41552406595487E-02 
362	 8.49371845720771E-02 
363	 8.55606449297354E-02 
364	 8.57230514229151E-02 
365	 8.54559805351501E-02 
366	 0.085095925118727 
367	 8.52468400480839E-02 
368	 8.58844642705043E-02 
369	 8.66301117840143E-02 
370	 8.66415326029517E-02 
371	 8.66864590064586E-02 
372	 8.69746945194301E-02 
373	 8.73095146489636E-02 
374	 8.70831424741876E-02 
375	 8.78529851795871E-02 
376	 8.93901146175731E-02 
377	 8.88543831839708E-02 
378	 8.88260604732781E-02 
379	 8.92637387943684E-02 
380	 8.96989040988013E-02 
381	 9.03900074636145E-02 
382	 9.12177641529347E-02 
383	 9.16668105559774E-02 
384	 9.14085023059723E-02 
385	 9.26582832518387E-02 
386	 9.33101906265415E-02 
387	 9.29662237832825E-02 
388	 9.34703835830225E-02 
389	 0.094695064691491 
390	 9.54472042336231E-02 
391	 0.095336146180155 
392	 9.64313998463657E-02 
393	 9.69479442682852E-02 
394	 9.72500218675286E-02 
395	 9.81710364593676E-02 
396	 9.85179622624115E-02 
397	 9.87412590170685E-02 
398	 9.90973405692777E-02 
399	 9.95763176699697E-02 
400	 0.100150638786743 
401	 0.100553873227894 
402	 0.100783396890688 
403	 0.101506643993356 
404	 0.102024642558299 
405	 0.102200007709194 
406	 0.10228274811995 
407	 0.103401193497609 
408	 0.104216659734213 
409	 0.104430912256219 
410	 0.104884896533881 
411	 0.105319269738861 
412	 0.105866374034064 
413	 0.106569662638075 
414	 0.107124580078008 
415	 0.107733613726503 
416	 0.108428753170464 
417	 0.109165932109527 
418	 0.109884271393167 
419	 0.11063104598404 
420	 0.11140467656355 
421	 0.112146870397741 
422	 0.11279095422055 
423	 0.113602164428464 
424	 0.114668934896618 
425	 0.115409970298088 
426	 0.116108267333805 
427	 0.117046702209614 
428	 0.118383632056104 
429	 0.119460120605149 
430	 0.120514445111494 
431	 0.121687754926671 
432	 0.122908827424526 
433	 0.123970174319244 
434	 0.125018759914932 
435	 0.126169205203365 
436	 0.1271895125505 
437	 0.128194454414119 
438	 0.12927850217803 
439	 0.130492976964506 
440	 0.131682235616831 
441	 0.132832631455572 
442	 0.133882187493532 
443	 0.134662340609162 
444	 0.135662500233292 
445	 0.13665408397997 
446	 0.137360880352987 
447	 0.138131985686214 
448	 0.139034752572894 
449	 0.139944260188537 
450	 0.140620030130348 
451	 0.141195351184688 
452	 0.141693988179608 
453	 0.142198653690871 
454	 0.142960103593661 
455	 0.143567921871494 
456	 0.144010336565111 
457	 0.14443468690601 
458	 0.144962320319292 
459	 0.145404294538545 
460	 0.145815859838673 
461	 0.146478377088274 
462	 0.146720583299256 
463	 0.146915065852453 
464	 0.147409772123188 
465	 0.147892900406168 
466	 0.148416058449805 
467	 0.14886666797282 
468	 0.149133072974776 
469	 0.149655375305017 
470	 0.150130920193617 
471	 0.150474375477897 
472	 0.150977499956285 
473	 0.151491280097149 
474	 0.15202363133329 
475	 0.152593465240853 
476	 0.153119810483653 
477	 0.153639224768604 
478	 0.154196994088592 
479	 0.154830002434809 
480	 0.155398935030881 
481	 0.15598242557891 
482	 0.156641674630065 
483	 0.157348839382607 
484	 0.157924277570461 
485	 0.15863859736944 
486	 0.159767515901601 
487	 0.160691073422495 
488	 0.16145970190222 
489	 0.162220828707012 
490	 0.163165712208855 
491	 0.164210140839997 
492	 0.165203021181079 
493	 0.166095354377287 
494	 0.167183835356671 
495	 0.168136546426095 
496	 0.169049593489744 
497	 0.170184399936794 
498	 0.17116246176994 
499	 0.172199111686839 
500	 0.17342831599274 
501	 0.174775739808168 
502	 0.175944507486749 
503	 0.177108621739636 
504	 0.178433371036908 
505	 0.17939538677114 
506	 0.180561162962872 
507	 0.18191106649751 
508	 0.182979225672175 
509	 0.18429162085808 
510	 0.185600641301886 
511	 0.186721144655516 
512	 0.187897949239544 
513	 0.189170901273697 
514	 0.190455620935979 
515	 0.191640137549142 
516	 0.192981387893853 
517	 0.194410778263391 
518	 0.195874051545852 
519	 0.197381188472683 
520	 0.198644950655542 
521	 0.199873102402503 
522	 0.201279860403661 
523	 0.202666165584873 
524	 0.203995530460941 
525	 0.205276412008526 
526	 0.206571684520863 
527	 0.208075856859353 
528	 0.209596852491621 
529	 0.21098696940244 
530	 0.212289663418886 
531	 0.213619170859715 
532	 0.214989257437159 
533	 0.21637001653167 
534	 0.217793051887245 
535	 0.219051596481 
536	 0.22020499233045 
537	 0.221609408047896 
538	 0.223009014435728 
539	 0.224291708457642 
540	 0.225459799341155 
541	 0.226745774381793 
542	 0.228188130821644 
543	 0.229579817914767 
544	 0.230634038170452 
545	 0.231874927684911 
546	 0.23310881921337 
547	 0.234220950587322 
548	 0.235444074015903 
549	 0.236563752545536 
550	 0.237674793070868 
551	 0.238917230961291 
552	 0.240015705991107 
553	 0.241117814454466 
554	 0.242242044439557 
555	 0.243230392715817 
556	 0.244138751837804 
557	 0.245100193664392 
558	 0.246167321973376 
559	 0.247134230906399 
560	 0.247875767858646 
561	 0.248560770632454 
562	 0.249494941340517 
563	 0.250246392619714 
564	 0.250957297091446 
565	 0.251750545911764 
566	 0.25258247288591 
567	 0.253281845009144 
568	 0.253887446651172 
569	 0.254513952151489 
570	 0.255179913528257 
571	 0.255858887828374 
572	 0.256459577794959 
573	 0.256835929742569 
574	 0.257312006113398 
575	 0.257853307931096 
576	 0.258355029449039 
577	 0.258803891848231 
578	 0.259155553513596 
579	 0.259445136326597 
580	 0.259745093173291 
581	 0.259944182629091 
582	 0.260156359536635 
583	 0.260407929248304 
584	 0.260518530702629 
585	 0.260524605470616 
586	 0.260483058899948 
587	 0.260455480429465 
588	 0.260422512441886 
589	 0.260483365408726 
590	 0.260599333500052 
591	 0.260595582687617 
592	 0.260524003105743 
593	 0.260424525160963 
594	 0.260301641171761 
595	 0.260060614264891 
596	 0.259682775988995 
597	 0.259197833862749 
598	 0.258678266061772 
599	 0.258236379823779 
600	 0.257898091512617 
601	 0.2576574808145 
602	 0.257483547897882 
603	 0.257315132533937 
604	 0.257178905327912 
605	 0.257099105059821 
606	 0.256890621483786 
607	 0.256850842333957 
608	 0.256997679186585 
609	 0.257042476662299 
610	 0.257078336611608 
611	 0.257084331298395 
612	 0.257047845199658 
613	 0.257033299395078 
614	 0.257003431740985 
615	 0.256966694957906 
616	 0.256953344045809 
617	 0.256933956016413 
618	 0.256976161127175 
619	 0.257043939217415 
620	 0.256909950786355 
621	 0.25690002193001 
622	 0.256993024752458 
623	 0.25704377351413 
624	 0.256903773470684 
625	 0.256871034743094 
626	 0.256968706108853 
627	 0.256951964498863 
628	 0.256991897300348 
629	 0.256903682127878 
630	 0.256687387323844 
631	 0.257039410889266 
632	 0.25708909187255 
633	 0.256835210573959 
634	 0.256694474565626 
635	 0.256750583363458 
636	 0.256717394840567 
637	 0.256569384828093 
638	 0.256711277235644 
639	 0.256592103466237 
640	 0.256488646367788 
641	 0.256678373304078 
642	 0.256405825631657 
643	 0.256169641086838 
644	 0.256098487943893 
645	 0.256008624135567 
646	 0.256046837222109 
647	 0.25596597129463 
648	 0.255675775095096 
649	 0.255621410463861 
650	 0.255353767913516 
651	 0.254956694043922 
652	 0.254690460222231 
653	 0.25444848610939 
654	 0.254189958439968 
655	 0.253795534645158 
656	 0.253109868145245 
657	 0.252843921776157 
658	 0.252592964328703 
659	 0.251996536511042 
660	 0.251544846292076 
661	 0.251267510571746 
662	 0.251047798205845 
663	 0.250700972026469 
664	 0.250389066267502 
665	 0.250214316686136 
666	 0.250146151769308 
667	 0.249938343743049 
668	 0.249778095855053 
669	 0.249650686324025 
670	 0.249507193080004 
671	 0.249464421186577 
672	 0.249402982957079 
673	 0.249353344753727 
674	 0.249473873224492 
675	 0.249373614985842 
676	 0.249320708013317 
677	 0.249494795305222 
678	 0.249517342099622 
679	 0.249701391703088 
680	 0.249956496653985 
681	 0.250036771421463 
682	 0.249969064541429 
683	 0.250101166474819 
684	 0.250421266100166 
685	 0.250416704492095 
686	 0.250465511609505 
687	 0.250637287307256 
688	 0.250852235157492 
689	 0.250995066044737 
690	 0.250923633932614 
691	 0.250789657228162 
692	 0.250875992781242 
693	 0.250779452074615 
694	 0.250690928379737 
695	 0.250643924341978 
696	 0.250276028900465 
697	 0.2499913182199 
698	 0.249661312552442 
699	 0.249109594349692 
700	 0.248659736966651 
701	 0.248231868661836 
702	 0.247779462932333 
703	 0.247280828907512 
704	 0.246653072919603 
705	 0.24595182287745 
706	 0.24523082102786 
707	 0.244446394345394 
708	 0.243583460771289 
709	 0.242714753442041 
710	 0.24188485688896 
711	 0.240804028383361 
712	 0.239591319256787 
713	 0.238408686111889 
714	 0.237397628612466 
715	 0.236319869928707 
716	 0.235147237316787 
717	 0.233916830146331 
718	 0.232323245131523 
719	 0.230748983065421 
720	 0.229366652626249 
721	 0.227964048304712 
722	 0.226886518390736 
723	 0.22556106560723 
724	 0.223950662334917 
725	 0.222481221180948 
726	 0.220798467265479 
727	 0.21924341813186 
728	 0.217924094537116 
729	 0.215733236505648 
730	 0.213623469838576 
731	 0.211787967007504 
732	 0.210015967506596 
733	 0.208862525440698 
734	 0.207796903504306 
735	 0.20663566302591 
736	 0.205709909926819 
737	 0.205080318755592 
738	 0.204639417448203 
739	 0.204239508903347 
740	 0.203700675886022 
741	 0.203476903306355 
742	 0.203492169479582 
743	 0.203399254457275 
744	 0.203240914442283 
745	 0.203130020610151 
746	 0.203055080616982 
747	 0.202824248978419 
748	 0.202840819834703 
749	 0.202858863766233 
750	 0.202648765206648 
751	 0.20261335740987 
752	 0.202489188665335 
753	 0.2023400576791 
754	 0.202369158041537 
755	 0.202322955538684 
756	 0.202379590515578 
757	 0.202609240185059 
758	 0.202943831170914 
759	 0.202577563218321 
760	 0.202205341968529 
761	 0.203068455889026 
762	 0.202881174463522 
763	 0.202551388193077 
764	 0.202324130098118 
765	 0.202163663573496 
766	 0.202048616158731 
767	 0.202106822210964 
768	 0.202299071440028 
769	 0.202426314875529 
770	 0.202480243017977 
771	 0.202452224897927 
772	 0.202400751878118 
773	 0.202544865503763 
774	 0.202726843759301 
775	 0.202868584133658 
776	 0.202954052392449 
777	 0.203109479585294 
778	 0.203220784667995 
779	 0.203369864807899 
780	 0.203812431894998 
781	 0.203966577359955 
782	 0.204024145033329 
783	 0.204194366488276 
784	 0.204387236754632 
785	 0.204609759187236 
786	 0.204875645767645 
787	 0.20520339487248 
788	 0.205642963573173 
789	 0.205884888567352 
790	 0.20601855820708 
791	 0.206418822991223 
792	 0.206650727850469 
793	 0.206918404568614 
794	 0.207292458029483 
795	 0.207478445590645 
796	 0.207668215120209 
797	 0.207841801534181 
798	 0.207996378722036 
799	 0.208374884124285 
800	 0.208680820317231 
801	 0.208858173553986 
802	 0.208981687513729 
803	 0.208897344931046 
804	 0.208830891111636 
805	 0.208924428409359 
806	 0.209176864557802 
807	 0.209329094359209 
808	 0.209257175623719 
809	 0.20900339287282 
810	 0.208926340275265 
811	 0.208996905308878 
812	 0.208896065020825 
813	 0.208305192286157 
814	 0.207873039882666 
815	 0.207810769432176 
816	 0.207546941419031 
817	 0.206263392402509 
818	 0.206008035531178 
819	 0.205924028787485 
820	 0.205329845519773 
821	 0.204115004746111 
822	 0.203040390129652 
823	 0.202292535166064 
824	 0.201631534033829 
825	 0.200319878733894 
826	 0.1989338838197 
827	 0.197435774086554 
828	 0.195786917996143 
829	 0.19460241360522 
830	 0.19376074452076 
831	 0.193079522054459 
832	 0.192379521678916 
833	 0.191365922705984 
834	 0.19059459096647 
835	 0.1901320507632 
836	 0.189318240063976 
837	 0.189219717263644 
838	 0.189203463525341 
839	 0.188723854769823 
840	 0.188447006981424 
841	 0.187936580068993 
842	 0.187451966400656 
843	 0.187347590943067 
844	 0.187185060813486 
845	 0.186994872000302 
846	 0.186734009845182 
847	 0.186378667423112 
848	 0.186627387005631 
849	 0.186552014545317 
850	 0.185943801975331 
851	 0.185701448300669 
852	 0.185206249685149 
853	 0.184741821170974 
854	 0.184531769478583 
855	 0.184239855124122 
856	 0.184526384417777 
857	 0.184765279484936 
858	 0.184316627486677 
859	 0.183713103643777 
860	 0.183605963230219 
861	 0.183789804371501 
862	 0.183653186322292 
863	 0.183242838517699 
864	 0.182774944204485 
865	 0.182512464620801 
866	 0.182630418184728 
867	 0.182313517626712 
868	 0.182112602313896 
869	 0.182178184438192 
870	 0.181910924380526 
871	 0.18106250719404 
872	 0.180799345119064 
873	 0.181404401764608 
874	 0.180495189282676 
875	 0.180288493679613 
876	 0.180271383700374 
877	 0.179628004252773 
878	 0.179659131736271 
879	 0.179703958040599 
880	 0.179580238403213 
881	 0.179376286253014 
882	 0.179287360982565 
883	 0.178641704740051 
884	 0.177937957073475 
885	 0.178326969165092 
886	 0.178397284781502 
887	 0.178322147518625 
888	 0.178095378356511 
889	 0.177421893071107 
890	 0.177972811638245 
891	 0.178229533124016 
892	 0.177392619264386 
893	 0.177109632698828 
894	 0.177120329332742 
895	 0.177537828162971 
896	 0.177998143802946 
897	 0.17664197075406 
898	 0.175226410096565 
899	 0.175205625391931 
900	 0.176551086707256 
901	 0.175488907247942 
902	 0.175632260362817 
903	 0.176300319757144 
904	 0.175689228525368 
905	 0.175303731850629 
906	 0.174928452130347 
907	 0.17438845581937 
908	 0.173817945682018 
909	 0.175086848937011 
910	 0.175556709378451 
911	 0.17448519175026 
912	 0.173357192312608 
913	 0.173401085032637 
914	 0.172821765612429 
915	 0.172058054438823 
916	 0.173844425973911 
917	 0.172362097777913 
918	 0.17108102670044 
919	 0.171565323719569 
920	 0.171158921004734 
921	 0.171034123285798 
922	 0.171108320554527 
923	 0.171209778735708 
924	 0.171437863643053 
925	 0.171786234390508 
926	 0.171725438208873 
927	 0.170993804179628 
928	 0.171058537096782 
929	 0.169234284983644 
930	 0.168100217864131 
931	 0.171559080673516 
932	 0.168709252023997 
933	 0.167353247746371 
934	 0.166337164407436 
935	 0.162551127554937 
936	 0.166153747795392 
937	 0.168543759377126 
938	 0.168191763521869 
939	 0.166894964387476 
940	 0.168437279360289 
941	 0.167762416787384 
942	 0.165253641318467 
943	 0.164526039956227 
944	 0.169152958274959 
945	 0.170115137968943 
946	 0.166698787349114 
947	 0.163890987384871 
948	 0.161495877804373 
949	 0.161227409284445 
950	 0.16503195819747 
951	 0.172129669756652 
952	 0.167242304398961 
953	 0.16300039245908 
954	 0.162514260858014 
955	 0.161063710452486 
956	 0.161181559185731 
957	 0.164817322059657 
958	 0.168043928001619 
959	 0.164768493948362 
960	 0.160967180307012 
961	 0.161941931994981 
962	 0.164398756973925 
963	 0.161248310049262 
964	 0.161247185727178 
965	 0.163120707921255 
966	 0.165029672007325 
967	 0.165678848130038 
968	 0.165525661753188 
969	 0.163537484271047 
970	 0.161386632999358 
971	 0.162428412367057 
972	 0.16395937731306 
973	 0.163546214516496 
974	 0.161395128914997 
975	 0.160603514775662 
976	 0.16575226589649 
977	 0.166584548352915 
978	 0.163640785131555 
979	 0.16626752974212 
980	 0.164232061211359 
981	 0.16316648872157 
982	 0.164295943202209 
983	 0.164044631514062 
984	 0.161280470876688 
985	 0.160012285004528 
986	 0.160891658633328 
987	 0.161955019903625 
988	 0.166811592602606 
989	 0.16644457990043 
990	 0.162594937269716 
991	 0.163875904113366 
992	 0.161830004022607 
993	 0.16073627834395 
994	 0.162305821070991 
995	 0.164621779034603 
996	 0.16090090809179 
997	 0.16153654156053 
998	 0.164557537170946 
999	 0.161938111383791 
1000	 0.162672605708752 
1001	 0.168857133031625 
1002	 0.168655759252486 
1003	 0.168905523969313 
1004	 0.169666093748944 
1005	 0.170003841283003 
1006	 0.170492465020515 
1007	 0.171050816029614 
1008	 0.170755188100752 
1009	 0.169807444708123 
1010	 0.169470825154152 
1011	 0.169411173583165 
1012	 0.169569673913796 
1013	 0.169808754341164 
1014	 0.169788838399725 
1015	 0.169596969958888 
1016	 0.169389313632152 
1017	 0.168845512186061 
1018	 0.168802549529054 
1019	 0.16909653617352 
1020	 0.16920997469527 
1021	 0.169670232688578 
1022	 0.169603278975739 
1023	 0.169591788935098 
1024	 0.169697083380272 
1025	 0.169356047620778 
1026	 0.169336716479225 
1027	 0.169322200552549 
1028	 0.168995618635916 
1029	 0.169184157392141 
1030	 0.170138203396204 
1031	 0.170200712528024 
1032	 0.170058191354461 
1033	 0.169885544460387 
1034	 0.169117371188785 
1035	 0.168703923255023 
1036	 0.168210757311484 
1037	 0.168196417692068 
1038	 0.168659299432539 
1039	 0.168809026335518 
1040	 0.169377976553942 
1041	 0.169840801755142 
1042	 0.169822526721024 
1043	 0.169130896135334 
1044	 0.169241046198193 
1045	 0.169447932933293 
1046	 0.169614913674989 
1047	 0.170519489976122 
1048	 0.17042877845531 
1049	 0.16928544436876 
1050	 0.169134358771498 
1051	 0.168835993911517 
1052	 0.168978071495178 
1053	 0.17066446238469 
1054	 0.171011911585567 
1055	 0.170399491351454 
1056	 0.170254267636452 
1057	 0.170007497138378 
1058	 0.169015341158215 
1059	 0.168985569568481 
1060	 0.169687978640991 
1061	 0.170052724045944 
1062	 0.170884269465306 
1063	 0.170794258096091 
1064	 0.1701008230714 
1065	 0.169848387932246 
1066	 0.168869142155366 
1067	 0.168708649382319 
1068	 0.169721905720766 
1069	 0.169932218508846 
1070	 0.16981405664553 
1071	 0.169936241211758 
1072	 0.170352198713471 
1073	 0.169897407037954 
1074	 0.169573955176351 
1075	 0.169217187727061 
1076	 0.169173295237108 
1077	 0.168873315528562 
1078	 0.16884573504866 
1079	 0.169644090385751 
1080	 0.169531378448104 
1081	 0.168578132053265 
1082	 0.168307615838282 
1083	 0.168064468839053 
1084	 0.167940530006258 
1085	 0.168311697425836 
1086	 0.168430579174282 
1087	 0.168363551903596 
1088	 0.168324914293094 
1089	 0.168415361925409 
1090	 0.168361166769581 
1091	 0.167997530312194 
1092	 0.16717883362395 
1093	 0.167225155842869 
1094	 0.167522335418197 
1095	 0.167554021459854 
1096	 0.168140360408304 
1097	 0.168106770204735 
1098	 0.167315638091526 
1099	 0.166887354291307 
1100	 0.166741475253865 
1101	 0.166496662930875 
1102	 0.165468011999178 
1103	 0.165373534748553 
1104	 0.165995081390742 
1105	 0.166665788287036 
1106	 0.167054852631101 
1107	 0.167518832941567 
1108	 0.167202979697003 
1109	 0.166136266650714 
1110	 0.16611768943256 
1111	 0.167351741521041 
1112	 0.167570689319865 
1113	 0.167772395592296 
1114	 0.167531307821266 
1115	 0.165127716334344 
1116	 0.164572324756012 
1117	 0.165765537229483 
1118	 0.166812824409588 
1119	 0.17019131387197 
1120	 0.172472942315876 
1121	 0.1755557406498 
1122	 0.174426720737698 
1123	 0.170741164248131 
1124	 0.169785964280763 
1125	 0.16547821880376 
1126	 0.161745639049909 
1127	 0.164071484686011 
1128	 0.165114692854175 
1129	 0.164806132311713 
1130	 0.165193819136807 
1131	 0.166077879319062 
1132	 0.165894506219731 
1133	 0.165458636161484 
1134	 0.166015475443352 
1135	 0.166286314382217 
1136	 0.165067412561535 
1137	 0.16439901471899 
1138	 0.165412167717402 
1139	 0.164351768397147 
1140	 0.161512048149542 
1141	 0.162662875370229 
1142	 0.161016308990281 
1143	 0.160892550990382 
1144	 0.166074745893121 
1145	 0.167181765251454 
1146	 0.166935790618306 
1147	 0.167202049119476 
1148	 0.163204577102201 
1149	 0.160913636659326 
1150	 0.160336257345707 
1151	 0.161125758966656 
1152	 0.1623647688286 
1153	 0.165753194602822 
1154	 0.165583457235722 
1155	 0.164424653168775 
1156	 0.16434422780762 
1157	 0.162871958694666 
1158	 0.161313870402261 
1159	 0.161044123937447 
1160	 0.161691203676683 
1161	 0.162162240604576 
1162	 0.162158040885735 
1163	 0.162219907982596 
1164	 0.162033355786446 
1165	 0.161811512271913 
1166	 0.162296295641916 
1167	 0.162628668863308 
1168	 0.162383689645674 
1169	 0.162226773193741 
1170	 0.161821138977833 
1171	 0.161624483179957 
1172	 0.161610466769401 
1173	 0.161656938289643 
1174	 0.161657112234234 
1175	 0.162155163621853 
1176	 0.162302274435245 
1177	 0.161951544293294 
1178	 0.162008611029719 
1179	 0.162177453400149 
1180	 0.162007003302181 
1181	 0.161988887460412 
1182	 0.162160421534373 
1183	 0.161657029123196 
1184	 0.161415014223369 
1185	 0.161972837774324 
1186	 0.162363506981814 
1187	 0.161884177746417 
1188	 0.160946268540843 
1189	 0.160950877613278 
1190	 0.161371184049377 
1191	 0.161372137345018 
1192	 0.161346370550217 
1193	 0.161657431209158 
1194	 0.161452290555782 
1195	 0.160863646053743 
1196	 0.160829557382878 
1197	 0.161209063251231 
1198	 0.161216190235739 
1199	 0.160625528876645 
1200	 0.160380691212668 
1201	 0.160684788382139 
1202	 0.160807735819808 
1203	 0.160939231894358 
1204	 0.161098151407482 
1205	 0.160780568570102 
1206	 0.160655936446908 
1207	 0.161072368031261 
1208	 0.161003744705431 
1209	 0.160519706146771 
1210	 0.159805511422075 
1211	 0.159276251002678 
1212	 0.159789578595035 
1213	 0.160104430158713 
1214	 0.159971500595573 
1215	 0.159641413109401 
1216	 0.159554556351921 
1217	 0.15936451725609 
1218	 0.159192694458052 
1219	 0.159329326647674 
1220	 0.159095936819898 
1221	 0.158603065303227 
1222	 0.158826295595936 
1223	 0.15933002707781 
1224	 0.15932403821762 
1225	 0.159208582346277 
1226	 0.159031914188645 
1227	 0.15883058783879 
1228	 0.159052633702206 
1229	 0.15923147702576 
1230	 0.158827262504042 
1231	 0.158597478302229 
1232	 0.15899364349105 
1233	 0.159250822195114 
1234	 0.159151104649539 
1235	 0.15901426803847 
1236	 0.158628479975714 
1237	 0.158418097594428 
1238	 0.158059548569939 
1239	 0.158093921908762 
1240	 0.158272309437886 
1241	 0.158099927025465 
1242	 0.158036803689576 
1243	 0.157935029464521 
1244	 0.157869186738189 
1245	 0.158256913713271 
1246	 0.158219250563698 
1247	 0.157941942005534 
1248	 0.158062899987724 
1249	 0.158148314369528 
1250	 0.158293982044454 
1251	 0.158471464585437 
1252	 0.158145915265861 
1253	 0.157661210821177 
1254	 0.157598837331675 
1255	 0.157759052728815 
1256	 0.157660918915627 
1257	 0.157650088358265 
1258	 0.157622207780736 
1259	 0.157211034761951 
1260	 0.157224108430163 
1261	 0.157876296115958 
1262	 0.15790435761644 
1263	 0.157631980442122 
1264	 0.15749314217434 
1265	 0.157389215024944 
1266	 0.157362054504745 
1267	 0.157470808187268 
1268	 0.157158873825677 
1269	 0.156894100078779 
1270	 0.157220750690512 
1271	 0.157402885282903 
1272	 0.157601259423527 
1273	 0.157682412953879 
1274	 0.157106985941979 
1275	 0.156832258710422 
1276	 0.157039624832706 
1277	 0.157119563023651 
1278	 0.157310646563085 
1279	 0.157474396528743 
1280	 0.157071707339426 
1281	 0.156842123690432 
1282	 0.156415906878287 
1283	 0.156270306409286 
1284	 0.156424888315808 
1285	 0.156320620113395 
1286	 0.155885640904466 
1287	 0.155987995897294 
1288	 0.156362447992259 
1289	 0.156416178644034 
1290	 0.156639496759881 
1291	 0.157104560119191 
1292	 0.1569053317626 
1293	 0.156649946159012 
1294	 0.156626112793249 
1295	 0.156388635183732 
1296	 0.156452473442738 
1297	 0.156501059657992 
1298	 0.156314408747816 
1299	 0.15656248958116 
1300	 0.156395518393239 
1301	 0.156051232303722 
1302	 0.156510431625414 
1303	 0.156392773697512 
1304	 0.155887179668749 
1305	 0.156093253710728 
1306	 0.156139147688642 
1307	 0.156411327778057 
1308	 0.155963141956513 
1309	 0.154943168186058 
1310	 0.154733572195437 
1311	 0.154317564576362 
1312	 0.154184720794394 
1313	 0.155155499052202 
1314	 0.155330325281813 
1315	 0.154689511716188 
1316	 0.154463056487505 
1317	 0.15471207224843 
1318	 0.154571497649145 
1319	 0.153701827268289 
1320	 0.153754016240952 
1321	 0.1543605302023 
1322	 0.15491093827184 
1323	 0.155163522222801 
1324	 0.154404598073576 
1325	 0.153487910442757 
1326	 0.153032953936352 
1327	 0.152255495759813 
1328	 0.152778516641909 
1329	 0.153706261268261 
1330	 0.152848406302727 
1331	 0.152465403681219 
1332	 0.153392797858892 
1333	 0.153700448294488 
1334	 0.153493118552139 
1335	 0.15319556033492 
1336	 0.152923752031095 
1337	 0.15245274320886 
1338	 0.150183975797945 
1339	 0.15052707877076 
1340	 0.15386016915801 
1341	 0.154178201728323 
1342	 0.154534356853436 
1343	 0.155389700847104 
1344	 0.152661820196817 
1345	 0.152221987435347 
1346	 0.155970227476896 
1347	 0.158333126599545 
1348	 0.162370461319071 
1349	 0.165077230681764 
1350	 0.165557218475817 
1351	 0.165054248567019 
1352	 0.150761833947581 
1353	 0.142141776781898 
1354	 0.137876646419376 
1355	 0.14615531571144 
1356	 0.15237742540346 
1357	 0.101573819410545 
1358	 1.78522820612749E-02 
1359	-8.33222762244835E-02 
1360	-1.13089540959445E-02 
1361	 8.86921275611116E-02 
1362	 5.38802314882796E-02 
1363	 0.197227072579303 
1364	 0.136267726985414 
1365	 6.01020768760675E-02 
1366	 0.238519768774579 
1367	 0.41991744653403 
1368	 0.463695398137796 
1369	 0.615397889952536 
1370	 0.740584268537164 
1371	 0.576749441091061 
1372	 0.360112412940198 
1373	 0.049187174634135 
1374	-0.20555699814294 
1375	-0.629906127588675 
1376	-0.609880836347145 
1377	-0.596404207336628 
1378	-0.437280157589717 
1379	 3.78314816603867E-02 
1380	 8.95208462785769E-02 
1381	 0.058682981167236 
1382	 0.257802556295544 
1383	 1.28330017094109 
1384	 1.62595558427332 
1385	 1.2979491279713 
1386	 1.52058292440434 
1387	 0.712802663151773 
1388	 0.47105294221746 
1389	 0.672252688623395 
1390	 0.713707633733326 
1391	 0.243076753400512 
1392	 9.32976674267002E-02 
1393	 0.243839512421935 
1394	-5.34645621946714E-02 
1395	-4.36664952166992E-02 
1396	 0.105436914127289 
1397	-0.941673279731661 
1398	-1.30879321093241 
1399	-1.01483393905432 
1400	-1.60054876850141 
1401	-1.83381013863357 
1402	 3.17084030860975 
1403	 0.369521454866559 
1404	 0.161750380810297 
1405	-3.91868012567005E-02 
1406	-0.364298934702524 
1407	-0.254389491622539 
1408	-0.222494445913668 
1409	-0.084938617921897 
1410	 0.62437141029524 
1411	 0.605636765926064 
1412	 0.210825065006316 
1413	 0.139591402390307 
1414	 5.50018645765465E-02 
1415	 3.32044323792918E-02 
1416	 5.18864170553418E-02 
1417	 8.66273194964067E-02 
1418	 0.131997444212063 
1419	 0.146730481854289 
1420	 0.171420858535257 
1421	 0.176122220343523 
1422	 0.17672525037661 
1423	 0.15537635179178 
1424	 0.11059205643753 
1425	 0.106916097584085 
1426	 0.113934203821231 
1427	 0.109559246584146 
1428	 0.115850716429039 
1429	 0.120634461936224 
1430	 0.11397124369283 
1431	 0.109752244482633 
1432	 0.11663929844791 
1433	 0.116488730617289 
1434	 0.103241614160633 
1435	 9.84962860655187E-02 
1436	 9.16403604179264E-02 
1437	 9.97651142250232E-02 
1438	 0.112411644431072 
1439	 0.108379731647465 
1440	 9.86235810833273E-02 
1441	 9.71073806357685E-02 
1442	 0.103905143881449 
1443	 0.109970569482992 
1444	 0.115024025938522 
1445	 0.1187481117364 
1446	 0.122423819783214 
1447	 0.121553790272103 
1448	 0.106799038839783 
1449	 0.100743405244001 
1450	 0.105947036033058 
1451	 0.103123314175724 
1452	 0.103227864748594 
1453	 0.107519740043937 
1454	 0.109140267906164 
1455	 0.105148796854753 
1456	 0.104739079328861 
1457	 0.107315094636343 
1458	 0.109995648277365 
1459	 0.112500887655871 
1460	 0.111738004692357 
1461	 0.111401649735914 
1462	 0.112927986173558 
1463	 0.11133982194114 
1464	 0.110956278448025 
1465	 0.116103792647837 
1466	 0.116612356057149 
1467	 0.110726003121468 
1468	 0.109605520113891 
1469	 0.112628933090457 
1470	 0.112743759323302 
1471	 0.11145004423478 
1472	 0.110169992892896 
1473	 0.106658890662272 
1474	 0.106894733923818 
1475	 0.110404318282018 
1476	 0.110591336021265 
1477	 0.110839394258414 
1478	 0.111086781341014 
1479	 0.108522136156635 
1480	 0.108716300956121 
1481	 0.1122874702458 
1482	 0.112305781699029 
1483	 0.109695705270713 
1484	 0.110868275472474 
1485	 0.113495872801756 
1486	 0.113438499916458 
1487	 0.113533944633502 
1488	 0.114149345579747 
1489	 0.113351512211583 
1490	 0.113371607463353 
1491	 0.11486547394039 
1492	 0.115500528922469 
1493	 0.11516173328282 
1494	 0.115272561123959 
1495	 0.115785327766221 
1496	 0.116150048400286 
1497	 0.116524043919062 
1498	 0.116824575068672 
1499	 0.117100460916609 
1500	 0.117258061885944 
1501	 0.11759481655809 
1502	 0.117355179746057 
1503	 0.116339653890983 
1504	 0.116326973955688 
1505	 0.116613508276838 
1506	 0.116528832142675 
1507	 0.117416679395037 
1508	 0.117871146005229 
1509	 0.118171312163869 
1510	 0.118919324449125 
1511	 0.118848863937677 
1512	 0.118974515079465 
1513	 0.119328363239602 
1514	 0.118891946211673 
1515	 0.119141148435212 
1516	 0.119735503429336 
1517	 0.119702957736309 
1518	 0.119971187179206 
1519	 0.120537852349784 
1520	 0.120700326718144 
1521	 0.120741057868997 
1522	 0.121137939182523 
1523	 0.121432903987048 
1524	 0.121403922109285 
1525	 0.121645715331613 
1526	 0.122356843737633 
1527	 0.122647619068085 
1528	 0.122660411953787 
1529	 0.122956837358354 
1530	 0.122923250840486 
1531	 0.123217276027575 
1532	 0.124056394551895 
1533	 0.124134007166419 
1534	 0.12393914997898 
1535	 0.12446285218127 
1536	 0.125012018482847 
1537	 0.125336458157275 
1538	 0.125641947559715 
1539	 0.125661809205631 
1540	 0.125714360294661 
1541	 0.126196431036608 
1542	 0.126709916555578 
1543	 0.126449584980699 
1544	 0.126295367091514 
1545	 0.12652916131079 
1546	 0.126249941561742 
1547	 0.126134269203382 
1548	 0.125903227764924 
1549	 0.126082018986316 
1550	 0.127261421141237 
1551	 0.127793085644058 
1552	 0.128080297031615 
1553	 0.128579561627938 
1554	 0.128348774818037 
1555	 0.128305577308659 
1556	 0.129026805067184 
1557	 0.129238707467283 
1558	 0.129139461916777 
1559	 0.129321033819704 
1560	 0.129282281497868 
1561	 0.129275941761052 
1562	 0.129371758956207 
1563	 0.12982004939381 
1564	 0.130464879418629 
1565	 0.130704354320433 
1566	 0.13091383736985 
1567	 0.130618891696212 
1568	 0.130223302160253 
1569	 0.130571256591677 
1570	 0.130854966852849 
1571	 0.131260981945936 
1572	 0.131599340002144 
1573	 0.131346897835284 
1574	 0.131562420682648 
1575	 0.131811837860058 
1576	 0.131733104251964 
1577	 0.132121282091938 
1578	 0.132202982851186 
1579	 0.132178152378822 
1580	 0.132589384560021 
1581	 0.132743244721183 
1582	 0.132678807420855 
1583	 0.132533762779429 
1584	 0.1325608730072 
1585	 0.132821227157839 
1586	 0.132873416252845 
1587	 0.132842157742702 
1588	 0.132925908252733 
1589	 0.132967285207396 
1590	 0.133022999054736 
1591	 0.133467958497999 
1592	 0.134151653127772 
1593	 0.134163084174793 
1594	 0.133818531878063 
1595	 0.133703501051369 
1596	 0.133385776033779 
1597	 0.133501300541981 
1598	 0.134161003257049 
1599	 0.134744112377379 
1600	 0.134741711346601 
1601	 0.133862022198524 
1602	 0.133627352403502 
1603	 0.134265962427219 
1604	 0.134339255758906 
1605	 0.134536410817927 
1606	 0.134870465692341 
1607	 0.134266702924302 
1608	 0.134052580434994 
1609	 0.134262688183436 
1610	 0.134064118910051 
1611	 0.134025088808936 
1612	 0.134241881452568 
1613	 0.134636586216731 
1614	 0.134753882571469 
1615	 0.13500856848896 
1616	 0.135161587949985 
1617	 0.134631140396586 
1618	 0.134746028661738 
1619	 0.135296411312553 
1620	 0.135178496291025 
1621	 0.135250263767131 
1622	 0.135643579317678 
1623	 0.135501451847243 
1624	 0.135632521516886 
1625	 0.136350809973229 
1626	 0.136591364441207 
1627	 0.13616236337845 
1628	 0.136049020288117 
1629	 0.136399561438932 
1630	 0.136719777251772 
1631	 0.137047652965947 
1632	 0.136974612185772 
1633	 0.136556026917835 
1634	 0.13642708604497 
1635	 0.136967219488251 
1636	 0.137484340813312 
1637	 0.137116080318569 
1638	 0.136715308648101 
1639	 0.136350141074601 
1640	 0.136000317817189 
1641	 0.136343443243828 
1642	 0.13647864595315 
1643	 0.135903277995215 
1644	 0.135372778688479 
1645	 0.135604053283883 
1646	 0.136313281573986 
1647	 0.13671180627787 
1648	 0.136819147298551 
1649	 0.136625741220064 
1650	 0.136237006515268 
1651	 0.136309098649669 
1652	 0.1369787732006 
1653	 0.137520392872768 
1654	 0.137403247615812 
1655	 0.137629841778117 
1656	 0.137734630373368 
1657	 0.136759774154722 
1658	 0.136559052531369 
1659	 0.13706551783359 
1660	 0.137151470284186 
1661	 0.136894135322577 
1662	 0.137048255892648 
1663	 0.13796729954754 
1664	 0.137826235375812 
1665	 0.136836610263978 
1666	 0.136782716248582 
1667	 0.136815962328193 
1668	 0.136407123304999 
1669	 0.136351811542368 
1670	 0.136796289849671 
1671	 0.137520996372898 
1672	 0.138308967680592 
1673	 0.138243668765043 
1674	 0.137598316150455 
1675	 0.136663745527136 
1676	 0.136071445365253 
1677	 0.137192515957596 
1678	 0.137975510242577 
1679	 0.137061105977516 
1680	 0.136261632272779 
1681	 0.136191079553865 
1682	 0.136303893470001 
1683	 0.136145868468772 
1684	 0.136509333395005 
1685	 0.13680116242979 
1686	 0.136392744042939 
1687	 0.136643039795375 
1688	 0.136977828096271 
1689	 0.136796387444978 
1690	 0.137075139684591 
1691	 0.137963462827078 
1692	 0.138168740372628 
1693	 0.137939488533183 
1694	 0.138418137989115 
1695	 0.137793162267736 
1696	 0.136656490424523 
1697	 0.136967494681473 
1698	 0.136442065828072 
1699	 0.136270687860624 
1700	 0.137573851522382 
1701	 0.137442111486235 
1702	 0.137000272375525 
1703	 0.137024853664421 
1704	 0.136900978973823 
1705	 0.13748722179726 
1706	 0.138083966690821 
1707	 0.138069800243354 
1708	 0.137917961851375 
1709	 0.137663424268796 
1710	 0.13727756891907 
1711	 0.137509929165521 
1712	 0.138242630550713 
1713	 0.137459660908356 
1714	 0.137207249679019 
1715	 0.137244157987373 
1716	 0.137286345710805 
1717	 0.137582083137215 
1718	 0.138056897020269 
1719	 0.13764460601396 
1720	 0.136396764921281 
1721	 0.136120916806862 
1722	 0.136753489045508 
1723	 0.137064873427624 
1724	 0.136925397019699 
1725	 0.136647608877267 
1726	 0.136392938966947 
1727	 0.136304559051122 
1728	 0.136739883667877 
1729	 0.137040392460747 
1730	 0.13666504876243 
1731	 0.13597804201653 
1732	 0.135942307992538 
1733	 0.137249998828774 
1734	 0.137751472876373 
1735	 0.13676512245484 
1736	 0.136444175806651 
1737	 0.136245817742658 
1738	 0.13596229892223 
1739	 0.136624602831364 
1740	 0.13641571169487 
1741	 0.135132604952905 
1742	 0.134402549658437 
1743	 0.13454011463309 
1744	 0.135359217297611 
1745	 0.135564104301598 
1746	 0.135521872159212 
1747	 0.135633988225634 
1748	 0.136221892843137 
1749	 0.135771027622552 
1750	 0.133609310866674 
1751	 0.133308972479435 
1752	 0.134129638968963 
1753	 0.134127384616365 
1754	 0.134820040058541 
1755	 0.13534689403036 
1756	 0.134571917432567 
1757	 0.133228267868343 
1758	 0.134238783222959 
1759	 0.134034594405564 
1760	 0.132917386951726 
1761	 0.133844378023865 
1762	 0.134711463112032 
1763	 0.134629831212246 
1764	 0.134596798962308 
1765	 0.133398896031835 
1766	 0.132018572474271 
1767	 0.13148938749824 
1768	 0.132330046415098 
1769	 0.135517500650311 
1770	 0.136822641273165 
1771	 0.134297207369255 
1772	 0.13269773184646 
1773	 0.132277500353129 
1774	 0.132061199178435 
1775	 0.136598265897144 
1776	 0.137533868474813 
1777	 0.134717284806196 
1778	 0.133520422951346 
1779	 0.130352388973167 
1780	 0.129775006956509 
1781	 0.132065354857412 
1782	 0.132012291734491 
1783	 0.133887109496411 
1784	 0.132884775941325 
1785	 0.125460461165548 
1786	 0.126326998442775 
1787	 0.131620648234214 
1788	 0.133162684402011 
1789	 0.141620684444369 
1790	 0.133858107230047 
1791	 0.126519116756644 
1792	 0.134650784110511 
1793	 0.135517572206886 
1794	 0.139126045836193 
1795	 0.150604141743631 
1796	 0.144708991361422 
1797	 0.13303271892668 
1798	 0.132808408551724 
1799	 0.130012871380836 
1800	 0.142638992751343 
1801	 0.147087987634065 
1802	 0.148488203142003 
1803	 0.149811465753728 
1804	 0.132142351590471 
1805	 0.114899828947331 
1806	 8.93972826385051E-02 
1807	 7.14528645645894E-02 
1808	 4.36910187309238E-02 
1809	 5.43901805623318E-02 
1810	 0.174789731363062 
1811	 0.234130171177909 
1812	 0.294205873261501 
1813	 0.275832471235418 
1814	 4.82086558705969E-03 
1815	 3.86705333785118E-02 
1816	 0.43635359883338 
1817	 0.440771428419851 
1818	 1.77392692001453 
1819	 0.219185236696427 
1820	 0.153511911361551 
1821	 1.77372209164721 
1822	 2.17801843762291 
1823	 2.4792178576425 
1824	 1.64502583881507 
1825	-0.388081788682325 
1826	-0.70279190956027 
1827	-0.412102561975119 
1828	-0.409055319216814 
1829	-0.357448312913049 
1830	 0.303454877893338 
1831	 1.10205384598634 
1832	 0.740291147276965 
1833	-1.57679050174723 
1834	-7.82723319700333 
1835	 0.131806342178171 
1836	 1.2836211374265 
1837	-2.54091561611622 
1838	-2.4323427010078 
1839	-3.50802746782772 
1840	-1.48448369688506 
1841	-2.49742493722495 
1842	 7.78989803283908 
1843	 1.23165339109418 
1844	 0.423484994782124 
1845	 0.297505557791633 
1846	 0.156865825635801 
1847	 6.94445455243969E-02 
1848	-0.659542156887317 
1849	 0.173046895757448 
1850	 0.52151042496766 
1851	 4.87379550884438 
1852	 22.4064831720706 
1853	 16.7730241850791 
1854	 3.35514300160985 
1855	-0.19223930153256 
1856	-7.45095152845261E-02 
1857	 1.06673232408868 
1858	 1.49567728004157 
1859	 3.79619252763383 
1860	-4.62012697534145 
1861	-1.51633337376655 
1862	-0.199927210541308 
1863	-0.338582195054082 
1864	-0.203994379327837 
1865	-9.19338265674269E-03 
1866	 2.39352134913833 
1867	-3.02120524279643 
1868	-1.6677489728204 
1869	-0.917939930096328 
1870	-0.462665231891684 
1871	-0.472690113191068 
1872	-0.412942732645126 
1873	-0.268167345332923 
1874	-0.186146999000386 
1875	-0.214568787644744 
1876	-0.156395434899899 
1877	 3.57131777292357E-02 
1878	 0.150859016247576 
1879	 2.03306831557308 
1880	-1.56079531383953 
1881	-0.544284196138843 
1882	-0.254509613836029 
1883	-1.08178834903947 
1884	-5.90429304916075 
1885	 3.99319393809747 
1886	 1.75718066002594 
1887	 1.52266058194219 
1888	 2.62259671364042 
1889	 0.550185185653881 
1890	-0.927261684329561 
1891	-1.77900487474969 
1892	 0.1750970497518 
1893	-4.74527778801525 
1894	 5.45044968269426 
1895	 0.389178199003177 
1896	 9.60278760627675 
1897	-2.14266670156167 
1898	-0.992992198014254 
1899	-0.36292683882603 
1900	 9.10669057221337E-03 
1901	 0.585231684717971 
1902	 0.747486866956627 
1903	 0.848248294801997 
1904	 1.13815524272218 
1905	-0.963422278010661 
1906	-0.178252336604557 
1907	-0.195176819100515 
1908	 11.2041039579345 
1909	-5.5394681549827 
1910	-1.2079136755015 
1911	-1.58413131810414 
1912	-1.95089943952489 
1913	-1.82854162477677 
1914	-0.835014416050986 
1915	-0.737702632985862 
1916	-4.19109078421259 
1917	-0.669386897906081 
1918	-0.47238787563707 
1919	-0.298993373341439 
1920	-0.402771839687901 
1921	-1.0243510066219 
1922	-1.38405247762913 
1923	 10.6196366484617 
1924	 2.18606493379425 
1925	 1.84645656325369 
1926	 1.91811996426564 
1927	 2.26773102538945 
1928	 1.92620555348623 
1929	 1.45293468215762 
1930	 1.28595055354231 
1931	 0.641500171651204 
1932	 0.715083597737133 
1933	 1.16094640199184 
1934	 0.825279595448243 
1935	 0.545577264616293 
1936	 0.302895985097873 
1937	 0.150738388291908 
1938	 0.110220037124889 
1939	 0.050164636924458 
1940	 3.51995905006587E-02 
1941	 0.163871446474747 
1942	 0.228093472764196 
1943	 0.293998596241692 
1944	 0.352779281554964 
1945	 0.366496404968782 
1946	 0.320072868755938 
1947	 0.203840273318217 
1948	 0.202023052652715 
1949	 0.165317308731696 
1950	 8.00442402436926E-02 
1951	 0.121803643374451 
1952	 0.127066087428078 
1953	 0.127656781096109 
1954	 9.70286495592458E-02 
1955	 0.130833257331889 
1956	 0.155419926789259 
1957	 0.154406052480015 
1958	 0.163367848296241 
1959	 0.164798526756062 
1960	 0.140753301676309 
1961	 0.1140340756651 
1962	 9.63681027023886E-02 
1963	 0.07968280133532 
1964	 8.02258706164904E-02 
1965	 9.56595869581245E-02 
1966	 9.69598607705391E-02 
1967	 0.100529427712718 
1968	 9.51084313152822E-02 
1969	 8.78375638036438E-02 
1970	 7.90561069136079E-02 
1971	 7.73827167296754E-02 
1972	 8.30234184624691E-02 
1973	 8.33195399506139E-02 
1974	 8.43609731903109E-02 
1975	 8.44522961028852E-02 
1976	 7.99752877520746E-02 
1977	 8.16472381361774E-02 
1978	 0.081656339079994 
1979	 8.05460967522838E-02 
1980	 7.84846419737947E-02 
1981	 8.06754023674864E-02 
1982	 7.66551611117913E-02 
1983	 7.22843917290027E-02 
1984	 7.24302871994569E-02 
1985	 7.15095646201619E-02 
1986	 7.65791141843774E-02 
1987	 0.080620589836208 
1988	 7.88132420887415E-02 
1989	 0.079880691507042 
1990	 7.98790306800701E-02 
1991	 7.90790398392624E-02 
1992	 7.97647903697332E-02 
1993	 8.00447141600199E-02 
1994	 8.11465830650759E-02 
1995	 8.08228721453272E-02 
1996	 8.21515047832448E-02 
1997	 8.52512047977491E-02 
1998	 8.71279624117073E-02 
1999	 8.68729763118097E-02 
2000	 0.079260392252153 
2001	 7.16291045216151E-02 
2002	 0.078529056637875 
2003	 7.92322662098595E-02 
2004	 7.31772619183896E-02 
2005	 8.40377577506375E-02 
2006	 8.22651932686374E-02 
2007	 0.070440596967224 
2008	 7.40526698634961E-02 
2009	 7.35475866721613E-02 
2010	 6.39194703910639E-02 
2011	 0.065810246629331 
2012	 7.61890027290855E-02 
2013	 8.11890088299918E-02 
2014	 8.48830669676194E-02 
2015	 8.76821560509068E-02 
2016	 8.33301791059974E-02 
2017	 8.36968238423712E-02 
2018	 0.087892800305878 
2019	 8.85418845585935E-02 
2020	 8.85331076100811E-02 
2021	 8.74771615436147E-02 
2022	 8.71407514516775E-02 
2023	 8.87456161939032E-02 
2024	 8.87111487519282E-02 
2025	 8.75502683065389E-02 
2026	 8.82667222145828E-02 
2027	 9.01026793561964E-02 
2028	 8.87747310160509E-02 
2029	 8.98878906549281E-02 
2030	 9.33247045596319E-02 
2031	 9.26216390685235E-02 
2032	 9.31815199258121E-02 
2033	 9.13289594018743E-02 
2034	 0.088067234482611 
2035	 8.85856697663766E-02 
2036	 0.088954776623787 
2037	 8.91300165021936E-02 
2038	 8.98428319392528E-02 
2039	 8.98690297404653E-02 
2040	 8.79005650748308E-02 
2041	 8.70160678870205E-02 
2042	 8.63980348256731E-02 
2043	 8.65209103672926E-02 
2044	 8.64875353521176E-02 
2045	 0.087496599498565 
2046	 9.03617066469477E-02 
2047	 9.42414217528347E-02 
2048	 9.66461296409143E-02 
2049	 9.71064607237595E-02 
2050	 9.73054270934819E-02 
2051	 9.83939672506155E-02 
2052	 9.88290968064304E-02 
2053	 9.72518857229495E-02 
2054	 9.64094818801541E-02 
2055	 9.40973573579809E-02 
2056	 9.25994854863082E-02 
2057	 9.28222799910485E-02 
2058	 9.30842874205022E-02 
2059	 9.24442607936826E-02 
2060	 9.22298584146009E-02 
2061	 9.33692314680021E-02 
2062	 9.19426539574697E-02 
2063	 9.00709560086696E-02 
2064	 9.34864565508498E-02 
2065	 9.71029705112508E-02 
2066	 9.86594968252105E-02 
2067	 0.100067140211777 
2068	 9.83710110061721E-02 
2069	 9.60041720351658E-02 
2070	 9.37565599625614E-02 
2071	 9.27197241796625E-02 
2072	 9.46340472752459E-02 
2073	 9.52000014025587E-02 
2074	 9.52789003557303E-02 
2075	 9.63809672689487E-02 
2076	 9.87530505785168E-02 
2077	 9.95159564056653E-02 
2078	 9.94241724757729E-02 
2079	 9.94199337700723E-02 
2080	 9.88874652128023E-02 
2081	 9.82445445074334E-02 
2082	 9.83711711450829E-02 
2083	 0.101621626492605 
2084	 0.105089615015568 
2085	 0.106159202175335 
2086	 0.105740283715044 
2087	 0.105157637681325 
2088	 0.103431418294621 
2089	 0.101495879930922 
2090	 0.101358035132565 
2091	 0.100362964619133 
2092	 0.100201187850434 
2093	 0.10144159193036 
2094	 0.102404381598077 
2095	 0.103154109334556 
2096	 0.103767104820984 
2097	 0.105349123473918 
2098	 0.105319730539025 
2099	 0.103130175238045 
2100	 0.103478008476876 
2101	 0.105324974761361 
2102	 0.105029540073282 
2103	 0.106377802245606 
2104	 0.107804718653418 
2105	 0.108383053140943 
2106	 0.107932959741982 
2107	 0.107247777122112 
2108	 0.108882568913249 
2109	 0.108608617945344 
2110	 0.108039542211356 
2111	 0.107699230741934 
2112	 0.106346084800076 
2113	 0.106544567473948 
2114	 0.107759761028786 
2115	 0.108429515101686 
2116	 0.110956808997081 
2117	 0.111056874651009 
2118	 0.108346584318935 
2119	 0.108402916646326 
2120	 0.109802283170609 
2121	 0.108617165148387 
2122	 0.108689967969112 
2123	 0.109990422350969 
2124	 0.107458145887936 
2125	 0.105127054561677 
2126	 0.105602228791411 
2127	 0.105174577176341 
2128	 0.105660844207025 
2129	 0.107987155076109 
2130	 0.107675142867462 
2131	 0.10820642916857 
2132	 0.110110830575111 
2133	 0.11131480846211 
2134	 0.111767910448083 
2135	 0.112644972469173 
2136	 0.112362569970674 
2137	 0.109732371751896 
2138	 0.108831852488592 
2139	 0.107458119484489 
2140	 0.108589665896146 
2141	 0.112714287978379 
2142	 0.11437602363731 
2143	 0.11630078551432 
2144	 0.118660931315787 
2145	 0.119586292182922 
2146	 0.119515894066448 
2147	 0.118688676137499 
2148	 0.118576438228298 
2149	 0.117352638696658 
2150	 0.114057237566144 
2151	 0.113747744202826 
2152	 0.115029758992855 
2153	 0.112197963439526 
2154	 0.11043419565056 
2155	 0.110722762467761 
2156	 0.108124374497564 
2157	 0.108181248017329 
2158	 0.111894307340743 
2159	 0.113084634091519 
2160	 0.113157771468784 
2161	 0.113901636388567 
2162	 0.114062813666977 
2163	 0.114873178018525 
2164	 0.117503885770367 
2165	 0.118302570385572 
2166	 0.118043816866449 
2167	 0.117220488360789 
2168	 0.114281543164512 
2169	 0.113361466859924 
2170	 0.113585954037096 
2171	 0.113302224573154 
2172	 0.113350413286781 
2173	 0.113027307188017 
2174	 0.113032918287557 
2175	 0.114507393977342 
2176	 0.112997498870196 
2177	 0.112606962520247 
2178	 0.113781058243265 
2179	 0.111667670017655 
2180	 0.112587067609389 
2181	 0.115971472384883 
2182	 0.114820122217304 
2183	 0.114164453189698 
2184	 0.116118259858095 
2185	 0.116207401484489 
2186	 0.116468011347663 
2187	 0.118147216908198 
2188	 0.117297098195522 
2189	 0.11341472553434 
2190	 0.112369821655504 
2191	 0.112151850877351 
2192	 0.110162197003767 
2193	 0.107527487071604 
2194	 0.10702575437241 
2195	 0.105010729497811 
2196	 0.106106323020955 
2197	 0.114698231257247 
2198	 0.116544982846943 
2199	 0.114989417965524 
2200	 0.113227400036056 
2201	 0.114149187087215 
2202	 0.114171980640633 
2203	 0.113990073775487 
2204	 0.116149314273274 
2205	 0.115546313391529 
2206	 0.115616242337774 
2207	 0.11902945371137 
2208	 0.120530852062298 
2209	 0.121122228007171 
2210	 0.11730321123583 
2211	 0.114522416342046 
2212	 0.11609687205147 
2213	 0.116212175524999 
2214	 0.117742439698319 
2215	 0.12101259783816 
2216	 0.122821917991279 
2217	 0.121507180232026 
2218	 0.116236352838714 
2219	 0.114688183212349 
2220	 0.111629323107536 
2221	 0.11062791216989 
2222	 0.114019694065706 
2223	 0.114972028817511 
2224	 0.114495113458616 
2225	 0.113271350823119 
2226	 0.110597074142814 
2227	 0.11000619946059 
2228	 0.110248112707554 
2229	 0.1111393018638 
2230	 0.113465977557098 
2231	 0.11425058528575 
2232	 0.116403846206366 
2233	 0.115258117795418 
2234	 0.110263267220894 
2235	 0.109182370933523 
2236	 0.109996825706049 
2237	 0.103149858997886 
2238	 9.99326485942013E-02 
2239	 0.103560566269483 
2240	 0.104690187480154 
2241	 0.10605333075997 
2242	 0.108141282358788 
2243	 0.111022936654923 
2244	 0.113971600023373 
2245	 0.114631436063695 
2246	 0.122236986224126 
2247	 0.127228082538411 
2248	 0.123165763054074 
2249	 0.1186241462934 
2250	 0.111625847960021 
2251	 0.104426548389615 
2252	 0.10457812815164 
2253	 0.111812335777102 
2254	 0.11475055882385 
2255	 0.115385651440337 
2256	 0.116466924053256 
2257	 0.115459972706807 
2258	 0.119251198669773 
2259	 0.123305643340982 
2260	 0.125091819354738 
2261	 0.126630223918814 
2262	 0.123181823104475 
2263	 0.114032692318172 
2264	 0.111812377104389 
2265	 0.110027315954549 
2266	 0.109384886514719 
2267	 0.113039530169043 
2268	 0.113534941150899 
2269	 0.111683392704486 
2270	 0.108843195592393 
2271	 0.106579476258573 
2272	 0.104374817480112 
2273	 9.72986623505261E-02 
2274	 9.69261792513597E-02 
2275	 0.104061153968583 
2276	 0.104779080053675 
2277	 0.103930230004282 
2278	 0.10515436677814 
2279	 0.103032293275982 
2280	 0.102659943696486 
2281	 0.106847994034855 
2282	 0.109118396290292 
2283	 0.102704446558945 
2284	 0.102296128445224 
2285	 0.105213283165536 
2286	 0.109419527043885 
2287	 0.117780786891864 
2288	 0.122202680443734 
2289	 0.12065324559786 
2290	 0.113277298126673 
2291	 0.112274604534982 
2292	 0.114221223966493 
2293	 0.109258087224371 
2294	 0.109260029443717 
2295	 0.105396739500331 
2296	 9.59007571752386E-02 
2297	 9.95925559205333E-02 
2298	 0.105574753912351 
2299	 0.10638959413919 
2300	 0.106817956941627 
2301	 0.103376383088987 
2302	 0.10751644562057 
2303	 0.11053033614782 
2304	 0.10849600189935 
2305	 0.108854977522723 
2306	 0.10321325217817 
2307	 0.105068513787633 
2308	 0.106125658282995 
2309	 0.101555440845122 
2310	 0.098793233804728 
2311	 9.68132703991961E-02 
2312	 0.100731168426707 
2313	 0.104316530370704 
2314	 0.107290886221567 
2315	 0.105505994718757 
2316	 0.109210099260915 
2317	 0.116553919420049 
2318	 0.109324373863483 
2319	 0.102970510346507 
2320	 9.84639316553475E-02 
2321	 9.90631900667765E-02 
2322	 0.111752831420496 
2323	 0.116817997170621 
2324	 0.118088306890174 
2325	 0.113910099291713 
2326	 0.101784241478793 
2327	 0.10310991901393 
2328	 0.105092461320085 
2329	 0.105346949546371 
2330	 0.113545260620176 
2331	 0.118625213669436 
2332	 0.116202788006301 
2333	 0.106420127564436 
2334	 0.10199119534208 
2335	 0.099121013357773 
2336	 9.30958430126324E-02 
2337	 0.094903447386276 
2338	 9.35216872385608E-02 
2339	 7.84597959998749E-02 
2340	 0.071478475127984 
2341	 0.091539618338869 
2342	 0.101073447309292 
2343	 0.104086223876826 
2344	 0.116849158863285 
2345	 0.100703071717254 
2346	 7.64036765476224E-02 
2347	 7.66059368203227E-02 
2348	 8.89438229386174E-02 
2349	 8.98462715573271E-02 
2350	 0.091838631845681 
2351	 0.114953910733335 
2352	 0.102673276425904 
2353	 8.13261234248348E-02 
2354	 8.85432437869439E-02 
2355	 8.88696375982482E-02 
2356	 8.58143143435534E-02 
2357	 8.60216759519594E-02 
2358	 8.72786531523773E-02 
2359	 6.96624465051839E-02 
2360	 5.00405025632082E-02 
2361	 4.86524792148537E-02 
2362	 4.40683757078012E-02 
2363	 2.82317443180546E-02 
2364	 9.69459919108195E-03 
2365	 2.45959923157693E-02 
2366	 2.62847865566127E-02 
2367	 1.65456439597369E-02 
2368	 5.04314476465255E-02 
2369	 4.69529434331293E-02 
2370	 2.48550389320784E-02 
2371	 3.58011358869817E-02 
2372	 3.39271633287671E-02 
2373	 3.57135542141767E-02 
2374	 0.083521058265846 
2375	 0.10357774088409 
2376	 9.06186989504766E-02 
2377	 5.20589174570293E-02 
2378	 4.97830564126737E-03 
2379	 3.28824171276681E-02 
2380	 3.79781585749507E-02 
2381	 4.91789386352817E-02 
2382	 8.93275764731907E-02 
2383	 8.88884186166788E-02 
2384	 7.56460191809415E-02 
2385	 9.65034258950683E-03 
2386	-1.22471374763592E-02 
2387	-1.10923989010888E-02 
2388	 1.89631767462239E-02 
2389	 8.70043864991222E-02 
2390	 9.96846245858006E-02 
2391	 8.53983597137853E-02 
2392	 6.44762667307241E-02 
2393	 4.92142056336104E-02 
2394	 4.56235010064389E-02 
2395	 5.93566910376137E-03 
2396	-4.12205267491384E-02 
2397	-7.94194359434044E-02 
2398	-5.25629768377178E-02 
2399	 6.47285851748152E-02 
2400	 0.131173365929876 
2401	 0.26803661183328 
2402	 0.327781203303915 
2403	 0.143079177922113 
2404	 7.28699368865574E-02 
2405	 5.76191211534215E-02 
2406	-4.60307828944691E-02 
2407	-7.36725263670416E-02 
2408	-0.142998387339152 
2409	-0.160766023495157 
2410	-2.38382896155456E-02 
2411	 0.134046230296498 
2412	 0.419030805438433 
2413	 0.359843036852911 
2414	 0.260763701681006 
2415	 0.459189756224602 
2416	 0.229548545137448 
2417	 6.54068661688172E-02 
2418	 0.120982659973944 
2419	-4.14081910774928E-02 
2420	 9.16054858466137E-02 
2421	 0.30073219893179 
2422	 0.160043090924182 
2423	 0.201668879840243 
2424	 0.283400432594323 
2425	 0.282352043382437 
2426	 0.430965869076245 
2427	 0.314219006921017 
2428	 0.222690626071336 
2429	 6.97811564048112E-02 
2430	-1.99692503393714E-02 
2431	-0.138784740746811 
2432	-0.392885036543044 
2433	-0.403577160947669 
2434	-0.224034093307024 
2435	-0.12260136776159 
2436	 4.68047394217731E-02 
2437	 0.128995833646325 
2438	 0.215689105464974 
2439	 0.44980362984942 
2440	 0.494511741248047 
2441	 0.28497047037723 
2442	 9.72122038247206E-02 
2443	-9.40737098946446E-02 
2444	-9.67009093542218E-02 
2445	 0.361628461955772 
2446	 0.671621291470213 
2447	 0.564555140581196 
2448	 0.619798194451526 
2449	 7.82590524330283E-02 
2450	-9.43576175527479E-02 
2451	-0.540614849873566 
2452	 13.3246739746628 
2453	 0.88151872137509 
2454	 1.36348304116842 
2455	 1.18133986848032 
2456	 1.35334699890191 
2457	-1.90249881951722 
2458	-9.02641135700216E-02 
2459	-2.03178899556754 
2460	-15.9370359731383 
2461	 7.2791889817538 
2462	 1.03636415253846 
2463	 0.162084503895925 
2464	-0.680965823123276 
2465	-0.601946221951879 
2466	-0.939744323250078 
2467	-7.5370910540594 
2468	-14.6197902152012 
2469	-0.318843719753261 
2470	 1.74812258584209 
2471	 1.33406511541221 
2472	-0.577261401931288 
2473	 6.81580119876782E-02 
2474	 6.86902049401653E-02 
2475	-0.388618095475801 
2476	-1.07195902238395 
2477	-1.52865745678843 
2478	 1.43013832825726 
2479	-0.347614302391591 
2480	-1.37445490885463 
2481	-1.34992406636189 
2482	-0.62472982349587 
2483	-0.361009991301893 
2484	-0.227117555831231 
2485	 1.42971281161405 
2486	 2.87448749970525 
2487	 3.33875130866969 
2488	 9.64089237696713 
2489	 3.66679078921549 
2490	 9.40898692007726 
2491	-0.352336734468619 
2492	-0.941292141627695 
2493	-7.77221758652221E-02 
2494	 9.86172237721995E-02 
2495	 0.965697849399847 
2496	 0.464877855586408 
2497	 0.121718106407475 
2498	 0.383979291850536 
2499	 1.05301205768498 
2500	 0.217904702445974 
