Wavelength	rt0714yellow200002.asd
350	 5.81616269994973E-02 
351	 5.72615522177302E-02 
352	 5.65871514456771E-02 
353	 5.68023397360042E-02 
354	 5.76714140665889E-02 
355	 0.057491542588855 
356	 5.71954518861852E-02 
357	 5.71257174999875E-02 
358	 5.73322755263529E-02 
359	 5.74965832598219E-02 
360	 5.70211757152161E-02 
361	 5.65181144673489E-02 
362	 5.71892743177792E-02 
363	 0.057490710461035 
364	 5.74909012241849E-02 
365	 5.73870963040554E-02 
366	 5.72441183371164E-02 
367	 5.68503173774595E-02 
368	 5.66031662965064E-02 
369	 5.68845221130828E-02 
370	 5.75619534667062E-02 
371	 5.76387215103249E-02 
372	 5.71997870960114E-02 
373	 5.70258970830979E-02 
374	 5.75936100904119E-02 
375	 5.79572301874378E-02 
376	 5.79011593474992E-02 
377	 0.058396352726295 
378	 5.84356682734376E-02 
379	 5.82949420468139E-02 
380	 5.83803529761443E-02 
381	 5.84299056306418E-02 
382	 5.92624121356065E-02 
383	 0.06008120579262 
384	 5.97031316208479E-02 
385	 6.01520277983411E-02 
386	 6.02303180826419E-02 
387	 5.99913709062804E-02 
388	 6.10451628920112E-02 
389	 0.061413407415879 
390	 6.12657828027312E-02 
391	 6.12566601463108E-02 
392	 6.21496873957653E-02 
393	 6.26841713533205E-02 
394	 6.27435925497169E-02 
395	 6.27249123520563E-02 
396	 6.30478647595751E-02 
397	 6.32676776416636E-02 
398	 6.33283097897629E-02 
399	 0.063532863567634 
400	 6.36685446571725E-02 
401	 6.37694934357644E-02 
402	 6.39413211713497E-02 
403	 6.43820149834137E-02 
404	 6.48181228622936E-02 
405	 6.50373823236821E-02 
406	 6.50220055458336E-02 
407	 6.56878824432727E-02 
408	 6.60278478661736E-02 
409	 6.60168888085424E-02 
410	 6.66258748421219E-02 
411	 6.66003089394217E-02 
412	 6.65002415352819E-02 
413	 6.68229392470859E-02 
414	 6.71184441335552E-02 
415	 6.75961292984631E-02 
416	 6.81336527512173E-02 
417	 6.85108923206395E-02 
418	 6.87453930734739E-02 
419	 6.90857396228362E-02 
420	 0.06957685052332 
421	 7.00323958292354E-02 
422	 7.03963410764729E-02 
423	 7.07568316471804E-02 
424	 7.12092266702222E-02 
425	 0.071798690949097 
426	 7.21794493041912E-02 
427	 7.26459290020902E-02 
428	 0.073620502283638 
429	 7.40523625847649E-02 
430	 7.45452192511325E-02 
431	 7.52981391886361E-02 
432	 7.58624131911368E-02 
433	 7.64213690573966E-02 
434	 7.69333199899392E-02 
435	 7.74023273997143E-02 
436	 7.81142607021774E-02 
437	 7.87589070880931E-02 
438	 7.93111285836358E-02 
439	 7.99024779065798E-02 
440	 8.05475730228598E-02 
441	 8.11765300742129E-02 
442	 8.17144999146041E-02 
443	 8.20861504968193E-02 
444	 8.26660880708982E-02 
445	 0.08320794509604 
446	 8.34797768957173E-02 
447	 8.40140082271927E-02 
448	 8.45538704108272E-02 
449	 8.49762620218114E-02 
450	 8.52758436205405E-02 
451	 8.54141549484194E-02 
452	 0.085693161499404 
453	 8.61751422958982E-02 
454	 8.63335037854013E-02 
455	 8.66236630340214E-02 
456	 8.69177139289177E-02 
457	 8.69910487542889E-02 
458	 8.72725137490131E-02 
459	 8.74869956095014E-02 
460	 8.76501876493372E-02 
461	 8.80699870167563E-02 
462	 8.80718026714724E-02 
463	 8.79834734350605E-02 
464	 8.81789527973807E-02 
465	 0.088617188409704 
466	 8.88796386144331E-02 
467	 8.90196386849469E-02 
468	 0.089293324056344 
469	 8.94514000138494E-02 
470	 8.95943130633424E-02 
471	 8.97673946020296E-02 
472	 8.98999539490522E-02 
473	 9.00436169174728E-02 
474	 9.03770157051736E-02 
475	 9.09415485173683E-02 
476	 9.12205828456807E-02 
477	 9.13245831633746E-02 
478	 9.14840080929127E-02 
479	 9.19481743886726E-02 
480	 9.22349072183921E-02 
481	 9.24455466023773E-02 
482	 9.27408968894212E-02 
483	 9.32450953029619E-02 
484	 9.37161038915133E-02 
485	 9.40882527127924E-02 
486	 9.44078713430015E-02 
487	 9.49047439537688E-02 
488	 9.52781099293084E-02 
489	 9.55835066907481E-02 
490	 9.62188648300235E-02 
491	 9.67598851596602E-02 
492	 9.72382395520255E-02 
493	 9.77281689113099E-02 
494	 9.81543459833306E-02 
495	 9.87324080467506E-02 
496	 9.93802782615344E-02 
497	 9.98944439570728E-02 
498	 0.100457025997891 
499	 0.101032239333699 
500	 0.101597384216308 
501	 0.10218370155848 
502	 0.102784829444258 
503	 0.1034368840787 
504	 0.104143151654905 
505	 0.10472956521685 
506	 0.105316714697892 
507	 0.105966673653135 
508	 0.106676526949696 
509	 0.107295535632526 
510	 0.107954838503992 
511	 0.10871498240267 
512	 0.109369641019442 
513	 0.109993656104469 
514	 0.110699949864999 
515	 0.11156337672204 
516	 0.112264012560795 
517	 0.113007374456467 
518	 0.113840326733628 
519	 0.114562644563051 
520	 0.115255186260652 
521	 0.115943219693892 
522	 0.116657366694728 
523	 0.117496133813651 
524	 0.118179903863781 
525	 0.118776906157059 
526	 0.119583305294367 
527	 0.120382091958222 
528	 0.12117853771174 
529	 0.121964465575526 
530	 0.122632769629734 
531	 0.123368117943038 
532	 0.124125300037649 
533	 0.124813544366784 
534	 0.125658039492688 
535	 0.126380392236917 
536	 0.126955693218906 
537	 0.127669335646384 
538	 0.128444547874355 
539	 0.129187887833398 
540	 0.129840096027792 
541	 0.130464651418107 
542	 0.131189974597379 
543	 0.131983517953377 
544	 0.132714621894524 
545	 0.133338295439421 
546	 0.134001220239943 
547	 0.134739796636012 
548	 0.135334968555349 
549	 0.135867088696989 
550	 0.136442906964899 
551	 0.137137781268755 
552	 0.137765534454325 
553	 0.138352269006147 
554	 0.138931680648833 
555	 0.139526905965683 
556	 0.140115301608002 
557	 0.140706769660453 
558	 0.141279130471676 
559	 0.1417087346328 
560	 0.142070088901939 
561	 0.14247155592374 
562	 0.14300417008596 
563	 0.143338361952632 
564	 0.143597506195675 
565	 0.143918240580301 
566	 0.144357350966623 
567	 0.144685301669179 
568	 0.144907244788895 
569	 0.145133823801173 
570	 0.145488110933634 
571	 0.145905884890831 
572	 0.146246659765134 
573	 0.146317928379312 
574	 0.146566911064238 
575	 0.14686851154037 
576	 0.14705191030285 
577	 0.147278298374902 
578	 0.147384921035249 
579	 0.147408125115444 
580	 0.147501387963728 
581	 0.147645546046748 
582	 0.147742073125012 
583	 0.147772513539344 
584	 0.147900567607527 
585	 0.147758340524847 
586	 0.147530948108478 
587	 0.147515057037183 
588	 0.147369281132886 
589	 0.147159382479021 
590	 0.147030289718363 
591	 0.14713937392356 
592	 0.147041652853025 
593	 0.146884342715341 
594	 0.146819984120024 
595	 0.146614191106858 
596	 0.146378550229231 
597	 0.146097623673852 
598	 0.145720276918197 
599	 0.145568576495329 
600	 0.14532297466101 
601	 0.144927105554849 
602	 0.1449256396779 
603	 0.144789960157771 
604	 0.144605477558034 
605	 0.144578605574055 
606	 0.14445818603845 
607	 0.144340012263666 
608	 0.144287311329932 
609	 0.144306319243476 
610	 0.144221836212736 
611	 0.144159841492403 
612	 0.144196966916121 
613	 0.144073484911827 
614	 0.143867119573891 
615	 0.143711567109884 
616	 0.14373738603217 
617	 0.143694974477641 
618	 0.14359416736067 
619	 0.143481496896361 
620	 0.143406977922293 
621	 0.143487204817609 
622	 0.143596457259113 
623	 0.143537472955923 
624	 0.14318611753881 
625	 0.143063014442108 
626	 0.14318394422959 
627	 0.143077729552676 
628	 0.142942944741276 
629	 0.142884028441347 
630	 0.142942347947373 
631	 0.143068488437601 
632	 0.143022601045012 
633	 0.142853094621312 
634	 0.14274657823533 
635	 0.142703772985034 
636	 0.142628801785109 
637	 0.142553383853984 
638	 0.142713352230999 
639	 0.142624772824086 
640	 0.142454298032285 
641	 0.142450656080116 
642	 0.14237473675992 
643	 0.142011629574277 
644	 0.141574019287623 
645	 0.141580236247832 
646	 0.14142052375927 
647	 0.141179947591324 
648	 0.141022263921471 
649	 0.141015581323856 
650	 0.140797752240887 
651	 0.140456189700749 
652	 0.140222802395186 
653	 0.139910209275044 
654	 0.139607220676711 
655	 0.139267736230839 
656	 0.138695299663699 
657	 0.138450558097293 
658	 0.138254065686089 
659	 0.137833697954395 
660	 0.137483556062047 
661	 0.137232413474804 
662	 0.136962941087628 
663	 0.136522550998506 
664	 0.136415428443986 
665	 0.136238025332381 
666	 0.135830875973091 
667	 0.135670987574709 
668	 0.13570491016466 
669	 0.135662469450259 
670	 0.135358333765613 
671	 0.135481773207199 
672	 0.135422146148732 
673	 0.13517196029304 
674	 0.135302653592107 
675	 0.135256797649171 
676	 0.135245346622857 
677	 0.135428337185741 
678	 0.135470529872223 
679	 0.135546712471508 
680	 0.135709522987839 
681	 0.13594266908106 
682	 0.136140957529721 
683	 0.136385752500984 
684	 0.136609954449751 
685	 0.136529320149867 
686	 0.136576222186277 
687	 0.136898612178153 
688	 0.137398213465404 
689	 0.137789029117841 
690	 0.13799666440638 
691	 0.138136784186321 
692	 0.138425428285896 
693	 0.138731157909788 
694	 0.1390773894552 
695	 0.139434881296718 
696	 0.139712978441792 
697	 0.139803304334295 
698	 0.139850450203239 
699	 0.139996744513888 
700	 0.139947725092995 
701	 0.139971477819768 
702	 0.140088014352531 
703	 0.14009997930133 
704	 0.139962649716082 
705	 0.139687937960099 
706	 0.139337544408794 
707	 0.139054131454764 
708	 0.138564942445821 
709	 0.138015656120907 
710	 0.137602994731638 
711	 0.136880237425806 
712	 0.136018091795629 
713	 0.135157433845655 
714	 0.134334358516545 
715	 0.133150433936807 
716	 0.131888188936857 
717	 0.130906532646013 
718	 0.129469991359677 
719	 0.128298056933149 
720	 0.127453292815938 
721	 0.126521885852947 
722	 0.125480963045538 
723	 0.124101634295289 
724	 0.122619467167939 
725	 0.121535032277623 
726	 0.12013760071896 
727	 0.118726289812001 
728	 0.117514350860601 
729	 0.115686228092049 
730	 0.114033489664036 
731	 0.112691797273095 
732	 0.111396390740087 
733	 0.110153115998647 
734	 0.109069848611726 
735	 0.108185566738143 
736	 0.107422330703671 
737	 0.106938692942799 
738	 0.106654750998488 
739	 0.106412554704836 
740	 0.105927852109204 
741	 0.105907842545479 
742	 0.1061163731408 
743	 0.105904327392197 
744	 0.105723242570592 
745	 0.10576217423717 
746	 0.105896080457878 
747	 0.10562271487221 
748	 0.10560589595324 
749	 0.105585428468917 
750	 0.10531203024712 
751	 0.105367093196922 
752	 0.105468032653699 
753	 0.105475698528155 
754	 0.105371353880763 
755	 0.105399088189377 
756	 0.105419466880672 
757	 0.105297437590811 
758	 0.104846123468562 
759	 0.104422509862874 
760	 0.104054825201176 
761	 0.103871489121565 
762	 0.104455262600056 
763	 0.104671948810878 
764	 0.10462609486887 
765	 0.104774739875241 
766	 0.104964382690872 
767	 0.105243233538852 
768	 0.105522332276082 
769	 0.105565842831796 
770	 0.105676024985375 
771	 0.105837126384094 
772	 0.105984731819309 
773	 0.106116828452252 
774	 0.106130347521063 
775	 0.106226160640187 
776	 0.106622944980206 
777	 0.106795751851917 
778	 0.106941978693422 
779	 0.107136255758077 
780	 0.107283452022607 
781	 0.107446194421267 
782	 0.107571525487198 
783	 0.107682301094992 
784	 0.108035361110566 
785	 0.108240543004999 
786	 0.10832636566892 
787	 0.108487903344599 
788	 0.108900846418576 
789	 0.109210397096569 
790	 0.109444751322586 
791	 0.109912525362412 
792	 0.110100733196915 
793	 0.110342642831269 
794	 0.110752121946463 
795	 0.110889189194671 
796	 0.11108861304064 
797	 0.111314685455935 
798	 0.111507434137836 
799	 0.111874528775753 
800	 0.112124439053724 
801	 0.112272169441614 
802	 0.112483195932439 
803	 0.112555556128593 
804	 0.112685955172192 
805	 0.112843890944134 
806	 0.112739218340992 
807	 0.112810223094691 
808	 0.112738272051383 
809	 0.112340963093983 
810	 0.112169871478672 
811	 0.111997963968846 
812	 0.111590355010874 
813	 0.110874165206665 
814	 0.110837240823616 
815	 0.110790297058056 
816	 0.110297148726848 
817	 0.109436558292558 
818	 0.109384359738047 
819	 0.109243185842275 
820	 0.108534108673392 
821	 0.10752517011794 
822	 0.10666153466485 
823	 0.10590596442695 
824	 0.105091158342119 
825	 0.10411102054428 
826	 0.102959339337472 
827	 0.101568741855569 
828	 0.100029006260764 
829	 9.87818921483768E-02 
830	 9.77751797022984E-02 
831	 9.69819635381533E-02 
832	 9.64010633640729E-02 
833	 0.095656361053557 
834	 9.49922356849234E-02 
835	 9.44882650441056E-02 
836	 9.39244090545973E-02 
837	 9.39536244579392E-02 
838	 9.38883331861372E-02 
839	 9.33296743535764E-02 
840	 9.34211246775867E-02 
841	 9.30255970941537E-02 
842	 9.24386577215426E-02 
843	 9.23274857874713E-02 
844	 9.24196348130659E-02 
845	 9.23224285920374E-02 
846	 9.20546401413736E-02 
847	 9.19006116252549E-02 
848	 9.16666548938772E-02 
849	 9.15178902137169E-02 
850	 9.14030777679765E-02 
851	 9.09748540262528E-02 
852	 9.04659828375027E-02 
853	 9.03735396012697E-02 
854	 9.06134464374963E-02 
855	 8.97651913060528E-02 
856	 9.01182149675058E-02 
857	 9.05006678998485E-02 
858	 8.96480344471493E-02 
859	 8.95214409041513E-02 
860	 8.95241268167296E-02 
861	 0.089348031226399 
862	 8.89534383683251E-02 
863	 8.89980982729699E-02 
864	 8.87470161293182E-02 
865	 0.088335062609818 
866	 8.86210570005158E-02 
867	 8.84665326805925E-02 
868	 8.82049669322158E-02 
869	 8.80837303330549E-02 
870	 8.79588980200683E-02 
871	 8.73405611640081E-02 
872	 8.67768553695392E-02 
873	 8.66677099925201E-02 
874	 8.65594354124805E-02 
875	 8.64169412009375E-02 
876	 8.63654627461504E-02 
877	 8.63678414458351E-02 
878	 8.55362744429857E-02 
879	 8.52327062158931E-02 
880	 8.53463647616694E-02 
881	 8.51439259760592E-02 
882	 8.50127124679829E-02 
883	 8.43235580027919E-02 
884	 8.38250483080086E-02 
885	 8.48760824850236E-02 
886	 8.47170582564394E-02 
887	 8.41623906668292E-02 
888	 8.37183223104696E-02 
889	 8.31348201493649E-02 
890	 8.35856488751131E-02 
891	 8.37047536064943E-02 
892	 8.28337214800674E-02 
893	 8.25096442091888E-02 
894	 8.18603299435372E-02 
895	 8.16702712101688E-02 
896	 8.22785215472226E-02 
897	 8.12293487450505E-02 
898	 8.07075690872641E-02 
899	 8.08061286077937E-02 
900	 8.08228990447787E-02 
901	 8.03090511032103E-02 
902	 8.06352955552032E-02 
903	 8.08198981266292E-02 
904	 7.96161713071443E-02 
905	 7.90603242218129E-02 
906	 7.94221655234654E-02 
907	 7.99693457943047E-02 
908	 7.94275256047734E-02 
909	 7.85550490862517E-02 
910	 7.80417563645668E-02 
911	 7.81331277770973E-02 
912	 7.85090788209261E-02 
913	 7.78477537426214E-02 
914	 7.75271636286655E-02 
915	 7.78815939235363E-02 
916	 7.76764530362869E-02 
917	 7.63323661086964E-02 
918	 7.57144342843267E-02 
919	 0.075970311350031 
920	 0.074728306803566 
921	 7.46989719680236E-02 
922	 7.52901034253624E-02 
923	 7.54920401536953E-02 
924	 7.47931629009977E-02 
925	 7.45380073198888E-02 
926	 7.44513777227475E-02 
927	 7.38918810265115E-02 
928	 7.28773265659283E-02 
929	 7.28643797577742E-02 
930	 7.38719337758942E-02 
931	 7.42807789302605E-02 
932	 0.06980219220658 
933	 6.84884315462469E-02 
934	 6.95674172210691E-02 
935	 6.87877537670102E-02 
936	 7.38375518541361E-02 
937	 0.070134570574733 
938	 6.49548480851774E-02 
939	 6.75748316456736E-02 
940	 6.84461123417074E-02 
941	 0.066271120061924 
942	 6.47628479261008E-02 
943	 0.06862699940633 
944	 7.12748407415054E-02 
945	 7.26895963726313E-02 
946	 7.12584076157912E-02 
947	 6.57466362130498E-02 
948	 6.05276854379797E-02 
949	 0.061479196944057 
950	 6.50718456687482E-02 
951	 6.38056168286951E-02 
952	 6.38075601484404E-02 
953	 6.64851658212607E-02 
954	 6.74158354985215E-02 
955	 6.17497702536103E-02 
956	 6.51718070260669E-02 
957	 6.93614569122805E-02 
958	 6.92024479911439E-02 
959	 6.50419512245638E-02 
960	 6.43401588736449E-02 
961	 6.60864858225259E-02 
962	 6.67997898482931E-02 
963	 6.36797446418704E-02 
964	 6.43803717552045E-02 
965	 0.065425407605724 
966	 6.53149601801863E-02 
967	 6.48767768682452E-02 
968	 6.48671582225349E-02 
969	 6.50430631074958E-02 
970	 6.52150525269731E-02 
971	 6.54906695396852E-02 
972	 6.77312553653755E-02 
973	 6.62922821532285E-02 
974	 6.24462209481451E-02 
975	 6.40039373738024E-02 
976	 6.71243507431546E-02 
977	 6.85893244932121E-02 
978	 6.75898694658056E-02 
979	 6.57343470842915E-02 
980	 6.52009701899703E-02 
981	 6.67602718362426E-02 
982	 6.80155355794239E-02 
983	 6.54117747183558E-02 
984	 6.38967538865211E-02 
985	 6.44099087513234E-02 
986	 6.60203054821681E-02 
987	 6.69812497493139E-02 
988	 6.86990908442517E-02 
989	 6.87121813980207E-02 
990	 6.72143284473952E-02 
991	 6.63679126343703E-02 
992	 6.53055768692173E-02 
993	 6.61139655806579E-02 
994	 6.77602595995557E-02 
995	 6.73340040606639E-02 
996	 6.54840785055752E-02 
997	 6.49825024626318E-02 
998	 6.62957548918362E-02 
999	 6.78337038909013E-02 
1000	 6.73448518903947E-02 
1001	 7.04384323111838E-02 
1002	 7.12279254001153E-02 
1003	 7.14716000167222E-02 
1004	 7.17399363732587E-02 
1005	 0.07185466859807 
1006	 7.17090731082552E-02 
1007	 7.14488407572219E-02 
1008	 7.10806563412017E-02 
1009	 7.09713073113896E-02 
1010	 7.11273181298494E-02 
1011	 7.08872308361043E-02 
1012	 7.09967596638677E-02 
1013	 7.17483754621915E-02 
1014	 7.20857452450635E-02 
1015	 7.24211941715286E-02 
1016	 7.26408337473474E-02 
1017	 7.26930197820978E-02 
1018	 7.27311759165235E-02 
1019	 7.26018468349555E-02 
1020	 0.072713927586856 
1021	 7.30398192104617E-02 
1022	 7.31972041602717E-02 
1023	 7.29335702363765E-02 
1024	 7.30080989336541E-02 
1025	 7.28276197510219E-02 
1026	 7.23182812986771E-02 
1027	 7.22440420410875E-02 
1028	 7.24522114356465E-02 
1029	 7.25321819132797E-02 
1030	 7.27818014934809E-02 
1031	 7.28929613241183E-02 
1032	 7.28524017678019E-02 
1033	 7.29693104823095E-02 
1034	 7.31380594205848E-02 
1035	 7.32036376662068E-02 
1036	 7.31865114464466E-02 
1037	 7.34569379285088E-02 
1038	 7.40081254767609E-02 
1039	 0.07427176337992 
1040	 7.41858447331144E-02 
1041	 0.074379583898547 
1042	 7.41943898276375E-02 
1043	 0.073250496635209 
1044	 7.31428563486953E-02 
1045	 7.35137830872011E-02 
1046	 7.35022536402613E-02 
1047	 7.35587822540685E-02 
1048	 7.36219265892516E-02 
1049	 7.33376363644392E-02 
1050	 7.34563895349635E-02 
1051	 7.41602112212563E-02 
1052	 7.43709899667579E-02 
1053	 7.45090299631312E-02 
1054	 7.45733861729737E-02 
1055	 0.074280545376844 
1056	 7.40558993764996E-02 
1057	 7.38394274212782E-02 
1058	 7.35740695337732E-02 
1059	 7.36104694410564E-02 
1060	 7.38108588533061E-02 
1061	 7.38364127391789E-02 
1062	 7.40677098460281E-02 
1063	 7.41148571397037E-02 
1064	 0.073874676484605 
1065	 7.37933687192191E-02 
1066	 7.39283320343589E-02 
1067	 7.38129031941265E-02 
1068	 7.33645143679913E-02 
1069	 7.32516207765382E-02 
1070	 7.31167967350842E-02 
1071	 7.31423415666016E-02 
1072	 7.34210685274316E-02 
1073	 7.39054842570299E-02 
1074	 7.40508595557066E-02 
1075	 7.40664221891013E-02 
1076	 7.41753990817742E-02 
1077	 7.42150295008378E-02 
1078	 7.41667380143631E-02 
1079	 7.42629285554638E-02 
1080	 7.41080987860887E-02 
1081	 0.073721529678132 
1082	 7.33365906558066E-02 
1083	 7.25204699394706E-02 
1084	 7.22866097588029E-02 
1085	 7.22572623400937E-02 
1086	 7.22835651279382E-02 
1087	 7.30876819126377E-02 
1088	 7.33009185358989E-02 
1089	 7.31828991708482E-02 
1090	 7.30188065175157E-02 
1091	 0.072688809394056 
1092	 7.18162977456131E-02 
1093	 7.16332365956419E-02 
1094	 7.17048508882293E-02 
1095	 7.16830249283952E-02 
1096	 7.21594031526867E-02 
1097	 7.20394863216617E-02 
1098	 7.14936812631339E-02 
1099	 7.11395537691002E-02 
1100	 7.02152169665936E-02 
1101	 7.00060480958567E-02 
1102	 7.05935989926392E-02 
1103	 7.06008142597714E-02 
1104	 7.03945429738077E-02 
1105	 7.10562174174169E-02 
1106	 7.06566089634468E-02 
1107	 6.94649510043138E-02 
1108	 6.94175078779384E-02 
1109	 6.91926336799846E-02 
1110	 6.89888084112921E-02 
1111	 6.95056927263107E-02 
1112	 6.88299882329743E-02 
1113	 6.67208867652987E-02 
1114	 0.066328393194192 
1115	 6.56143725447029E-02 
1116	 6.58156619050965E-02 
1117	 7.07574012058481E-02 
1118	 7.11620046141058E-02 
1119	 6.65383598716933E-02 
1120	 6.57734717725663E-02 
1121	 6.59428846548902E-02 
1122	 6.12674582868168E-02 
1123	 6.26249590500054E-02 
1124	 0.063732882930412 
1125	 5.77500295752864E-02 
1126	 0.057582736008137 
1127	 5.88621776931351E-02 
1128	 5.80593385515072E-02 
1129	 5.87947760220554E-02 
1130	 0.060022660372556 
1131	 6.13590393565264E-02 
1132	 6.43627560038323E-02 
1133	 6.51553237030453E-02 
1134	 6.48102025635614E-02 
1135	 6.44570987654507E-02 
1136	 6.30153495842251E-02 
1137	 6.26140438860961E-02 
1138	 6.19185598154433E-02 
1139	 6.36404414957049E-02 
1140	 6.67914119569726E-02 
1141	 6.62391476948982E-02 
1142	 6.51274147562115E-02 
1143	 6.59527083055223E-02 
1144	 6.49299149939355E-02 
1145	 0.063335891532639 
1146	 6.43445495691638E-02 
1147	 6.43320559744363E-02 
1148	 0.062531271634089 
1149	 6.11933758575678E-02 
1150	 6.08452379706661E-02 
1151	 6.06843619208463E-02 
1152	 6.09932713240423E-02 
1153	 6.21089774072221E-02 
1154	 6.26927136311198E-02 
1155	 6.34555269272627E-02 
1156	 6.31435976501397E-02 
1157	 0.06249478507405 
1158	 6.25931077425969E-02 
1159	 0.062162188448209 
1160	 6.22663908999242E-02 
1161	 6.31963143291231E-02 
1162	 0.063121715609733 
1163	 6.29594937016152E-02 
1164	 6.24266629883989E-02 
1165	 6.13996630634377E-02 
1166	 6.14906256250034E-02 
1167	 6.19895667302496E-02 
1168	 6.22846758593781E-02 
1169	 0.062574839238775 
1170	 6.26412453036676E-02 
1171	 0.062700673405206 
1172	 6.26137389416513E-02 
1173	 6.26386771452083E-02 
1174	 6.28217251969411E-02 
1175	 6.26583923822164E-02 
1176	 6.21547322344859E-02 
1177	 6.17214399851664E-02 
1178	 6.18510531372891E-02 
1179	 6.23107386865564E-02 
1180	 6.26620998484243E-02 
1181	 6.28976422270062E-02 
1182	 6.26366745933425E-02 
1183	 6.16884841936965E-02 
1184	 6.13943138689028E-02 
1185	 6.22080434728092E-02 
1186	 6.24152419566016E-02 
1187	 6.22432027783828E-02 
1188	 6.28345772766871E-02 
1189	 6.27652976290401E-02 
1190	 6.19552482036546E-02 
1191	 6.21305730813787E-02 
1192	 6.23757333417647E-02 
1193	 6.26794239849678E-02 
1194	 6.23308607038931E-02 
1195	 6.22348548909622E-02 
1196	 6.22495676563515E-02 
1197	 6.20341084179394E-02 
1198	 6.20724945851274E-02 
1199	 6.25869897800488E-02 
1200	 6.27188366076731E-02 
1201	 6.21463006224586E-02 
1202	 6.16705949982508E-02 
1203	 6.18365310485648E-02 
1204	 6.20092760567497E-02 
1205	 6.19852479942109E-02 
1206	 6.23021405102066E-02 
1207	 6.21172289257132E-02 
1208	 6.14917166542292E-02 
1209	 6.13701542156026E-02 
1210	 6.11782010905933E-02 
1211	 6.09823779697066E-02 
1212	 0.061276682973631 
1213	 6.16149653539458E-02 
1214	 6.17126443451365E-02 
1215	 6.16214175649825E-02 
1216	 6.13703679888665E-02 
1217	 6.14759677304429E-02 
1218	 0.061915082640918 
1219	 6.17951096128401E-02 
1220	 6.15751632806861E-02 
1221	 6.17963309494231E-02 
1222	 0.06153261242065 
1223	 6.11523465663334E-02 
1224	 6.13968860174788E-02 
1225	 0.061432315905278 
1226	 6.10706893245764E-02 
1227	 0.061048988395551 
1228	 6.11823971568702E-02 
1229	 0.061064512711327 
1230	 6.10662542067828E-02 
1231	 6.12136885425803E-02 
1232	 6.12354905330261E-02 
1233	 6.11941558298901E-02 
1234	 6.07735135538118E-02 
1235	 6.06899501878706E-02 
1236	 6.08839870001866E-02 
1237	 6.12318690436066E-02 
1238	 6.18884971568561E-02 
1239	 6.20482743195197E-02 
1240	 6.20037323737493E-02 
1241	 6.16285178856233E-02 
1242	 6.12674488654677E-02 
1243	 6.14109813957668E-02 
1244	 0.061828348417092 
1245	 6.20027599573808E-02 
1246	 6.18573120132543E-02 
1247	 6.17639824487123E-02 
1248	 6.18247409325678E-02 
1249	 6.16619932516791E-02 
1250	 6.14940621547137E-02 
1251	 6.16606586112901E-02 
1252	 6.14121771474365E-02 
1253	 6.08728648494276E-02 
1254	 6.10023950089251E-02 
1255	 6.11922075231935E-02 
1256	 0.061150580254421 
1257	 6.14758715582693E-02 
1258	 6.15932305769845E-02 
1259	 6.10666999804515E-02 
1260	 6.09918365604704E-02 
1261	 6.15904033370426E-02 
1262	 6.14472146070725E-02 
1263	 6.09843318383139E-02 
1264	 6.04238136780501E-02 
1265	 0.060142256470285 
1266	 0.060090347570372 
1267	 6.03402582852065E-02 
1268	 6.07833365744145E-02 
1269	 6.06608512044041E-02 
1270	 6.06377888356188E-02 
1271	 0.061078808941472 
1272	 6.09136300160274E-02 
1273	 6.07525731273137E-02 
1274	 6.09474418406023E-02 
1275	 6.07951398780998E-02 
1276	 0.06060217987132 
1277	 6.05728464062579E-02 
1278	 6.04703544133561E-02 
1279	 6.06378533949656E-02 
1280	 6.07250152806961E-02 
1281	 6.06269888730304E-02 
1282	 6.04117046957821E-02 
1283	 6.05261341181865E-02 
1284	 6.04809808865653E-02 
1285	 6.05739791518542E-02 
1286	 6.13086228929151E-02 
1287	 6.12997128364771E-02 
1288	 6.07986422632801E-02 
1289	 6.05870677257465E-02 
1290	 6.03772425201086E-02 
1291	 5.97198677252441E-02 
1292	 5.96554560131719E-02 
1293	 0.059974460652362 
1294	 0.060361856998835 
1295	 6.06003234080002E-02 
1296	 6.05607999762888E-02 
1297	 6.02423092631766E-02 
1298	 5.94018970362475E-02 
1299	 5.89167954943843E-02 
1300	 5.93764160130259E-02 
1301	 5.94886672477561E-02 
1302	 5.95999109451682E-02 
1303	 6.03149984742017E-02 
1304	 6.03879492899749E-02 
1305	 0.059954153701241 
1306	 5.94621128829381E-02 
1307	 5.86260424688739E-02 
1308	 5.85100770472619E-02 
1309	 5.85482492276085E-02 
1310	 0.058093959320454 
1311	 5.80205775050871E-02 
1312	 5.81114941520982E-02 
1313	 0.057690219855461 
1314	 5.72979123908199E-02 
1315	 5.73903250486709E-02 
1316	 5.74248400377008E-02 
1317	 5.69364083694174E-02 
1318	 5.68821275559873E-02 
1319	 5.77092940001479E-02 
1320	 5.79318745450601E-02 
1321	 5.76051277130381E-02 
1322	 5.75461531178118E-02 
1323	 5.72984125130235E-02 
1324	 5.70034108284279E-02 
1325	 5.64457286218478E-02 
1326	 5.57350864907173E-02 
1327	 5.55658970966582E-02 
1328	 5.49091248068129E-02 
1329	 5.40266196054466E-02 
1330	 5.35098326901194E-02 
1331	 5.39353071613456E-02 
1332	 5.50337766548531E-02 
1333	 5.46090153944768E-02 
1334	 5.41002453376743E-02 
1335	 5.43096714718865E-02 
1336	 5.35615684530771E-02 
1337	 5.30410294198401E-02 
1338	 0.054050960843843 
1339	 0.054599396459981 
1340	 5.37387658222183E-02 
1341	 5.37234917613229E-02 
1342	 5.56221348319534E-02 
1343	 5.60580827378965E-02 
1344	 0.054820916179798 
1345	 5.43339196079224E-02 
1346	 5.50757309297814E-02 
1347	 5.35917675962434E-02 
1348	 4.57908736355014E-02 
1349	 4.38428709513737E-02 
1350	 5.08385170042016E-02 
1351	 4.75470528555616E-02 
1352	 3.79464468512442E-02 
1353	 4.05545242318924E-02 
1354	 4.76651982617871E-02 
1355	 2.79180567852254E-02 
1356	 7.86104882995687E-03 
1357	 1.87994836748001E-02 
1358	 5.13372108604438E-02 
1359	 3.11583531546902E-02 
1360	 4.01863312167477E-02 
1361	 0.189443572798032 
1362	 6.37861758867925E-02 
1363	-0.25887165679145 
1364	-0.309685819055237 
1365	-0.156401695236568 
1366	-0.250572175895946 
1367	-0.410994748364683 
1368	-0.183430331556476 
1369	 0.473031116250707 
1370	 0.447917436066877 
1371	-0.012679021609698 
1372	-0.05428939250986 
1373	-0.435637957711233 
1374	-0.641482936319065 
1375	 3.15691092766769E-02 
1376	 0.17172186592822 
1377	 0.12757570825534 
1378	 0.16058487101815 
1379	 0.165207828712955 
1380	 9.54354432663497E-02 
1381	-0.28511079772626 
1382	-0.41650991150573 
1383	-0.333998415138263 
1384	-0.135264650311064 
1385	 0.657504018826552 
1386	 0.895573838855289 
1387	 0.189835983515341 
1388	-1.14641950589233E-03 
1389	-0.456589567308856 
1390	-0.540114343646777 
1391	-9.25282177199361E-02 
1392	 0.206688765352559 
1393	 0.375063716263691 
1394	 0.248030577888984 
1395	 6.87217629266784E-02 
1396	-6.84245375999873E-02 
1397	-1.26837542947424 
1398	-1.23567468960912 
1399	-1.41165393960672 
1400	-3.47390580929709 
1401	-2.57662619737576 
1402	 2.96944852776492 
1403	 8.73902995199227E-02 
1404	-0.152923725377241 
1405	-0.188098467729152 
1406	-0.330881149313214 
1407	-0.285351692310022 
1408	-0.137870827468802 
1409	-4.91124019968973E-02 
1410	 0.119831188396901 
1411	 0.133220545969044 
1412	 0.080370453337706 
1413	 0.022419679629541 
1414	-8.92789778567909E-02 
1415	-0.102084743211692 
1416	-0.141068367256893 
1417	-7.26532789983818E-02 
1418	 9.58100142470331E-02 
1419	 0.100000659577746 
1420	 6.33335793676888E-02 
1421	 5.55199080351322E-02 
1422	-3.5572780524522E-03 
1423	-1.65333937027632E-03 
1424	 4.31328807972126E-02 
1425	 5.33943402536575E-02 
1426	 6.82968809129499E-02 
1427	 6.87480847625962E-02 
1428	 6.00625391494449E-02 
1429	 4.98053256327111E-02 
1430	 2.25234403197436E-02 
1431	 1.53275032740809E-02 
1432	 1.11834393498335E-02 
1433	 1.02390936694033E-02 
1434	 3.41294933917813E-02 
1435	 4.02365669293279E-02 
1436	 3.17565159113321E-02 
1437	 0.028968460290765 
1438	 0.038188997605658 
1439	 3.51413182117761E-02 
1440	 2.29894255540877E-02 
1441	 2.26751595697017E-02 
1442	 4.64422943064309E-02 
1443	 5.01187114121665E-02 
1444	 3.19899879249171E-02 
1445	 3.29710536551526E-02 
1446	 3.72452053143757E-02 
1447	 2.84471471973604E-02 
1448	 2.37463293187084E-02 
1449	 2.90219638002584E-02 
1450	 0.036894300932528 
1451	 3.47912414814084E-02 
1452	 2.53612444013426E-02 
1453	 2.82789754503389E-02 
1454	 3.11053855339078E-02 
1455	 2.70974966023268E-02 
1456	 2.64873539675625E-02 
1457	 0.034726335796437 
1458	 3.56815668805313E-02 
1459	 2.90266275231459E-02 
1460	 2.89216378280723E-02 
1461	 3.40759259078599E-02 
1462	 3.49431573215847E-02 
1463	 3.31206492105478E-02 
1464	 0.034043536142886 
1465	 3.72030163325402E-02 
1466	 3.63836019885661E-02 
1467	 3.37629148198095E-02 
1468	 3.33464764688558E-02 
1469	 3.00366427894656E-02 
1470	 2.96826534181237E-02 
1471	 3.42365192986366E-02 
1472	 3.51749443800272E-02 
1473	 3.37120017371024E-02 
1474	 3.41073026610386E-02 
1475	 3.54585183584527E-02 
1476	 3.60199854597204E-02 
1477	 3.79493478323944E-02 
1478	 3.68340945787816E-02 
1479	 3.17539351799557E-02 
1480	 3.18028213253318E-02 
1481	 3.32157049123887E-02 
1482	 0.033505456913306 
1483	 3.68969753164921E-02 
1484	 3.72674703051591E-02 
1485	 3.46369307800402E-02 
1486	 3.37359548230898E-02 
1487	 3.27444208473414E-02 
1488	 3.28417622944933E-02 
1489	 3.37571632860476E-02 
1490	 3.43800377593203E-02 
1491	 3.56475955097882E-02 
1492	 3.58902900524832E-02 
1493	 3.57156177982533E-02 
1494	 3.53759698633466E-02 
1495	 3.42597447417127E-02 
1496	 3.39968869336085E-02 
1497	 3.36111845663786E-02 
1498	 3.39727950285495E-02 
1499	 3.58039071220697E-02 
1500	 3.62491794231153E-02 
1501	 3.64820033673521E-02 
1502	 3.63886043129942E-02 
1503	 3.48023237530066E-02 
1504	 3.44406778136691E-02 
1505	 3.48228628535201E-02 
1506	 3.48485399994332E-02 
1507	 3.58296953856996E-02 
1508	 3.69705700822355E-02 
1509	 3.70510832298619E-02 
1510	 3.70668473250579E-02 
1511	 0.03716997732073 
1512	 3.74748730462796E-02 
1513	 3.74063968092487E-02 
1514	 3.74164043086212E-02 
1515	 3.78841140195649E-02 
1516	 3.75956342208792E-02 
1517	 3.69693059378756E-02 
1518	 3.73001486406971E-02 
1519	 3.79863349974611E-02 
1520	 3.78458042338209E-02 
1521	 0.038106195793737 
1522	 3.88765366788773E-02 
1523	 3.90201935730342E-02 
1524	 0.0389368019232 
1525	 3.90567124711918E-02 
1526	 3.94581998227858E-02 
1527	 3.94577999118573E-02 
1528	 3.90844567491812E-02 
1529	 3.88391224804936E-02 
1530	 3.87889276712524E-02 
1531	 3.92686530910182E-02 
1532	 3.98309644995815E-02 
1533	 0.040124714069831 
1534	 4.03053682309819E-02 
1535	 4.02156345656796E-02 
1536	 4.00784846529006E-02 
1537	 4.02196079027125E-02 
1538	 4.05179844546926E-02 
1539	 4.07628565925306E-02 
1540	 4.07156221731153E-02 
1541	 4.06831671113602E-02 
1542	 4.12515918037012E-02 
1543	 4.15851366682686E-02 
1544	 4.14295997735866E-02 
1545	 4.17120659798571E-02 
1546	 4.14497067632107E-02 
1547	 4.09443177571595E-02 
1548	 4.13086692994644E-02 
1549	 4.11112909148007E-02 
1550	 4.08365625677182E-02 
1551	 4.13673779808636E-02 
1552	 4.16934409822983E-02 
1553	 4.14786862059011E-02 
1554	 4.10827006321347E-02 
1555	 4.14387668352214E-02 
1556	 4.19182004223522E-02 
1557	 4.17296066986872E-02 
1558	 4.19850973141366E-02 
1559	 4.24721088873955E-02 
1560	 4.22738352499176E-02 
1561	 4.21403223210497E-02 
1562	 4.24945275475279E-02 
1563	 4.27142824666156E-02 
1564	 4.25213578767112E-02 
1565	 0.042144748363808 
1566	 4.22890472231617E-02 
1567	 0.0427176049267 
1568	 0.042580174170204 
1569	 4.25414455583113E-02 
1570	 4.28853977541416E-02 
1571	 4.28373506583996E-02 
1572	 4.26061087554532E-02 
1573	 4.27385576732158E-02 
1574	 4.31642012273644E-02 
1575	 4.33460275160655E-02 
1576	 4.31872275265908E-02 
1577	 4.30835157668231E-02 
1578	 4.33107671111077E-02 
1579	 4.36519440919206E-02 
1580	 0.043996277892579 
1581	 4.47543750478073E-02 
1582	 4.47514657516304E-02 
1583	 4.37467785100603E-02 
1584	 4.33514205281015E-02 
1585	 4.32077344883799E-02 
1586	 4.31135919478364E-02 
1587	 4.37272065901518E-02 
1588	 4.40204201116286E-02 
1589	 4.35160828317961E-02 
1590	 0.043801012487987 
1591	 4.45006684958425E-02 
1592	 4.42618629676709E-02 
1593	 4.42716071377788E-02 
1594	 4.46852468254536E-02 
1595	 4.46250497437945E-02 
1596	 4.45569923800325E-02 
1597	 4.46972929443776E-02 
1598	 4.48179826102123E-02 
1599	 4.47427906646024E-02 
1600	 4.46055635144812E-02 
1601	 4.46473039666842E-02 
1602	 4.46185748838794E-02 
1603	 4.44826469777919E-02 
1604	 4.47476487777738E-02 
1605	 4.54556952940643E-02 
1606	 4.55496260622951E-02 
1607	 4.51919292840923E-02 
1608	 4.52580733209785E-02 
1609	 4.50047342352298E-02 
1610	 4.47978155299923E-02 
1611	 4.51839917248924E-02 
1612	 4.53152443943183E-02 
1613	 4.52754744590641E-02 
1614	 4.52288027188899E-02 
1615	 4.51596658093096E-02 
1616	 0.045326640681931 
1617	 4.53699376625157E-02 
1618	 4.53527678193413E-02 
1619	 4.57104528201021E-02 
1620	 4.60629324667879E-02 
1621	 4.60652367907059E-02 
1622	 4.57638159012915E-02 
1623	 4.52219724478094E-02 
1624	 4.49053346305193E-02 
1625	 4.50720462757834E-02 
1626	 4.52427509889441E-02 
1627	 4.52969661093829E-02 
1628	 4.52530050212112E-02 
1629	 4.48538572002571E-02 
1630	 4.46881758847108E-02 
1631	 0.044905469614227 
1632	 4.48249088124115E-02 
1633	 4.48550011679589E-02 
1634	 4.50109495051791E-02 
1635	 4.49205760858983E-02 
1636	 4.51792371572628E-02 
1637	 4.56029502012301E-02 
1638	 4.55369019867402E-02 
1639	 0.04535302120673 
1640	 4.53806093401425E-02 
1641	 0.045286068173395 
1642	 4.53232684244609E-02 
1643	 0.046092452573733 
1644	 4.62977141955466E-02 
1645	 4.56151948317037E-02 
1646	 4.60617307633816E-02 
1647	 4.65238550075952E-02 
1648	 4.62109153333598E-02 
1649	 0.046049987556399 
1650	 4.55085334299149E-02 
1651	 4.49668582052671E-02 
1652	 4.46777082330625E-02 
1653	 0.045574196843536 
1654	 4.59265396895269E-02 
1655	 4.60316579234725E-02 
1656	 4.61345596930502E-02 
1657	 4.57826535681083E-02 
1658	 4.58026625323152E-02 
1659	 4.62349424866381E-02 
1660	 4.62644609705492E-02 
1661	 4.63020114006468E-02 
1662	 4.62399231499535E-02 
1663	 4.58146287565299E-02 
1664	 4.58855546721977E-02 
1665	 4.61999316484916E-02 
1666	 4.63152318188873E-02 
1667	 4.68116979837157E-02 
1668	 4.63998221544107E-02 
1669	 4.55726465352417E-02 
1670	 4.55249597029459E-02 
1671	 4.55100265643626E-02 
1672	 4.51311888627597E-02 
1673	 0.045473736995686 
1674	 0.045868842855021 
1675	 4.53284955127579E-02 
1676	 4.48952361793683E-02 
1677	 4.50674527860902E-02 
1678	 4.50264064946864E-02 
1679	 4.49010269339479E-02 
1680	 4.53482367226721E-02 
1681	 4.56312549704194E-02 
1682	 4.55669269018033E-02 
1683	 4.58549936649903E-02 
1684	 4.58024325456364E-02 
1685	 4.56475168046434E-02 
1686	 4.61086592553536E-02 
1687	 4.61598573895968E-02 
1688	 4.60031838088429E-02 
1689	 4.61107315388949E-02 
1690	 0.045503374392913 
1691	 4.48936552304099E-02 
1692	 4.55028216558505E-02 
1693	 4.61543888601903E-02 
1694	 4.57154023678951E-02 
1695	 0.045298111862997 
1696	 4.54586643135936E-02 
1697	 4.50986676585199E-02 
1698	 4.50288374127953E-02 
1699	 4.57371640378852E-02 
1700	 4.51832918355103E-02 
1701	 4.45190198287375E-02 
1702	 4.56099662922706E-02 
1703	 4.64551099670605E-02 
1704	 4.62024098007279E-02 
1705	 4.58889881270129E-02 
1706	 4.53623980810927E-02 
1707	 4.50647718201468E-02 
1708	 4.52823293593691E-02 
1709	 4.50148032700526E-02 
1710	 4.47757804741081E-02 
1711	 4.47851449284844E-02 
1712	 4.47291596419638E-02 
1713	 4.57814897992047E-02 
1714	 0.045734632846195 
1715	 4.41045898542504E-02 
1716	 0.044433489830895 
1717	 0.044659164935193 
1718	 4.46196164721588E-02 
1719	 4.50714177249394E-02 
1720	 4.53340190540704E-02 
1721	 4.52144052808364E-02 
1722	 4.45554281256217E-02 
1723	 0.0442270319568 
1724	 4.44473310184895E-02 
1725	 4.45437144439889E-02 
1726	 4.53482840890898E-02 
1727	 4.61130873837943E-02 
1728	 4.54086794082267E-02 
1729	 4.39652553090636E-02 
1730	 4.38306601013484E-02 
1731	 4.46447379619201E-02 
1732	 0.045433496150598 
1733	 4.67672592130538E-02 
1734	 4.65377057812114E-02 
1735	 4.48271338658717E-02 
1736	 4.42143850536105E-02 
1737	 4.44935571424631E-02 
1738	 4.52846198999971E-02 
1739	 4.63865927511204E-02 
1740	 4.63289491309725E-02 
1741	 4.45749346807635E-02 
1742	 4.35788171759019E-02 
1743	 4.36077670032834E-02 
1744	 4.32491511905541E-02 
1745	 4.39696779111637E-02 
1746	 4.38404547741069E-02 
1747	 4.33181100560921E-02 
1748	 4.28997112085674E-02 
1749	 4.31630062421866E-02 
1750	 4.39813542800098E-02 
1751	 4.36858870324408E-02 
1752	 4.27135634648055E-02 
1753	 0.042857740927373 
1754	 4.25861961437108E-02 
1755	 4.29572551204179E-02 
1756	 4.57217209646806E-02 
1757	 0.044236180153282 
1758	 0.042614575098264 
1759	 4.22930487931795E-02 
1760	 0.041448106142082 
1761	 4.18530661168834E-02 
1762	 4.37219510652484E-02 
1763	 4.46678833023983E-02 
1764	 4.50936348031526E-02 
1765	 4.49410753585625E-02 
1766	 4.37166666643379E-02 
1767	 4.18593353670358E-02 
1768	 4.04741985423174E-02 
1769	 4.09409113660429E-02 
1770	 4.23864777659384E-02 
1771	 4.26954759298746E-02 
1772	 4.22690647033781E-02 
1773	 4.20401435615003E-02 
1774	 4.09181207517157E-02 
1775	 3.98962946446251E-02 
1776	 4.03759475894257E-02 
1777	 0.042770486803495 
1778	 4.30052471402798E-02 
1779	 4.29530630386583E-02 
1780	 4.28877077054465E-02 
1781	 4.01021596991739E-02 
1782	 3.93247598807966E-02 
1783	 4.17579968149869E-02 
1784	 4.15950241639494E-02 
1785	 4.01324245911764E-02 
1786	 0.039052113135649 
1787	 3.46458515646699E-02 
1788	 3.39445058471525E-02 
1789	 3.73558867825697E-02 
1790	 4.06722034808196E-02 
1791	 4.38873750388808E-02 
1792	 4.55329288024973E-02 
1793	 3.90636729188681E-02 
1794	 3.01282250717814E-02 
1795	 3.22052834988524E-02 
1796	 3.76050385447222E-02 
1797	 0.040881752527556 
1798	 5.13432426103067E-02 
1799	 4.71256039272253E-02 
1800	 0.032548685174351 
1801	 2.89886983311978E-02 
1802	 3.72725840787948E-02 
1803	 3.80324051113022E-02 
1804	 4.94993718584367E-02 
1805	 0.049443285045914 
1806	 7.7458643781051E-03 
1807	-8.15915966413467E-03 
1808	-5.5618163748101E-03 
1809	-4.85182474059892E-03 
1810	 5.38404178929705E-02 
1811	 4.69018629655781E-02 
1812	-5.49540253970894E-02 
1813	-4.43520218648322E-02 
1814	 2.83756770024517E-02 
1815	 0.115845777895646 
1816	 0.74435934461063 
1817	 0.647478650197164 
1818	 0.38252682601967 
1819	 3.84773806416749E-02 
1820	-9.38596256923962E-02 
1821	-0.755488246832184 
1822	-0.949008047216086 
1823	-1.57457972631904 
1824	-0.963033341863548 
1825	 0.481717612518438 
1826	 0.906940760510431 
1827	 1.56157989580288 
1828	 1.72880619291019 
1829	 2.17362801561205 
1830	 2.81599784360576 
1831	 1.00421956946402 
1832	 0.82908798523315 
1833	-0.160629224050687 
1834	-2.09523365296144 
1835	 0.860755329503341 
1836	 1.79187810193877 
1837	-2.30807266071956 
1838	-1.61705306103322 
1839	-0.842771728829365 
1840	 1.38439879348668 
1841	 1.88513717566528 
1842	-6.41816860561103 
1843	-1.47255057903064 
1844	-0.358355133295931 
1845	-0.149193598893154 
1846	-0.519104789695345 
1847	-0.448685524899564 
1848	 1.81316863478053 
1849	-4.24212262348048 
1850	-4.08758929598875 
1851	-14.5742439271496 
1852	-64.1493540845418 
1853	 8.39293432946758 
1854	 2.99722874071867 
1855	 0.218451418876547 
1856	-0.126114359493553 
1857	-1.44295666229605 
1858	-2.98647780751637 
1859	-12.5709416459028 
1860	 11.3380695944118 
1861	 5.56175805654815 
1862	 5.09151639206155 
1863	 5.90360895586288 
1864	 3.15616385079063 
1865	 3.04762674551625 
1866	 13.5797212336798 
1867	-11.9957574160242 
1868	-5.87342352009283 
1869	-2.34939234464777 
1870	-0.826916397656127 
1871	-0.843205727632738 
1872	-0.111905501173323 
1873	 0.3694358741059 
1874	 0.332985812883566 
1875	 0.258062998968991 
1876	 6.07896371377448E-03 
1877	-1.27154947579234 
1878	-2.08162257884011 
1879	-10.209718867389 
1880	 5.24234518256429 
1881	 1.64928446116238 
1882	 0.181443392140777 
1883	 0.146483967178481 
1884	 2.88278454339234 
1885	-0.813840631793838 
1886	-0.153856351886299 
1887	-1.10833633277964 
1888	-2.30694657617513 
1889	-2.68450854020646 
1890	-2.66288173320285 
1891	-4.61440663278785 
1892	-2.35925430809643 
1893	-10.9266775280003 
1894	 9.68102950330094 
1895	 8.01671793350872 
1896	 74.6294205459389 
1897	-6.47092834723042 
1898	-3.23624497495035 
1899	-2.80754154147265 
1900	-2.23162617275329 
1901	-0.549914001400652 
1902	-0.269715937389775 
1903	-0.246050826362022 
1904	-1.64535168813022 
1905	 5.18401265916416 
1906	 1.3276467742689 
1907	 3.08153356881928 
1908	 11.4732782055975 
1909	-2.98330642535409 
1910	-1.03529741020563 
1911	-1.08128053016957 
1912	-0.217550880685974 
1913	 0.256737029360938 
1914	 0.410077864806932 
1915	 0.890550011902896 
1916	-13.337815245493 
1917	-0.217515354692925 
1918	 0.335484160700821 
1919	 0.293560747501359 
1920	 0.241280409168984 
1921	 0.747585999922462 
1922	 3.19428067568878 
1923	 15.0889797840078 
1924	 1.86005821501986 
1925	 2.24437432670725 
1926	 2.20693351526456 
1927	 2.70074219494242 
1928	 2.94603839650843 
1929	 2.48685959599206 
1930	 0.984468916917658 
1931	 0.436179690609488 
1932	 0.903217282949749 
1933	 1.26383222352576 
1934	 1.29136575555985 
1935	 0.94144198216791 
1936	 0.405506219214665 
1937	 6.49947932594806E-02 
1938	-5.77854065294802E-02 
1939	-9.59019750174046E-02 
1940	-4.72264794195623E-02 
1941	 0.203216950613319 
1942	 0.329207207996076 
1943	 0.303774665732807 
1944	 0.301225143264724 
1945	 0.203435187051934 
1946	 0.146670936939308 
1947	 0.209109343477603 
1948	 0.246317182765317 
1949	 0.197215129717379 
1950	 0.154647463428189 
1951	 0.124614182492519 
1952	 0.1083491338312 
1953	 8.61075841638458E-02 
1954	 0.128413882599313 
1955	 0.129723488307891 
1956	 7.14923247994168E-02 
1957	 5.01987252381717E-02 
1958	 7.11605507024068E-02 
1959	 0.102664431401473 
1960	 0.116055306079959 
1961	 9.22805517491915E-02 
1962	 0.068728759720402 
1963	 5.23419061909421E-02 
1964	 3.62275326963278E-02 
1965	 4.27048297463596E-02 
1966	 4.01660579091993E-02 
1967	 3.70608883578697E-02 
1968	 0.023879516146525 
1969	 2.24572435832895E-02 
1970	 2.01777802108487E-02 
1971	 0.018071097215479 
1972	 0.020457543105531 
1973	 1.73539795148597E-02 
1974	 1.85935057629364E-02 
1975	 0.026834894221072 
1976	 2.82303861470041E-02 
1977	 3.21191120479522E-02 
1978	 3.39646707812223E-02 
1979	 0.033021154897945 
1980	 2.56760835903198E-02 
1981	 0.026281693705714 
1982	 2.66084195822815E-02 
1983	 2.55491691954248E-02 
1984	 2.65432761144529E-02 
1985	 2.59199107264964E-02 
1986	 2.69802884312653E-02 
1987	 2.79293995254531E-02 
1988	 2.69626751415657E-02 
1989	 2.63411236107608E-02 
1990	 2.71449028205715E-02 
1991	 2.79115485802848E-02 
1992	 2.91018374597345E-02 
1993	 3.33131994918317E-02 
1994	 3.44597122022968E-02 
1995	 3.32461852690073E-02 
1996	 3.10603242776836E-02 
1997	 3.51242618028468E-02 
1998	 3.56348253144021E-02 
1999	 3.28217825344517E-02 
2000	 3.71135931969684E-02 
2001	 3.94213830912516E-02 
2002	 4.20437596502662E-02 
2003	 5.41260070858919E-02 
2004	 6.02376491642333E-02 
2005	 0.05500294871571 
2006	 0.040174287354568 
2007	 2.63173268317771E-02 
2008	 2.22291984790863E-02 
2009	 1.99499786012825E-02 
2010	 2.56788076351401E-02 
2011	 2.62956095745595E-02 
2012	 0.026818940347077 
2013	 2.68643012050323E-02 
2014	 2.61840665828761E-02 
2015	 2.72382223442727E-02 
2016	 3.25210819437407E-02 
2017	 3.05146216867888E-02 
2018	 2.46456659223306E-02 
2019	 0.025736597250191 
2020	 3.27585522826097E-02 
2021	 3.71793454071787E-02 
2022	 3.68429867676567E-02 
2023	 3.60216558187589E-02 
2024	 3.56791805084154E-02 
2025	 3.23931125466382E-02 
2026	 3.10116826777212E-02 
2027	 3.29005076868872E-02 
2028	 3.00757590935666E-02 
2029	 2.70289317833115E-02 
2030	 2.44828234878228E-02 
2031	 0.023715324016181 
2032	 2.60278719586154E-02 
2033	 2.75631839280968E-02 
2034	 2.65776672550591E-02 
2035	 0.025630998499278 
2036	 2.52158626068061E-02 
2037	 2.67268224780244E-02 
2038	 2.87752361650349E-02 
2039	 2.91279827831159E-02 
2040	 2.87733025823494E-02 
2041	 0.029429763049475 
2042	 2.96546046105164E-02 
2043	 2.92843514226405E-02 
2044	 2.93863244278222E-02 
2045	 2.92986075219096E-02 
2046	 2.86909992887109E-02 
2047	 2.76474980982562E-02 
2048	 2.74916199766031E-02 
2049	 2.89636994867832E-02 
2050	 3.02763966006296E-02 
2051	 2.93913912121215E-02 
2052	 3.05570166746306E-02 
2053	 3.26884170448651E-02 
2054	 0.032781547717734 
2055	 3.40516356188946E-02 
2056	 3.44591207619042E-02 
2057	 3.36464537309443E-02 
2058	 3.36174355797635E-02 
2059	 3.40517965053191E-02 
2060	 3.35204284104866E-02 
2061	 3.30549332305657E-02 
2062	 3.18955201616397E-02 
2063	 2.98599012756822E-02 
2064	 3.02554558417595E-02 
2065	 3.11463697155121E-02 
2066	 3.20846635646803E-02 
2067	 3.28553822187377E-02 
2068	 3.04953086233836E-02 
2069	 2.79337394712198E-02 
2070	 2.65676342708697E-02 
2071	 2.73953735315851E-02 
2072	 3.09889376159185E-02 
2073	 3.16052795547322E-02 
2074	 0.032418959920358 
2075	 3.20221114235472E-02 
2076	 2.80242983379041E-02 
2077	 2.69362319576376E-02 
2078	 2.75617362984385E-02 
2079	 2.76574203874271E-02 
2080	 2.73007147164587E-02 
2081	 2.98936993192042E-02 
2082	 3.18855530270152E-02 
2083	 3.24556498658267E-02 
2084	 3.28257991019969E-02 
2085	 0.030831282776161 
2086	 2.73323727196559E-02 
2087	 2.59887023250256E-02 
2088	 2.65681939452381E-02 
2089	 2.52997851286118E-02 
2090	 2.71311396995626E-02 
2091	 3.05936827469459E-02 
2092	 3.12015182079929E-02 
2093	 3.13431396817548E-02 
2094	 3.19845496006291E-02 
2095	 2.98458421452205E-02 
2096	 2.93018803355607E-02 
2097	 3.07661863378794E-02 
2098	 3.11044129312853E-02 
2099	 3.04956841194431E-02 
2100	 3.15881347587052E-02 
2101	 3.24872819765646E-02 
2102	 3.31349595590649E-02 
2103	 3.48249595598627E-02 
2104	 3.55277712295343E-02 
2105	 0.035584034945091 
2106	 3.61944409357234E-02 
2107	 3.61110817794176E-02 
2108	 3.62766192083867E-02 
2109	 3.54921328943743E-02 
2110	 3.34857065434293E-02 
2111	 3.33426869005343E-02 
2112	 3.25175735507262E-02 
2113	 3.16486611062689E-02 
2114	 3.14853034816701E-02 
2115	 3.14251116119803E-02 
2116	 3.05749206137213E-02 
2117	 3.01095792892267E-02 
2118	 3.03336117785322E-02 
2119	 3.13638219012461E-02 
2120	 3.31470123774599E-02 
2121	 0.033296030459944 
2122	 0.03437099248714 
2123	 3.51794159916896E-02 
2124	 3.40117926484338E-02 
2125	 3.55045987407634E-02 
2126	 3.87508533574772E-02 
2127	 3.95699157758149E-02 
2128	 3.91289872903663E-02 
2129	 3.77380407565728E-02 
2130	 3.65190128239852E-02 
2131	 3.49539239802535E-02 
2132	 3.44163119389193E-02 
2133	 0.035081831654578 
2134	 3.58104834559283E-02 
2135	 0.037637705111332 
2136	 3.82893497729708E-02 
2137	 3.86074031987463E-02 
2138	 3.89040688332549E-02 
2139	 3.88022689922135E-02 
2140	 3.79473133374154E-02 
2141	 3.60008764031748E-02 
2142	 3.58553027224621E-02 
2143	 0.036528743924835 
2144	 3.56905922152846E-02 
2145	 3.53333993255119E-02 
2146	 3.68340652869244E-02 
2147	 3.75229177819496E-02 
2148	 3.58718798881875E-02 
2149	 3.57997834387425E-02 
2150	 3.79526925511378E-02 
2151	 3.76304901272907E-02 
2152	 3.70756420636508E-02 
2153	 3.71724120234801E-02 
2154	 3.52813774923347E-02 
2155	 3.45299264460786E-02 
2156	 3.49039690838939E-02 
2157	 3.50356334827575E-02 
2158	 3.62661709663915E-02 
2159	 3.71923291495306E-02 
2160	 3.76932785907479E-02 
2161	 3.78111830286868E-02 
2162	 3.79495494433795E-02 
2163	 3.79944464490259E-02 
2164	 3.75280221202294E-02 
2165	 3.72685179643666E-02 
2166	 3.90288005383107E-02 
2167	 3.75374487640146E-02 
2168	 3.15895898448983E-02 
2169	 2.99377824018976E-02 
2170	 2.98224244165568E-02 
2171	 2.74954648524802E-02 
2172	 2.78290416932051E-02 
2173	 0.032096445072135 
2174	 3.29752682391773E-02 
2175	 3.36495782335629E-02 
2176	 3.49011181679604E-02 
2177	 0.036084690247699 
2178	 3.84071663653911E-02 
2179	 3.89189447216401E-02 
2180	 4.13110561203728E-02 
2181	 3.98533552687426E-02 
2182	 3.51781652821989E-02 
2183	 3.59992223554735E-02 
2184	 3.72175398277273E-02 
2185	 0.03899546689126 
2186	 3.85051756681473E-02 
2187	 3.71946009342622E-02 
2188	 3.57785891290666E-02 
2189	 3.03957271995925E-02 
2190	 2.95038499087778E-02 
2191	 3.31356339618526E-02 
2192	 3.49365283916737E-02 
2193	 3.80347333387067E-02 
2194	 3.94406246169826E-02 
2195	 0.038584716511283 
2196	 3.85570556041776E-02 
2197	 3.99432430216621E-02 
2198	 3.91299999641092E-02 
2199	 3.61773086099302E-02 
2200	 3.55460611045703E-02 
2201	 3.61279186355512E-02 
2202	 3.31073093523887E-02 
2203	 3.22025038605413E-02 
2204	 3.29525779193535E-02 
2205	 3.24809442137176E-02 
2206	 3.17225117553041E-02 
2207	 3.40967487090492E-02 
2208	 3.47266770855587E-02 
2209	 3.03414098855561E-02 
2210	 2.94528153679237E-02 
2211	 2.88828123973367E-02 
2212	 2.66804495220207E-02 
2213	 2.94892846357215E-02 
2214	 3.01437039490989E-02 
2215	 2.51492748310521E-02 
2216	 2.31613226149227E-02 
2217	 2.49514627644458E-02 
2218	 2.96484050947357E-02 
2219	 0.030048201637442 
2220	 3.19771445963057E-02 
2221	 3.49333913544646E-02 
2222	 3.46731195819278E-02 
2223	 3.51767529556099E-02 
2224	 4.24709939841168E-02 
2225	 4.19598965253016E-02 
2226	 3.16855672601538E-02 
2227	 2.92782094901319E-02 
2228	 0.027536182872251 
2229	 2.74044720894154E-02 
2230	 3.20624726242117E-02 
2231	 3.54530833276877E-02 
2232	 4.05586003677342E-02 
2233	 4.36040049712681E-02 
2234	 0.046751291939706 
2235	 4.78800596228106E-02 
2236	 4.72935667158717E-02 
2237	 4.04230306346074E-02 
2238	 3.47863330595644E-02 
2239	 3.41386737623396E-02 
2240	 3.46192021984304E-02 
2241	 3.32667655219091E-02 
2242	 3.52991275703596E-02 
2243	 3.64456976514798E-02 
2244	 3.18969906705302E-02 
2245	 3.48817475804301E-02 
2246	 4.14292587369848E-02 
2247	 3.96447978193629E-02 
2248	 3.80582645366651E-02 
2249	 4.09956526431449E-02 
2250	 0.039643530383921 
2251	 3.80791449745105E-02 
2252	 0.040283082030094 
2253	 4.25739499288153E-02 
2254	 4.44472871453784E-02 
2255	 4.39359888647177E-02 
2256	 4.13919717197201E-02 
2257	 3.90192613269997E-02 
2258	 3.65016680883327E-02 
2259	 3.81046429036642E-02 
2260	 3.71071458216314E-02 
2261	 3.61740605485118E-02 
2262	 3.41703040367179E-02 
2263	 2.80298774124785E-02 
2264	 0.029265094177468 
2265	 3.82230383666912E-02 
2266	 4.09106227626803E-02 
2267	 4.11123559471554E-02 
2268	 4.30475786893387E-02 
2269	 4.46007992057397E-02 
2270	 0.04596890161313 
2271	 0.050672059497755 
2272	 5.29057745623346E-02 
2273	 5.05117547920457E-02 
2274	 0.047840061855497 
2275	 4.64179978557122E-02 
2276	 4.42964721046855E-02 
2277	 3.72447236593657E-02 
2278	 3.68530466478317E-02 
2279	 4.32535356319711E-02 
2280	 4.26470136467634E-02 
2281	 4.06956941909939E-02 
2282	 3.99850287011631E-02 
2283	 4.04323103027541E-02 
2284	 3.72425515638896E-02 
2285	 4.47766743895676E-02 
2286	 5.62351854627581E-02 
2287	 5.16421783416165E-02 
2288	 4.84510863013786E-02 
2289	 4.79651844894015E-02 
2290	 0.041392554037906 
2291	 4.13986856758612E-02 
2292	 4.88707260297719E-02 
2293	 5.41644409119502E-02 
2294	 5.37105036812863E-02 
2295	 4.65917560133017E-02 
2296	 3.85879311755777E-02 
2297	 3.26860183131261E-02 
2298	 2.93244158766143E-02 
2299	 3.21370695087514E-02 
2300	 3.17622828920827E-02 
2301	 3.20128038699822E-02 
2302	 3.11940122265553E-02 
2303	 0.025716775717632 
2304	 2.45056484542786E-02 
2305	 1.65651737006455E-02 
2306	 1.39424652680762E-02 
2307	 2.00027564963199E-02 
2308	 2.17549000261087E-02 
2309	 2.61090270864632E-02 
2310	 2.45937673829264E-02 
2311	 1.97256236950878E-02 
2312	 2.38844698366455E-02 
2313	 2.82758779216979E-02 
2314	 2.70847973712227E-02 
2315	 2.88591384273815E-02 
2316	 3.33586886954348E-02 
2317	 3.60455564633382E-02 
2318	 4.75710979470194E-02 
2319	 0.065687352142327 
2320	 7.10446024526051E-02 
2321	 0.073351841205504 
2322	 7.68423099401472E-02 
2323	 6.27048139394016E-02 
2324	 4.89543954494641E-02 
2325	 4.72375186647269E-02 
2326	 4.30822357576537E-02 
2327	 3.26898814002304E-02 
2328	 0.029639384459696 
2329	 3.47879409934629E-02 
2330	 3.67071303146105E-02 
2331	 4.03321832053493E-02 
2332	 5.07782097167566E-02 
2333	 6.32362689058276E-02 
2334	 6.69658427087179E-02 
2335	 5.94121991675436E-02 
2336	 4.63900788136513E-02 
2337	 0.023677149747817 
2338	 5.03612787578321E-03 
2339	 1.15893391617988E-02 
2340	 2.81921107476755E-02 
2341	 4.07910248283899E-02 
2342	 4.33660433795721E-02 
2343	 3.74097051210038E-02 
2344	 2.87239930339934E-02 
2345	 2.20312183657013E-02 
2346	 1.29581423748447E-02 
2347	 7.86141398719398E-04 
2348	-8.78515821822571E-03 
2349	-2.99297042032438E-02 
2350	-3.83098546962497E-02 
2351	-2.63186523563887E-02 
2352	-2.95332024076877E-02 
2353	-2.56291351861894E-02 
2354	-8.48845292601329E-03 
2355	-3.95065401097944E-03 
2356	-5.86189338027349E-03 
2357	-1.93102128513104E-02 
2358	-1.90832630333925E-02 
2359	-2.11256577722364E-02 
2360	-2.53728413129466E-02 
2361	-2.61633450318651E-03 
2362	-5.44974716442768E-03 
2363	-3.87722268715739E-03 
2364	 1.70713587969559E-02 
2365	 2.69284166033689E-02 
2366	 0.045626201766109 
2367	 6.65365457934524E-02 
2368	 6.83199076873622E-02 
2369	 4.70402695983827E-02 
2370	 3.58185894397683E-02 
2371	 3.38365456628281E-02 
2372	 1.32343007813757E-02 
2373	 1.06662782741657E-02 
2374	 7.06648075509251E-02 
2375	 9.23775781016312E-02 
2376	 0.112733462917426 
2377	 0.188064340378046 
2378	 0.182052318994654 
2379	 0.140684377825886 
2380	 0.115954546847 
2381	 0.112495387278685 
2382	 0.10202814478988 
2383	 6.90233336818215E-02 
2384	 8.00492107563698E-02 
2385	 1.94056516471682E-02 
2386	-8.87128110995284E-02 
2387	-0.044360349289838 
2388	 9.92617653036094E-02 
2389	 0.156453894639261 
2390	 0.154862551806609 
2391	 0.157208336071778 
2392	 0.108886649440029 
2393	 6.83235838768141E-02 
2394	 0.10195184885757 
2395	 5.49175493678881E-02 
2396	-1.39904304968199E-02 
2397	-1.01316120271343E-02 
2398	-4.15111578754647E-02 
2399	-4.13470501707009E-02 
2400	-3.07566517775802E-02 
2401	-9.00220027248861E-02 
2402	-6.35633545879768E-02 
2403	-2.81126718323256E-02 
2404	-1.12269318842909E-02 
2405	-4.08431271651174E-02 
2406	-0.162321729114521 
2407	-0.246954698902411 
2408	-0.374914283862525 
2409	-0.368850972029963 
2410	-0.169588426981602 
2411	-0.038043727716822 
2412	 3.49845728968677E-02 
2413	 0.121628736053827 
2414	 0.124609364239756 
2415	 0.135951427153449 
2416	 0.279904901674753 
2417	 0.25447806587666 
2418	 0.120451667054729 
2419	 0.113639356769432 
2420	 0.128576770991057 
2421	 5.33317631181965E-02 
2422	 0.1262237647656 
2423	 0.176311258681335 
2424	 9.12363569433138E-02 
2425	 0.174667010908126 
2426	 0.351463940790918 
2427	 0.319986448188859 
2428	 0.22498801919532 
2429	 0.199334669439368 
2430	 0.116646688900426 
2431	-1.91002792225725E-03 
2432	-8.87321347793302E-02 
2433	-0.344754648940997 
2434	-0.446161395154737 
2435	-0.576284072272445 
2436	-0.634665087092188 
2437	-0.56658841591479 
2438	-0.649797302633648 
2439	-0.46015084470917 
2440	-0.208765323974867 
2441	 0.144277022212738 
2442	 0.311038078480084 
2443	 0.179471882318909 
2444	 0.201586721925554 
2445	 0.377155542528422 
2446	 0.711089527869149 
2447	 0.767999091213426 
2448	 1.00969969314051 
2449	 0.426560021249442 
2450	 0.47191365949563 
2451	 7.63190024633336 
2452	-45.8598390606487 
2453	 2.2158763339369 
2454	 1.26437727708349 
2455	-0.84775179386165 
2456	-1.42215543545702 
2457	 4.53017920174481 
2458	 4.95277259018085 
2459	 2.48459085158938 
2460	 2.1839435790688 
2461	 1.09946324218875 
2462	 2.18560489101614 
2463	 0.46449628618598 
2464	 0.168918297259667 
2465	 0.22291751477036 
2466	 0.18180347720284 
2467	 2.93945241604159 
2468	 8.96821267589905 
2469	-0.717265477882081 
2470	-1.28568093723403 
2471	-2.32533238229199 
2472	-1.80192820818778 
2473	 6.54827403529865E-02 
2474	-0.229716699667486 
2475	-0.897931180576815 
2476	-0.862222653914326 
2477	-0.359960439632913 
2478	-0.384155343021188 
2479	 0.279273237810011 
2480	 0.756030410839776 
2481	 1.28815360995583 
2482	 2.50498803401966 
2483	-2.61624812020068 
2484	-1.52898252876621 
2485	-2.04079728031515 
2486	-2.036544736575 
2487	-2.56790291443711 
2488	-5.48848220186066 
2489	-2.00687140647552 
2490	-7.75660129298891 
2491	 0.216437203223931 
2492	 0.695954970843272 
2493	 0.173223024255891 
2494	-0.260182812042201 
2495	-1.04558366300204 
2496	 0.022539791080778 
2497	 0.741985249836092 
2498	-1.30922912103655 
2499	-1.03151391082609 
2500	-0.960105215472824 
