Wavelength	rt0805close00006.asd
350	 6.11748902211749E-02 
351	 6.08501935474483E-02 
352	 6.08503960435807E-02 
353	 6.10964240992723E-02 
354	 6.12157686383875E-02 
355	 6.06357844312104E-02 
356	 6.07470359946061E-02 
357	 0.06103870058068 
358	 6.06806377461629E-02 
359	 6.01359376219993E-02 
360	 6.03857913964097E-02 
361	 6.10672950069007E-02 
362	 6.10157168090673E-02 
363	 6.08565417017591E-02 
364	 6.08257643018775E-02 
365	 6.10296024394888E-02 
366	 6.14653365420876E-02 
367	 6.16904883979494E-02 
368	 6.15173303267346E-02 
369	 0.060987031419215 
370	 6.04432794063513E-02 
371	 6.09866149242162E-02 
372	 6.20528515909013E-02 
373	 6.21984164334527E-02 
374	 6.18117580084816E-02 
375	 6.15834698738133E-02 
376	 6.17499722087547E-02 
377	 6.18753069817041E-02 
378	 6.24400523644651E-02 
379	 6.27228821739979E-02 
380	 6.23420037664799E-02 
381	 6.28582600805507E-02 
382	 6.26743403840903E-02 
383	 6.22343513359951E-02 
384	 6.27004716768302E-02 
385	 0.062682914414634 
386	 6.31381817307742E-02 
387	 6.38910791156007E-02 
388	 6.34409811968408E-02 
389	 6.38676658019428E-02 
390	 6.43669273609106E-02 
391	 6.42249832324905E-02 
392	 6.43907907274713E-02 
393	 6.38668786098483E-02 
394	 6.36005511151734E-02 
395	 6.46230263352623E-02 
396	 6.46283957088822E-02 
397	 6.47038099907399E-02 
398	 6.50724094063106E-02 
399	 6.50776162375858E-02 
400	 6.49055436622547E-02 
401	 0.065020418694791 
402	 6.54450191944343E-02 
403	 6.50916958103854E-02 
404	 6.52392938982989E-02 
405	 6.57851572508359E-02 
406	 6.61139010952378E-02 
407	 6.59294463388114E-02 
408	 6.57368939013155E-02 
409	 6.57995954045074E-02 
410	 6.60697786193954E-02 
411	 6.62608100383034E-02 
412	 6.64040658038957E-02 
413	 6.65776028129871E-02 
414	 6.68153556990512E-02 
415	 6.70033029417999E-02 
416	 0.067192992168319 
417	 6.74457918264753E-02 
418	 6.74245786813485E-02 
419	 6.74851879170955E-02 
420	 6.77424515655098E-02 
421	 6.80042829873457E-02 
422	 6.82627102710216E-02 
423	 6.84893404767114E-02 
424	 6.86744346221869E-02 
425	 0.068836519965787 
426	 6.91339607597784E-02 
427	 6.94492334667661E-02 
428	 6.96071440365313E-02 
429	 7.00914517249595E-02 
430	 7.04960568452502E-02 
431	 7.06781626726859E-02 
432	 7.08978333579375E-02 
433	 7.12580974966582E-02 
434	 7.17200394086169E-02 
435	 7.21607309268983E-02 
436	 7.23017156985178E-02 
437	 7.26702518583243E-02 
438	 7.31058669777248E-02 
439	 7.31780236114951E-02 
440	 7.37001697291199E-02 
441	 7.41770123777883E-02 
442	 7.43665728223257E-02 
443	 7.45974235909563E-02 
444	 0.074969102193262 
445	 7.53053273013551E-02 
446	 7.54687374815422E-02 
447	 7.58157155668557E-02 
448	 7.61446740769811E-02 
449	 7.63848599071226E-02 
450	 7.65764180747715E-02 
451	 7.67559016319828E-02 
452	 0.076880517885921 
453	 7.69656708085324E-02 
454	 7.71700836605087E-02 
455	 7.73982063090474E-02 
456	 7.75373116646815E-02 
457	 0.077545434658566 
458	 7.77911204865128E-02 
459	 7.79504302770192E-02 
460	 7.79605516194336E-02 
461	 0.078046328734721 
462	 7.80388013823773E-02 
463	 0.078081248060424 
464	 7.82490095314436E-02 
465	 7.82496811551164E-02 
466	 7.84517994187555E-02 
467	 7.86883157180106E-02 
468	 7.86223631356765E-02 
469	 7.87576336618817E-02 
470	 7.90658062169491E-02 
471	 7.93524848301386E-02 
472	 7.92786941258096E-02 
473	 7.92370459223618E-02 
474	 7.93847185941118E-02 
475	 7.96961267047742E-02 
476	 7.97478761488543E-02 
477	 7.99476442829874E-02 
478	 8.01749061685954E-02 
479	 8.00412582300757E-02 
480	 8.05195879165929E-02 
481	 8.09533635027377E-02 
482	 0.080959425595645 
483	 8.11345874627183E-02 
484	 8.13904279463585E-02 
485	 8.16338408691134E-02 
486	 8.18189873212542E-02 
487	 8.22648604496663E-02 
488	 8.26801902457317E-02 
489	 8.29788808396326E-02 
490	 8.33063623762702E-02 
491	 8.37047926126306E-02 
492	 8.40590209785374E-02 
493	 8.43450039620114E-02 
494	 8.49147207180153E-02 
495	 8.52430520860589E-02 
496	 8.54767900970309E-02 
497	 8.60467779875539E-02 
498	 8.66152060498851E-02 
499	 0.08706131416146 
500	 8.74543017928725E-02 
501	 8.81200722898378E-02 
502	 8.86503074722604E-02 
503	 8.91209726712264E-02 
504	 8.96939402308674E-02 
505	 9.02675924074144E-02 
506	 9.08071042990707E-02 
507	 9.13187488228902E-02 
508	 9.18413130292882E-02 
509	 9.24104966526868E-02 
510	 9.30012809917284E-02 
511	 9.35882171050374E-02 
512	 9.41826896068937E-02 
513	 9.47110515035961E-02 
514	 9.52492028872209E-02 
515	 9.59157560513831E-02 
516	 9.66306023440351E-02 
517	 9.73619574354287E-02 
518	 9.80731354400212E-02 
519	 9.87238392733354E-02 
520	 9.93297289414024E-02 
521	 0.100012662077928 
522	 0.100826984771676 
523	 0.101506150336239 
524	 0.102209656294179 
525	 0.102949287286823 
526	 0.103647359021548 
527	 0.104462462803253 
528	 0.105298986706818 
529	 0.106068988083899 
530	 0.106757294062846 
531	 0.107553676620039 
532	 0.108431031257299 
533	 0.109287813796168 
534	 0.110174715675027 
535	 0.111034674533653 
536	 0.111849240800565 
537	 0.112643856709508 
538	 0.113553636762032 
539	 0.114517342195323 
540	 0.115447828700451 
541	 0.116366030966417 
542	 0.117192552351044 
543	 0.118030951287178 
544	 0.119063406034898 
545	 0.119994283536065 
546	 0.120870971744312 
547	 0.121744910539674 
548	 0.122585844193664 
549	 0.12342778117544 
550	 0.124351303742067 
551	 0.12539036877869 
552	 0.126237383809507 
553	 0.127035910949896 
554	 0.127870747683039 
555	 0.128724535776909 
556	 0.129570251194384 
557	 0.130453659286356 
558	 0.131386074797249 
559	 0.132253892850227 
560	 0.133032004720655 
561	 0.133744887527117 
562	 0.134459094545823 
563	 0.135249677759711 
564	 0.136001201713446 
565	 0.136657272832535 
566	 0.137325531273113 
567	 0.137951864783963 
568	 0.138588855929268 
569	 0.139280516068958 
570	 0.139828911108088 
571	 0.140313774941307 
572	 0.140829094429805 
573	 0.141454407316718 
574	 0.141938249963728 
575	 0.142316110120451 
576	 0.142708870968431 
577	 0.143300164099614 
578	 0.143744223630719 
579	 0.144054480730695 
580	 0.144456487495603 
581	 0.144864597441725 
582	 0.145191105941464 
583	 0.145426428960446 
584	 0.145693280237104 
585	 0.146063847462464 
586	 0.146462539956941 
587	 0.146813518471059 
588	 0.147472427885019 
589	 0.147838330817773 
590	 0.147743093313368 
591	 0.147601527296273 
592	 0.147761732274346 
593	 0.147898552930401 
594	 0.147733206809386 
595	 0.147594399151673 
596	 0.147454587734172 
597	 0.147272644739314 
598	 0.147001371070609 
599	 0.146648372905001 
600	 0.146345908559081 
601	 0.146187573359465 
602	 0.146186841461594 
603	 0.146200086157857 
604	 0.14614575627183 
605	 0.146035722026024 
606	 0.14622225919252 
607	 0.146309046979254 
608	 0.146234882224792 
609	 0.146310930230383 
610	 0.146335997305049 
611	 0.146359049814217 
612	 0.146415888340708 
613	 0.146346387631289 
614	 0.146312284609461 
615	 0.14637293410652 
616	 0.146493311484564 
617	 0.146400135410144 
618	 0.146275068719756 
619	 0.146244007609556 
620	 0.146264847145829 
621	 0.146308217963908 
622	 0.14633803902172 
623	 0.146325665286488 
624	 0.146261884283195 
625	 0.146323367113164 
626	 0.146503489206207 
627	 0.146608705385159 
628	 0.146507377499989 
629	 0.146420966391255 
630	 0.146496902943155 
631	 0.146520238720164 
632	 0.146432954321912 
633	 0.146310601633658 
634	 0.146277422707195 
635	 0.146222761151023 
636	 0.146217223254133 
637	 0.146279601741169 
638	 0.14633991111099 
639	 0.146202921781357 
640	 0.14611135584566 
641	 0.146266635952116 
642	 0.146104658301163 
643	 0.146199741155733 
644	 0.146539237896149 
645	 0.146627186965598 
646	 0.146789622832095 
647	 0.146803521209801 
648	 0.146554599897451 
649	 0.146364813405512 
650	 0.146355501939726 
651	 0.146315525251267 
652	 0.145991260294509 
653	 0.145802224094867 
654	 0.145671356037321 
655	 0.1454678167583 
656	 0.145071334045642 
657	 0.144730103598404 
658	 0.144403117051643 
659	 0.144036470755362 
660	 0.143785489529531 
661	 0.143409362419807 
662	 0.143051851580546 
663	 0.143028137200584 
664	 0.142698207728828 
665	 0.14232152967899 
666	 0.142101317816699 
667	 0.141943203146315 
668	 0.141796906940686 
669	 0.141731617668289 
670	 0.141804232713669 
671	 0.141802915454257 
672	 0.141717314894069 
673	 0.141634612338066 
674	 0.141711943350031 
675	 0.141834062326831 
676	 0.141967987029053 
677	 0.142129282903709 
678	 0.1424205217544 
679	 0.14273139224488 
680	 0.143074011907176 
681	 0.143505527194344 
682	 0.143963853201142 
683	 0.144514687290116 
684	 0.145141708900207 
685	 0.145768316801098 
686	 0.146659345629208 
687	 0.147495778438172 
688	 0.14793199329751 
689	 0.148349280924698 
690	 0.148873408411332 
691	 0.149597270893194 
692	 0.150529420790236 
693	 0.15097509573085 
694	 0.150983667205349 
695	 0.150846966488493 
696	 0.150886049564721 
697	 0.151111977124163 
698	 0.15144385027816 
699	 0.151693353227406 
700	 0.151606959473202 
701	 0.151356016769123 
702	 0.151110026546516 
703	 0.150955532313952 
704	 0.15056265176798 
705	 0.1501376076272 
706	 0.149812830599999 
707	 0.149349699805556 
708	 0.14875682507351 
709	 0.148139000224006 
710	 0.147596903820584 
711	 0.146930244308883 
712	 0.146207071219669 
713	 0.145549241505617 
714	 0.145112111474349 
715	 0.145088237800603 
716	 0.145258900319803 
717	 0.14512278358133 
718	 0.144153572417171 
719	 0.142296015868155 
720	 0.140448322617057 
721	 0.138983864081462 
722	 0.138241084084082 
723	 0.137518537199608 
724	 0.136403338807559 
725	 0.13473344801859 
726	 0.133138293423701 
727	 0.131400106443559 
728	 0.129302734785979 
729	 0.127284531678977 
730	 0.124587862016561 
731	 0.121604679022674 
732	 0.118930359112583 
733	 0.116887300860113 
734	 0.115309825775127 
735	 0.114054405577241 
736	 0.112950109203677 
737	 0.11197079938173 
738	 0.111103541123267 
739	 0.110387019235703 
740	 0.109908616312166 
741	 0.109643939310221 
742	 0.109458685443612 
743	 0.109210812725182 
744	 0.109200305467249 
745	 0.109204773638309 
746	 0.109153406468854 
747	 0.109242240375122 
748	 0.109335819597571 
749	 0.109327150521157 
750	 0.109225164686489 
751	 0.109385186311959 
752	 0.109521888116131 
753	 0.109534800060153 
754	 0.109463880719814 
755	 0.109515094345881 
756	 0.109716269622179 
757	 0.110073828880305 
758	 0.110735961352338 
759	 0.11173427932772 
760	 0.112953665744857 
761	 0.113397818429859 
762	 0.113112194360291 
763	 0.112885784018923 
764	 0.112495224942864 
765	 0.111667634306673 
766	 0.111266936244597 
767	 0.11121174892336 
768	 0.111323547985119 
769	 0.11135944143005 
770	 0.111463078437706 
771	 0.111560348587398 
772	 0.111639236288033 
773	 0.111977916060874 
774	 0.112237829290122 
775	 0.112470239560709 
776	 0.112848616156197 
777	 0.113157508224429 
778	 0.113363419712166 
779	 0.113594793670561 
780	 0.114093591617839 
781	 0.114306956969123 
782	 0.114623633419812 
783	 0.115241955493323 
784	 0.115523971032761 
785	 0.115911153400416 
786	 0.116489259794914 
787	 0.117149556313837 
788	 0.117530487049974 
789	 0.117814949314287 
790	 0.118192611365987 
791	 0.118765093755753 
792	 0.118943031262384 
793	 0.119111128554291 
794	 0.119552563764665 
795	 0.120167858876741 
796	 0.120502013829343 
797	 0.120689967248845 
798	 0.120983823610897 
799	 0.121298926828508 
800	 0.121644575160099 
801	 0.121900355359227 
802	 0.121929802312047 
803	 0.121975644623035 
804	 0.121956679627792 
805	 0.121860008196467 
806	 0.121770440324136 
807	 0.121718949300843 
808	 0.12179477406956 
809	 0.121996307169307 
810	 0.122045798597453 
811	 0.122220833912451 
812	 0.122516748193977 
813	 0.122728988137053 
814	 0.122423791203521 
815	 0.121933786258324 
816	 0.121437745405589 
817	 0.12081547426219 
818	 0.119379188712703 
819	 0.118181265958625 
820	 0.117411470130296 
821	 0.11624442247239 
822	 0.114830545423842 
823	 0.113462148809269 
824	 0.112121368006106 
825	 0.109748974463916 
826	 0.10778667105894 
827	 0.105990353769963 
828	 0.103755593780076 
829	 0.101645603504146 
830	 9.95323874738585E-02 
831	 9.74992420604672E-02 
832	 9.58288875230928E-02 
833	 9.42986787120659E-02 
834	 9.28675795089569E-02 
835	 9.16925327202151E-02 
836	 9.11508070691055E-02 
837	 9.03400978975434E-02 
838	 8.96092070571346E-02 
839	 8.92006302958029E-02 
840	 8.83662666009417E-02 
841	 8.77982122710731E-02 
842	 8.75355589703327E-02 
843	 8.72982147842169E-02 
844	 8.65492533489221E-02 
845	 8.58902644663101E-02 
846	 8.54763157442817E-02 
847	 8.50974506522357E-02 
848	 8.45125883751606E-02 
849	 8.41158907523312E-02 
850	 8.39666235316894E-02 
851	 8.36166516439002E-02 
852	 8.32504931328775E-02 
853	 8.28229997099067E-02 
854	 8.23531973339224E-02 
855	 8.20585632548103E-02 
856	 8.16453460785047E-02 
857	 8.12079982119047E-02 
858	 8.08951554945111E-02 
859	 8.06793484056376E-02 
860	 8.02061499091178E-02 
861	 0.079737614767279 
862	 0.079697481213217 
863	 7.94589286474069E-02 
864	 7.90898160301689E-02 
865	 7.86852588224032E-02 
866	 7.83139520287877E-02 
867	 7.78636799665314E-02 
868	 7.74964574747718E-02 
869	 7.71940187294033E-02 
870	 7.66736813806274E-02 
871	 7.58932452005953E-02 
872	 0.075247672039014 
873	 7.49752106059838E-02 
874	 7.47705863969381E-02 
875	 7.41897077404296E-02 
876	 7.36687759658537E-02 
877	 7.35372865510712E-02 
878	 7.26155733755198E-02 
879	 7.21108605178532E-02 
880	 7.18228315335498E-02 
881	 7.10604245954718E-02 
882	 7.06129365890854E-02 
883	 7.00199701316333E-02 
884	 6.94344182770853E-02 
885	 6.93787268680304E-02 
886	 6.90216702732841E-02 
887	 6.85491485082958E-02 
888	 6.79979701606258E-02 
889	 6.71841086583525E-02 
890	 6.74125514511127E-02 
891	 6.75702727066192E-02 
892	 6.69912100401259E-02 
893	 6.68324081605593E-02 
894	 6.67884044079505E-02 
895	 6.68161829157561E-02 
896	 6.70039779260699E-02 
897	 6.78006204153944E-02 
898	 6.66627835519263E-02 
899	 6.48991851161529E-02 
900	 6.45242891407027E-02 
901	 6.44335640544379E-02 
902	 6.42084169847841E-02 
903	 6.34925712141162E-02 
904	 6.22789649191974E-02 
905	 0.061851403896506 
906	 6.17791721094933E-02 
907	 6.18490240330144E-02 
908	 6.18920601862522E-02 
909	 6.08499546673482E-02 
910	 6.01921974560676E-02 
911	 5.98952875210136E-02 
912	 0.058544826816147 
913	 0.057796487377596 
914	 5.65741472116089E-02 
915	 5.49096466009028E-02 
916	 5.42563046355765E-02 
917	 5.36876154115445E-02 
918	 5.19431041223884E-02 
919	 5.00022413809959E-02 
920	 5.13129089019711E-02 
921	 5.04563401406046E-02 
922	 4.84780869062621E-02 
923	 4.70645512653497E-02 
924	 4.66002092943495E-02 
925	 4.57553853705203E-02 
926	 4.57299926125975E-02 
927	 4.72066880259938E-02 
928	 0.044763808963429 
929	 4.30768072614868E-02 
930	 4.29498194200521E-02 
931	 4.32083027943291E-02 
932	 4.82329526400019E-02 
933	 4.27360564868449E-02 
934	 3.34669374156171E-02 
935	 3.58082461159758E-02 
936	 3.23564945832777E-02 
937	 3.69889881941202E-02 
938	 4.42250597145086E-02 
939	 4.52643672672719E-02 
940	 3.89198840611941E-02 
941	 4.14957320028706E-02 
942	 4.15421713015685E-02 
943	 2.23643382244534E-02 
944	 3.15254024555855E-02 
945	 4.02590662170654E-02 
946	 3.74706285220781E-02 
947	 0.029727166384535 
948	 3.09308902560814E-02 
949	 3.09481280389054E-02 
950	 3.15617365160688E-02 
951	 3.91881093194327E-02 
952	 0.038396204365813 
953	 3.32815819003021E-02 
954	 3.04280236984127E-02 
955	 3.39527721039268E-02 
956	 3.12616695116564E-02 
957	 2.92154233508871E-02 
958	 2.80015026356816E-02 
959	 2.40996323533652E-02 
960	 2.74282022070708E-02 
961	 2.91118389197539E-02 
962	 2.79115657781978E-02 
963	 2.79161717125892E-02 
964	 2.53725193795206E-02 
965	 2.66709371280392E-02 
966	 0.030050987676117 
967	 2.91988828985197E-02 
968	 2.69504148603448E-02 
969	 2.54647647426535E-02 
970	 2.53561873991623E-02 
971	 2.60048804956187E-02 
972	 2.80158363600329E-02 
973	 2.76445436056949E-02 
974	 2.51424901868756E-02 
975	 2.48332713972758E-02 
976	 2.68990266171576E-02 
977	 0.02691247359319 
978	 2.46036704302291E-02 
979	 2.35167818633695E-02 
980	 0.024270955927446 
981	 2.59723748926979E-02 
982	 2.63291827456345E-02 
983	 2.32647530457785E-02 
984	 2.17613156259044E-02 
985	 2.13902259971272E-02 
986	 0.021869187570003 
987	 2.32876276892481E-02 
988	 2.49757301172324E-02 
989	 2.49279929379628E-02 
990	 0.024342930498381 
991	 2.57388644989688E-02 
992	 2.36121647677694E-02 
993	 2.26871270345813E-02 
994	 2.35676801952245E-02 
995	 2.36710688368905E-02 
996	 2.37570528957027E-02 
997	 2.37899539007685E-02 
998	 2.33443612175963E-02 
999	 2.24168354741281E-02 
1000	 2.43317084255155E-02 
1001	 2.31575092392693E-02 
1002	 2.35319588451206E-02 
1003	 2.37248423889062E-02 
1004	 2.37162162143607E-02 
1005	 2.35523950451101E-02 
1006	 2.30914422826029E-02 
1007	 2.34329131667676E-02 
1008	 2.35684189781483E-02 
1009	 2.37193737859028E-02 
1010	 2.40211546960556E-02 
1011	 2.41132454306777E-02 
1012	 2.36795823105713E-02 
1013	 2.33073576375652E-02 
1014	 2.32060995843703E-02 
1015	 2.30469474417658E-02 
1016	 2.32409066876203E-02 
1017	 2.38657054055089E-02 
1018	 2.43621699224253E-02 
1019	 2.53298813905084E-02 
1020	 2.56379331376853E-02 
1021	 2.55634416452021E-02 
1022	 2.56257216266745E-02 
1023	 2.50144194642937E-02 
1024	 2.51453384567521E-02 
1025	 2.57090681040742E-02 
1026	 2.57028708940062E-02 
1027	 2.57625820000099E-02 
1028	 2.56736218093518E-02 
1029	 2.57447980523268E-02 
1030	 2.59804019211171E-02 
1031	 2.59061635275901E-02 
1032	 2.56325485401013E-02 
1033	 2.57468928607333E-02 
1034	 2.56894071957011E-02 
1035	 2.58090361682712E-02 
1036	 2.63212692560765E-02 
1037	 2.67688573517686E-02 
1038	 2.69650063479602E-02 
1039	 2.77634596370039E-02 
1040	 2.80370055794202E-02 
1041	 2.86130945095624E-02 
1042	 0.028912263503269 
1043	 2.89408188055828E-02 
1044	 2.89301268107146E-02 
1045	 2.89402806022492E-02 
1046	 0.02890031293298 
1047	 2.84361029779849E-02 
1048	 2.85466319918079E-02 
1049	 2.87584059879483E-02 
1050	 2.93141079516737E-02 
1051	 3.08960408694862E-02 
1052	 3.14409752450439E-02 
1053	 3.13480719204125E-02 
1054	 3.17700989504119E-02 
1055	 3.19809994902223E-02 
1056	 3.20993350409953E-02 
1057	 3.23282072978549E-02 
1058	 3.33175550280046E-02 
1059	 3.32650149486306E-02 
1060	 3.21000553773104E-02 
1061	 3.22839646119735E-02 
1062	 3.29771953357133E-02 
1063	 3.32337270337406E-02 
1064	 3.42117864133386E-02 
1065	 3.43818900208959E-02 
1066	 3.34293467350034E-02 
1067	 3.32759012851508E-02 
1068	 3.32493464412588E-02 
1069	 3.33981445382765E-02 
1070	 3.43492456174541E-02 
1071	 3.45728014000747E-02 
1072	 3.45533386419459E-02 
1073	 3.42268509169638E-02 
1074	 3.41538013418245E-02 
1075	 3.36739175126301E-02 
1076	 3.36916198667745E-02 
1077	 0.034249210382718 
1078	 3.43269292255549E-02 
1079	 3.43611213450894E-02 
1080	 3.41538790754921E-02 
1081	 3.34961870086259E-02 
1082	 3.33231542982072E-02 
1083	 3.34840696233649E-02 
1084	 3.31770105359054E-02 
1085	 3.25572271830171E-02 
1086	 3.23852286694838E-02 
1087	 3.22579524022242E-02 
1088	 3.19508688161599E-02 
1089	 3.19302926621962E-02 
1090	 3.20137116387118E-02 
1091	 3.18186819957614E-02 
1092	 3.09531783368627E-02 
1093	 0.030758394598737 
1094	 3.11088302977834E-02 
1095	 0.030945657085221 
1096	 3.05508488766624E-02 
1097	 3.05228045790283E-02 
1098	 0.030513480330808 
1099	 3.04944328407633E-02 
1100	 3.09573650305808E-02 
1101	 3.08197749504279E-02 
1102	 0.029958887665346 
1103	 2.96331054424585E-02 
1104	 2.94895537312962E-02 
1105	 2.91273171080726E-02 
1106	 2.91101135016716E-02 
1107	 2.89564905721789E-02 
1108	 2.74394636283158E-02 
1109	 2.82361197652024E-02 
1110	 2.91010373961875E-02 
1111	 3.10559354241394E-02 
1112	 3.15568100103923E-02 
1113	 3.31177464345371E-02 
1114	 3.31325968987217E-02 
1115	 2.93640809661702E-02 
1116	 0.029049820599928 
1117	 2.94607643678624E-02 
1118	 3.03305242797711E-02 
1119	 3.96412916969802E-02 
1120	 4.21821162855238E-02 
1121	 0.035283741273286 
1122	 3.27974232003336E-02 
1123	 2.71667602719967E-02 
1124	 2.88561158948476E-02 
1125	 4.59204295328529E-02 
1126	 4.56774707668615E-02 
1127	 0.033072171014886 
1128	 2.84893052018089E-02 
1129	 2.83664023298985E-02 
1130	 2.95275703411424E-02 
1131	 3.12100064943095E-02 
1132	 4.10856001311426E-02 
1133	 3.88337048294299E-02 
1134	 2.63088965514997E-02 
1135	 2.65769628827858E-02 
1136	 3.07175441094743E-02 
1137	 3.21832586859531E-02 
1138	 3.75083705565051E-02 
1139	 4.03795119264817E-02 
1140	 0.037270154104092 
1141	 3.36430924342167E-02 
1142	 3.10927780840733E-02 
1143	 3.36349247237055E-02 
1144	 0.03907827059091 
1145	 3.46095015540764E-02 
1146	 2.79683160293972E-02 
1147	 2.64302533852428E-02 
1148	 2.32791718016571E-02 
1149	 2.50269713140359E-02 
1150	 2.71537204965131E-02 
1151	 3.16821990455637E-02 
1152	 3.20517095431629E-02 
1153	 3.22596739812578E-02 
1154	 3.15392022329097E-02 
1155	 2.91749639367164E-02 
1156	 2.86389231539862E-02 
1157	 2.92867951001979E-02 
1158	 2.87254620129646E-02 
1159	 2.77719997302383E-02 
1160	 2.71126918724922E-02 
1161	 2.65640136956461E-02 
1162	 2.62838639538583E-02 
1163	 2.72037375555913E-02 
1164	 2.78271365719871E-02 
1165	 2.68286442209049E-02 
1166	 2.62321037167102E-02 
1167	 2.66164872100876E-02 
1168	 2.66312552579804E-02 
1169	 2.66348498335554E-02 
1170	 2.65740475618309E-02 
1171	 2.62655757249695E-02 
1172	 0.024999614890184 
1173	 2.47164460625851E-02 
1174	 2.48645550069621E-02 
1175	 2.48695919932861E-02 
1176	 2.53260215116112E-02 
1177	 2.50340282017356E-02 
1178	 2.42477603603132E-02 
1179	 2.44709271209425E-02 
1180	 2.49040787670017E-02 
1181	 2.48805079418552E-02 
1182	 2.51182992549246E-02 
1183	 2.50106740674925E-02 
1184	 2.41746816437023E-02 
1185	 2.39395707462482E-02 
1186	 2.42419870122593E-02 
1187	 2.43897385487829E-02 
1188	 2.43284401778899E-02 
1189	 2.46070840080078E-02 
1190	 2.50735192122864E-02 
1191	 2.51249792327198E-02 
1192	 2.51478292070977E-02 
1193	 2.54789754781848E-02 
1194	 2.50271206143186E-02 
1195	 2.39738544096051E-02 
1196	 2.38126129982652E-02 
1197	 2.37238375691614E-02 
1198	 2.39361816526329E-02 
1199	 2.48246027714397E-02 
1200	 0.025235884427579 
1201	 2.53507080401871E-02 
1202	 2.51165277343253E-02 
1203	 2.39629744442657E-02 
1204	 2.33336958496479E-02 
1205	 2.39598540891851E-02 
1206	 2.41315638330536E-02 
1207	 2.35943337004064E-02 
1208	 2.35103244700079E-02 
1209	 2.31377889561415E-02 
1210	 2.28495992979509E-02 
1211	 2.38342560726846E-02 
1212	 0.024263992392933 
1213	 2.37692596060188E-02 
1214	 2.37691872840999E-02 
1215	 2.37999525180044E-02 
1216	 2.37495436804994E-02 
1217	 2.37788409781431E-02 
1218	 2.42590924506934E-02 
1219	 2.38497728012724E-02 
1220	 2.29915415326566E-02 
1221	 2.32260333486405E-02 
1222	 2.32649877480442E-02 
1223	 2.28283760186464E-02 
1224	 2.30092305067596E-02 
1225	 2.30370596665477E-02 
1226	 2.28620220316225E-02 
1227	 2.31225342867634E-02 
1228	 2.34059241431705E-02 
1229	 2.35205980420667E-02 
1230	 2.31771030796191E-02 
1231	 2.27275810956041E-02 
1232	 2.30345980348367E-02 
1233	 2.29259258812997E-02 
1234	 2.24567936022405E-02 
1235	 2.24615783514555E-02 
1236	 2.28173497287342E-02 
1237	 2.27741215532081E-02 
1238	 2.26738680210656E-02 
1239	 2.29565240655395E-02 
1240	 2.26326347898753E-02 
1241	 2.22240212107606E-02 
1242	 2.26271223491292E-02 
1243	 2.28364135379705E-02 
1244	 2.28376152079372E-02 
1245	 2.29707912255164E-02 
1246	 0.022836918940396 
1247	 2.27113289101712E-02 
1248	 2.27049007622239E-02 
1249	 2.27863225863799E-02 
1250	 2.26195796809358E-02 
1251	 2.23766355469802E-02 
1252	 0.022684227481392 
1253	 2.28554476364307E-02 
1254	 2.26601933723922E-02 
1255	 2.27092813673892E-02 
1256	 2.27551582936424E-02 
1257	 2.27582055150385E-02 
1258	 2.27158441063206E-02 
1259	 2.26043762523609E-02 
1260	 2.26034270123513E-02 
1261	 2.26854321220745E-02 
1262	 2.27053095985583E-02 
1263	 2.27519042697218E-02 
1264	 2.30669193150189E-02 
1265	 2.31859720667535E-02 
1266	 2.28242477144605E-02 
1267	 2.28751275511375E-02 
1268	 2.31263519223119E-02 
1269	 2.31817502367131E-02 
1270	 2.32094055310399E-02 
1271	 2.30498912401959E-02 
1272	 2.28966561080464E-02 
1273	 2.30424412568797E-02 
1274	 2.29053501246252E-02 
1275	 2.26094218183275E-02 
1276	 2.28404502054027E-02 
1277	 2.28563894274859E-02 
1278	 2.22897115839642E-02 
1279	 0.022206096295325 
1280	 2.25341444852135E-02 
1281	 2.24886904304705E-02 
1282	 2.23432780387879E-02 
1283	 2.22532612762432E-02 
1284	 2.18046940663644E-02 
1285	 2.17344953731388E-02 
1286	 2.20002246691802E-02 
1287	 2.21181387912954E-02 
1288	 2.23858427496471E-02 
1289	 2.26169332089637E-02 
1290	 2.27110068702909E-02 
1291	 2.28717554728862E-02 
1292	 2.29635036982882E-02 
1293	 2.29257928536521E-02 
1294	 2.27040032120794E-02 
1295	 2.26578994937714E-02 
1296	 2.28507909022729E-02 
1297	 2.27738764045099E-02 
1298	 2.30391523240563E-02 
1299	 2.35791517620169E-02 
1300	 2.35582073631419E-02 
1301	 2.38165779954832E-02 
1302	 2.43355566082807E-02 
1303	 0.024119499623484 
1304	 2.38134301275583E-02 
1305	 2.41529294936533E-02 
1306	 2.42413043157796E-02 
1307	 2.36892366762875E-02 
1308	 2.35812729729851E-02 
1309	 0.023979336090032 
1310	 2.42229928270897E-02 
1311	 2.46044712365939E-02 
1312	 2.48093680600718E-02 
1313	 2.51385726517764E-02 
1314	 2.53457623319967E-02 
1315	 2.46824116899042E-02 
1316	 0.024590506494957 
1317	 2.52690007970207E-02 
1318	 2.54333764029106E-02 
1319	 2.54377841206718E-02 
1320	 2.59023780806624E-02 
1321	 0.026680964388606 
1322	 2.67347252322695E-02 
1323	 2.69902250246491E-02 
1324	 2.73512490282977E-02 
1325	 2.71119637495952E-02 
1326	 2.69979883068479E-02 
1327	 0.027196079033059 
1328	 2.73253571440246E-02 
1329	 2.83091712943538E-02 
1330	 2.86110694632738E-02 
1331	 2.81431631857522E-02 
1332	 2.89695688759383E-02 
1333	 2.98378232097594E-02 
1334	 3.00271697123289E-02 
1335	 3.03922900775202E-02 
1336	 3.17341500761406E-02 
1337	 3.04606624648776E-02 
1338	 2.64047161541506E-02 
1339	 2.54861582537638E-02 
1340	 0.023906897967999 
1341	 2.26053836388743E-02 
1342	 2.45292205740255E-02 
1343	 2.57996929422692E-02 
1344	 2.68879869818728E-02 
1345	 2.67390653344283E-02 
1346	 2.51426018236241E-02 
1347	 2.69275989637903E-02 
1348	 3.05091562986178E-02 
1349	 0.027991183305448 
1350	 2.65370753252937E-02 
1351	 3.29861978278088E-02 
1352	 2.36990175004915E-02 
1353	 1.87029833916844E-02 
1354	 9.45323588081066E-02 
1355	 0.12537129666322 
1356	-8.68587491338792E-03 
1357	-3.22846355709508E-02 
1358	-3.85650021472628E-02 
1359	-0.209960603208006 
1360	-0.240127695046761 
1361	-0.159924921450476 
1362	-5.04877954151486E-02 
1363	 5.82007557390662E-02 
1364	-8.05622830235233E-02 
1365	-0.405458508793433 
1366	-0.509202314685145 
1367	-0.329955229248534 
1368	-0.278248769646199 
1369	 0.154178986859165 
1370	 0.549342166127158 
1371	 0.484675512925683 
1372	 0.366089992018637 
1373	-3.53971437220928E-02 
1374	 0.143541175515531 
1375	 0.409960180167609 
1376	 0.422946459086427 
1377	 0.726289661889169 
1378	 0.838170414687164 
1379	 0.323407824539849 
1380	 2.68558774535989E-02 
1381	 1.19416566964426 
1382	 1.21063712809128 
1383	-5.99355627363128E-03 
1384	-0.181066988309022 
1385	-1.61288897360572E-02 
1386	-0.278743873052523 
1387	-0.495147798796257 
1388	-0.448757175384557 
1389	-1.2550835269167 
1390	-0.833986887755934 
1391	 0.102160670669054 
1392	 0.844474063177906 
1393	 9.35358052180592E-02 
1394	-0.166272016518525 
1395	 0.172252706557723 
1396	 0.366213477690224 
1397	 0.245912010975521 
1398	 0.343021755144368 
1399	 9.67270079487337E-02 
1400	-0.303877691383942 
1401	 2.77773382385376E-02 
1402	 0.215703656967381 
1403	-3.57843737886677E-02 
1404	-0.170996881677538 
1405	-0.207243539343379 
1406	-0.285471218082185 
1407	-0.253153097130988 
1408	-0.130240803951929 
1409	-0.149590381069991 
1410	-0.236948552194227 
1411	-0.197324130782949 
1412	-5.71026671235624E-02 
1413	-1.39073945559973E-02 
1414	-0.179742890061818 
1415	-6.61745082488867E-02 
1416	 0.231765874706079 
1417	 0.260617050349605 
1418	 0.157331832134416 
1419	 0.155998979728548 
1420	 0.14752349222383 
1421	 6.61653094449288E-02 
1422	-2.47974530480904E-02 
1423	 3.41112192568006E-03 
1424	 4.06127505805026E-03 
1425	 6.21072734580165E-03 
1426	 9.91728013340808E-02 
1427	 0.126993351757305 
1428	 0.086185095989635 
1429	 8.35774627160721E-02 
1430	 0.116003663503758 
1431	 0.106209372798116 
1432	 6.42727927087003E-02 
1433	 6.55585290121053E-02 
1434	 0.106099446768177 
1435	 8.37962609991843E-02 
1436	 0.028017953869973 
1437	 2.42353991622119E-03 
1438	 1.87495865451835E-02 
1439	 2.30143404869746E-03 
1440	 1.91408629171481E-02 
1441	 5.27813345274937E-02 
1442	 3.86688494933868E-02 
1443	 2.02724720023617E-02 
1444	 4.23393818579679E-02 
1445	 5.24439288822965E-02 
1446	 3.15934147177046E-02 
1447	 2.29087801336636E-02 
1448	 1.91493103062376E-02 
1449	 1.36800372209332E-02 
1450	 1.72177749287207E-02 
1451	 0.029577071798039 
1452	 0.047297054952041 
1453	 4.97883711587846E-02 
1454	 4.54102447298506E-02 
1455	 3.41558770227886E-02 
1456	 0.034405917569215 
1457	 3.31450643553677E-02 
1458	 3.22897575296936E-02 
1459	 3.72516997143228E-02 
1460	 3.86063570339046E-02 
1461	 0.034392482200374 
1462	 3.33880589738209E-02 
1463	 3.80202423794462E-02 
1464	 3.91272866403006E-02 
1465	 3.45321950975246E-02 
1466	 0.034702757163165 
1467	 3.87905413209395E-02 
1468	 0.039560501745951 
1469	 4.18368631654212E-02 
1470	 4.17659582941101E-02 
1471	 3.87378072283392E-02 
1472	 3.56563567319752E-02 
1473	 2.84304840664269E-02 
1474	 2.80044286280831E-02 
1475	 3.63924964845398E-02 
1476	 3.27139899493033E-02 
1477	 1.95686932529335E-02 
1478	 2.14300506014133E-02 
1479	 2.79041242008458E-02 
1480	 2.63820777388873E-02 
1481	 2.74012490029159E-02 
1482	 3.18382726554259E-02 
1483	 3.25014344887229E-02 
1484	 3.14031355857105E-02 
1485	 3.60936133398204E-02 
1486	 3.64150721574339E-02 
1487	 3.01967360031132E-02 
1488	 2.78712293629707E-02 
1489	 2.78973193911469E-02 
1490	 0.027935745542219 
1491	 2.77407726761286E-02 
1492	 2.76996285065059E-02 
1493	 2.87373270580885E-02 
1494	 2.86428279997203E-02 
1495	 2.79709747589137E-02 
1496	 2.74377832530953E-02 
1497	 2.68104576623477E-02 
1498	 2.58276205969593E-02 
1499	 2.40519655154324E-02 
1500	 2.34987929954998E-02 
1501	 2.32726863958198E-02 
1502	 2.32419589742651E-02 
1503	 2.39841737919321E-02 
1504	 2.44038950605009E-02 
1505	 2.45123281049837E-02 
1506	 2.49859432937768E-02 
1507	 2.59714521863517E-02 
1508	 0.026202586425255 
1509	 2.54719126018267E-02 
1510	 2.51403961038011E-02 
1511	 2.46244192292102E-02 
1512	 2.39319232148168E-02 
1513	 2.41300850653309E-02 
1514	 2.43144356215375E-02 
1515	 2.40202478073581E-02 
1516	 2.38991603598858E-02 
1517	 2.38964390421991E-02 
1518	 2.40458681820845E-02 
1519	 0.023886078783642 
1520	 2.32658660009321E-02 
1521	 2.27488670605915E-02 
1522	 2.21364620754663E-02 
1523	 2.23779122123032E-02 
1524	 2.31399951956234E-02 
1525	 2.28397500884251E-02 
1526	 2.26406843474081E-02 
1527	 2.26819180994197E-02 
1528	 2.23867783194982E-02 
1529	 2.25700733450559E-02 
1530	 2.27543186404334E-02 
1531	 2.23814970064711E-02 
1532	 2.21734087952245E-02 
1533	 2.24999141569614E-02 
1534	 2.27800736885682E-02 
1535	 2.28120952924343E-02 
1536	 2.26447928513091E-02 
1537	 2.22081841110399E-02 
1538	 2.19611181591794E-02 
1539	 2.20784017734218E-02 
1540	 2.21426722504244E-02 
1541	 2.22344549261109E-02 
1542	 2.26119675544813E-02 
1543	 2.24527013399869E-02 
1544	 2.21974378453396E-02 
1545	 2.25517021293283E-02 
1546	 2.24103883149087E-02 
1547	 2.23355427467518E-02 
1548	 2.26406190442434E-02 
1549	 2.22471252792281E-02 
1550	 2.18678848417024E-02 
1551	 2.19512486688119E-02 
1552	 2.20309172921594E-02 
1553	 2.21541604055537E-02 
1554	 2.20787116891754E-02 
1555	 2.20970086132959E-02 
1556	 2.20370601200403E-02 
1557	 2.16322804505233E-02 
1558	 2.19782402169168E-02 
1559	 0.022138719331821 
1560	 0.021441415852596 
1561	 2.15056268349108E-02 
1562	 2.19160804421531E-02 
1563	 2.17277406438575E-02 
1564	 2.18338349294199E-02 
1565	 2.19740869959688E-02 
1566	 2.16397089693235E-02 
1567	 2.18177274582357E-02 
1568	 2.22360280856858E-02 
1569	 2.24799595831267E-02 
1570	 2.22918252999757E-02 
1571	 2.16719294152279E-02 
1572	 2.18114783986837E-02 
1573	 0.022175590571826 
1574	 2.21177723708382E-02 
1575	 2.19683686149461E-02 
1576	 2.19342346098369E-02 
1577	 0.02173744873588 
1578	 2.15451394382847E-02 
1579	 2.24615151084786E-02 
1580	 2.31620142305555E-02 
1581	 2.28658452472773E-02 
1582	 2.26275579350912E-02 
1583	 2.23841222880749E-02 
1584	 2.19591323512414E-02 
1585	 2.16523935843188E-02 
1586	 2.18746209587009E-02 
1587	 2.20162498541544E-02 
1588	 2.17315604596043E-02 
1589	 2.13041178773876E-02 
1590	 0.021285877963882 
1591	 2.18956021173837E-02 
1592	 2.19403403623088E-02 
1593	 0.021550179338751 
1594	 2.16458602123778E-02 
1595	 2.17800956088554E-02 
1596	 2.15096799698416E-02 
1597	 2.13757238027591E-02 
1598	 2.18931233579754E-02 
1599	 0.022115197032829 
1600	 2.15515443645668E-02 
1601	 2.20700788706479E-02 
1602	 0.022956347393929 
1603	 2.23663164181995E-02 
1604	 2.21387488269331E-02 
1605	 2.23987089961869E-02 
1606	 0.021837739775443 
1607	 2.16432767816825E-02 
1608	 0.02205132066385 
1609	 2.20743889845985E-02 
1610	 2.19981522557947E-02 
1611	 2.18955540668633E-02 
1612	 2.18494661382721E-02 
1613	 2.21545268802561E-02 
1614	 2.22684986839121E-02 
1615	 2.19915490669227E-02 
1616	 2.16439279465877E-02 
1617	 2.15293606531196E-02 
1618	 2.15190809549606E-02 
1619	 2.18709037295612E-02 
1620	 2.25099965677836E-02 
1621	 2.22931926117531E-02 
1622	 2.17036848929438E-02 
1623	 2.16755810297036E-02 
1624	 2.15767035795797E-02 
1625	 2.13152023511776E-02 
1626	 0.021461143116795 
1627	 2.15548778762169E-02 
1628	 0.021448994706868 
1629	 2.16540920125267E-02 
1630	 2.17711424378501E-02 
1631	 2.14406044169616E-02 
1632	 2.12923536584799E-02 
1633	 2.16016202685855E-02 
1634	 2.17231211309319E-02 
1635	 2.14333277427135E-02 
1636	 2.11715901534001E-02 
1637	 2.11560764483576E-02 
1638	 2.12660770278648E-02 
1639	 2.13729272353795E-02 
1640	 0.021340515569976 
1641	 2.15395115231463E-02 
1642	 2.18610386719028E-02 
1643	 2.18754906105077E-02 
1644	 2.18417018372743E-02 
1645	 2.14729583481114E-02 
1646	 0.021098398414765 
1647	 2.11831150957085E-02 
1648	 2.12138727722968E-02 
1649	 2.09536522994471E-02 
1650	 2.08617404226415E-02 
1651	 2.11980026209124E-02 
1652	 2.16808791201373E-02 
1653	 0.021714301363706 
1654	 2.17296334030979E-02 
1655	 2.16426520241182E-02 
1656	 2.17825931216645E-02 
1657	 2.20562703008566E-02 
1658	 2.21941690513573E-02 
1659	 2.21406145822559E-02 
1660	 2.19918836624681E-02 
1661	 2.18364084241648E-02 
1662	 2.19269114773204E-02 
1663	 2.22447261815833E-02 
1664	 2.20753972908699E-02 
1665	 2.16228879663291E-02 
1666	 2.16513922778465E-02 
1667	 2.17066412966814E-02 
1668	 2.12599929587122E-02 
1669	 2.12487620905305E-02 
1670	 2.20288181996276E-02 
1671	 0.02185871630237 
1672	 2.13741235772431E-02 
1673	 2.18908676013598E-02 
1674	 2.21032313357483E-02 
1675	 2.22040026723235E-02 
1676	 2.26323124228801E-02 
1677	 2.25806658175952E-02 
1678	 2.20942692370273E-02 
1679	 0.021783426516553 
1680	 2.19456595666762E-02 
1681	 2.21361430520855E-02 
1682	 2.18695536559021E-02 
1683	 2.15202185722401E-02 
1684	 2.15147432927153E-02 
1685	 2.14099295272314E-02 
1686	 2.12782338741308E-02 
1687	 2.14454886964923E-02 
1688	 2.14433471602403E-02 
1689	 2.15774281166892E-02 
1690	 2.17622442295341E-02 
1691	 2.12354749359088E-02 
1692	 2.09883850716792E-02 
1693	 2.10754312058467E-02 
1694	 2.13337740703494E-02 
1695	 2.23342229705263E-02 
1696	 2.23336161801352E-02 
1697	 2.16225882223575E-02 
1698	 2.23541641421543E-02 
1699	 2.25244382126957E-02 
1700	 2.18617088502696E-02 
1701	 2.25706359913599E-02 
1702	 2.23727342920206E-02 
1703	 2.14800808815919E-02 
1704	 2.20662062357166E-02 
1705	 2.17603012549328E-02 
1706	 2.04348864977385E-02 
1707	 2.08234792503994E-02 
1708	 2.17240172146914E-02 
1709	 2.13689916298939E-02 
1710	 2.16133812337453E-02 
1711	 2.20305066744513E-02 
1712	 2.09697517917792E-02 
1713	 2.17437205604678E-02 
1714	 2.19923139394868E-02 
1715	 2.07087246792606E-02 
1716	 2.13560484418793E-02 
1717	 2.25029927472366E-02 
1718	 2.20361322072534E-02 
1719	 2.20449104469851E-02 
1720	 2.20718063024269E-02 
1721	 2.07071265890801E-02 
1722	 2.06970520855981E-02 
1723	 2.22331212677838E-02 
1724	 2.29500885897773E-02 
1725	 2.30417572863037E-02 
1726	 0.023285768941143 
1727	 2.31709065077988E-02 
1728	 2.28719037459131E-02 
1729	 2.28255978275642E-02 
1730	 2.25116762491847E-02 
1731	 2.20806242611916E-02 
1732	 2.18080551883655E-02 
1733	 2.17739823555166E-02 
1734	 2.20824170425054E-02 
1735	 2.16929189061554E-02 
1736	 0.021734298651873 
1737	 2.26142538933584E-02 
1738	 2.28422751960803E-02 
1739	 2.40918824653405E-02 
1740	 2.47918767273712E-02 
1741	 2.34630234268002E-02 
1742	 2.28144981990752E-02 
1743	 2.20539251480442E-02 
1744	 2.15699613594439E-02 
1745	 0.022801885163859 
1746	 2.39385578837293E-02 
1747	 2.40197684635108E-02 
1748	 2.29366640028208E-02 
1749	 2.26866310578025E-02 
1750	 0.023195867735808 
1751	 2.31989893115414E-02 
1752	 2.27756711021002E-02 
1753	 2.34822487311306E-02 
1754	 2.41975507754942E-02 
1755	 0.023635680243379 
1756	 2.37103114826508E-02 
1757	 2.29096674373373E-02 
1758	 0.022382627459834 
1759	 2.41759622922876E-02 
1760	 2.53131234902604E-02 
1761	 2.36248843148814E-02 
1762	 2.31375192356264E-02 
1763	 2.46315140915499E-02 
1764	 2.44700365436752E-02 
1765	 2.37616961393611E-02 
1766	 2.30594649914665E-02 
1767	 0.021229829677969 
1768	 2.09231710916202E-02 
1769	 0.025085699642903 
1770	 2.90577594167631E-02 
1771	 2.88200103706786E-02 
1772	 2.80088640026155E-02 
1773	 2.60984137780454E-02 
1774	 2.50177826708725E-02 
1775	 2.89383812298304E-02 
1776	 2.82129797949129E-02 
1777	 2.30002493193362E-02 
1778	 2.15156630283902E-02 
1779	 1.81498478916106E-02 
1780	 1.81347420536044E-02 
1781	 2.52852554761688E-02 
1782	 2.82677233296478E-02 
1783	 3.00666744191551E-02 
1784	 0.032689743296575 
1785	 3.55843567138013E-02 
1786	 3.60975738516001E-02 
1787	 3.39769975324124E-02 
1788	 3.22172452962088E-02 
1789	 2.74150152164519E-02 
1790	 3.02287200458092E-02 
1791	 3.42756009257838E-02 
1792	 3.51018080006269E-02 
1793	 0.032163066627103 
1794	 2.17555745459433E-02 
1795	 1.81827037155163E-02 
1796	 4.15752131523599E-02 
1797	 5.06759647243743E-02 
1798	 3.90184566744529E-02 
1799	 3.14296450781926E-02 
1800	-3.89914914920129E-02 
1801	-5.48821963225427E-02 
1802	 5.63719310130286E-02 
1803	 9.63936927760899E-02 
1804	 0.145443131090274 
1805	 0.161896385131668 
1806	-5.13543450772602E-02 
1807	-0.130978775841989 
1808	-0.117785481879762 
1809	-7.47567205044011E-02 
1810	 0.27428723947663 
1811	 0.356230289820334 
1812	 0.33996125169386 
1813	 0.64791218286528 
1814	-3.9370880540449 
1815	-1.29864380289597 
1816	 0.94094443954778 
1817	 0.849935574101825 
1818	 0.678888067917451 
1819	 3.21386609267076E-02 
1820	-0.779794509371421 
1821	-1.15882125016119 
1822	-1.08683929654168 
1823	-0.348481631230577 
1824	 0.149824201401288 
1825	 2.2884008851022 
1826	 3.22806560421948 
1827	 0.839395045345537 
1828	 0.284774087945065 
1829	-6.45053618278536E-02 
1830	-8.00487763236922E-02 
1831	-0.460302899748479 
1832	-0.591609299120577 
1833	-0.493519319860093 
1834	-0.632798402241151 
1835	-0.70741188421299 
1836	-0.56510487745258 
1837	 0.614544850218401 
1838	-2.35836280052197E-02 
1839	-0.730964559409087 
1840	 77.1459426724829 
1841	-4.00296921195132 
1842	-1.97388042428707 
1843	-2.00909554741564 
1844	-0.524039757569237 
1845	-0.821276698409203 
1846	 0.757914793019289 
1847	 0.689347035575881 
1848	 1.03803887514939 
1849	 1.55918821134783 
1850	 2.18278585036076 
1851	 1.77927562296231 
1852	 0.431681101607752 
1853	 6.98682393176731E-02 
1854	 4.29014667221762E-02 
1855	 0.775547769437316 
1856	 0.981190528713215 
1857	-1.73005229134779 
1858	-0.655983929858832 
1859	 1.32545224334366 
1860	-8.4302258400533 
1861	 1.70076570336986 
1862	 0.978055245917898 
1863	-6.44333540458046 
1864	-2.26270256153944 
1865	 15.5913762238647 
1866	-38.5306079845841 
1867	-2.37384811549688 
1868	-0.231008050716298 
1869	 0.336925155102653 
1870	 0.656132051288987 
1871	 0.390285423154402 
1872	 0.321054977158403 
1873	 0.507960856490355 
1874	 0.100828349625568 
1875	-0.430225702944016 
1876	-0.360193343012853 
1877	-0.147472133907972 
1878	-0.262630041845278 
1879	 0.104770473609369 
1880	 0.550385843489518 
1881	 0.819207211498693 
1882	 0.416456874474132 
1883	 2.00045935316589 
1884	-3.2500099699464 
1885	 4.3018281095076 
1886	 7.21107204626151 
1887	-1.91073358190002 
1888	 0.417198308189128 
1889	 0.222648753392242 
1890	 0.110931999683237 
1891	 4.69904070568132E-02 
1892	-0.143382964581915 
1893	 4.90310840524711E-02 
1894	 0.330763394703336 
1895	-0.099886715129769 
1896	-0.352333859680178 
1897	-0.601635066894044 
1898	-0.772131110436244 
1899	-0.664524869384711 
1900	-0.441302025444372 
1901	 1.06695317197573 
1902	 1.63936207869352 
1903	 0.120937796808698 
1904	-0.50399072331265 
1905	-0.322570277826035 
1906	 24.126670861312 
1907	 4.75434777636167 
1908	-6.81526539072473E-02 
1909	-0.730061910455148 
1910	-0.929852306461305 
1911	 10.0108621520068 
1912	-13.3250948087846 
1913	-5.36357504823318 
1914	-7.76741001203831 
1915	-8.16737056690254 
1916	 4.42877904086666E-02 
1917	 2.97990396167783 
1918	-1.09241498717297 
1919	-0.894451808652338 
1920	-0.244093077049667 
1921	-0.108728611590195 
1922	 0.259028434458168 
1923	 0.929955119665787 
1924	 8.13485956821103 
1925	 13.9506128372727 
1926	 22.1703952666124 
1927	-6.11830466531471 
1928	 22.1578142389536 
1929	 2.00241135145046 
1930	 0.992213241202224 
1931	 0.590881704480943 
1932	 7.44151497903789E-02 
1933	-0.131140619304281 
1934	 0.245196612896066 
1935	 0.061358881284604 
1936	-0.386414229819574 
1937	-0.466591706656778 
1938	-0.368140778267946 
1939	-0.144700953054054 
1940	 0.279423240905681 
1941	 0.224207596966528 
1942	 9.13805875504955E-02 
1943	-0.155863704225112 
1944	-0.295367439572426 
1945	-0.277628960812536 
1946	-0.463536016050862 
1947	-7.26963051021422E-02 
1948	 6.03941379032637E-02 
1949	-5.63453351338856E-02 
1950	 0.166604138984405 
1951	 0.24091794597522 
1952	 0.261627796806033 
1953	 0.210515734206619 
1954	 0.179127288974516 
1955	 0.152878590629365 
1956	 0.12580798340031 
1957	 0.123048394161251 
1958	 0.146205192266435 
1959	 9.39985286093468E-02 
1960	 4.40114945569197E-02 
1961	 3.79806352846362E-02 
1962	 2.90766771734409E-02 
1963	 2.99860209558536E-02 
1964	 4.14864083883017E-02 
1965	 4.02527823597817E-02 
1966	 3.89078462525721E-02 
1967	 3.37731555749661E-02 
1968	 3.03794322649377E-02 
1969	 3.30033785750523E-02 
1970	 3.56818420935605E-02 
1971	 2.96291964567406E-02 
1972	 2.90343810598792E-02 
1973	 3.16371270307494E-02 
1974	 2.93396640861674E-02 
1975	 3.13490604703955E-02 
1976	 3.64294476233699E-02 
1977	 3.56216176916084E-02 
1978	 3.02837826705821E-02 
1979	 2.69586276584666E-02 
1980	 2.24975109340706E-02 
1981	 2.15529045981842E-02 
1982	 1.96008367169269E-02 
1983	 1.75820242804016E-02 
1984	 2.09006889906524E-02 
1985	 2.15341862039137E-02 
1986	 2.18714614227923E-02 
1987	 2.62487749695764E-02 
1988	 3.01060083601728E-02 
1989	 3.22269367506013E-02 
1990	 3.11826103921997E-02 
1991	 3.04556839914732E-02 
1992	 3.08697728155372E-02 
1993	 2.84687454042277E-02 
1994	 2.73628022931277E-02 
1995	 2.81033081850086E-02 
1996	 2.94747166239071E-02 
1997	 2.81749701826097E-02 
1998	 2.71509238871116E-02 
1999	 0.024793229034257 
2000	 2.36916114511872E-02 
2001	 2.08701581161949E-02 
2002	 2.13409143662453E-02 
2003	 3.20157976426394E-02 
2004	 4.05527563346315E-02 
2005	 4.30222888283817E-02 
2006	 4.69017432962822E-02 
2007	 4.05587790253809E-02 
2008	 2.19263785464394E-02 
2009	 1.72721033421964E-02 
2010	 2.43889551809175E-02 
2011	 2.53331893730364E-02 
2012	 2.64034370150352E-02 
2013	 3.19231281944449E-02 
2014	 3.70233490542138E-02 
2015	 2.77969477682643E-02 
2016	 0.021519003490477 
2017	 2.86802481247489E-02 
2018	 2.89878493560001E-02 
2019	 2.55461006721583E-02 
2020	 2.49487612228806E-02 
2021	 2.20792835396443E-02 
2022	 2.31614468089471E-02 
2023	 2.62859884549721E-02 
2024	 2.69934241538885E-02 
2025	 2.81667157629447E-02 
2026	 2.85925182948597E-02 
2027	 2.72669235285227E-02 
2028	 2.67826910370595E-02 
2029	 2.83064995711237E-02 
2030	 2.82087906371784E-02 
2031	 2.83410983475021E-02 
2032	 2.86198225288731E-02 
2033	 2.90922636660915E-02 
2034	 2.84998365572227E-02 
2035	 2.71593117487183E-02 
2036	 2.76257508670455E-02 
2037	 2.72748651326829E-02 
2038	 2.66945823013163E-02 
2039	 2.60657348437462E-02 
2040	 2.49275624373597E-02 
2041	 2.44810553548195E-02 
2042	 2.34974298160723E-02 
2043	 0.02433564416413 
2044	 2.74159472649751E-02 
2045	 2.96224095534907E-02 
2046	 3.02203533758818E-02 
2047	 3.02792973718343E-02 
2048	 2.75653205562977E-02 
2049	 2.62329267797641E-02 
2050	 2.74881041136941E-02 
2051	 2.90351226937778E-02 
2052	 3.02275631747954E-02 
2053	 2.81788980137967E-02 
2054	 2.50790370251624E-02 
2055	 2.05297345296155E-02 
2056	 1.72875357603165E-02 
2057	 1.36880864653922E-02 
2058	 1.33052877818737E-02 
2059	 1.62197247117759E-02 
2060	 1.77682028051368E-02 
2061	 0.020629216087346 
2062	 2.28877690535176E-02 
2063	 2.48964620327147E-02 
2064	 2.34893490625577E-02 
2065	 2.20433114570649E-02 
2066	 2.30391954167347E-02 
2067	 2.36154450903955E-02 
2068	 2.23295299178933E-02 
2069	 2.17238099429716E-02 
2070	 2.27843821038561E-02 
2071	 2.29236527094834E-02 
2072	 2.36571772726321E-02 
2073	 2.40509554399293E-02 
2074	 2.43722789407497E-02 
2075	 2.47196500425199E-02 
2076	 0.025064455725154 
2077	 2.54996113421785E-02 
2078	 2.69903922316275E-02 
2079	 2.65809363911525E-02 
2080	 2.46569764162148E-02 
2081	 2.40591831238069E-02 
2082	 2.28503081295379E-02 
2083	 2.17924503663447E-02 
2084	 0.022921816636028 
2085	 2.39614285714455E-02 
2086	 2.35196739015544E-02 
2087	 2.26019169155728E-02 
2088	 2.25443710741867E-02 
2089	 2.13496777268348E-02 
2090	 2.04737644939341E-02 
2091	 0.020584977446058 
2092	 2.12819470871127E-02 
2093	 2.36004406762335E-02 
2094	 2.33335436895479E-02 
2095	 2.24820915167269E-02 
2096	 2.25404972781747E-02 
2097	 2.01093465126766E-02 
2098	 1.98980641488847E-02 
2099	 2.25148710219784E-02 
2100	 2.24213822341049E-02 
2101	 2.32168459871517E-02 
2102	 2.58355401225546E-02 
2103	 2.48347646721901E-02 
2104	 2.47812341609523E-02 
2105	 2.54912179675809E-02 
2106	 2.37099484698366E-02 
2107	 2.34213387882847E-02 
2108	 2.59979918870295E-02 
2109	 2.70616013144657E-02 
2110	 2.68011546199442E-02 
2111	 2.81018427065447E-02 
2112	 2.80098041534012E-02 
2113	 2.69311944475217E-02 
2114	 2.44854537192693E-02 
2115	 2.38255601156388E-02 
2116	 2.30783637561497E-02 
2117	 2.23719301310069E-02 
2118	 2.23860394296307E-02 
2119	 2.18958668507548E-02 
2120	 0.020509749799149 
2121	 1.99057833572692E-02 
2122	 1.99264838739864E-02 
2123	 2.08679518030584E-02 
2124	 0.024441940750559 
2125	 2.63442077210638E-02 
2126	 2.51593779610202E-02 
2127	 2.60250751891328E-02 
2128	 2.50442660698006E-02 
2129	 2.30182441706983E-02 
2130	 2.37445473407961E-02 
2131	 2.42440457822771E-02 
2132	 0.025453688103247 
2133	 2.56311397978532E-02 
2134	 2.47187537085784E-02 
2135	 2.25375959603899E-02 
2136	 2.22447571363062E-02 
2137	 2.13789764856753E-02 
2138	 2.10807467119981E-02 
2139	 2.22010209396806E-02 
2140	 0.023161450347438 
2141	 0.024127021535405 
2142	 0.025248399302678 
2143	 2.72497483124237E-02 
2144	 2.87098238637231E-02 
2145	 2.92971473149211E-02 
2146	 2.85500585198684E-02 
2147	 2.74367048517137E-02 
2148	 2.67293357693062E-02 
2149	 0.026303005698655 
2150	 2.50718365652313E-02 
2151	 0.024322201100954 
2152	 0.024279097351031 
2153	 2.36012905714623E-02 
2154	 2.33765230304621E-02 
2155	 2.29012080090283E-02 
2156	 0.022154995770199 
2157	 2.30033490370703E-02 
2158	 2.58505856144144E-02 
2159	 2.58440211709988E-02 
2160	 2.54446058197414E-02 
2161	 2.52330408736563E-02 
2162	 0.023615867328634 
2163	 2.25282637874154E-02 
2164	 2.23129645053044E-02 
2165	 2.15697216385914E-02 
2166	 1.84681894986811E-02 
2167	 0.018204404962534 
2168	 2.16720069788272E-02 
2169	 2.17269281599311E-02 
2170	 2.19147292026083E-02 
2171	 2.00463586964966E-02 
2172	 1.57166033577831E-02 
2173	 1.41796798324861E-02 
2174	 1.52320275098007E-02 
2175	 1.74229531487473E-02 
2176	 2.07768184872361E-02 
2177	 2.09855690618255E-02 
2178	 1.87664581658986E-02 
2179	 2.02476863196557E-02 
2180	 2.15623011077749E-02 
2181	 2.23497941174768E-02 
2182	 2.67610569054717E-02 
2183	 2.88866617256398E-02 
2184	 2.92065515374089E-02 
2185	 2.84199067046103E-02 
2186	 2.77551868519491E-02 
2187	 2.54670315390119E-02 
2188	 2.50494433207269E-02 
2189	 2.52929813335181E-02 
2190	 2.51991025040322E-02 
2191	 2.54918826975782E-02 
2192	 2.51626837466005E-02 
2193	 2.48248418942664E-02 
2194	 2.51047160360694E-02 
2195	 2.51389776061119E-02 
2196	 0.025457426713944 
2197	 2.67807966134703E-02 
2198	 2.64459788942561E-02 
2199	 2.49200458887523E-02 
2200	 2.50751466008845E-02 
2201	 2.46194742803195E-02 
2202	 2.30622323828012E-02 
2203	 2.39891918787477E-02 
2204	 2.23686550631421E-02 
2205	 1.90154455277922E-02 
2206	 1.69909668625196E-02 
2207	 1.38062162287879E-02 
2208	 1.41474658505068E-02 
2209	 1.81397812623201E-02 
2210	 2.12493131183604E-02 
2211	 2.48983935482949E-02 
2212	 2.63994198970372E-02 
2213	 2.28194402226656E-02 
2214	 2.05454625326169E-02 
2215	 2.02616427381193E-02 
2216	 2.01022154656681E-02 
2217	 2.04544263714914E-02 
2218	 2.20788871607382E-02 
2219	 2.30163714940731E-02 
2220	 2.50413332069484E-02 
2221	 2.51907914972191E-02 
2222	 2.40224279783708E-02 
2223	 2.41185478111667E-02 
2224	 2.36668618817871E-02 
2225	 2.12552671890733E-02 
2226	 1.80370708144347E-02 
2227	 1.74453896628009E-02 
2228	 0.015742906995501 
2229	 0.016634900830302 
2230	 2.24646068728646E-02 
2231	 2.40098241842643E-02 
2232	 0.023676079211371 
2233	 2.40444611417247E-02 
2234	 2.29165940686363E-02 
2235	 2.36318521857338E-02 
2236	 2.49953041141256E-02 
2237	 2.17674283147586E-02 
2238	 1.91109358205578E-02 
2239	 1.95553237308789E-02 
2240	 2.13031245818499E-02 
2241	 2.66482930872468E-02 
2242	 2.70061694232958E-02 
2243	 2.67263194507784E-02 
2244	 2.90545198593347E-02 
2245	 2.79834335944961E-02 
2246	 3.27014479890246E-02 
2247	 3.47663145209384E-02 
2248	 2.64114181221044E-02 
2249	 2.15883098918438E-02 
2250	 1.75097090813863E-02 
2251	 1.28090293045632E-02 
2252	 1.86392252024074E-02 
2253	 2.55535384166396E-02 
2254	 2.86725480335137E-02 
2255	 3.37223881098817E-02 
2256	 3.49906376671237E-02 
2257	 3.35085844972135E-02 
2258	 2.62892583932621E-02 
2259	 2.02018071139277E-02 
2260	 1.97365816447155E-02 
2261	 2.09998844831913E-02 
2262	 1.97176148254801E-02 
2263	 2.51299962257613E-02 
2264	 2.50618976927671E-02 
2265	 1.80659824056939E-02 
2266	 1.63315474178794E-02 
2267	 1.61707317997703E-02 
2268	 1.57142071730768E-02 
2269	 1.80847484613113E-02 
2270	 0.016604373864384 
2271	 1.27947887930324E-02 
2272	 1.14452459338197E-02 
2273	 6.14506555401829E-03 
2274	 7.4855640147334E-03 
2275	 1.59979719846073E-02 
2276	 1.94029972571692E-02 
2277	 2.68579642644155E-02 
2278	 2.64986017871573E-02 
2279	 1.26311904942136E-02 
2280	 1.23549253794729E-02 
2281	 1.83545992119962E-02 
2282	 2.04049038579984E-02 
2283	 2.35068913334899E-02 
2284	 3.43632986833755E-02 
2285	 3.37681319043965E-02 
2286	 2.56047614005346E-02 
2287	 2.05437940493895E-02 
2288	 2.20882962028218E-02 
2289	 2.74039620454568E-02 
2290	 2.85430047790009E-02 
2291	 3.39593895795155E-02 
2292	 3.47345572168408E-02 
2293	 0.019151307896946 
2294	 1.31380674333615E-02 
2295	 1.71727767383504E-02 
2296	 1.36981628288205E-02 
2297	 1.90984956119035E-02 
2298	 3.10626192582789E-02 
2299	 3.09689099205974E-02 
2300	 2.67733111649467E-02 
2301	 2.45668555871187E-02 
2302	 1.97797707961959E-02 
2303	 1.47690042172645E-02 
2304	 1.39672349564696E-02 
2305	 2.09050480724219E-02 
2306	 2.55906255455736E-02 
2307	 2.07595759111866E-02 
2308	 1.77963120644254E-02 
2309	 1.82410712945138E-02 
2310	 1.12094327005771E-02 
2311	 3.76507115738713E-03 
2312	 4.77037841499521E-03 
2313	 6.76243511519365E-03 
2314	 9.44247530840476E-03 
2315	 1.55820140780974E-02 
2316	 2.37078866198162E-02 
2317	 0.024429259599624 
2318	 0.023781057539145 
2319	 2.42082585843405E-02 
2320	 1.81182483415922E-02 
2321	 0.023886124252922 
2322	 2.39202092644719E-02 
2323	 1.84876180007324E-02 
2324	 2.48031718138155E-02 
2325	 1.89986484795516E-02 
2326	 1.47092313062199E-02 
2327	 2.15647052755921E-02 
2328	 2.90172567852142E-02 
2329	 3.91121145043875E-02 
2330	 3.92436326669444E-02 
2331	 3.02967523936422E-02 
2332	 3.11079299722818E-02 
2333	 2.76401828903388E-02 
2334	 1.86428144634512E-02 
2335	 2.69133817167417E-02 
2336	 3.26522678345374E-02 
2337	 0.039781863513532 
2338	 5.64560787251811E-02 
2339	 0.051440609097124 
2340	 3.93473533501531E-02 
2341	 4.52426924509892E-02 
2342	 4.84130882953324E-02 
2343	 4.60407089765925E-02 
2344	 5.47086591038202E-02 
2345	 6.07279592714186E-02 
2346	 3.35707571385117E-02 
2347	-2.1392727470923E-03 
2348	-5.20979120588928E-03 
2349	-1.71888452123778E-02 
2350	-1.65254469791043E-02 
2351	 1.18331490876703E-02 
2352	 9.33413084843754E-03 
2353	 2.37012474367237E-03 
2354	 1.51597699218657E-02 
2355	 2.72534790308382E-02 
2356	 0.0221541732166 
2357	 1.76644916027506E-02 
2358	 5.26114364020228E-03 
2359	-1.84110309315277E-02 
2360	-2.14437700428742E-02 
2361	-2.06080981599714E-03 
2362	 3.25838853314043E-02 
2363	 5.30350303715014E-02 
2364	 6.02398130688328E-02 
2365	 6.37987299881245E-02 
2366	 3.06168263379732E-02 
2367	 4.5129381997753E-03 
2368	 2.6535629483889E-03 
2369	-9.1607861100152E-03 
2370	 8.07251985782326E-03 
2371	 3.20705989897067E-02 
2372	 5.42039366736187E-02 
2373	 0.111339246357028 
2374	 0.116193624863592 
2375	 8.83899699073756E-02 
2376	 0.12988169083252 
2377	 0.149422759214229 
2378	 0.124897587951289 
2379	 0.132859065684147 
2380	 8.32625735631186E-02 
2381	 1.65363190693028E-02 
2382	 4.14979165780783E-02 
2383	 7.83667265512916E-02 
2384	 7.74100635205953E-02 
2385	 8.18728280528003E-02 
2386	 2.00113542091166E-02 
2387	-0.164811027896955 
2388	-0.298740718381685 
2389	-0.272232169804331 
2390	-0.222329027402787 
2391	-0.124654244826797 
2392	 6.38039901462344E-02 
2393	 0.16816888143891 
2394	 0.10307515182815 
2395	 4.59645298317391E-02 
2396	-1.19184855638457E-02 
2397	-0.173159254108422 
2398	-0.191883046938777 
2399	-0.100063670284046 
2400	-0.124726858034977 
2401	-4.14407164947915E-02 
2402	 3.25059893078859E-02 
2403	 1.54433193366833E-02 
2404	 4.45121532206386E-02 
2405	-1.08541478433084E-02 
2406	-8.33935641119514E-02 
2407	-0.119354785990326 
2408	-0.141560124195427 
2409	-5.85475855227967E-02 
2410	 1.86814457717419E-02 
2411	 0.185036528020376 
2412	 0.230474307912573 
2413	-3.58397549071745E-02 
2414	-9.46424438700169E-02 
2415	-8.62674637679227E-02 
2416	-0.191800135353423 
2417	-4.40159088039598E-02 
2418	-0.064214173823395 
2419	-0.147741555868089 
2420	-2.70902860444303E-02 
2421	-0.129727823377375 
2422	-0.316429835867673 
2423	-0.194948876742993 
2424	-7.85081168701485E-02 
2425	-3.78852313543913E-02 
2426	 8.02749140928165E-02 
2427	 0.1572164520898 
2428	 0.142316866256274 
2429	 0.400018451069571 
2430	 0.643092077667167 
2431	 0.367105844792582 
2432	 0.128973482395301 
2433	 2.7441083585874E-03 
2434	-0.247983398363219 
2435	-0.569297308896221 
2436	-5.98094431087515 
2437	 1.64440737622047 
2438	 1.18854631218897 
2439	 1.0606824497063 
2440	 14.0560421159846 
2441	-7.09743342585848 
2442	-7.15179559849106 
2443	-0.970459700583205 
2444	-0.267444890255311 
2445	 0.509034970996947 
2446	 0.36571024080718 
2447	 0.355832591165142 
2448	 0.250138568154515 
2449	-0.273121504132155 
2450	-0.960840819229359 
2451	-0.80851077467534 
2452	-2.20631066467991 
2453	-28.9853251845869 
2454	 14.7027666903511 
2455	-39.7099233479352 
2456	-1.06618264831369 
2457	-0.225860270860338 
2458	-0.55127136992699 
2459	-0.572871019511481 
2460	-1.15950429427916 
2461	-10.1387945677388 
2462	-14.2662506971618 
2463	-3.92399725957452 
2464	 45.9971216111093 
2465	 8.73269950557757 
2466	-6.39965462783376 
2467	 24.6395492393896 
2468	 3.22225579433141 
2469	 7.23075789596035 
2470	-0.92030195343629 
2471	 6.60887924952666E-02 
2472	 6.99432922598192 
2473	-8.68817460554756 
2474	-5.24098859174858 
2475	-5.53517750566421 
2476	 16.6866977652678 
2477	 16.2901738211097 
2478	 4.01064640092577 
2479	-0.849680699084976 
2480	-0.235583371635068 
2481	 0.277127713888684 
2482	 0.772065551688242 
2483	 0.771799739361233 
2484	-0.764740736469216 
2485	-1.4118629073347 
2486	 1.4723762639739 
2487	-2.93143487537816 
2488	-182.813898266896 
2489	 2.24623449413524 
2490	 1.37046339216941 
2491	 0.291561468222048 
2492	 1.86900366237689 
2493	 3.04158946531753 
2494	-13.06678439434 
2495	 2.21027552043972 
2496	 0.288746273676622 
2497	-0.160582734082202 
2498	-0.498221929620051 
2499	-1.24857260320895 
2500	-0.663608494314297 
