Wavelength	rt0805far00005.asd
350	 7.08869719769295E-02 
351	 6.96038548827193E-02 
352	 0.070075467948529 
353	 7.07662357541858E-02 
354	 7.04953494714612E-02 
355	 7.06163368759545E-02 
356	 7.00069195924533E-02 
357	 6.96721416310992E-02 
358	 7.05271307396275E-02 
359	 7.03244258558554E-02 
360	 7.01997875917819E-02 
361	 7.06318234963432E-02 
362	 7.13957207430904E-02 
363	 7.07764762403313E-02 
364	 7.04542024086802E-02 
365	 7.08998535894191E-02 
366	 7.01230324064962E-02 
367	 7.02986272515101E-02 
368	 7.07554947542366E-02 
369	 7.06148127318406E-02 
370	 7.10209622268676E-02 
371	 7.14636850664252E-02 
372	 7.16528364520554E-02 
373	 7.15303383022725E-02 
374	 7.17871397275221E-02 
375	 7.15416284677741E-02 
376	 7.08487228986517E-02 
377	 7.12023801437478E-02 
378	 7.18187335615298E-02 
379	 7.25229272709289E-02 
380	 7.30996320761028E-02 
381	 7.27775346390911E-02 
382	 7.26202638694211E-02 
383	 7.25419944062652E-02 
384	 7.20954176198908E-02 
385	 7.25133734818842E-02 
386	 7.32571275330825E-02 
387	 7.37514128704684E-02 
388	 0.073634457390915 
389	 0.074220461917437 
390	 7.44957151550969E-02 
391	 0.073962256746463 
392	 7.45236563395721E-02 
393	 0.074257074705908 
394	 7.39330680650983E-02 
395	 7.47759219428936E-02 
396	 7.48898767070529E-02 
397	 7.49831918146198E-02 
398	 7.52527533904771E-02 
399	 0.07533919001054 
400	 7.53176467910048E-02 
401	 7.53349653803933E-02 
402	 7.54363277930624E-02 
403	 7.53947246092842E-02 
404	 0.075614559568279 
405	 7.59562611072981E-02 
406	 7.61145541781446E-02 
407	 7.61398891417137E-02 
408	 0.07601809513555 
409	 7.58630625117379E-02 
410	 7.59019573969066E-02 
411	 7.62349703008189E-02 
412	 7.65084417731572E-02 
413	 7.65362113607192E-02 
414	 7.67012338946532E-02 
415	 7.69547076745321E-02 
416	 7.72161330823107E-02 
417	 7.73837528186626E-02 
418	 7.73472593545894E-02 
419	 7.74911003247258E-02 
420	 7.78195075355053E-02 
421	 7.79140679408721E-02 
422	 7.81246929982072E-02 
423	 7.83378772488536E-02 
424	 7.84510020775134E-02 
425	 0.078662462336109 
426	 0.078816839017152 
427	 7.89163642930144E-02 
428	 7.90639392138631E-02 
429	 7.94846985691038E-02 
430	 7.98415597490699E-02 
431	 8.00135522445346E-02 
432	 8.01949776028505E-02 
433	 8.04663631769281E-02 
434	 8.07328476690534E-02 
435	 8.09447044405682E-02 
436	 8.13242337924695E-02 
437	 8.16922514403241E-02 
438	 8.20124876510205E-02 
439	 8.23341474779336E-02 
440	 8.27108024504764E-02 
441	 8.30539996516065E-02 
442	 8.33555406092673E-02 
443	 8.37481842657566E-02 
444	 8.40796433727738E-02 
445	 0.084431193250576 
446	 8.48795615019072E-02 
447	 8.52317474412115E-02 
448	 8.56179759846941E-02 
449	 8.59701268495431E-02 
450	 8.61034028097786E-02 
451	 8.63147472621596E-02 
452	 8.65297384373586E-02 
453	 8.66822209770063E-02 
454	 8.68255258400607E-02 
455	 8.70920324061005E-02 
456	 8.73571480448383E-02 
457	 8.74812666530048E-02 
458	 8.78305360988769E-02 
459	 8.79468973301012E-02 
460	 8.78933495910448E-02 
461	 8.82536257271529E-02 
462	 8.83120265665825E-02 
463	 8.84073103180695E-02 
464	 8.87812939155659E-02 
465	 8.88071755686058E-02 
466	 8.90167295188824E-02 
467	 8.93117558721296E-02 
468	 0.089367037937222 
469	 8.96333599603379E-02 
470	 8.99031654826206E-02 
471	 9.00823651378235E-02 
472	 9.03073398821528E-02 
473	 9.04084829917249E-02 
474	 9.06149235449594E-02 
475	 9.10612431627948E-02 
476	 9.11626979737485E-02 
477	 9.14411271294281E-02 
478	 9.18494751153995E-02 
479	 9.19894583024485E-02 
480	 0.092246969870827 
481	 9.25481899263188E-02 
482	 9.27765064126178E-02 
483	 9.28189346812752E-02 
484	 9.32256457382303E-02 
485	 0.09370648524596 
486	 9.38411757398558E-02 
487	 9.43867292210147E-02 
488	 9.48000434671763E-02 
489	 9.49893634445142E-02 
490	 9.53542082823198E-02 
491	 9.58992053372968E-02 
492	 9.64197079566913E-02 
493	 9.68027574634443E-02 
494	 9.73196772082914E-02 
495	 9.78003833304425E-02 
496	 9.83153009050538E-02 
497	 0.099008883922533 
498	 9.95780118111945E-02 
499	 0.100029971483114 
500	 0.100492016530334 
501	 0.101222585633339 
502	 0.101795185059361 
503	 0.10237863382299 
504	 0.103200804938727 
505	 0.10402150221509 
506	 0.104569842226704 
507	 0.105030617443842 
508	 0.105890044958758 
509	 0.106509362693015 
510	 0.107044894805011 
511	 0.107681801110856 
512	 0.108384387501 
513	 0.109016504273717 
514	 0.109644416990725 
515	 0.110393754787886 
516	 0.111115886516359 
517	 0.111897085967363 
518	 0.11272932765257 
519	 0.113472349842422 
520	 0.114239295643516 
521	 0.115025098681237 
522	 0.115794715687242 
523	 0.116483899471319 
524	 0.117179470110604 
525	 0.117960148544815 
526	 0.118873280781469 
527	 0.119679123964556 
528	 0.12042169447816 
529	 0.121174483234667 
530	 0.121986692843379 
531	 0.122792207224682 
532	 0.123585497716377 
533	 0.124392967205296 
534	 0.125303724218378 
535	 0.126231305385345 
536	 0.12709275049554 
537	 0.127819135839759 
538	 0.128673243422928 
539	 0.129609122969415 
540	 0.130527014035739 
541	 0.131441264783002 
542	 0.132281170435985 
543	 0.133120589287278 
544	 0.134103497914822 
545	 0.135074191946251 
546	 0.135982034292777 
547	 0.136803658138233 
548	 0.137515766282786 
549	 0.138441920777162 
550	 0.13943395561583 
551	 0.140244503355802 
552	 0.141138689295428 
553	 0.142021172620505 
554	 0.142856011170504 
555	 0.143691896128969 
556	 0.144525865665079 
557	 0.145356410815518 
558	 0.146175776904169 
559	 0.146995604215753 
560	 0.147758087034401 
561	 0.148449454307426 
562	 0.149103073364604 
563	 0.149870887904643 
564	 0.150565320158512 
565	 0.151107215722352 
566	 0.151719328462124 
567	 0.152221569736243 
568	 0.152678756206864 
569	 0.153203556697515 
570	 0.153650412786659 
571	 0.15408301704259 
572	 0.154483014662461 
573	 0.154734661937662 
574	 0.155015587917448 
575	 0.155299515865527 
576	 0.155523428531116 
577	 0.155680377850849 
578	 0.155751129565086 
579	 0.155795750647893 
580	 0.155895470250487 
581	 0.155830284172649 
582	 0.155720442847024 
583	 0.155625473684632 
584	 0.15540965820828 
585	 0.155237242607049 
586	 0.155066579762551 
587	 0.154832294529461 
588	 0.154860975066804 
589	 0.154672895116143 
590	 0.154159100506859 
591	 0.153656839185146 
592	 0.153371175430458 
593	 0.152938294604646 
594	 0.152111601711142 
595	 0.151333728124643 
596	 0.150501915531085 
597	 0.149566904368105 
598	 0.148514413186395 
599	 0.147335480630698 
600	 0.146269780199174 
601	 0.145476471178037 
602	 0.144936229447962 
603	 0.144563977143624 
604	 0.14426161150538 
605	 0.143984076539962 
606	 0.143960488728019 
607	 0.143837694252852 
608	 0.143630271522145 
609	 0.143732940555636 
610	 0.143528984399625 
611	 0.143308852731182 
612	 0.143322582619892 
613	 0.143119482889932 
614	 0.142928202906596 
615	 0.142811927074886 
616	 0.142726946262869 
617	 0.142520351887056 
618	 0.142322740654632 
619	 0.142188890428195 
620	 0.142000915389919 
621	 0.141936918271438 
622	 0.14187075953502 
623	 0.141660375405635 
624	 0.141590066630888 
625	 0.141569150898466 
626	 0.141510711652741 
627	 0.141355088098791 
628	 0.141237169415681 
629	 0.141130440259151 
630	 0.140994282564593 
631	 0.140852127243099 
632	 0.140647608689231 
633	 0.140411868287141 
634	 0.14021261033123 
635	 0.140032684731425 
636	 0.139973340710034 
637	 0.139996992431369 
638	 0.139863619217275 
639	 0.139560967811971 
640	 0.139270716973043 
641	 0.139163435417077 
642	 0.13907188996384 
643	 0.139070450854129 
644	 0.139093777722564 
645	 0.138974725975062 
646	 0.138998829271206 
647	 0.138852318735868 
648	 0.138365022020653 
649	 0.137899787477791 
650	 0.137650065381833 
651	 0.137386719556878 
652	 0.136790107712518 
653	 0.136103046888091 
654	 0.135324483328117 
655	 0.134442348790839 
656	 0.133565130434202 
657	 0.132623988700347 
658	 0.131660635568305 
659	 0.13072018865084 
660	 0.129911929755104 
661	 0.129051420231182 
662	 0.128217394681343 
663	 0.127629165017436 
664	 0.126958072718894 
665	 0.126285608701642 
666	 0.125664817994383 
667	 0.125011643580606 
668	 0.124481689588128 
669	 0.124098676907601 
670	 0.123850937337343 
671	 0.123809926885826 
672	 0.123679335798001 
673	 0.123482655714343 
674	 0.123541264910075 
675	 0.123667483513371 
676	 0.123825296674347 
677	 0.124023299404884 
678	 0.124296028035378 
679	 0.124780604817825 
680	 0.125371483767895 
681	 0.125883950412329 
682	 0.126459268781155 
683	 0.127152029276533 
684	 0.127938724089426 
685	 0.128783867873813 
686	 0.129925903005528 
687	 0.130829289649781 
688	 0.131061951648938 
689	 0.131438272930602 
690	 0.131858468172913 
691	 0.132285235314996 
692	 0.132674365670327 
693	 0.132703910617985 
694	 0.132349412188442 
695	 0.131793085147105 
696	 0.131274418962605 
697	 0.130849936854266 
698	 0.130430888116859 
699	 0.129884292222141 
700	 0.12896786209862 
701	 0.127944094656572 
702	 0.126888932603713 
703	 0.125665028189172 
704	 0.124575055062886 
705	 0.123382305511964 
706	 0.121968178496703 
707	 0.120502263571046 
708	 0.119021624791671 
709	 0.117416159601553 
710	 0.11558370663107 
711	 0.113751280838296 
712	 0.111811662792432 
713	 0.109833319906696 
714	 0.108043064577629 
715	 0.106715572204269 
716	 0.105259479599228 
717	 0.103155233264182 
718	 0.101145465156769 
719	 9.83396739761253E-02 
720	 9.56130575954601E-02 
721	 9.33929527557738E-02 
722	 9.18214274669294E-02 
723	 8.99859752248423E-02 
724	 8.77465777387704E-02 
725	 8.54449896851839E-02 
726	 8.31518259411271E-02 
727	 8.07462544796245E-02 
728	 7.81558069757631E-02 
729	 0.075579767526767 
730	 7.27647675571485E-02 
731	 7.00538820937821E-02 
732	 0.067726122447012 
733	 0.066085630025587 
734	 6.46421819582107E-02 
735	 0.063302632217989 
736	 6.24630078025605E-02 
737	 6.17597361479491E-02 
738	 0.061085381030922 
739	 6.04800704215936E-02 
740	 6.01653251145333E-02 
741	 5.99669197692368E-02 
742	 5.98099375346299E-02 
743	 5.96692095571881E-02 
744	 5.94916431459975E-02 
745	 5.93586641517751E-02 
746	 5.93285704335481E-02 
747	 5.94089603441521E-02 
748	 5.94046949862936E-02 
749	 5.92625297750382E-02 
750	 5.90609902503431E-02 
751	 5.91522952579335E-02 
752	 5.91967292336273E-02 
753	 5.91275626911292E-02 
754	 0.059055989316101 
755	 5.91544624103749E-02 
756	 5.92676662991802E-02 
757	 5.93504406949002E-02 
758	 5.96186653627681E-02 
759	 6.03004178205716E-02 
760	 6.09366932972304E-02 
761	 6.06340387924935E-02 
762	 6.07587357892627E-02 
763	 0.060790664897781 
764	 6.05740234924526E-02 
765	 6.01887953539906E-02 
766	 5.99283355749278E-02 
767	 5.97919180405737E-02 
768	 0.059784864438083 
769	 5.99343926198673E-02 
770	 0.060014132305126 
771	 6.00488436564127E-02 
772	 6.01333046271615E-02 
773	 6.04001649214581E-02 
774	 6.07180755221575E-02 
775	 6.09425635780533E-02 
776	 6.09983183949812E-02 
777	 6.12087127584901E-02 
778	 6.14362387304465E-02 
779	 6.16381889963249E-02 
780	 6.18983794358025E-02 
781	 6.21761876324401E-02 
782	 6.24875249037736E-02 
783	 6.28425669971054E-02 
784	 6.32218265173074E-02 
785	 6.36110121244108E-02 
786	 6.39756972956773E-02 
787	 0.064312463637554 
788	 6.48287318790652E-02 
789	 6.52715814000903E-02 
790	 6.55899652164317E-02 
791	 6.59297734786462E-02 
792	 6.63241347277567E-02 
793	 6.65708510825169E-02 
794	 6.67283923123234E-02 
795	 6.73144844546364E-02 
796	 6.79646799222003E-02 
797	 6.83846650053139E-02 
798	 6.84993105669489E-02 
799	 0.068716774246952 
800	 6.92078327025567E-02 
801	 6.97232153788411E-02 
802	 6.98451787773547E-02 
803	 6.98941646635395E-02 
804	 6.99714052352333E-02 
805	 6.99880481795208E-02 
806	 6.96971955733969E-02 
807	 6.95759965191541E-02 
808	 6.98292651666412E-02 
809	 7.03191299820045E-02 
810	 7.01523639789653E-02 
811	 6.98270840552484E-02 
812	 6.97300265452073E-02 
813	 7.00144025205249E-02 
814	 6.93467718183522E-02 
815	 6.88721246101852E-02 
816	 0.068781386832847 
817	 6.82743446804068E-02 
818	 6.71672738096244E-02 
819	 6.63577359254464E-02 
820	 6.59132814376462E-02 
821	 6.49456642395042E-02 
822	 6.37430787608486E-02 
823	 6.25715764422019E-02 
824	 6.15131453784321E-02 
825	 6.00665381384759E-02 
826	 5.89237573514627E-02 
827	 5.78740996797262E-02 
828	 5.65056835862825E-02 
829	 5.49788838340106E-02 
830	 5.37840931904609E-02 
831	 5.29451842747679E-02 
832	 5.21797222063676E-02 
833	 5.14685425347987E-02 
834	 5.09031271723953E-02 
835	 5.05304918716916E-02 
836	 5.03325287966906E-02 
837	 4.98827259030939E-02 
838	 4.93752188161465E-02 
839	 0.04907743742453 
840	 0.049112434810775 
841	 4.90231722889121E-02 
842	 4.88030146063859E-02 
843	 4.85916722215242E-02 
844	 4.82872897136155E-02 
845	 4.82593872369137E-02 
846	 4.82768497904484E-02 
847	 4.78062919897944E-02 
848	 4.75791163803998E-02 
849	 4.74586010954596E-02 
850	 4.73963131512568E-02 
851	 0.047553689474902 
852	 4.73653314534957E-02 
853	 4.70438662357089E-02 
854	 4.69013658788172E-02 
855	 0.047075213375293 
856	 4.68859936261247E-02 
857	 0.04651859819367 
858	 4.63481549115668E-02 
859	 4.65129262231048E-02 
860	 4.64230449777444E-02 
861	 4.61869076461348E-02 
862	 4.62170152741341E-02 
863	 4.63611818521662E-02 
864	 4.62736766392566E-02 
865	 4.60781902741532E-02 
866	 4.62547182868517E-02 
867	 4.62015598049674E-02 
868	 4.58861614399337E-02 
869	 4.55429752310149E-02 
870	 4.55986433291773E-02 
871	 4.52410116458921E-02 
872	 4.50027786321633E-02 
873	 4.52278829630818E-02 
874	 4.51960019183497E-02 
875	 4.49968679495771E-02 
876	 4.48756919404576E-02 
877	 4.49651709686631E-02 
878	 4.47540613172088E-02 
879	 4.47016148181571E-02 
880	 4.47595297098812E-02 
881	 4.46593106316429E-02 
882	 4.44416935962677E-02 
883	 4.42491040286605E-02 
884	 4.40526780762706E-02 
885	 4.37802423737999E-02 
886	 4.42644427162001E-02 
887	 4.41756356642606E-02 
888	 4.34867642466546E-02 
889	 4.38033191792075E-02 
890	 4.40421965099137E-02 
891	 4.39131603769806E-02 
892	 4.36598428284204E-02 
893	 4.43264656836778E-02 
894	 4.45998344074373E-02 
895	 0.044545814546237 
896	 4.45420956240576E-02 
897	 4.43421189128376E-02 
898	 4.48927057921589E-02 
899	 4.50681896533071E-02 
900	 4.40080489188414E-02 
901	 4.41107080296716E-02 
902	 4.45485053008483E-02 
903	 4.42939249400019E-02 
904	 4.28780332805634E-02 
905	 4.26479006565765E-02 
906	 4.31353208873978E-02 
907	 4.40444835146685E-02 
908	 4.49254406905881E-02 
909	 4.35899725082052E-02 
910	 4.31671414804161E-02 
911	 4.37406830852118E-02 
912	 4.25679385936037E-02 
913	 0.043340070121648 
914	 4.35022945882519E-02 
915	 4.27012058105204E-02 
916	 4.35891760191869E-02 
917	 4.36118596698324E-02 
918	 4.25247856309876E-02 
919	 4.15059545321349E-02 
920	 0.042821794482017 
921	 4.30216124110113E-02 
922	 4.29606935691201E-02 
923	 4.35351042020894E-02 
924	 4.39317602251308E-02 
925	 4.36177265138751E-02 
926	 4.36508517724496E-02 
927	 4.45516747901653E-02 
928	 4.18077954863899E-02 
929	 4.14655853169371E-02 
930	 4.17221211024888E-02 
931	 3.75312889964631E-02 
932	 4.77622545123056E-02 
933	 4.55305711423618E-02 
934	 3.32816833540722E-02 
935	 3.28509273443228E-02 
936	 3.89012780060655E-02 
937	 4.41322678916634E-02 
938	 4.60616581835782E-02 
939	 4.47510408890501E-02 
940	 4.00274740664941E-02 
941	 4.33171677818362E-02 
942	 4.75638503022552E-02 
943	 0.040756036582593 
944	 4.48029294634595E-02 
945	 4.82778013255495E-02 
946	 4.60588500078076E-02 
947	 4.06509456090167E-02 
948	 4.29566350062851E-02 
949	 4.32678016117126E-02 
950	 4.36291290614988E-02 
951	 5.08390127513924E-02 
952	 5.23101711223225E-02 
953	 4.88226335381259E-02 
954	 4.46306383353931E-02 
955	 0.043932117766636 
956	 4.01849770928169E-02 
957	 4.40659483086268E-02 
958	 4.91956532771202E-02 
959	 4.23224164927353E-02 
960	 4.20492652010765E-02 
961	 4.14307051237176E-02 
962	 4.08744589090316E-02 
963	 4.46852139384955E-02 
964	 4.12815426939688E-02 
965	 4.01791676704632E-02 
966	 4.31769372629154E-02 
967	 4.57786755417024E-02 
968	 0.044314166845519 
969	 4.21486143518222E-02 
970	 4.15222896592534E-02 
971	 4.27286830800425E-02 
972	 4.33436422490293E-02 
973	 4.28500587971365E-02 
974	 4.20472335733509E-02 
975	 4.25689715507193E-02 
976	 4.43433286533596E-02 
977	 4.24053692088812E-02 
978	 3.94561743149965E-02 
979	 4.26577411492458E-02 
980	 4.16599852080957E-02 
981	 4.16763726239937E-02 
982	 4.23394006571536E-02 
983	 3.93258095266317E-02 
984	 4.05104888649142E-02 
985	 4.03736348939279E-02 
986	 3.88351058441538E-02 
987	 4.01367509441098E-02 
988	 4.14268458584704E-02 
989	 4.09191645468089E-02 
990	 4.02904253711432E-02 
991	 4.23966545722137E-02 
992	 4.09675411230103E-02 
993	 4.00876133651459E-02 
994	 3.95623980054954E-02 
995	 3.71008350913966E-02 
996	 4.02106761229614E-02 
997	 4.16239685114987E-02 
998	 0.040178568823859 
999	 3.92249506654389E-02 
1000	 3.96534970244326E-02 
1001	 4.14258991016176E-02 
1002	 4.02137797631379E-02 
1003	 3.97553064455229E-02 
1004	 3.95658724319946E-02 
1005	 3.95347093799978E-02 
1006	 0.039933627679135 
1007	 4.02125608076528E-02 
1008	 4.07217412075372E-02 
1009	 0.04138686881152 
1010	 4.07506567078735E-02 
1011	 4.05115571286743E-02 
1012	 4.06215853698512E-02 
1013	 0.040587767383784 
1014	 4.08170271902052E-02 
1015	 4.19668002270205E-02 
1016	 4.22295577976738E-02 
1017	 4.19616921955617E-02 
1018	 4.18499599122678E-02 
1019	 4.17990429317351E-02 
1020	 4.13558209407912E-02 
1021	 4.04488931625198E-02 
1022	 3.98480059894602E-02 
1023	 0.03955407608349 
1024	 3.94400203916891E-02 
1025	 0.040003321203412 
1026	 4.09639048197355E-02 
1027	 4.13509817856889E-02 
1028	 4.16125167830299E-02 
1029	 0.041536850609614 
1030	 0.04109080631065 
1031	 4.08711707427393E-02 
1032	 4.03812298307933E-02 
1033	 4.02350676973636E-02 
1034	 4.03463895447746E-02 
1035	 4.03371258110508E-02 
1036	 4.04553975763541E-02 
1037	 4.04059867755753E-02 
1038	 4.00889006655595E-02 
1039	 4.01880626038532E-02 
1040	 3.99377971066004E-02 
1041	 4.00310668139759E-02 
1042	 4.00345676802807E-02 
1043	 4.00977546166784E-02 
1044	 4.01691441249621E-02 
1045	 4.02082438362841E-02 
1046	 4.04114176376544E-02 
1047	 4.11582717118168E-02 
1048	 4.09946361469647E-02 
1049	 3.99975985553634E-02 
1050	 3.99084569816415E-02 
1051	 3.96994271675126E-02 
1052	 3.96886482979217E-02 
1053	 4.08206492202005E-02 
1054	 4.11867425180933E-02 
1055	 0.040652947521407 
1056	 4.06335056034097E-02 
1057	 4.07257930659607E-02 
1058	 4.08642836513526E-02 
1059	 4.09891867137038E-02 
1060	 4.15154130055638E-02 
1061	 4.15163525237007E-02 
1062	 4.10680702098412E-02 
1063	 4.09768169744415E-02 
1064	 4.08727798206619E-02 
1065	 4.07953269456916E-02 
1066	 4.12051597512948E-02 
1067	 4.09367367279307E-02 
1068	 3.95428650580185E-02 
1069	 3.94264189129617E-02 
1070	 4.01619462876598E-02 
1071	 0.040133899437814 
1072	 4.03249248442922E-02 
1073	 4.07291796719795E-02 
1074	 4.08773969202536E-02 
1075	 0.040159788515489 
1076	 4.00556667463734E-02 
1077	 4.05852293922407E-02 
1078	 4.06872330774089E-02 
1079	 4.04395739092674E-02 
1080	 4.03380399108576E-02 
1081	 0.040164201049534 
1082	 4.03209661437292E-02 
1083	 4.07517492244968E-02 
1084	 4.08957694859636E-02 
1085	 4.12416743704829E-02 
1086	 4.14422022719681E-02 
1087	 4.11191273768389E-02 
1088	 4.10891871883101E-02 
1089	 4.11178879409164E-02 
1090	 4.17800392936291E-02 
1091	 4.16580528184452E-02 
1092	 4.11599280566853E-02 
1093	 4.09453304939748E-02 
1094	 0.040251857536078 
1095	 4.03023838013877E-02 
1096	 4.12280676133407E-02 
1097	 4.15300701953585E-02 
1098	 4.17995175942089E-02 
1099	 4.20401940646215E-02 
1100	 4.21029700777543E-02 
1101	 0.042108244512922 
1102	 4.20378959981917E-02 
1103	 0.042159915947107 
1104	 4.26904853417374E-02 
1105	 4.19400966730206E-02 
1106	 4.18136529018683E-02 
1107	 4.23702477296019E-02 
1108	 4.30921535324492E-02 
1109	 4.41482254409618E-02 
1110	 4.40908843888348E-02 
1111	 4.41619265956801E-02 
1112	 4.29682224234908E-02 
1113	 3.69869299572524E-02 
1114	 3.65909794019498E-02 
1115	 4.12055087381088E-02 
1116	 4.17393240746657E-02 
1117	 4.69391241303037E-02 
1118	 0.048559966775092 
1119	 0.034771226640361 
1120	 0.032097981426316 
1121	 0.040973981190583 
1122	 4.95784782279581E-02 
1123	 6.32747231095258E-02 
1124	 6.71033298251604E-02 
1125	 5.22609839176143E-02 
1126	 4.19200693092373E-02 
1127	 3.56219865120919E-02 
1128	 3.09611020023657E-02 
1129	 3.00250174906602E-02 
1130	 3.34804493976088E-02 
1131	 0.034778494395072 
1132	 3.67713774791542E-02 
1133	 0.039562140429814 
1134	 4.33251426685117E-02 
1135	 0.044389378299197 
1136	 4.30030701348904E-02 
1137	 4.63036172423169E-02 
1138	 5.39383191601896E-02 
1139	 5.45681755019291E-02 
1140	 5.26244466806345E-02 
1141	 5.07048091817989E-02 
1142	 3.91569873619411E-02 
1143	 3.11020015251917E-02 
1144	 3.78591798385978E-02 
1145	 4.25733897164206E-02 
1146	 4.30115923659405E-02 
1147	 4.52609751502415E-02 
1148	 4.33773162289856E-02 
1149	 0.041543225033071 
1150	 4.05654641074094E-02 
1151	 4.23535454743142E-02 
1152	 0.04258128499654 
1153	 4.04540682983238E-02 
1154	 4.03838604144249E-02 
1155	 4.09504536280581E-02 
1156	 4.34307865657913E-02 
1157	 4.36384404362183E-02 
1158	 4.31880714588463E-02 
1159	 4.28274047890976E-02 
1160	 4.24535490571205E-02 
1161	 4.17123653357622E-02 
1162	 4.07787480251675E-02 
1163	 4.18374229501777E-02 
1164	 4.28982976866616E-02 
1165	 4.25895540574036E-02 
1166	 0.042452235718458 
1167	 4.13666695092723E-02 
1168	 4.03386492031797E-02 
1169	 4.11930736740138E-02 
1170	 4.20803033068239E-02 
1171	 4.19997530071046E-02 
1172	 4.13952760339435E-02 
1173	 4.10343249971901E-02 
1174	 0.039800392042928 
1175	 3.97710778659045E-02 
1176	 4.02293896707714E-02 
1177	 4.01073855588607E-02 
1178	 4.06145354442223E-02 
1179	 4.09979852440438E-02 
1180	 4.09134216960859E-02 
1181	 4.15162057715633E-02 
1182	 4.14448813210687E-02 
1183	 4.04702944589098E-02 
1184	 4.06761195865541E-02 
1185	 4.14047187397024E-02 
1186	 4.11757386865933E-02 
1187	 4.08268826027487E-02 
1188	 4.06924240978982E-02 
1189	 4.05933443624108E-02 
1190	 4.09499787146769E-02 
1191	 4.13877922259196E-02 
1192	 4.13478268099298E-02 
1193	 4.08224399204385E-02 
1194	 4.01516474096307E-02 
1195	 4.04798906434001E-02 
1196	 4.09394170373021E-02 
1197	 4.06583186992814E-02 
1198	 4.03316961135679E-02 
1199	 3.99688330690041E-02 
1200	 3.95110884756269E-02 
1201	 3.95083314177508E-02 
1202	 3.98560002660353E-02 
1203	 4.00169281161568E-02 
1204	 3.97508234531973E-02 
1205	 3.97170744488873E-02 
1206	 0.040192759736979 
1207	 3.99880060104884E-02 
1208	 3.93870933112588E-02 
1209	 0.0397492569638 
1210	 4.00460735104591E-02 
1211	 3.96286031455957E-02 
1212	 3.96683319747231E-02 
1213	 3.96981775989199E-02 
1214	 3.95781209108238E-02 
1215	 0.03918050488529 
1216	 3.94548414510644E-02 
1217	 3.95728624878636E-02 
1218	 3.93075065991502E-02 
1219	 3.94683847585584E-02 
1220	 3.98553444754396E-02 
1221	 3.97982728539051E-02 
1222	 3.95584856559257E-02 
1223	 3.95043993109521E-02 
1224	 3.92700264006813E-02 
1225	 3.92614146533369E-02 
1226	 3.94210720637332E-02 
1227	 3.91475376599342E-02 
1228	 0.039015087548912 
1229	 3.92941576048873E-02 
1230	 3.96258717969151E-02 
1231	 3.95936233302445E-02 
1232	 3.94930899191553E-02 
1233	 3.96395529165814E-02 
1234	 3.94433584086695E-02 
1235	 3.91582435462918E-02 
1236	 0.038959201153202 
1237	 3.89688137247598E-02 
1238	 3.87748255865643E-02 
1239	 3.86571269794004E-02 
1240	 0.038895405204605 
1241	 0.039169739216711 
1242	 3.89742335561398E-02 
1243	 0.038598692217825 
1244	 3.87208721512458E-02 
1245	 3.90079091024762E-02 
1246	 3.86797778900245E-02 
1247	 3.85851628130686E-02 
1248	 0.038712168539073 
1249	 0.03831257433698 
1250	 3.84896769269691E-02 
1251	 3.88633191709089E-02 
1252	 3.86704323672101E-02 
1253	 3.86634968266495E-02 
1254	 3.87060573858364E-02 
1255	 3.86185387988491E-02 
1256	 3.86938897359599E-02 
1257	 3.91506165412059E-02 
1258	 0.039253822424808 
1259	 3.91767888430607E-02 
1260	 3.91660892582213E-02 
1261	 3.89830162988619E-02 
1262	 0.039002175122591 
1263	 3.91798142691379E-02 
1264	 3.91805088818954E-02 
1265	 3.93283027668089E-02 
1266	 3.94307373144909E-02 
1267	 3.91359441550778E-02 
1268	 3.91193804850826E-02 
1269	 3.93036215711405E-02 
1270	 3.90092862835969E-02 
1271	 3.88839616117461E-02 
1272	 0.039340888329711 
1273	 3.94110019701473E-02 
1274	 3.93943118232194E-02 
1275	 3.95886419535008E-02 
1276	 3.95155487599094E-02 
1277	 3.96758532013789E-02 
1278	 3.97817363247573E-02 
1279	 3.94235223120203E-02 
1280	 3.90668127569674E-02 
1281	 3.89408798047494E-02 
1282	 3.87536502245847E-02 
1283	 3.85554667431726E-02 
1284	 3.86366030065639E-02 
1285	 3.85960889213056E-02 
1286	 3.82277796140996E-02 
1287	 3.82436505141284E-02 
1288	 0.038602509003916 
1289	 3.87646297916745E-02 
1290	 3.90534527991447E-02 
1291	 3.90389352603994E-02 
1292	 3.87525721744665E-02 
1293	 3.87096195684526E-02 
1294	 3.87151694626286E-02 
1295	 3.90002713800258E-02 
1296	 3.95772841548248E-02 
1297	 3.98932140263624E-02 
1298	 3.95628948368972E-02 
1299	 3.89314783001595E-02 
1300	 3.87437794734285E-02 
1301	 3.86268668957119E-02 
1302	 3.81770906507519E-02 
1303	 3.85321677874339E-02 
1304	 3.91427332774845E-02 
1305	 3.91738149091088E-02 
1306	 3.92025910797388E-02 
1307	 3.96050848118927E-02 
1308	 3.98897843727709E-02 
1309	 3.95691872189373E-02 
1310	 3.97203618535411E-02 
1311	 4.08020327172031E-02 
1312	 4.11343521693949E-02 
1313	 4.07402770826028E-02 
1314	 4.07025297034496E-02 
1315	 4.03759111197898E-02 
1316	 4.06788986160617E-02 
1317	 4.19651104612711E-02 
1318	 4.21971035162262E-02 
1319	 4.19681412797926E-02 
1320	 4.22929796973616E-02 
1321	 4.24389013177854E-02 
1322	 4.21732716183812E-02 
1323	 4.17524459353093E-02 
1324	 4.11790912584388E-02 
1325	 4.14753114423443E-02 
1326	 4.20495482605816E-02 
1327	 4.17829005103202E-02 
1328	 4.17698290578286E-02 
1329	 4.24227323713478E-02 
1330	 4.11836087022115E-02 
1331	 4.00731741592352E-02 
1332	 4.15262106381837E-02 
1333	 4.09827982475134E-02 
1334	 4.08579932231409E-02 
1335	 4.10753445153551E-02 
1336	 4.42344088616104E-02 
1337	 4.39619406249801E-02 
1338	 3.93611593015299E-02 
1339	 3.90334988953676E-02 
1340	 4.11654131225622E-02 
1341	 4.15806877764838E-02 
1342	 4.41791572310712E-02 
1343	 4.55812361753857E-02 
1344	 4.39314104934345E-02 
1345	 4.28082910025645E-02 
1346	 0.044300446759213 
1347	 4.17771931054774E-02 
1348	 2.50172515957408E-02 
1349	 1.55639238993202E-02 
1350	 1.92627528858986E-02 
1351	 1.06312528047217E-02 
1352	-3.68930322088643E-03 
1353	-9.23888980598208E-04 
1354	 5.13534485733535E-02 
1355	 5.5055483686541E-03 
1356	-8.31918982420696E-02 
1357	-8.91202426201929E-02 
1358	-0.125149497141048 
1359	-3.74110043335818E-02 
1360	 0.166846200823325 
1361	 0.22651754819712 
1362	 0.196705097447598 
1363	 7.36671268696734E-02 
1364	 0.051164621992227 
1365	-1.89313038533421E-02 
1366	-0.523979170450281 
1367	-0.731879576473389 
1368	-0.7672754551568 
1369	-0.75898565579127 
1370	-0.775973121497552 
1371	-0.332271798472781 
1372	-0.36236628732693 
1373	-1.0763443372346 
1374	-0.977937258422199 
1375	-0.344204327436788 
1376	-0.293943884386877 
1377	-0.3924561403573 
1378	-0.300712567175949 
1379	-0.300554756384305 
1380	-0.521847177746225 
1381	-0.279016365645892 
1382	-0.201101395782519 
1383	-0.852231478510459 
1384	-0.964323106750726 
1385	-1.08585563911663 
1386	-0.664678483233481 
1387	 0.203389226443542 
1388	 0.204547040115941 
1389	-1.2449281170183 
1390	-1.12204037319388 
1391	-0.318724193573665 
1392	-1.2397185281771 
1393	-1.20207541852602 
1394	-0.401054959343987 
1395	-0.288868207762649 
1396	-0.477807918028526 
1397	-0.419312308493799 
1398	-0.171789149563898 
1399	 0.146835526784458 
1400	 0.278609980954482 
1401	-0.393363333744777 
1402	-0.580146873233799 
1403	-0.236512195771114 
1404	-0.547061092063082 
1405	-0.699099896551051 
1406	-0.363599080434057 
1407	-2.52483989654263E-02 
1408	-1.47096345435609E-02 
1409	-0.109888705991248 
1410	-0.255187409696881 
1411	-0.173708809140645 
1412	-0.248027123212659 
1413	-0.443266068462677 
1414	-2.38207400095801E-02 
1415	 3.53008016549067E-02 
1416	-0.445933022631322 
1417	-0.551331901181424 
1418	-0.305071401174421 
1419	-0.189137225862047 
1420	-9.23778132168462E-02 
1421	-0.135605551084902 
1422	-0.253087729059938 
1423	-0.158301540675661 
1424	-3.93901741988974E-02 
1425	-2.30114971053868E-02 
1426	 4.96820086327716E-02 
1427	 0.085337354075203 
1428	 5.35589340460123E-02 
1429	-2.90178592555063E-03 
1430	-6.13359640075054E-02 
1431	-7.21608302539861E-02 
1432	-0.103622120259658 
1433	-0.105371009000354 
1434	-4.74605237531094E-02 
1435	 5.74458071224918E-04 
1436	 9.47053574658716E-02 
1437	 6.05617594157366E-02 
1438	-1.21174821776081E-02 
1439	 8.34192208595406E-03 
1440	-3.21603194047755E-03 
1441	-6.21133617828769E-03 
1442	 6.88608681702251E-02 
1443	 9.74896604523255E-02 
1444	 4.68465229658821E-02 
1445	 0.02486787608028 
1446	 2.53822275219624E-02 
1447	 1.0037179549493E-03 
1448	 7.7630000439024E-03 
1449	 3.94320914820489E-02 
1450	 5.11705397453703E-02 
1451	 4.51830126908127E-02 
1452	 3.54203382291073E-02 
1453	 3.19720499613731E-02 
1454	 3.44477782463835E-02 
1455	 4.10853962151827E-02 
1456	 4.20692375479454E-02 
1457	 4.43655382214898E-02 
1458	 4.56436282563525E-02 
1459	 0.043392837134528 
1460	 4.32441109819935E-02 
1461	 0.047237190500844 
1462	 4.52714627817422E-02 
1463	 3.73559683774524E-02 
1464	 3.54942327220905E-02 
1465	 3.52257614210043E-02 
1466	 3.30755254278807E-02 
1467	 3.09110570850159E-02 
1468	 3.34409330918751E-02 
1469	 3.77942730782707E-02 
1470	 3.78388141204333E-02 
1471	 4.40328193240455E-02 
1472	 4.37149750371188E-02 
1473	 2.92010726885526E-02 
1474	 3.02244282065223E-02 
1475	 4.29371983128508E-02 
1476	 0.043154407190172 
1477	 3.99127867233378E-02 
1478	 4.17967880503536E-02 
1479	 4.28925103584365E-02 
1480	 4.11579632766302E-02 
1481	 4.01589642733608E-02 
1482	 4.20378487159737E-02 
1483	 4.23013892532033E-02 
1484	 4.17537862644093E-02 
1485	 4.50413544586335E-02 
1486	 4.49791732732794E-02 
1487	 4.15871554990244E-02 
1488	 3.99352026475289E-02 
1489	 3.80924389983991E-02 
1490	 3.79621576415885E-02 
1491	 3.89562049952612E-02 
1492	 3.89181535986306E-02 
1493	 3.96022864615466E-02 
1494	 3.95398085071082E-02 
1495	 3.80705840869276E-02 
1496	 3.75937625740748E-02 
1497	 3.72400149847495E-02 
1498	 3.75009067103537E-02 
1499	 3.92394514304535E-02 
1500	 3.92318779528414E-02 
1501	 3.83021626727552E-02 
1502	 3.81067855902249E-02 
1503	 3.69807694858229E-02 
1504	 3.65474196028737E-02 
1505	 0.037034451843176 
1506	 0.037648074634072 
1507	 3.72613988035531E-02 
1508	 3.73792195621266E-02 
1509	 3.78412281717737E-02 
1510	 3.73407352100497E-02 
1511	 0.036743502926551 
1512	 3.72082572917454E-02 
1513	 3.76912946508804E-02 
1514	 3.74975128385094E-02 
1515	 3.70305266712387E-02 
1516	 3.71548166105916E-02 
1517	 3.78120962913615E-02 
1518	 3.77660792333349E-02 
1519	 3.78791146355187E-02 
1520	 3.80095397137916E-02 
1521	 3.70755259674465E-02 
1522	 3.68539256865836E-02 
1523	 3.73572291052906E-02 
1524	 3.72818763219408E-02 
1525	 3.72474228210201E-02 
1526	 3.73010278929606E-02 
1527	 3.73089331370964E-02 
1528	 3.72788032808118E-02 
1529	 3.72495230250358E-02 
1530	 0.037248295764095 
1531	 3.68537224594487E-02 
1532	 3.68391027783015E-02 
1533	 3.73771262996069E-02 
1534	 3.76212861328393E-02 
1535	 3.73872837192229E-02 
1536	 3.68525302596583E-02 
1537	 3.65200291005543E-02 
1538	 3.64314374759822E-02 
1539	 0.036591015414448 
1540	 3.67718915853721E-02 
1541	 3.66076456227847E-02 
1542	 3.63505182621675E-02 
1543	 3.63995811324637E-02 
1544	 3.66313068426809E-02 
1545	 3.62697260247653E-02 
1546	 3.60432152316623E-02 
1547	 3.63366346166872E-02 
1548	 3.62636051005693E-02 
1549	 3.61382542845143E-02 
1550	 3.61436523237906E-02 
1551	 3.60729136116885E-02 
1552	 3.60862507300498E-02 
1553	 3.61778439444828E-02 
1554	 3.60479367598472E-02 
1555	 3.57742089045545E-02 
1556	 3.55722891421371E-02 
1557	 3.56567602750779E-02 
1558	 3.61919411382165E-02 
1559	 3.62624834380626E-02 
1560	 3.57423653031268E-02 
1561	 3.58951112870337E-02 
1562	 3.63878687073217E-02 
1563	 3.62284567092686E-02 
1564	 3.61078808756068E-02 
1565	 3.61757712942524E-02 
1566	 3.58812717320168E-02 
1567	 3.59059480193849E-02 
1568	 3.65208829858095E-02 
1569	 3.68013145517005E-02 
1570	 3.65643224433397E-02 
1571	 3.69638516385542E-02 
1572	 3.73544113848427E-02 
1573	 3.65618251698875E-02 
1574	 3.61070583083827E-02 
1575	 3.61736935422484E-02 
1576	 3.58525572431754E-02 
1577	 3.58741927802131E-02 
1578	 3.62915868550226E-02 
1579	 3.64517474820395E-02 
1580	 3.62838528843968E-02 
1581	 3.62998120080787E-02 
1582	 3.63513588482485E-02 
1583	 3.58958739330953E-02 
1584	 3.58228464040115E-02 
1585	 0.036283227979663 
1586	 3.65892094373014E-02 
1587	 3.67066895641052E-02 
1588	 3.63608765588677E-02 
1589	 3.59069564759363E-02 
1590	 0.035791822682837 
1591	 3.57278430233906E-02 
1592	 3.58604171871837E-02 
1593	 3.61053410044578E-02 
1594	 3.60974783155889E-02 
1595	 3.59571794673175E-02 
1596	 3.56675043436038E-02 
1597	 3.56086252052307E-02 
1598	 3.58667415474053E-02 
1599	 3.63684950770864E-02 
1600	 3.67870025550062E-02 
1601	 0.036465389536696 
1602	 3.60419519892998E-02 
1603	 0.035535574176421 
1604	 0.035138387996506 
1605	 3.53365418403091E-02 
1606	 3.55266800168556E-02 
1607	 3.57286415757592E-02 
1608	 3.59270560274619E-02 
1609	 0.03595225096805 
1610	 3.62378434547342E-02 
1611	 3.64721025163788E-02 
1612	 3.63325069452899E-02 
1613	 3.63546621007189E-02 
1614	 3.61379575722423E-02 
1615	 3.56372067828636E-02 
1616	 3.58712164839906E-02 
1617	 3.60840043572681E-02 
1618	 3.55795174741018E-02 
1619	 3.53847541109306E-02 
1620	 3.52319949324082E-02 
1621	 3.50806813630611E-02 
1622	 3.54964451381757E-02 
1623	 3.57718071739683E-02 
1624	 3.58453292877266E-02 
1625	 3.58369949389785E-02 
1626	 3.55331147852328E-02 
1627	 3.53389239658014E-02 
1628	 3.51874858933913E-02 
1629	 3.49123481675399E-02 
1630	 0.035154534799402 
1631	 3.55071940877878E-02 
1632	 3.51618609170681E-02 
1633	 3.49823491672067E-02 
1634	 3.52440229052574E-02 
1635	 3.52025246085193E-02 
1636	 3.53434358778933E-02 
1637	 3.59016112920252E-02 
1638	 3.59109627398334E-02 
1639	 3.54646596605053E-02 
1640	 3.55964414746499E-02 
1641	 3.56770149568857E-02 
1642	 3.54337238554416E-02 
1643	 0.035785794581533 
1644	 0.035945769136974 
1645	 3.57182828361481E-02 
1646	 3.56147370879258E-02 
1647	 3.54378980111145E-02 
1648	 3.56992206313548E-02 
1649	 3.61508624656564E-02 
1650	 3.63357748388823E-02 
1651	 3.63478566809583E-02 
1652	 3.61989844226408E-02 
1653	 0.036570481217018 
1654	 3.63426717809189E-02 
1655	 3.59200463691415E-02 
1656	 0.036018216595824 
1657	 3.59033949502972E-02 
1658	 3.56944264392514E-02 
1659	 3.58052374941432E-02 
1660	 3.58693653105982E-02 
1661	 3.57367178805771E-02 
1662	 3.55883210399335E-02 
1663	 3.56830839421848E-02 
1664	 3.55981330591897E-02 
1665	 3.50260679529339E-02 
1666	 3.50250799729961E-02 
1667	 3.53982984547679E-02 
1668	 3.61697438802252E-02 
1669	 3.65117052408147E-02 
1670	 3.58142346488774E-02 
1671	 3.56191104252138E-02 
1672	 3.57091010591519E-02 
1673	 3.54821019034633E-02 
1674	 3.55649505441384E-02 
1675	 3.56561504292097E-02 
1676	 3.53624061113014E-02 
1677	 3.53010587830561E-02 
1678	 3.56498049890527E-02 
1679	 3.59980740430052E-02 
1680	 3.60818912978304E-02 
1681	 3.58322013768332E-02 
1682	 3.54715021960912E-02 
1683	 3.49866860948111E-02 
1684	 3.49425324944729E-02 
1685	 3.59077257831963E-02 
1686	 3.63776440049058E-02 
1687	 3.60005672368324E-02 
1688	 3.61678101759939E-02 
1689	 3.60124319560044E-02 
1690	 0.035427778903631 
1691	 3.59287705633212E-02 
1692	 3.68536699102556E-02 
1693	 3.67846266777383E-02 
1694	 3.60790996981348E-02 
1695	 3.59008842266904E-02 
1696	 3.57779762434346E-02 
1697	 0.035703030705678 
1698	 3.64663634852648E-02 
1699	 3.69916060040541E-02 
1700	 0.036436305704714 
1701	 3.58501894396295E-02 
1702	 3.59724696277825E-02 
1703	 3.58992185133957E-02 
1704	 3.58859311495601E-02 
1705	 3.59799515693426E-02 
1706	 3.53526208347648E-02 
1707	 3.53779320682241E-02 
1708	 0.035987456890106 
1709	 3.62672911463131E-02 
1710	 3.65402981194153E-02 
1711	 3.67048401525751E-02 
1712	 3.67567473495641E-02 
1713	 3.61392251909978E-02 
1714	 3.58445164627666E-02 
1715	 3.53429754264493E-02 
1716	 3.48861067199541E-02 
1717	 3.47202816965679E-02 
1718	 3.38486222338443E-02 
1719	 3.32299427324004E-02 
1720	 3.39862350097648E-02 
1721	 3.48771241555422E-02 
1722	 3.50496006305516E-02 
1723	 3.52664037568165E-02 
1724	 3.63647662011214E-02 
1725	 3.68712511012675E-02 
1726	 3.67032702629778E-02 
1727	 3.74393842755189E-02 
1728	 3.71298400779666E-02 
1729	 3.56620751583567E-02 
1730	 0.034973334165778 
1731	 3.47266058331026E-02 
1732	 3.52296874216631E-02 
1733	 3.59139954557236E-02 
1734	 3.60910558571232E-02 
1735	 3.68544057567766E-02 
1736	 3.66915548894193E-02 
1737	 3.53875000425493E-02 
1738	 3.58807415184677E-02 
1739	 3.67486860876698E-02 
1740	 3.54035285205477E-02 
1741	 3.54792455519369E-02 
1742	 3.70285088823966E-02 
1743	 3.62299027685938E-02 
1744	 3.55594821625526E-02 
1745	 3.65097909188315E-02 
1746	 0.036769370706325 
1747	 3.64578809329451E-02 
1748	 3.67188356398861E-02 
1749	 3.68389555731124E-02 
1750	 3.56731740423698E-02 
1751	 3.52508706365099E-02 
1752	 3.60279416536392E-02 
1753	 3.61070051184495E-02 
1754	 0.035531165870661 
1755	 3.62492647298781E-02 
1756	 3.77979577401435E-02 
1757	 3.72795417584958E-02 
1758	 3.69772505911515E-02 
1759	 3.63648485625475E-02 
1760	 0.038131115746395 
1761	 3.97531591449913E-02 
1762	 3.89748335884826E-02 
1763	 0.038007246906097 
1764	 3.63715650483742E-02 
1765	 3.65907722752249E-02 
1766	 3.80140823352816E-02 
1767	 3.78511426366089E-02 
1768	 3.77508790327286E-02 
1769	 3.62572745193836E-02 
1770	 3.60179693644484E-02 
1771	 3.76923895758083E-02 
1772	 3.72023529264998E-02 
1773	 3.82450094806641E-02 
1774	 3.90534849463983E-02 
1775	 3.84460980855251E-02 
1776	 3.83496418367168E-02 
1777	 3.59204739863367E-02 
1778	 3.56139744853899E-02 
1779	 3.90443838840328E-02 
1780	 3.87414986403457E-02 
1781	 3.50346347176347E-02 
1782	 3.50434287945848E-02 
1783	 3.65121386973004E-02 
1784	 3.54944092167738E-02 
1785	 3.74199140282228E-02 
1786	 3.89547899475575E-02 
1787	 3.22667812122369E-02 
1788	 3.20520916846439E-02 
1789	 4.22419450343864E-02 
1790	 4.13083260874869E-02 
1791	 4.38009371727749E-02 
1792	 4.49660546856039E-02 
1793	 2.77103252959129E-02 
1794	 2.35103408131593E-02 
1795	 3.53481017694122E-02 
1796	 2.92551257778488E-02 
1797	 0.03855470025191 
1798	 5.32881448750758E-02 
1799	 0.024880649325097 
1800	 3.61229063388732E-02 
1801	 0.048536062061984 
1802	 7.22613824375529E-02 
1803	 0.086627156342314 
1804	 8.87149697305079E-02 
1805	 8.19041721041175E-02 
1806	 1.43343731937458E-02 
1807	-5.37451290578254E-02 
1808	-0.126245340886719 
1809	-0.158409944028054 
1810	-0.177579168544563 
1811	-0.11035763964441 
1812	 0.613809185951323 
1813	 1.93267871755788 
1814	 6.52586904792783 
1815	 3.0697576728776 
1816	 7.93778522676345E-02 
1817	 0.262235057047164 
1818	 1.07294910719124 
1819	 0.887451487958402 
1820	 0.310002128608159 
1821	-0.271203007933777 
1822	-0.554909912647713 
1823	-0.618133978735918 
1824	-0.56976461704305 
1825	-0.678432167291583 
1826	-0.169918180523129 
1827	 1.03770669571196 
1828	 0.793139497529566 
1829	 7.22017234157223E-02 
1830	-7.87839187692085E-02 
1831	 0.133681708583945 
1832	 0.155054791821943 
1833	 1.18210971641743E-02 
1834	-5.68004706587438E-02 
1835	-0.537150614236836 
1836	-0.960114208295766 
1837	 3.74239915281475 
1838	 1.48619298252069 
1839	 1.323719656525 
1840	-32.7530399589698 
1841	-0.71831480460742 
1842	-1.36946796607988 
1843	-2.43676583047317 
1844	-2.58108408202923 
1845	-3.46209399343073 
1846	 0.297742663463829 
1847	-7.58176336563032E-02 
1848	-3.31253373124078E-02 
1849	-0.241593667395536 
1850	-0.607241320737175 
1851	 0.704831317269707 
1852	 1.44989839870122 
1853	 0.997181900761268 
1854	 1.12567524425025 
1855	 0.789228526381725 
1856	 0.773180067144741 
1857	-0.654798097889965 
1858	-0.223456174645972 
1859	 5.20591783276192E-02 
1860	 2.68864919789221 
1861	-0.613085522166406 
1862	-0.514749620035436 
1863	 8.77204936687508 
1864	 1.37401632279746 
1865	 3.43718727496537 
1866	-16.6166166755735 
1867	-1.31376710337898 
1868	-0.707715568232477 
1869	-0.798449438337804 
1870	-0.336573624384888 
1871	-0.296110333881354 
1872	-0.616431126049087 
1873	-1.145090648298 
1874	-0.865762018504814 
1875	-0.566766005947388 
1876	-0.544098681280455 
1877	-0.677064467000799 
1878	-1.10195381179225 
1879	-1.74628236492792 
1880	-2.1332196681377 
1881	-3.04356519856706 
1882	-2.18601683587961 
1883	-3.07011410327838 
1884	 7.13688804358439 
1885	-10.6956644328862 
1886	-12.7551970983046 
1887	 3.30651212860562 
1888	-0.206289984014236 
1889	-0.119347976442753 
1890	-0.735818312483456 
1891	-0.805125942537618 
1892	-0.70030390922458 
1893	-0.28507528495073 
1894	-0.249927121293489 
1895	-0.237184258305687 
1896	-0.299453824811961 
1897	-0.736302572581935 
1898	-1.31927476417696 
1899	-1.65852554935272 
1900	-1.64599113317492 
1901	-1.54000871341989 
1902	-1.35907913040283 
1903	 0.196568378266046 
1904	 0.462177169011607 
1905	 0.195356929994315 
1906	 11.7751571474225 
1907	 4.18897752931755 
1908	-6.75994906153992E-02 
1909	-5.25597187371363 
1910	-3.11295904439269 
1911	 8.65905196669176 
1912	-1.67405047008597 
1913	 1.04882252964408 
1914	 3.66509566067046 
1915	 10.3365461437474 
1916	 2.99054740957462 
1917	 20.7377380898159 
1918	-1.8318455915538 
1919	-1.3876017726784 
1920	-1.05258404115185 
1921	-0.428311404453525 
1922	-0.39274350064478 
1923	-1.24966300740319 
1924	-4.76846235101486 
1925	-5.33861809318615 
1926	-4.24009025309618 
1927	-5.06986578477674E-02 
1928	 2.29856258016433 
1929	 0.716847007604407 
1930	 1.07297668311145 
1931	 0.158053444186326 
1932	 1.15133338248132E-02 
1933	-0.415017103339212 
1934	-1.22666128411891 
1935	-1.30502559267969 
1936	-2.13331227857524 
1937	-1.02792651670562 
1938	-0.598519191817581 
1939	-0.471912154385735 
1940	-0.486815728446218 
1941	-0.338330574212754 
1942	-0.388751961147806 
1943	-0.447894327925856 
1944	-0.382335151593683 
1945	-0.687305309302671 
1946	-1.03160653146391 
1947	-0.703579214503314 
1948	-0.45940688340881 
1949	-0.258422865107979 
1950	-0.1056822315934 
1951	-0.220812878632837 
1952	-0.204632103950673 
1953	-0.192258033087875 
1954	-9.83262457203485E-02 
1955	-0.101785787820278 
1956	 1.74185896219154E-02 
1957	 3.11143630528776E-02 
1958	-1.80792212414214E-02 
1959	-1.15078769709019E-02 
1960	-5.56233306574826E-02 
1961	-6.24695970006065E-02 
1962	-3.11015916542636E-02 
1963	 2.59414480554392E-03 
1964	 1.95188217834424E-02 
1965	 1.19074985047741E-02 
1966	 1.79925245904944E-02 
1967	 2.34486280027387E-02 
1968	 2.07730594349397E-02 
1969	 2.08851939452567E-02 
1970	 3.25098582893861E-02 
1971	 3.37315826399636E-02 
1972	 3.36786048188031E-02 
1973	 3.36687801860009E-02 
1974	 3.33391390506893E-02 
1975	 3.33293991892753E-02 
1976	 3.05119693802171E-02 
1977	 3.22478133661967E-02 
1978	 3.49603780747291E-02 
1979	 3.73818777535043E-02 
1980	 3.88818557919191E-02 
1981	 4.41471533184314E-02 
1982	 4.78761861340603E-02 
1983	 4.91144642003373E-02 
1984	 0.052303146076508 
1985	 5.10647662113919E-02 
1986	 4.50115921525514E-02 
1987	 3.95989906733247E-02 
1988	 3.37939942373082E-02 
1989	 2.71195186847996E-02 
1990	 2.67472997817815E-02 
1991	 3.26819893872267E-02 
1992	 3.45948453350374E-02 
1993	 3.48178143096022E-02 
1994	 3.72758682992965E-02 
1995	 4.05563129314111E-02 
1996	 4.03074377234187E-02 
1997	 4.08251291449258E-02 
1998	 4.66378586667774E-02 
1999	 0.04976997758807 
2000	 4.96301825011315E-02 
2001	 5.08770594979238E-02 
2002	 5.03377662471888E-02 
2003	 5.13510713146212E-02 
2004	 5.06476393938048E-02 
2005	 4.40760959277076E-02 
2006	 4.23159837810482E-02 
2007	 4.19728992011129E-02 
2008	 0.040325630169041 
2009	 0.036725409397373 
2010	 3.37950137496256E-02 
2011	 3.53611330508543E-02 
2012	 3.81743292105734E-02 
2013	 3.56420783433491E-02 
2014	 3.47642635413452E-02 
2015	 3.40184906341606E-02 
2016	 2.84277954581845E-02 
2017	 2.76364245938353E-02 
2018	 2.84191728804214E-02 
2019	 3.17794025785778E-02 
2020	 3.54936465743972E-02 
2021	 3.53384040755249E-02 
2022	 3.41589440018442E-02 
2023	 3.77318241071074E-02 
2024	 3.96951545239457E-02 
2025	 3.98781247578007E-02 
2026	 3.99557864706325E-02 
2027	 0.041228962233929 
2028	 4.14267551176974E-02 
2029	 0.040114041610062 
2030	 4.15409495841842E-02 
2031	 4.17953672342764E-02 
2032	 4.09828392104544E-02 
2033	 3.97431245883364E-02 
2034	 0.03825699091983 
2035	 3.88302981722422E-02 
2036	 3.91587320511915E-02 
2037	 3.79752041066088E-02 
2038	 3.76590673759226E-02 
2039	 3.83862101920945E-02 
2040	 0.040445075760328 
2041	 3.98706459373307E-02 
2042	 3.89269181969691E-02 
2043	 3.89047897078091E-02 
2044	 3.74397477758212E-02 
2045	 3.49778350173491E-02 
2046	 3.66004245841015E-02 
2047	 3.81115271416946E-02 
2048	 3.73239489130679E-02 
2049	 3.82263696003175E-02 
2050	 3.76361616667885E-02 
2051	 3.46033190240919E-02 
2052	 3.45019260991845E-02 
2053	 3.36899240145647E-02 
2054	 0.034832748265762 
2055	 3.94792121713254E-02 
2056	 3.96800518042149E-02 
2057	 3.54154638539486E-02 
2058	 3.51338695138441E-02 
2059	 3.48795158589112E-02 
2060	 3.47174203514285E-02 
2061	 3.61477458051293E-02 
2062	 3.80070746517095E-02 
2063	 4.06751652091801E-02 
2064	 4.12660858738849E-02 
2065	 4.04771209903186E-02 
2066	 4.16638869692323E-02 
2067	 4.09442259610158E-02 
2068	 3.77801415472308E-02 
2069	 0.036371114699383 
2070	 3.61120351841993E-02 
2071	 3.65237809872481E-02 
2072	 3.70205011166593E-02 
2073	 3.72397157877162E-02 
2074	 3.77208307557197E-02 
2075	 3.98252467112546E-02 
2076	 4.33271041317701E-02 
2077	 4.36188103640743E-02 
2078	 4.44067123996773E-02 
2079	 4.43296747767949E-02 
2080	 4.15155063492701E-02 
2081	 3.91761598443347E-02 
2082	 3.81766921921709E-02 
2083	 3.72783609470336E-02 
2084	 3.82801761591748E-02 
2085	 3.88547035867786E-02 
2086	 4.07523661650335E-02 
2087	 4.36241042802467E-02 
2088	 4.34378494649948E-02 
2089	 4.29235752861913E-02 
2090	 4.34526243097201E-02 
2091	 4.16221889176806E-02 
2092	 4.00426486504641E-02 
2093	 3.77631328309624E-02 
2094	 0.036783081673862 
2095	 3.55034864674267E-02 
2096	 3.55832111655741E-02 
2097	 3.80369102349756E-02 
2098	 3.82007233870485E-02 
2099	 3.78526085078912E-02 
2100	 0.036450621684481 
2101	 0.036845787899561 
2102	 3.74917330826438E-02 
2103	 3.62361046398079E-02 
2104	 3.73918227635975E-02 
2105	 3.75385533390084E-02 
2106	 3.52674523767493E-02 
2107	 0.035178256807416 
2108	 3.37799594063386E-02 
2109	 3.29835741684247E-02 
2110	 3.43480614388925E-02 
2111	 3.47817176605262E-02 
2112	 3.81120323968973E-02 
2113	 3.95468688649678E-02 
2114	 3.87531225658549E-02 
2115	 3.90720187932916E-02 
2116	 4.03909134115666E-02 
2117	 4.06643217627398E-02 
2118	 4.08212520528728E-02 
2119	 4.12233781951144E-02 
2120	 4.15815605250579E-02 
2121	 4.08278159275973E-02 
2122	 4.05126058831527E-02 
2123	 4.00263623725701E-02 
2124	 3.87305240884928E-02 
2125	 3.73920295278581E-02 
2126	 3.71320140822855E-02 
2127	 3.78824601091254E-02 
2128	 3.85351658178296E-02 
2129	 3.88009993991216E-02 
2130	 3.79740002313334E-02 
2131	 3.65806020149234E-02 
2132	 3.65505577348759E-02 
2133	 0.037276235333261 
2134	 3.75334025765124E-02 
2135	 3.88832040462499E-02 
2136	 3.89070172337099E-02 
2137	 3.69995133835118E-02 
2138	 3.63070734446905E-02 
2139	 3.56921020022246E-02 
2140	 3.55501859852131E-02 
2141	 3.71376712506071E-02 
2142	 0.037169904278558 
2143	 3.65175691152264E-02 
2144	 3.57830495085281E-02 
2145	 3.43980993646434E-02 
2146	 3.35962899836981E-02 
2147	 3.50437478280791E-02 
2148	 3.61081783553306E-02 
2149	 3.71099007272237E-02 
2150	 3.84740487070239E-02 
2151	 3.87719639449837E-02 
2152	 3.87057711725535E-02 
2153	 0.037752332175481 
2154	 3.74895440415047E-02 
2155	 3.72022773934514E-02 
2156	 3.51216911806952E-02 
2157	 3.41649800478831E-02 
2158	 3.33451962400036E-02 
2159	 3.28432925269178E-02 
2160	 0.032236317397233 
2161	 3.31546388415655E-02 
2162	 3.59939782323165E-02 
2163	 3.56032275196378E-02 
2164	 3.38093172055131E-02 
2165	 0.034275497730463 
2166	 3.49190337290891E-02 
2167	 3.42364598405654E-02 
2168	 3.45492057828503E-02 
2169	 3.52218711853685E-02 
2170	 3.48483621216576E-02 
2171	 3.22294526039143E-02 
2172	 3.36977993468233E-02 
2173	 3.39671218649235E-02 
2174	 3.23736916688602E-02 
2175	 0.032425973277372 
2176	 3.36838764166293E-02 
2177	 3.51783887026816E-02 
2178	 3.48385511753837E-02 
2179	 3.50605773253318E-02 
2180	 3.46289556043032E-02 
2181	 3.23650770675609E-02 
2182	 0.034272571437676 
2183	 3.45984209059654E-02 
2184	 3.20857281058038E-02 
2185	 3.32674318081218E-02 
2186	 3.36091678549481E-02 
2187	 3.30742374735146E-02 
2188	 3.34744595190144E-02 
2189	 3.44907783021334E-02 
2190	 3.51112699308469E-02 
2191	 3.60606813334028E-02 
2192	 0.035341952345876 
2193	 3.55012097572337E-02 
2194	 3.43942183860297E-02 
2195	 2.92251741999274E-02 
2196	 2.77965365032185E-02 
2197	 2.75850139109151E-02 
2198	 2.68627931526393E-02 
2199	 0.026949866326707 
2200	 2.91732759833786E-02 
2201	 3.18816637446175E-02 
2202	 3.48622480874776E-02 
2203	 3.73568951124086E-02 
2204	 3.75782898631681E-02 
2205	 3.69457681186684E-02 
2206	 3.76945885441806E-02 
2207	 3.82426750876378E-02 
2208	 0.040129504633933 
2209	 3.94853377535065E-02 
2210	 0.037640260036496 
2211	 3.76831701782294E-02 
2212	 3.74544481528133E-02 
2213	 3.91925288788061E-02 
2214	 3.78138183012464E-02 
2215	 3.45156251947265E-02 
2216	 0.031497923245218 
2217	 2.97297231837261E-02 
2218	 2.68591054881862E-02 
2219	 2.72429762230064E-02 
2220	 3.11202409255766E-02 
2221	 3.17155074960489E-02 
2222	 3.16876996058157E-02 
2223	 3.12249611209703E-02 
2224	 2.97504913283429E-02 
2225	 3.02098517247253E-02 
2226	 3.16275246236605E-02 
2227	 3.09472242580458E-02 
2228	 2.88396030593318E-02 
2229	 2.84639062958372E-02 
2230	 2.75613742828773E-02 
2231	 2.86699266051454E-02 
2232	 3.31419330268648E-02 
2233	 0.035354528163743 
2234	 0.038100955491046 
2235	 3.82515425074391E-02 
2236	 3.61332324253993E-02 
2237	 0.035288804903908 
2238	 3.42653947916358E-02 
2239	 3.23190395123893E-02 
2240	 3.25413563296924E-02 
2241	 3.54963380939136E-02 
2242	 3.78630738381815E-02 
2243	 4.13708948534348E-02 
2244	 4.42876152435112E-02 
2245	 4.47250916693318E-02 
2246	 4.33230589432166E-02 
2247	 4.03809460407041E-02 
2248	 3.46883310050568E-02 
2249	 3.11330801246508E-02 
2250	 3.52474286662541E-02 
2251	 0.036886511234929 
2252	 3.63912977531113E-02 
2253	 3.51028675077007E-02 
2254	 2.94712061993419E-02 
2255	 2.48011338246728E-02 
2256	 2.28817337312847E-02 
2257	 2.31705246434721E-02 
2258	 2.25229782481642E-02 
2259	 2.46654629833406E-02 
2260	 2.60399482020522E-02 
2261	 0.029241388099393 
2262	 2.98439153648281E-02 
2263	 2.58955443623694E-02 
2264	 2.78976530050711E-02 
2265	 3.67606271264135E-02 
2266	 3.93257625447722E-02 
2267	 4.29408859474637E-02 
2268	 4.17954066982322E-02 
2269	 3.10644411466382E-02 
2270	 2.56399705889791E-02 
2271	 2.19102756215053E-02 
2272	 1.94465436678063E-02 
2273	 1.59413329380506E-02 
2274	 1.70266675730246E-02 
2275	 2.48847344779488E-02 
2276	 2.71609443894782E-02 
2277	 2.88032939755719E-02 
2278	 3.07353926722351E-02 
2279	 0.028449915779248 
2280	 0.028178712356323 
2281	 2.95823469189287E-02 
2282	 3.46312159366038E-02 
2283	 3.58527961259738E-02 
2284	 3.54556887738047E-02 
2285	 2.92029693103297E-02 
2286	 2.71119980809523E-02 
2287	 3.10969082655093E-02 
2288	 2.62879389024803E-02 
2289	 2.77687721184005E-02 
2290	 0.030959023267234 
2291	 2.72510127356492E-02 
2292	 2.39362732102939E-02 
2293	 1.31201150350133E-02 
2294	 6.56987989425879E-03 
2295	 1.07984595334225E-02 
2296	 1.45328229542196E-02 
2297	 1.49379338676363E-02 
2298	 2.09906133671661E-02 
2299	 3.02526943554171E-02 
2300	 0.028275917867427 
2301	 3.46010280065758E-02 
2302	 4.22563094740597E-02 
2303	 3.20609664432264E-02 
2304	 0.028036263853531 
2305	 2.82156693883509E-02 
2306	 2.71499459521016E-02 
2307	 0.025125266435896 
2308	 1.98432277701575E-02 
2309	 2.52027525312301E-02 
2310	 2.92329189109679E-02 
2311	 2.64373705351595E-02 
2312	 0.027896433875198 
2313	 3.02784681031057E-02 
2314	 3.32079815280405E-02 
2315	 0.03778896414641 
2316	 3.95819929762439E-02 
2317	 3.22202704644944E-02 
2318	 1.99728688315351E-02 
2319	 1.60405927298093E-02 
2320	 2.01001365213757E-02 
2321	 2.06634562508552E-02 
2322	 2.56637674612119E-02 
2323	 4.00028281740255E-02 
2324	 4.20264728435414E-02 
2325	 3.06482020924296E-02 
2326	 3.18494748791041E-02 
2327	 3.81656260691979E-02 
2328	 3.45400875318649E-02 
2329	 4.60476689987573E-02 
2330	 5.73703143451079E-02 
2331	 4.86663754897991E-02 
2332	 0.047378059365602 
2333	 5.24857940247519E-02 
2334	 4.74257913497562E-02 
2335	 3.57765616465468E-02 
2336	 0.021847444155557 
2337	 8.77945390256507E-03 
2338	 1.32725134355214E-02 
2339	 0.027597422954741 
2340	 4.01011648650425E-02 
2341	 6.16609132224675E-02 
2342	 5.77320975452348E-02 
2343	 2.80090554536931E-02 
2344	 9.48263560714985E-03 
2345	-1.34846617211285E-03 
2346	-8.33646625313463E-03 
2347	 9.59571955099783E-03 
2348	 5.07485027160067E-02 
2349	 7.08493282707465E-02 
2350	 7.82287338882884E-02 
2351	 8.11891242747955E-02 
2352	 0.05729282636445 
2353	 3.03405661166778E-02 
2354	 2.08191433994342E-02 
2355	 0.013601325194779 
2356	 9.30428737048392E-04 
2357	-9.39421669728324E-03 
2358	-2.16465981796691E-03 
2359	 8.36161837912335E-03 
2360	 1.54571597505554E-02 
2361	 4.88699707064704E-02 
2362	 5.02385868024566E-02 
2363	 3.11880166715183E-02 
2364	 3.40140010221559E-02 
2365	 1.77614199179295E-02 
2366	 2.75485309529384E-02 
2367	 3.56768761144376E-02 
2368	 5.05779072715462E-02 
2369	 8.05825049349638E-02 
2370	 3.56834386094578E-02 
2371	 2.23894276162252E-03 
2372	-0.015130674254513 
2373	-0.082807468535908 
2374	-8.72207462864362E-02 
2375	-2.90813864724624E-02 
2376	-1.27609860953154E-02 
2377	 1.54186157488481E-02 
2378	 2.47929444457606E-02 
2379	-2.17122101624252E-02 
2380	-3.67344105344379E-02 
2381	-5.44076848973503E-02 
2382	-6.95411867510273E-02 
2383	-0.067589526852173 
2384	-9.57921319242669E-02 
2385	-0.125001761475338 
2386	-0.140374378343762 
2387	-0.116127604364862 
2388	-0.100146230235394 
2389	-0.078378563114035 
2390	 6.64672360502998E-04 
2391	 2.12309583524432E-03 
2392	-3.33862504443836E-02 
2393	-5.26474690470968E-02 
2394	-0.155226430954281 
2395	-0.147329594354289 
2396	-6.49837136800618E-02 
2397	-0.102467161807241 
2398	-0.143582371404705 
2399	-0.175636929255977 
2400	-0.284655723305516 
2401	-0.251301325708787 
2402	-0.102586653590094 
2403	-0.125288117982885 
2404	-0.104581441096168 
2405	-1.98144258405898E-03 
2406	-3.20384405523977E-02 
2407	 7.98039456475539E-02 
2408	 0.223022845325003 
2409	 0.178646306269195 
2410	 0.195229404415528 
2411	 0.239640138799205 
2412	 0.134756655004913 
2413	 0.127867404005775 
2414	 0.111384964819041 
2415	-0.252038036009124 
2416	-0.395560653750319 
2417	-0.499250143261983 
2418	-0.585274992975431 
2419	-0.561921474024724 
2420	-0.637245091427263 
2421	-0.797090014073096 
2422	-0.797395351025251 
2423	-0.872219725593487 
2424	-0.578512750683021 
2425	-0.189741653260079 
2426	-0.140671714419206 
2427	-1.63969748234682E-02 
2428	 6.01208397254747E-02 
2429	-0.043354834634908 
2430	-0.132248074989355 
2431	-0.27953595012288 
2432	-0.306046388629571 
2433	-0.449127651345987 
2434	-0.703288089143098 
2435	-1.14207056734404 
2436	-10.676601995135 
2437	 1.84957097019037 
2438	 1.0617276447077 
2439	 0.597485104720031 
2440	 5.49795428171272 
2441	-0.855324201077632 
2442	 3.94876582481591 
2443	 1.01056149743237 
2444	 0.323618494197635 
2445	 0.507991247487174 
2446	 0.291625471075847 
2447	 0.218220111399142 
2448	 0.150551304876342 
2449	 0.43426124008333 
2450	 0.568329719501173 
2451	-4.93597894850337E-02 
2452	-0.285031050436389 
2453	-9.61520460339868 
2454	 18.8896907811553 
2455	-54.185433385516 
2456	-1.70680683621465 
2457	-0.985135100901398 
2458	-1.26932978926491 
2459	-1.69796073101291 
2460	-2.05041885305466 
2461	-8.0651291884319 
2462	-9.12349273020867 
2463	-1.90246070524099 
2464	 13.6651874999513 
2465	 2.47478256790918 
2466	-1.71079159475699 
2467	-0.709159553650205 
2468	 2.03880769269768E-02 
2469	 14.3816666792555 
2470	 4.54914800164577 
2471	 1.69293189707232 
2472	 13.2304856548474 
2473	-7.4668378292827 
2474	-1.68364641631475 
2475	-5.01499145869904 
2476	 44.0961841891409 
2477	 36.3004643498349 
2478	 6.95194080992855 
2479	-1.00495805190637 
2480	 9.98373623996449E-02 
2481	 0.622190590358907 
2482	 0.388443254483628 
2483	-6.42027186736137E-02 
2484	-0.651326088246381 
2485	-1.72590735680963 
2486	 4.5362641912463 
2487	 28.9094971140826 
2488	 184.727827396561 
2489	-1.70674070101058 
2490	-0.238167994111355 
2491	-0.983303696166142 
2492	-0.260027044722896 
2493	 1.1311817086314 
2494	-7.48723463661881 
2495	 1.85274058588848 
2496	 0.549418234985577 
2497	 0.391767538663877 
2498	 0.274472793358104 
2499	 0.335781830113457 
2500	 2.001638888414 
