Wavelength	rt0805far00007.asd
350	 0.065801001210005 
351	 6.52695591452198E-02 
352	 6.62561909493827E-02 
353	 6.71175233951426E-02 
354	 6.67615586779962E-02 
355	 6.65711422185846E-02 
356	 6.59604111239684E-02 
357	 0.065769674302609 
358	 6.65737659587127E-02 
359	 6.60847410483435E-02 
360	 6.60079978101865E-02 
361	 6.65528751939709E-02 
362	 6.68215653699658E-02 
363	 6.65850934123995E-02 
364	 6.65833587006269E-02 
365	 6.68332192992358E-02 
366	 6.60537387760326E-02 
367	 6.66708971243892E-02 
368	 6.72997106999091E-02 
369	 6.65056960149269E-02 
370	 6.62747701476222E-02 
371	 6.66945251175123E-02 
372	 6.72892528563722E-02 
373	 6.73714258014938E-02 
374	 6.77749073672685E-02 
375	 6.75757139655876E-02 
376	 6.68415501867128E-02 
377	 6.71642501441942E-02 
378	 6.79159944894027E-02 
379	 0.068531238133871 
380	 6.86911192702802E-02 
381	 6.88608366105716E-02 
382	 6.84672051290309E-02 
383	 6.81473992352991E-02 
384	 6.87853779588531E-02 
385	 6.86487044044418E-02 
386	 6.89119092005194E-02 
387	 6.94976281566916E-02 
388	 6.88212627446278E-02 
389	 6.94278731051046E-02 
390	 7.02405174373127E-02 
391	 7.02132565339842E-02 
392	 7.01313463939692E-02 
393	 6.97758235869076E-02 
394	 6.98519645225107E-02 
395	 7.08288628371539E-02 
396	 7.03463839691775E-02 
397	 0.070288865261787 
398	 7.09472545449465E-02 
399	 7.10904052387399E-02 
400	 0.070834261816677 
401	 7.09394888055375E-02 
402	 7.15521506988345E-02 
403	 7.12296583253321E-02 
404	 7.11301141063776E-02 
405	 7.14085370267462E-02 
406	 7.17723801954544E-02 
407	 7.16886512405506E-02 
408	 7.16620175204024E-02 
409	 7.17765448337945E-02 
410	 7.16667909684226E-02 
411	 7.18318953107787E-02 
412	 0.072013797261453 
413	 7.20285334439918E-02 
414	 7.21932259356351E-02 
415	 7.23808150927544E-02 
416	 7.26190449153514E-02 
417	 0.072936493240111 
418	 7.29918328244347E-02 
419	 7.31694189564418E-02 
420	 7.34874229650804E-02 
421	 7.35384342805747E-02 
422	 7.37125506475662E-02 
423	 7.39347152244575E-02 
424	 7.40909355787859E-02 
425	 0.074257096335905 
426	 7.41779189647147E-02 
427	 7.41442472387173E-02 
428	 7.46008263200401E-02 
429	 7.50749909794985E-02 
430	 7.53564895672698E-02 
431	 7.54776965914075E-02 
432	 7.57154153969755E-02 
433	 7.59708065363409E-02 
434	 7.63087243521771E-02 
435	 7.67196266802591E-02 
436	 7.68578605595761E-02 
437	 7.72251604765524E-02 
438	 7.76437586841603E-02 
439	 7.76765551449101E-02 
440	 7.81560628491658E-02 
441	 7.86232855000919E-02 
442	 7.88687149951415E-02 
443	 7.92501781110961E-02 
444	 7.97226444121779E-02 
445	 8.01560549242675E-02 
446	 8.04441689625323E-02 
447	 8.06678669773229E-02 
448	 8.10410308534368E-02 
449	 8.14866391408388E-02 
450	 8.17263115612473E-02 
451	 8.18331496865873E-02 
452	 8.19038420239306E-02 
453	 8.20322981378733E-02 
454	 8.22974883104989E-02 
455	 0.082631980923047 
456	 8.29066567288094E-02 
457	 8.30365822442999E-02 
458	 0.083304626948898 
459	 8.34262038209277E-02 
460	 8.34405385816258E-02 
461	 8.37125998248124E-02 
462	 0.083792152578634 
463	 8.38670241903405E-02 
464	 8.41001262327825E-02 
465	 8.42249257677614E-02 
466	 8.44324951485114E-02 
467	 8.46459033098525E-02 
468	 8.47169257436052E-02 
469	 8.49855546625172E-02 
470	 0.085284656986585 
471	 8.55131911768165E-02 
472	 8.57223020471581E-02 
473	 8.58387598473258E-02 
474	 8.60442797328926E-02 
475	 8.64496666463869E-02 
476	 8.66889986687871E-02 
477	 8.69307089473194E-02 
478	 8.71660959812288E-02 
479	 8.72974774524443E-02 
480	 8.76809225432314E-02 
481	 8.80195789863285E-02 
482	 8.81510342177601E-02 
483	 8.83478902183747E-02 
484	 8.86259123064976E-02 
485	 8.89895395228089E-02 
486	 8.93993012549158E-02 
487	 8.96995186261279E-02 
488	 9.00106049328714E-02 
489	 9.03971029976074E-02 
490	 9.08507336085421E-02 
491	 9.13062791794373E-02 
492	 9.17232830644658E-02 
493	 9.21190120270985E-02 
494	 9.26579064217911E-02 
495	 0.093175624635757 
496	 9.36544217300088E-02 
497	 9.41588635817402E-02 
498	 9.47393293901669E-02 
499	 9.53677359167347E-02 
500	 9.59987059537408E-02 
501	 9.65734255922891E-02 
502	 9.72221919950584E-02 
503	 9.79297770399738E-02 
504	 9.86354886992509E-02 
505	 9.92885763235139E-02 
506	 9.99055067025053E-02 
507	 0.100507779877221 
508	 0.101117549589362 
509	 0.10174987342967 
510	 0.10237368358541 
511	 0.10299746088441 
512	 0.103763515889049 
513	 0.104434365219427 
514	 0.105026807068683 
515	 0.105674281091948 
516	 0.106467123382758 
517	 0.107315516330723 
518	 0.10814066195785 
519	 0.108909314827278 
520	 0.109632832074921 
521	 0.110353690495755 
522	 0.111121321919473 
523	 0.111990700110203 
524	 0.112725423194042 
525	 0.113391415674784 
526	 0.114249454367689 
527	 0.115079039947629 
528	 0.115863706206171 
529	 0.116636177915074 
530	 0.117479601610249 
531	 0.118231348198344 
532	 0.119010194615526 
533	 0.119970326543219 
534	 0.120827785243748 
535	 0.121683447210574 
536	 0.12256072892058 
537	 0.123362847157396 
538	 0.124257172783384 
539	 0.125177586048348 
540	 0.126065250991681 
541	 0.127109527208017 
542	 0.127979270410305 
543	 0.128753551676626 
544	 0.129737511752551 
545	 0.130666885241976 
546	 0.131499479040507 
547	 0.132299009117916 
548	 0.133290583933413 
549	 0.134174028566905 
550	 0.135016169461779 
551	 0.135967415314034 
552	 0.136847847877244 
553	 0.13770633994375 
554	 0.138555905703371 
555	 0.139352242841066 
556	 0.14018483558352 
557	 0.141023295245683 
558	 0.141831229030536 
559	 0.142687906689503 
560	 0.143528099911562 
561	 0.144266588875711 
562	 0.144849607826194 
563	 0.145622812715538 
564	 0.146307442217662 
565	 0.146783829494271 
566	 0.147405856458851 
567	 0.147943227495485 
568	 0.14844876135826 
569	 0.149016416259826 
570	 0.149391717055155 
571	 0.149748832574028 
572	 0.150138578445044 
573	 0.15045090828308 
574	 0.150741395582221 
575	 0.150983360032607 
576	 0.151172494739262 
577	 0.151455964231601 
578	 0.151567025184092 
579	 0.151531067591284 
580	 0.1515451372859 
581	 0.151541517593534 
582	 0.151453039028189 
583	 0.151281747643752 
584	 0.151153481826539 
585	 0.151077635764684 
586	 0.150970122167916 
587	 0.150749581451034 
588	 0.150659070511925 
589	 0.150447834983798 
590	 0.150047003975156 
591	 0.149602499933992 
592	 0.14914663318067 
593	 0.148600195199859 
594	 0.147907568883752 
595	 0.147131673884359 
596	 0.146208037795254 
597	 0.145165523108389 
598	 0.14409111008112 
599	 0.142999091523905 
600	 0.142014793941453 
601	 0.141227178037906 
602	 0.140648631119743 
603	 0.140187862281535 
604	 0.139850209551875 
605	 0.139669769138664 
606	 0.139656019514324 
607	 0.139551346510272 
608	 0.139371681255928 
609	 0.139409023071156 
610	 0.139225837647837 
611	 0.138985112152725 
612	 0.138863931642525 
613	 0.138689257945124 
614	 0.138560508142692 
615	 0.138463866332133 
616	 0.138332732390544 
617	 0.138236787955397 
618	 0.138033434735339 
619	 0.137750443813029 
620	 0.137731114860666 
621	 0.137676932662199 
622	 0.137523459132018 
623	 0.137311821687199 
624	 0.137184247132624 
625	 0.137190334155068 
626	 0.137230784774361 
627	 0.137083661494496 
628	 0.136969766232031 
629	 0.136816899306245 
630	 0.136575846731998 
631	 0.136399963795932 
632	 0.13630838779245 
633	 0.136172906911867 
634	 0.135841822418531 
635	 0.135570967320875 
636	 0.135561463747676 
637	 0.13572506474026 
638	 0.135590929865188 
639	 0.135243901656185 
640	 0.134944640965522 
641	 0.134889576958383 
642	 0.134725329689377 
643	 0.134678287097742 
644	 0.134728223364208 
645	 0.134649114360011 
646	 0.134530665880906 
647	 0.13426525644639 
648	 0.13386751963923 
649	 0.133669373868003 
650	 0.133465137395431 
651	 0.133031802399181 
652	 0.132258268502129 
653	 0.131655005575747 
654	 0.130996389123684 
655	 0.130111243130332 
656	 0.129101790610507 
657	 0.128059255944433 
658	 0.127109890542677 
659	 0.126286236185488 
660	 0.125470642723037 
661	 0.124642536825543 
662	 0.123836734193124 
663	 0.12312625402729 
664	 0.122394284705064 
665	 0.12166694170447 
666	 0.121001800831734 
667	 0.120499495177867 
668	 0.120058763062779 
669	 0.119680052423187 
670	 0.119399510696292 
671	 0.119257652218797 
672	 0.119044911455522 
673	 0.118863917600849 
674	 0.119085513048075 
675	 0.119249758411543 
676	 0.119344091581986 
677	 0.119483517792994 
678	 0.119884601952887 
679	 0.1202943493489 
680	 0.120710176563378 
681	 0.121241565467233 
682	 0.121907768705446 
683	 0.122576309345049 
684	 0.123241186129349 
685	 0.124165151829643 
686	 0.125406100856031 
687	 0.126360222011346 
688	 0.126581008159925 
689	 0.126920106683308 
690	 0.127319680116874 
691	 0.127773258794249 
692	 0.128246619820303 
693	 0.128247513220731 
694	 0.127806373157742 
695	 0.127187416012375 
696	 0.126671644328981 
697	 0.126207146315635 
698	 0.125755409230607 
699	 0.125255054088554 
700	 0.124345702735065 
701	 0.123294775537145 
702	 0.122232724790958 
703	 0.121090766920766 
704	 0.120014190306086 
705	 0.118755874799217 
706	 0.117271167037759 
707	 0.115940196790419 
708	 0.114535012750219 
709	 0.112896303434417 
710	 0.110976904138003 
711	 0.109139225228411 
712	 0.107217264913509 
713	 0.105243696546051 
714	 0.103448843400299 
715	 0.10221434674304 
716	 0.100890191336579 
717	 9.87769457922757E-02 
718	 9.63615293077192E-02 
719	 9.34043753052781E-02 
720	 9.08335199111203E-02 
721	 8.88114651142237E-02 
722	 8.71497103823861E-02 
723	 8.52464128244606E-02 
724	 8.31042772421952E-02 
725	 0.080828549173515 
726	 7.83411930319482E-02 
727	 7.58246643584281E-02 
728	 7.33825839079079E-02 
729	 7.07372779148517E-02 
730	 6.78926780146677E-02 
731	 6.51786419152495E-02 
732	 6.27701846062685E-02 
733	 6.10445683136794E-02 
734	 5.96817698811197E-02 
735	 5.85149341860945E-02 
736	 5.75367100721115E-02 
737	 5.67224143967755E-02 
738	 5.60057564419311E-02 
739	 5.54039549928859E-02 
740	 0.055157231308566 
741	 0.054931022889463 
742	 5.46634002369706E-02 
743	 5.44456451921188E-02 
744	 5.43540376209246E-02 
745	 5.43719797728249E-02 
746	 5.43988555707026E-02 
747	 5.42417108816911E-02 
748	 5.41544913940454E-02 
749	 5.40855117970869E-02 
750	 5.40024954999804E-02 
751	 5.42319312555798E-02 
752	 5.42212392139782E-02 
753	 5.40467916959242E-02 
754	 5.40954433029068E-02 
755	 5.41322150919145E-02 
756	 5.42062049065751E-02 
757	 5.43523789799486E-02 
758	 5.46043472997755E-02 
759	 5.51290653092545E-02 
760	 5.57507369456627E-02 
761	 5.58284793761445E-02 
762	 5.59990343832912E-02 
763	 5.59039262314432E-02 
764	 5.55141330578788E-02 
765	 5.50116565638775E-02 
766	 5.48184646982083E-02 
767	 5.47698031100054E-02 
768	 5.48117316679164E-02 
769	 5.49930306062605E-02 
770	 5.50427773189855E-02 
771	 5.50434053235527E-02 
772	 5.51183944787024E-02 
773	 5.52876964324444E-02 
774	 5.55340354919156E-02 
775	 0.055785964438063 
776	 5.59798454280713E-02 
777	 5.62403152928918E-02 
778	 5.64611166066902E-02 
779	 5.66633892866701E-02 
780	 5.69955492391843E-02 
781	 0.057176322648198 
782	 5.74739304684712E-02 
783	 5.79823635575741E-02 
784	 5.81573182616204E-02 
785	 5.85301853346215E-02 
786	 5.90469598443629E-02 
787	 5.94849081345935E-02 
788	 6.00227522689808E-02 
789	 6.03014912658621E-02 
790	 6.04668547219509E-02 
791	 0.06101713062377 
792	 0.06137415318524 
793	 6.15177426013927E-02 
794	 0.061693773254166 
795	 6.24499134241445E-02 
796	 6.31344728872934E-02 
797	 6.34303140259679E-02 
798	 6.33966411003055E-02 
799	 6.38278317736906E-02 
800	 6.42369190191471E-02 
801	 6.44755766072796E-02 
802	 0.064629084058897 
803	 6.48245289906113E-02 
804	 6.49958222631625E-02 
805	 6.50372101235042E-02 
806	 6.48382393944894E-02 
807	 6.48156821304626E-02 
808	 6.49449707099608E-02 
809	 6.50815790868309E-02 
810	 6.50206846300847E-02 
811	 6.48974302271942E-02 
812	 6.49306472527473E-02 
813	 0.065203231575544 
814	 6.45908877985865E-02 
815	 6.41448221394117E-02 
816	 6.40632868765442E-02 
817	 6.36113093167637E-02 
818	 6.22932271696292E-02 
819	 0.061282121798394 
820	 6.08320151468359E-02 
821	 6.01284011349578E-02 
822	 5.88247817790696E-02 
823	 5.74720286903678E-02 
824	 5.64686197156466E-02 
825	 0.0550920804074 
826	 5.38770902780475E-02 
827	 0.052714595582845 
828	 5.13752025594466E-02 
829	 4.98747685618524E-02 
830	 4.86756504328673E-02 
831	 4.79010416820793E-02 
832	 4.73865156165007E-02 
833	 4.65921162994614E-02 
834	 4.58687839618391E-02 
835	 4.53803168123037E-02 
836	 4.49330470611539E-02 
837	 4.46589229000675E-02 
838	 4.44092030677467E-02 
839	 4.41442538315711E-02 
840	 4.42973428027686E-02 
841	 4.39836155402384E-02 
842	 4.35398179375006E-02 
843	 4.35144011207475E-02 
844	 4.31817622566877E-02 
845	 4.28517901983387E-02 
846	 0.042694197216117 
847	 4.27043129357959E-02 
848	 4.24582142087752E-02 
849	 4.23231376390063E-02 
850	 4.23677568650856E-02 
851	 4.21838608359308E-02 
852	 4.20641938701781E-02 
853	 4.19691279848428E-02 
854	 4.18408300378907E-02 
855	 4.17218888242149E-02 
856	 4.16021016535374E-02 
857	 4.15759060562793E-02 
858	 0.041649752057634 
859	 4.14489246348081E-02 
860	 4.11001550135268E-02 
861	 4.08943488596713E-02 
862	 4.10667382131934E-02 
863	 4.10642293440478E-02 
864	 4.09397835142187E-02 
865	 4.08402348508842E-02 
866	 4.08941300495865E-02 
867	 4.04933822611185E-02 
868	 0.040232484670509 
869	 4.03521374540719E-02 
870	 4.04234216341486E-02 
871	 0.039926106577108 
872	 3.97025209234127E-02 
873	 4.01793116116881E-02 
874	 0.040200889918164 
875	 3.99016321043292E-02 
876	 3.96497369104358E-02 
877	 3.96847478895983E-02 
878	 3.93963437695745E-02 
879	 3.93631436145861E-02 
880	 3.94923482118941E-02 
881	 3.93962142374882E-02 
882	 3.90637293963831E-02 
883	 3.89067124081735E-02 
884	 3.89232268296229E-02 
885	 3.88095352632767E-02 
886	 3.87632628687557E-02 
887	 3.86169109159213E-02 
888	 3.83918235559857E-02 
889	 3.83584006712243E-02 
890	 3.85923368483128E-02 
891	 3.88513528261232E-02 
892	 3.89386587383917E-02 
893	 0.038883511134185 
894	 3.87826152456295E-02 
895	 3.91883163775168E-02 
896	 4.01529104536349E-02 
897	 3.96662119609635E-02 
898	 3.94944416479279E-02 
899	 3.92073767741762E-02 
900	 3.83260241930638E-02 
901	 3.89769383964759E-02 
902	 3.93008229281395E-02 
903	 3.90456897721836E-02 
904	 3.85178243332098E-02 
905	 3.72647000281281E-02 
906	 3.71964163839728E-02 
907	 3.84316293528999E-02 
908	 0.039331500654002 
909	 3.76526540097502E-02 
910	 3.78793822418926E-02 
911	 0.039629122277985 
912	 0.038169459682536 
913	 3.83435715536303E-02 
914	 3.83021751306228E-02 
915	 3.76228228021001E-02 
916	 3.81795440725205E-02 
917	 3.82106350369401E-02 
918	 3.74741241039699E-02 
919	 3.68330650938617E-02 
920	 3.80462195790552E-02 
921	 3.83683735204897E-02 
922	 3.82201158721612E-02 
923	 3.82804315410764E-02 
924	 3.84501660184179E-02 
925	 3.88661893151265E-02 
926	 3.88822568388503E-02 
927	 3.80731105597918E-02 
928	 3.82204270242587E-02 
929	 3.86328392938313E-02 
930	 3.60861850897906E-02 
931	 2.86088218618312E-02 
932	 3.94525811044071E-02 
933	 3.80711834219964E-02 
934	 3.00218939596593E-02 
935	 0.037045047827253 
936	 2.96547339861749E-02 
937	 3.34119221467588E-02 
938	 4.20606746415426E-02 
939	 4.34246438787955E-02 
940	 3.98897835976591E-02 
941	 0.038365455369807 
942	 3.80404831753785E-02 
943	 3.51249476334081E-02 
944	 3.48130528679702E-02 
945	 4.12352798420643E-02 
946	 4.55840818522001E-02 
947	 3.76962772820553E-02 
948	 4.03171088563794E-02 
949	 3.60523389513449E-02 
950	 3.03574800036512E-02 
951	 3.81971575440349E-02 
952	 0.036580294399594 
953	 4.01780798235363E-02 
954	 4.59661648350528E-02 
955	 4.09439995145214E-02 
956	 3.46400376317738E-02 
957	 3.62023545958932E-02 
958	 0.040581373240897 
959	 3.72065697064036E-02 
960	 3.99694942625973E-02 
961	 3.91689837808888E-02 
962	 3.63634727743296E-02 
963	 3.90788357120587E-02 
964	 3.71363268435804E-02 
965	 3.66460651677956E-02 
966	 3.84551443138381E-02 
967	 3.90928665950237E-02 
968	 3.55571774845292E-02 
969	 3.38719797098032E-02 
970	 3.53242067328326E-02 
971	 3.67242791257032E-02 
972	 3.80451872047752E-02 
973	 3.75517353096522E-02 
974	 0.035902239771674 
975	 3.60337565178766E-02 
976	 3.86897807659072E-02 
977	 3.83133783393338E-02 
978	 3.59921606766778E-02 
979	 3.74529970414643E-02 
980	 3.55194180889383E-02 
981	 3.53754881930339E-02 
982	 0.036903497840885 
983	 3.58094597504914E-02 
984	 3.48839924200834E-02 
985	 3.41595895336945E-02 
986	 3.38146461291371E-02 
987	 3.42909480770636E-02 
988	 3.61277136589748E-02 
989	 3.60821682323449E-02 
990	 3.44211441340504E-02 
991	 0.033917765355168 
992	 3.35563662687713E-02 
993	 3.48195906663253E-02 
994	 3.61713018832199E-02 
995	 3.49969469845958E-02 
996	 3.57671285507507E-02 
997	 3.49212827083691E-02 
998	 0.033362344263331 
999	 3.43058839960849E-02 
1000	 3.57627288820385E-02 
1001	 3.57227231333891E-02 
1002	 0.035020026611651 
1003	 3.46904456309292E-02 
1004	 3.48890406895992E-02 
1005	 3.47785477702923E-02 
1006	 3.41891319653886E-02 
1007	 3.40331771182924E-02 
1008	 3.44898284103439E-02 
1009	 3.45150726306632E-02 
1010	 3.43646265478751E-02 
1011	 3.45733248651939E-02 
1012	 3.45669395395461E-02 
1013	 3.45416670700141E-02 
1014	 3.44368193683029E-02 
1015	 3.42353148516373E-02 
1016	 3.43250481941237E-02 
1017	 3.44044072611792E-02 
1018	 3.46121784375653E-02 
1019	 0.035540864162667 
1020	 0.035615496154647 
1021	 3.51575219333328E-02 
1022	 3.49053590614721E-02 
1023	 3.36623621765216E-02 
1024	 3.32600633704309E-02 
1025	 3.41073568949906E-02 
1026	 0.034209484959946 
1027	 3.42072334988748E-02 
1028	 3.45088376296077E-02 
1029	 3.46344686266193E-02 
1030	 3.41368238879318E-02 
1031	 3.40420150683151E-02 
1032	 3.44332227355811E-02 
1033	 3.46055910836128E-02 
1034	 0.034544960096187 
1035	 3.45298474338925E-02 
1036	 3.46729710052113E-02 
1037	 3.47071521799741E-02 
1038	 3.42779908052565E-02 
1039	 3.44996722112304E-02 
1040	 3.50098535886151E-02 
1041	 0.034830013164852 
1042	 3.50825273968765E-02 
1043	 3.56876097972077E-02 
1044	 3.57006054461738E-02 
1045	 3.55745359344328E-02 
1046	 3.54355917879823E-02 
1047	 3.48024884400624E-02 
1048	 3.45418215976171E-02 
1049	 3.43992493279623E-02 
1050	 3.43256395196311E-02 
1051	 0.0345104204864 
1052	 3.44939023005612E-02 
1053	 3.42258811376341E-02 
1054	 3.43658625075584E-02 
1055	 3.50503843541356E-02 
1056	 3.50831795104832E-02 
1057	 3.49400962569959E-02 
1058	 3.49583549444232E-02 
1059	 3.45433203712917E-02 
1060	 3.30595529328403E-02 
1061	 3.28363779792878E-02 
1062	 3.29337758724349E-02 
1063	 3.34309586380622E-02 
1064	 3.51928709489392E-02 
1065	 3.56225250975502E-02 
1066	 3.55535878022424E-02 
1067	 3.57568369534243E-02 
1068	 3.56308584469189E-02 
1069	 0.035258198818111 
1070	 3.47755214457029E-02 
1071	 3.46207791780867E-02 
1072	 0.034053238669857 
1073	 3.36012076108352E-02 
1074	 3.38824903883108E-02 
1075	 3.52660368640338E-02 
1076	 3.55045550745624E-02 
1077	 3.58118205105153E-02 
1078	 3.55002955675312E-02 
1079	 3.40582909979873E-02 
1080	 3.37623611071878E-02 
1081	 3.36136312997239E-02 
1082	 3.36102276825228E-02 
1083	 3.43289884548713E-02 
1084	 3.47483328343096E-02 
1085	 3.51513370776807E-02 
1086	 3.53815755284108E-02 
1087	 3.58229500917337E-02 
1088	 3.58197397416121E-02 
1089	 3.49723601604544E-02 
1090	 3.46451192091443E-02 
1091	 0.034584992944061 
1092	 3.43721102979423E-02 
1093	 3.46345740558547E-02 
1094	 0.035995587870205 
1095	 3.62430504816129E-02 
1096	 3.60800100693239E-02 
1097	 3.60553323797963E-02 
1098	 3.50615505292735E-02 
1099	 3.51250810499901E-02 
1100	 3.64530460296452E-02 
1101	 3.68080288797442E-02 
1102	 3.73445395936364E-02 
1103	 0.037625077872763 
1104	 3.74813573814924E-02 
1105	 3.59670501521803E-02 
1106	 3.59180328290124E-02 
1107	 3.62429178766811E-02 
1108	 3.61022230586854E-02 
1109	 3.68774358192602E-02 
1110	 3.68646135442423E-02 
1111	 3.59711656429723E-02 
1112	 3.58640574414912E-02 
1113	 3.61904630810312E-02 
1114	 3.65218353778482E-02 
1115	 3.83155128132674E-02 
1116	 0.038249823237641 
1117	 3.57324480803155E-02 
1118	 3.32557110383851E-02 
1119	 2.64647457970691E-02 
1120	 2.33250958251515E-02 
1121	 2.70248332905031E-02 
1122	 2.45983102627074E-02 
1123	 2.36779425996022E-02 
1124	 3.30169981694953E-02 
1125	 3.79664470659066E-02 
1126	 3.55546820187813E-02 
1127	 3.11079825659994E-02 
1128	 2.27696113316429E-02 
1129	 0.023801025140157 
1130	 2.92106944601707E-02 
1131	 2.89948947432902E-02 
1132	 2.83698009078891E-02 
1133	 3.11785921623257E-02 
1134	 3.22082326624959E-02 
1135	 3.19248072613668E-02 
1136	 0.039692001157796 
1137	 3.98189264496274E-02 
1138	 3.46406995278222E-02 
1139	 2.45692517626186E-02 
1140	 2.42415699849128E-02 
1141	 2.59263808368898E-02 
1142	 2.88677480709839E-02 
1143	 3.62505753155999E-02 
1144	 3.75099817434767E-02 
1145	 3.57437541684853E-02 
1146	 4.01738691537843E-02 
1147	 4.48652636632343E-02 
1148	 4.50562583714213E-02 
1149	 4.29579444773464E-02 
1150	 4.23786562547985E-02 
1151	 3.85367238033033E-02 
1152	 3.75061217819971E-02 
1153	 3.98570208683201E-02 
1154	 4.00625470496786E-02 
1155	 3.99190194528056E-02 
1156	 0.037665549853347 
1157	 3.65668213917331E-02 
1158	 0.036751505904685 
1159	 3.70626671592016E-02 
1160	 3.83534711907957E-02 
1161	 3.90437768483352E-02 
1162	 3.78861612285153E-02 
1163	 3.66389186813238E-02 
1164	 3.59177729037312E-02 
1165	 3.55322226893106E-02 
1166	 3.59216841317425E-02 
1167	 3.63615477596433E-02 
1168	 3.53154273923168E-02 
1169	 3.43128319927012E-02 
1170	 3.49810624556726E-02 
1171	 3.50216228379443E-02 
1172	 3.47686660927835E-02 
1173	 3.50101440260311E-02 
1174	 3.58658395203609E-02 
1175	 3.56966507755329E-02 
1176	 3.47020207976696E-02 
1177	 3.46053248465239E-02 
1178	 0.034562956422844 
1179	 3.42773936514531E-02 
1180	 0.034828158212281 
1181	 3.56184020744788E-02 
1182	 3.59518532452326E-02 
1183	 3.59580342044196E-02 
1184	 3.55125470325599E-02 
1185	 3.51825961198943E-02 
1186	 3.49578119484141E-02 
1187	 3.45907130760009E-02 
1188	 3.45499068447925E-02 
1189	 3.49723521279341E-02 
1190	 3.49836308226767E-02 
1191	 3.42932625449333E-02 
1192	 3.42777588381826E-02 
1193	 3.44894531453005E-02 
1194	 3.47549723610209E-02 
1195	 3.46664456345267E-02 
1196	 3.48379558422037E-02 
1197	 3.46891130584667E-02 
1198	 3.41881907246904E-02 
1199	 3.39637810341057E-02 
1200	 3.43956202314463E-02 
1201	 3.49786209690549E-02 
1202	 3.48797639273888E-02 
1203	 0.034487923194786 
1204	 0.034270078495412 
1205	 3.38479649294948E-02 
1206	 3.37390626791705E-02 
1207	 3.42787162890359E-02 
1208	 3.42255548294667E-02 
1209	 3.37988118039518E-02 
1210	 3.38676549750146E-02 
1211	 3.39395505761234E-02 
1212	 3.41342648444657E-02 
1213	 3.48803304732649E-02 
1214	 3.49631094679779E-02 
1215	 3.45379475633687E-02 
1216	 3.37613897361973E-02 
1217	 3.40180772434704E-02 
1218	 3.40619494388908E-02 
1219	 3.39259140347109E-02 
1220	 3.42414449435749E-02 
1221	 3.40742340585995E-02 
1222	 3.35716002454305E-02 
1223	 3.33431828335221E-02 
1224	 0.033410073721619 
1225	 3.33829143347421E-02 
1226	 3.33685692681293E-02 
1227	 3.36652037711084E-02 
1228	 3.36563628985183E-02 
1229	 3.31621129660746E-02 
1230	 3.30314158306163E-02 
1231	 3.31857424893985E-02 
1232	 3.32590965221119E-02 
1233	 3.36709797131931E-02 
1234	 3.38389828621238E-02 
1235	 0.033797251075657 
1236	 3.33195020357634E-02 
1237	 3.30955276255221E-02 
1238	 3.28260823716688E-02 
1239	 3.27210547926703E-02 
1240	 3.28038216605085E-02 
1241	 3.27552355463539E-02 
1242	 3.28126624531793E-02 
1243	 3.28705551373771E-02 
1244	 3.26702959244692E-02 
1245	 3.23886430433448E-02 
1246	 3.23583396262178E-02 
1247	 3.26607323846276E-02 
1248	 3.27607251427854E-02 
1249	 3.27057390973867E-02 
1250	 3.28789211759399E-02 
1251	 3.25844000640294E-02 
1252	 3.20663648611528E-02 
1253	 3.22120630960529E-02 
1254	 0.03247345115517 
1255	 0.0324442711611 
1256	 3.24742466231486E-02 
1257	 3.27113191814929E-02 
1258	 3.27610947866777E-02 
1259	 0.032447798256023 
1260	 3.25846701286395E-02 
1261	 0.033194086234437 
1262	 3.33759395853825E-02 
1263	 3.35411871103338E-02 
1264	 3.34552899454712E-02 
1265	 3.33514675292903E-02 
1266	 3.34431243885349E-02 
1267	 3.33812271981723E-02 
1268	 3.32998094924136E-02 
1269	 3.33223449127919E-02 
1270	 3.30291030124602E-02 
1271	 3.28699091353009E-02 
1272	 3.30426334866172E-02 
1273	 3.30441412707587E-02 
1274	 3.29787842639683E-02 
1275	 3.32322028152042E-02 
1276	 3.33330754206993E-02 
1277	 3.31060040933014E-02 
1278	 3.30204432246451E-02 
1279	 3.28291810199088E-02 
1280	 3.27958081946659E-02 
1281	 3.26565821734987E-02 
1282	 3.24628313514472E-02 
1283	 3.24957388539491E-02 
1284	 3.26761363789642E-02 
1285	 3.26187485798063E-02 
1286	 3.27166218042466E-02 
1287	 3.28653800472505E-02 
1288	 3.27151174830691E-02 
1289	 3.26985540089903E-02 
1290	 3.30273817268684E-02 
1291	 3.31141686772199E-02 
1292	 3.27598851969172E-02 
1293	 3.27260956194897E-02 
1294	 3.28590138348173E-02 
1295	 3.28090664766075E-02 
1296	 3.31033340430577E-02 
1297	 3.32314467383577E-02 
1298	 3.29330517526671E-02 
1299	 3.27908666041747E-02 
1300	 3.28410610931103E-02 
1301	 3.29463254905456E-02 
1302	 3.30852447703092E-02 
1303	 0.033801354641368 
1304	 3.43109133441614E-02 
1305	 3.37893571416595E-02 
1306	 3.39441233083462E-02 
1307	 0.03458790120485 
1308	 3.42027414937173E-02 
1309	 3.28706026670007E-02 
1310	 0.033130159209254 
1311	 3.36723382307809E-02 
1312	 3.37778680463172E-02 
1313	 3.54448093876499E-02 
1314	 0.035939476796715 
1315	 3.42661431643404E-02 
1316	 3.39808758575133E-02 
1317	 3.48537045038072E-02 
1318	 3.51473333068404E-02 
1319	 0.035531218170637 
1320	 3.55028514812594E-02 
1321	 3.47989189959717E-02 
1322	 3.45001780735151E-02 
1323	 3.44289089536104E-02 
1324	 3.45799947278513E-02 
1325	 3.45486955696718E-02 
1326	 3.40291642038911E-02 
1327	 3.36875605407477E-02 
1328	 3.37356808009015E-02 
1329	 3.45994138342083E-02 
1330	 3.64857888438117E-02 
1331	 3.63666604079039E-02 
1332	 3.58837125872728E-02 
1333	 3.77927926182112E-02 
1334	 3.65750417065366E-02 
1335	 3.58703741186105E-02 
1336	 3.63227052124521E-02 
1337	 3.67355383704807E-02 
1338	 3.57182993010497E-02 
1339	 3.54605209141328E-02 
1340	 3.61527137305037E-02 
1341	 3.62669568601883E-02 
1342	 3.64440463359753E-02 
1343	 3.47951128106595E-02 
1344	 3.04208014653746E-02 
1345	 3.04500917292733E-02 
1346	 3.32787936232594E-02 
1347	 2.96187281043936E-02 
1348	 2.21791959076452E-02 
1349	 2.26817632847217E-02 
1350	 0.021408394470895 
1351	 1.39612329405512E-02 
1352	 5.35913436087857E-02 
1353	 7.18435822046468E-02 
1354	-1.27699441365373E-02 
1355	-0.138848640911097 
1356	-0.044751074842186 
1357	-4.26637276117102E-02 
1358	-0.242687790927368 
1359	-0.371419951910717 
1360	-0.392934380513497 
1361	-0.363926921862035 
1362	-7.38517441390074E-02 
1363	 7.68855803377798E-02 
1364	 7.66223311974088E-02 
1365	-2.45978858417755E-02 
1366	-0.380037767728414 
1367	-0.255029071377099 
1368	-0.200553422436234 
1369	-0.573177245327058 
1370	-0.679464852224252 
1371	-0.156029651660919 
1372	-7.37407926711748E-02 
1373	-0.234071718535179 
1374	-0.203360896229224 
1375	-1.02135777782345E-02 
1376	 7.95490625153559E-02 
1377	 0.118001990225007 
1378	 2.46224796640596E-02 
1379	-0.470458875600071 
1380	-0.684032856940289 
1381	-0.455829988119265 
1382	-0.804916289447613 
1383	-0.815110020575137 
1384	-0.363702603994796 
1385	 0.402480919232778 
1386	 0.175497453395449 
1387	-8.09560114061475E-02 
1388	 5.98071602434696E-02 
1389	 0.101572809507881 
1390	-0.575573976442645 
1391	-3.14721762680855E-02 
1392	 0.233956571186401 
1393	 0.276464804096507 
1394	-0.104833631870509 
1395	-0.355415567195444 
1396	-0.210568957470737 
1397	-0.149509608432343 
1398	-0.299444663574462 
1399	-1.17431476659357E-02 
1400	 0.263952430883528 
1401	 9.69243832489518E-02 
1402	-0.25637435544894 
1403	-0.288291912473429 
1404	-0.260796291857011 
1405	-0.27701549868044 
1406	-0.181026573816324 
1407	 8.82007432444269E-02 
1408	 0.265645225743516 
1409	 0.219034511714603 
1410	-7.95177924188534E-02 
1411	-1.46350635628312E-02 
1412	 0.240360325071078 
1413	 0.251702465277462 
1414	 0.362449494507849 
1415	 0.431243765390361 
1416	 0.295971975867784 
1417	 8.44362057429206E-03 
1418	-0.239722494349096 
1419	-0.109931245300237 
1420	-2.17618122252598E-02 
1421	-7.60001717792669E-02 
1422	 4.65180591191526E-02 
1423	 8.42618777776771E-02 
1424	-9.85875241602786E-03 
1425	-4.49301026632466E-02 
1426	-5.72742619946874E-02 
1427	-1.74863799888509E-02 
1428	 0.107477455761421 
1429	 0.077571229063195 
1430	-4.60699626341875E-03 
1431	-1.01680281232373E-02 
1432	-0.135916956682086 
1433	-0.154897377571185 
1434	 2.90360728990503E-02 
1435	 7.01232626237036E-02 
1436	 2.01549177712354E-02 
1437	 7.5149672313579E-03 
1438	-3.73251488339006E-02 
1439	-6.51263169565296E-02 
1440	 9.45763706188995E-03 
1441	 4.02289099382211E-02 
1442	 6.71044199802389E-02 
1443	 0.087696220060219 
1444	 5.19339797760238E-02 
1445	 2.50637518827108E-02 
1446	 2.55604534194803E-02 
1447	 0.035674993791669 
1448	 3.11378708373751E-02 
1449	 2.47652258203347E-02 
1450	 2.63945541372877E-02 
1451	 0.016106390452975 
1452	 1.86623680951113E-02 
1453	 2.54799558768071E-02 
1454	 2.62864663882256E-02 
1455	 2.04970319590577E-02 
1456	 2.48647074350245E-02 
1457	 3.47779684711616E-02 
1458	 3.62853075158991E-02 
1459	 3.67583098067991E-02 
1460	 3.83823451403225E-02 
1461	 3.77482001293184E-02 
1462	 3.63594223196661E-02 
1463	 0.03631268060188 
1464	 3.77870607868541E-02 
1465	 3.62644675735285E-02 
1466	 3.60445334065414E-02 
1467	 4.42383296271654E-02 
1468	 4.16402273129855E-02 
1469	 2.45065321019944E-02 
1470	 2.30007527767923E-02 
1471	 2.95802505952815E-02 
1472	 2.76710706686515E-02 
1473	 2.83375254358645E-02 
1474	 3.01489853507078E-02 
1475	 2.63917421548728E-02 
1476	 2.60125218456013E-02 
1477	 3.01866088016773E-02 
1478	 3.19815572121911E-02 
1479	 3.32750824082694E-02 
1480	 3.28963390495851E-02 
1481	 3.18460867269341E-02 
1482	 3.21125992840921E-02 
1483	 3.01334073462507E-02 
1484	 3.07994770967353E-02 
1485	 3.41252504842688E-02 
1486	 3.53549773833924E-02 
1487	 3.77514949409048E-02 
1488	 3.68280940278979E-02 
1489	 3.33086541255952E-02 
1490	 3.26793266614267E-02 
1491	 3.15300928088619E-02 
1492	 3.11545042394091E-02 
1493	 3.24792947270351E-02 
1494	 3.28624440453179E-02 
1495	 3.29607050594496E-02 
1496	 3.29640752252237E-02 
1497	 3.24029560323109E-02 
1498	 3.25854736574026E-02 
1499	 3.36996774410433E-02 
1500	 3.36623387987487E-02 
1501	 3.29398083895217E-02 
1502	 3.29441204637893E-02 
1503	 3.29136870938955E-02 
1504	 3.25892348864628E-02 
1505	 3.25709862874569E-02 
1506	 3.26248973393566E-02 
1507	 3.26867310851079E-02 
1508	 3.19111335883137E-02 
1509	 3.18083319225753E-02 
1510	 3.25894872777832E-02 
1511	 3.25665602438301E-02 
1512	 3.25473570353246E-02 
1513	 3.26848685727664E-02 
1514	 3.26226257952906E-02 
1515	 0.032615031807121 
1516	 0.032247719725018 
1517	 3.17119778286681E-02 
1518	 3.15732746122864E-02 
1519	 3.15240824251118E-02 
1520	 0.031355406693809 
1521	 0.031558642560978 
1522	 0.032030714496336 
1523	 3.23678118763403E-02 
1524	 3.23875806026638E-02 
1525	 3.23388719676838E-02 
1526	 3.21518154145484E-02 
1527	 0.031592457096876 
1528	 3.15517769182803E-02 
1529	 3.18369520604168E-02 
1530	 3.18993192698301E-02 
1531	 3.20499077324847E-02 
1532	 3.17945965813202E-02 
1533	 0.031411952654085 
1534	 3.15717118559322E-02 
1535	 3.15216842653411E-02 
1536	 3.15497661956374E-02 
1537	 3.17681195886021E-02 
1538	 3.14663226260652E-02 
1539	 3.12164891811126E-02 
1540	 3.12701192879303E-02 
1541	 3.13036432169009E-02 
1542	 3.10522987109926E-02 
1543	 3.11407015593512E-02 
1544	 3.16786476229861E-02 
1545	 3.15889480995868E-02 
1546	 3.12144092575363E-02 
1547	 3.12892170212945E-02 
1548	 3.12555939498405E-02 
1549	 0.031199387482569 
1550	 3.14119298740741E-02 
1551	 3.12580550444754E-02 
1552	 3.11731655859384E-02 
1553	 3.10681097643539E-02 
1554	 3.09251005944441E-02 
1555	 3.13462926962971E-02 
1556	 3.11729956928844E-02 
1557	 3.08897386954751E-02 
1558	 3.14273207517303E-02 
1559	 3.14361164629539E-02 
1560	 3.09117694262187E-02 
1561	 0.031032072236105 
1562	 3.15135725677968E-02 
1563	 3.13891658509862E-02 
1564	 3.07947247861924E-02 
1565	 3.04650890789847E-02 
1566	 3.06744449498298E-02 
1567	 3.07449629430975E-02 
1568	 3.08951610006992E-02 
1569	 3.16587618648864E-02 
1570	 3.17796527692447E-02 
1571	 3.14526383013607E-02 
1572	 3.12861609503574E-02 
1573	 3.08660798559731E-02 
1574	 3.05920133415123E-02 
1575	 3.07528364025191E-02 
1576	 3.09446058716596E-02 
1577	 0.030980730703316 
1578	 3.09081458239523E-02 
1579	 3.06199832402841E-02 
1580	 3.07288040245366E-02 
1581	 3.08211654948294E-02 
1582	 3.04547294963188E-02 
1583	 3.03656404707557E-02 
1584	 3.06258026009089E-02 
1585	 0.031104573133678 
1586	 3.11692533865491E-02 
1587	 3.08165593103112E-02 
1588	 3.07834045813765E-02 
1589	 3.08438328118797E-02 
1590	 3.08986405017247E-02 
1591	 3.14703911678197E-02 
1592	 3.17023123954286E-02 
1593	 0.031007354505625 
1594	 3.08271952080088E-02 
1595	 0.030950794883658 
1596	 3.05280517140378E-02 
1597	 3.03873071861711E-02 
1598	 3.06512216563177E-02 
1599	 3.08663031586455E-02 
1600	 3.08813266485684E-02 
1601	 3.07840813177662E-02 
1602	 3.07108180123911E-02 
1603	 3.01232636356396E-02 
1604	 2.96652755366903E-02 
1605	 3.02981865794049E-02 
1606	 3.08871234443948E-02 
1607	 3.09143912440671E-02 
1608	 3.09707953358124E-02 
1609	 3.10219097153291E-02 
1610	 3.08193523716078E-02 
1611	 3.05081286952563E-02 
1612	 3.05957557657936E-02 
1613	 0.0305403594806 
1614	 3.00179399959498E-02 
1615	 3.00447026983919E-02 
1616	 3.03444425225006E-02 
1617	 3.02043639798783E-02 
1618	 2.99403121849837E-02 
1619	 2.97609067506365E-02 
1620	 2.97119377220194E-02 
1621	 2.99734011499365E-02 
1622	 3.04019777008382E-02 
1623	 3.04557399060713E-02 
1624	 3.03877672212048E-02 
1625	 3.04192752932289E-02 
1626	 0.030503824006762 
1627	 3.07388167710338E-02 
1628	 3.06623585447927E-02 
1629	 3.06804820309244E-02 
1630	 3.09303161425048E-02 
1631	 3.09453105863188E-02 
1632	 3.10581441260167E-02 
1633	 3.10636169403631E-02 
1634	 3.06131632039472E-02 
1635	 2.99107742515376E-02 
1636	 0.029749842215891 
1637	 3.05027571612654E-02 
1638	 3.09405097791252E-02 
1639	 3.06204384873926E-02 
1640	 3.04700727702448E-02 
1641	 0.029978240150791 
1642	 2.91815046046344E-02 
1643	 2.98324582688109E-02 
1644	 3.07376228445062E-02 
1645	 3.02777753164791E-02 
1646	 2.99123561455055E-02 
1647	 0.029871775949073 
1648	 2.95630691581017E-02 
1649	 2.97516146430758E-02 
1650	 3.02114506211445E-02 
1651	 3.03556361549955E-02 
1652	 3.04646445740191E-02 
1653	 3.09169162750029E-02 
1654	 3.08001378368801E-02 
1655	 3.00449225663403E-02 
1656	 2.99352805465251E-02 
1657	 2.98773243013526E-02 
1658	 2.96857549008683E-02 
1659	 2.99207707742367E-02 
1660	 3.00746928718013E-02 
1661	 2.99859123945939E-02 
1662	 3.01726596970078E-02 
1663	 0.030493682932775 
1664	 3.06170024043793E-02 
1665	 3.08577173379155E-02 
1666	 3.07870098878231E-02 
1667	 3.03927684289236E-02 
1668	 0.031076683780987 
1669	 3.12459440064529E-02 
1670	 0.030643211850506 
1671	 3.03028651803756E-02 
1672	 3.07049748732888E-02 
1673	 3.05255218621776E-02 
1674	 2.98855732455649E-02 
1675	 2.98202364993198E-02 
1676	 3.00479150314039E-02 
1677	 3.03860262229081E-02 
1678	 3.08549147496965E-02 
1679	 3.08820816273191E-02 
1680	 3.04543494313325E-02 
1681	 3.00689896112716E-02 
1682	 0.030056115631005 
1683	 3.08703890222889E-02 
1684	 3.15425218087064E-02 
1685	 3.06607185590806E-02 
1686	 2.99443444370794E-02 
1687	 3.02017218020828E-02 
1688	 2.97151578989945E-02 
1689	 2.98466506250288E-02 
1690	 3.10732421223781E-02 
1691	 3.13156455765482E-02 
1692	 3.06236542801271E-02 
1693	 3.01723151639275E-02 
1694	 3.03187959436903E-02 
1695	 3.04095663246038E-02 
1696	 3.04431366351906E-02 
1697	 3.05602610787315E-02 
1698	 3.04830842955915E-02 
1699	 3.06172217615693E-02 
1700	 3.05349445413386E-02 
1701	 2.99739160102459E-02 
1702	 2.97272089842313E-02 
1703	 2.93101548905068E-02 
1704	 0.029305734581835 
1705	 3.09085231729945E-02 
1706	 3.16426431361729E-02 
1707	 3.08638179608399E-02 
1708	 3.10518174350811E-02 
1709	 3.16395998208812E-02 
1710	 3.15407630059011E-02 
1711	 3.11117555335023E-02 
1712	 0.030441308163711 
1713	 3.00167891160968E-02 
1714	 0.030107251235776 
1715	 3.17771799365836E-02 
1716	 3.24078273901799E-02 
1717	 3.05300529005755E-02 
1718	 0.029941246452906 
1719	 2.97514392209439E-02 
1720	 2.95446007200714E-02 
1721	 3.11299514628302E-02 
1722	 3.11406036993794E-02 
1723	 3.06847627480765E-02 
1724	 3.19247892201446E-02 
1725	 3.26907999070706E-02 
1726	 3.28271953164366E-02 
1727	 3.24706636476338E-02 
1728	 3.13548626443592E-02 
1729	 3.05365449311875E-02 
1730	 3.13970330957175E-02 
1731	 3.26862692008426E-02 
1732	 3.17763534193269E-02 
1733	 3.03373307219877E-02 
1734	 2.95241847094621E-02 
1735	 2.85731634923789E-02 
1736	 2.99775414986488E-02 
1737	 3.18902826958426E-02 
1738	 3.12151316900863E-02 
1739	 3.15741035699484E-02 
1740	 3.23736062754214E-02 
1741	 3.09792213663561E-02 
1742	 3.13399074283965E-02 
1743	 3.25675057808671E-02 
1744	 3.10963213468136E-02 
1745	 3.11740115961216E-02 
1746	 3.08766181845507E-02 
1747	 3.06619158958321E-02 
1748	 0.031449706541083 
1749	 0.031809622248728 
1750	 3.27059116187117E-02 
1751	 3.30392521637567E-02 
1752	 3.18183489567299E-02 
1753	 3.14445558230333E-02 
1754	 3.16808384186393E-02 
1755	 3.15845745326722E-02 
1756	 3.19429044129937E-02 
1757	 3.23002020312464E-02 
1758	 3.15992104253894E-02 
1759	 0.031266680899355 
1760	 3.20825500073023E-02 
1761	 3.26185318457829E-02 
1762	 3.18482438702041E-02 
1763	 3.17545205840145E-02 
1764	 3.11139526413127E-02 
1765	 3.01763182989764E-02 
1766	 3.27767748278814E-02 
1767	 3.36123424906588E-02 
1768	 3.18890521330266E-02 
1769	 3.26249911165935E-02 
1770	 0.031304808373838 
1771	 3.10461516488574E-02 
1772	 3.50858405360234E-02 
1773	 3.49189891677752E-02 
1774	 3.34753311703035E-02 
1775	 3.54714632142471E-02 
1776	 3.48875605985313E-02 
1777	 3.47225544761038E-02 
1778	 3.50977953001577E-02 
1779	 3.24603820067192E-02 
1780	 3.06214383564737E-02 
1781	 0.02987208543367 
1782	 2.99717855801729E-02 
1783	 3.07444143875932E-02 
1784	 3.11647347963757E-02 
1785	 3.43511082402024E-02 
1786	 3.57328258780179E-02 
1787	 3.33873641568493E-02 
1788	 3.15957050649984E-02 
1789	 3.11366163600429E-02 
1790	 2.46241767467704E-02 
1791	 2.28461157444088E-02 
1792	 2.82015362904171E-02 
1793	 2.89394601196382E-02 
1794	 2.52867628215417E-02 
1795	 2.76768310740597E-02 
1796	 2.97670457362387E-02 
1797	 2.02114979754843E-02 
1798	 3.70852003630787E-02 
1799	 4.77347543525865E-02 
1800	 5.32602193390801E-02 
1801	 6.00041905251693E-02 
1802	 0.03979577941332 
1803	 2.27336202783556E-02 
1804	-7.43839590888469E-03 
1805	-4.76371350990178E-02 
1806	-8.23058216358297E-02 
1807	-0.088609000597349 
1808	-5.98556619010539E-02 
1809	-5.97404400149269E-02 
1810	-1.31021877096224E-02 
1811	-6.67041245810173E-02 
1812	-0.58010376314406 
1813	-1.52857088955211 
1814	-4.75880956475731 
1815	-2.66358899611665 
1816	-0.502858253438059 
1817	-0.455584791294228 
1818	-0.500354534019904 
1819	-0.506095586467733 
1820	-0.622236082726803 
1821	-0.52370165625383 
1822	-0.452056304439149 
1823	-9.70017824049322E-02 
1824	 2.13332538129676E-02 
1825	-0.331520009967246 
1826	-0.603277277823766 
1827	-1.26319118901281 
1828	-0.899546361677734 
1829	 5.71556168360002E-02 
1830	 8.28050184245803E-03 
1831	 0.756213773775941 
1832	 0.490761382743648 
1833	 3.14063659266154E-02 
1834	-0.173098347394062 
1835	-0.637212511672294 
1836	-0.919560373455368 
1837	 1.43159933012128 
1838	 0.295031569790316 
1839	-0.194241453367253 
1840	 33.5562356166636 
1841	-2.37805324891659 
1842	-2.06151665535511 
1843	-2.70255693315323 
1844	-2.27952741488147 
1845	-2.59722511840495 
1846	-0.396787098383932 
1847	-0.502598468525731 
1848	-0.391664535754949 
1849	-0.313702609246043 
1850	-1.71238425680567E-02 
1851	 0.361257200369313 
1852	 0.315781764718664 
1853	 6.09224574995381E-02 
1854	-3.30819790312343E-02 
1855	-0.178374020108509 
1856	-0.335649403109557 
1857	 0.710132240746694 
1858	 0.638325489471885 
1859	 2.55545493109307 
1860	-6.26509451684765 
1861	 0.922400655477186 
1862	 0.891431011208704 
1863	-8.72725262909213 
1864	-0.360914848968794 
1865	-10.4743147696154 
1866	 17.1683528004677 
1867	 1.24955124128618 
1868	 0.616849313703094 
1869	 0.33959874740583 
1870	-0.117203320798939 
1871	-0.329727029374787 
1872	-1.02558138065259 
1873	-1.25992071216584 
1874	-0.699947961005941 
1875	-0.40633358213888 
1876	-0.190661467601634 
1877	 0.680849715904127 
1878	 0.983308061534977 
1879	 0.552110495779269 
1880	 0.646997377101179 
1881	 1.34307703156553 
1882	 0.415963334269993 
1883	 0.793303907976685 
1884	-2.22153743584402 
1885	-4.65824679059093 
1886	-6.78112630514088 
1887	-1.98453982492021 
1888	 0.333445089613037 
1889	 0.505364869108938 
1890	 1.89740325073258 
1891	 1.92106549615508 
1892	 0.681081587013619 
1893	 0.5192720665145 
1894	 0.74681124280991 
1895	 0.315455321388783 
1896	 0.610844628953305 
1897	 1.24886762274489 
1898	 1.38216475141677 
1899	 1.45516059481263 
1900	 1.47509330053105 
1901	 0.786899719388632 
1902	 0.670194839310373 
1903	 1.04542201161436 
1904	 1.77651985518691 
1905	 2.12067494982577 
1906	-61.4189916096651 
1907	-7.93162223110264 
1908	 6.80274745991545 
1909	-16.9777840641612 
1910	-5.67052817459808 
1911	 16.9393300288031 
1912	-11.6709847386767 
1913	-1.94928648859035 
1914	-0.798071680279601 
1915	-0.537773044048328 
1916	-0.131832690947976 
1917	-0.208787075856193 
1918	 0.391594022884085 
1919	 0.732108013513885 
1920	 0.589588922338775 
1921	 0.336255818929377 
1922	-0.423733810226871 
1923	-4.66172301153339 
1924	-29.1875439575701 
1925	-18.6820428332562 
1926	-21.8755445905874 
1927	 5.17523003402048 
1928	-8.19683955544613 
1929	 0.311265555630965 
1930	 0.357191234003621 
1931	 0.0940129329198 
1932	-4.58651614081469E-02 
1933	-0.487362988298247 
1934	-0.418589631810324 
1935	 0.234719573123053 
1936	 1.43960433454172 
1937	 1.27861537925333 
1938	 1.04476599010622 
1939	 0.787199879742644 
1940	 0.347950853081998 
1941	 0.234347922668042 
1942	 0.330582562015502 
1943	 0.388583394215258 
1944	 0.457372395101233 
1945	 0.492147012785054 
1946	 0.57925174982045 
1947	 0.783807437567227 
1948	 0.685903171133638 
1949	 0.623417383488001 
1950	 0.601974529732289 
1951	 0.401096113365482 
1952	 0.309400618843722 
1953	 0.289485264361791 
1954	 0.382786156019122 
1955	 0.290186535271535 
1956	 0.126167031760905 
1957	 6.05021747967163E-02 
1958	-2.34645582364346E-02 
1959	-0.04818170040886 
1960	 0.021929647096593 
1961	 4.10107782822392E-02 
1962	 4.46996573667454E-02 
1963	 5.01485882740183E-02 
1964	 3.91800285518706E-02 
1965	 5.01169120975943E-02 
1966	 5.26128964857161E-02 
1967	 5.46236403726181E-02 
1968	 5.63132020398109E-02 
1969	 6.60323059148208E-02 
1970	 5.80633604079024E-02 
1971	 5.59033691128337E-02 
1972	 5.75091214480967E-02 
1973	 4.48453874776142E-02 
1974	 0.038122837591194 
1975	 3.52788237817912E-02 
1976	 3.25941047886791E-02 
1977	 3.33999994861027E-02 
1978	 3.59933962595215E-02 
1979	 3.71822603357122E-02 
1980	 3.82259049656334E-02 
1981	 3.66893735839941E-02 
1982	 3.57581506716173E-02 
1983	 3.39605125061064E-02 
1984	 3.07012294101292E-02 
1985	 3.16912267190701E-02 
1986	 3.50648824561864E-02 
1987	 3.63142234143485E-02 
1988	 3.88676519807443E-02 
1989	 4.14126535871292E-02 
1990	 4.02007808412824E-02 
1991	 3.84822412980078E-02 
1992	 3.96930965069544E-02 
1993	 4.05036114843114E-02 
1994	 4.06232969395801E-02 
1995	 4.09233975841903E-02 
1996	 4.36308618814697E-02 
1997	 4.27202414962935E-02 
1998	 4.12676836972159E-02 
1999	 4.17621329665446E-02 
2000	 0.038985017329127 
2001	 3.34084907032137E-02 
2002	 2.63725855080101E-02 
2003	 2.31367180375448E-02 
2004	 2.03770668786432E-02 
2005	 2.15454470091267E-02 
2006	 2.62723402589374E-02 
2007	 0.02251432624557 
2008	 2.66912835228403E-02 
2009	 3.35169744238147E-02 
2010	 4.75705115545729E-02 
2011	 5.12211361617771E-02 
2012	 5.51160955912269E-02 
2013	 5.54293101263652E-02 
2014	 0.043664824789636 
2015	 4.12106448791996E-02 
2016	 4.13803833446852E-02 
2017	 3.31107157416197E-02 
2018	 3.25703688098087E-02 
2019	 3.09375640445498E-02 
2020	 2.80683875500196E-02 
2021	 3.35301542902696E-02 
2022	 3.73770460449126E-02 
2023	 3.85876528581838E-02 
2024	 3.92596651943615E-02 
2025	 3.90249197835135E-02 
2026	 3.86709351780876E-02 
2027	 3.74874098962296E-02 
2028	 3.73066844459204E-02 
2029	 3.83918417331847E-02 
2030	 3.60976783268252E-02 
2031	 0.03389606466818 
2032	 3.56091972786497E-02 
2033	 3.52966249507843E-02 
2034	 3.55029845581361E-02 
2035	 3.71536096193172E-02 
2036	 3.53940721815134E-02 
2037	 3.40340850826485E-02 
2038	 3.43764402262076E-02 
2039	 3.45063064669786E-02 
2040	 3.55479648540201E-02 
2041	 3.57320291792319E-02 
2042	 3.52155358773666E-02 
2043	 3.48817602170473E-02 
2044	 3.39916737408194E-02 
2045	 3.42240325841993E-02 
2046	 3.44437621744094E-02 
2047	 3.48858672186152E-02 
2048	 0.035696299312475 
2049	 3.55851902581763E-02 
2050	 3.32823442859863E-02 
2051	 3.10856444236755E-02 
2052	 3.31617625265604E-02 
2053	 3.66283645696122E-02 
2054	 3.82470678273374E-02 
2055	 4.18077713455789E-02 
2056	 4.35930791871355E-02 
2057	 4.09434675178625E-02 
2058	 3.94763875085717E-02 
2059	 3.90376703979865E-02 
2060	 0.03833279423802 
2061	 3.60910944124395E-02 
2062	 3.70416237878263E-02 
2063	 3.58522221422463E-02 
2064	 3.46939363385399E-02 
2065	 3.45059946944423E-02 
2066	 3.13005895959571E-02 
2067	 3.01771750351399E-02 
2068	 3.20686607886081E-02 
2069	 3.38341697937319E-02 
2070	 3.37890050349655E-02 
2071	 0.03260584576601 
2072	 3.07496899777714E-02 
2073	 3.00866013924285E-02 
2074	 2.81907323497913E-02 
2075	 2.96101461801978E-02 
2076	 3.43466624517167E-02 
2077	 3.57031315889979E-02 
2078	 3.78577396096994E-02 
2079	 3.80000543488116E-02 
2080	 3.55266365528326E-02 
2081	 3.35255286302803E-02 
2082	 3.44955138784008E-02 
2083	 0.033804741517609 
2084	 3.39081303099166E-02 
2085	 3.53049185122447E-02 
2086	 3.43868927227844E-02 
2087	 3.28999629151815E-02 
2088	 3.17688971598249E-02 
2089	 3.06459331700121E-02 
2090	 3.08643213140483E-02 
2091	 3.18282577158712E-02 
2092	 3.17337851198113E-02 
2093	 3.10963067276096E-02 
2094	 3.15041984488729E-02 
2095	 0.032351277786418 
2096	 3.16230562829554E-02 
2097	 3.03859247573988E-02 
2098	 0.030868750751463 
2099	 3.11323899277328E-02 
2100	 3.11796829234633E-02 
2101	 3.27022738733104E-02 
2102	 3.18918750620585E-02 
2103	 2.92310680281553E-02 
2104	 2.80646174465628E-02 
2105	 2.80731539425123E-02 
2106	 2.94194557120959E-02 
2107	 3.23738638310603E-02 
2108	 0.032649482190257 
2109	 3.21282487515826E-02 
2110	 3.30478470231613E-02 
2111	 3.23661659734056E-02 
2112	 3.30131159623462E-02 
2113	 3.38650243998192E-02 
2114	 3.58907921884489E-02 
2115	 3.63128101916953E-02 
2116	 3.62715416882372E-02 
2117	 3.57567750766466E-02 
2118	 3.48589675200045E-02 
2119	 3.40744495844366E-02 
2120	 3.20880709483852E-02 
2121	 3.18855293579135E-02 
2122	 3.42688832689099E-02 
2123	 3.33346544358216E-02 
2124	 3.41414600702957E-02 
2125	 3.61261756966322E-02 
2126	 3.67209159643319E-02 
2127	 0.037251515908427 
2128	 3.54908639575783E-02 
2129	 3.43261276352713E-02 
2130	 3.31664990648973E-02 
2131	 3.13746728044353E-02 
2132	 3.23834575887829E-02 
2133	 3.27782527210491E-02 
2134	 3.31142799245501E-02 
2135	 3.30115834069135E-02 
2136	 3.36032330965306E-02 
2137	 0.035015866101989 
2138	 3.53930295718928E-02 
2139	 3.52492533454302E-02 
2140	 3.50151974746726E-02 
2141	 3.43801580359172E-02 
2142	 3.39127307791207E-02 
2143	 3.28609564914904E-02 
2144	 3.34523812039759E-02 
2145	 3.33239761245601E-02 
2146	 3.28802671432087E-02 
2147	 3.51913002256856E-02 
2148	 3.48082784511834E-02 
2149	 3.41129930894357E-02 
2150	 3.63472033084612E-02 
2151	 3.76841213456955E-02 
2152	 3.95848106071973E-02 
2153	 0.041301457024396 
2154	 3.93167451530055E-02 
2155	 3.54735305805154E-02 
2156	 3.15924981186219E-02 
2157	 2.92288490999951E-02 
2158	 2.67878624279802E-02 
2159	 2.67842624127933E-02 
2160	 2.96973825154301E-02 
2161	 3.09703812397285E-02 
2162	 3.32104975832892E-02 
2163	 3.50173598633908E-02 
2164	 3.63920860434937E-02 
2165	 3.65638203077518E-02 
2166	 3.68318620707785E-02 
2167	 3.62758893024822E-02 
2168	 3.30286756386089E-02 
2169	 3.19449972314918E-02 
2170	 3.18810847743876E-02 
2171	 3.14111765376095E-02 
2172	 3.13688326345827E-02 
2173	 3.14374400716907E-02 
2174	 3.35269695417402E-02 
2175	 3.55500524120756E-02 
2176	 3.56886198546204E-02 
2177	 3.60799178859541E-02 
2178	 3.43990687074079E-02 
2179	 3.03956456354255E-02 
2180	 2.65500045965962E-02 
2181	 2.56447161524325E-02 
2182	 2.67510259636353E-02 
2183	 2.73681113287876E-02 
2184	 3.11917426652055E-02 
2185	 3.31114395443631E-02 
2186	 3.25272534523547E-02 
2187	 2.71887257914992E-02 
2188	 2.67916368867016E-02 
2189	 0.02735142645441 
2190	 2.77490982024403E-02 
2191	 3.06810245113894E-02 
2192	 3.14272308429995E-02 
2193	 2.96558916573406E-02 
2194	 0.029639663457713 
2195	 3.08568449719637E-02 
2196	 3.14752959654247E-02 
2197	 3.27916518415485E-02 
2198	 3.31758867565507E-02 
2199	 3.39739285187983E-02 
2200	 3.07984454496077E-02 
2201	 2.85523532847956E-02 
2202	 2.62542900789835E-02 
2203	 2.58695078217851E-02 
2204	 0.030003532126026 
2205	 3.09580159723729E-02 
2206	 3.10482911768643E-02 
2207	 2.99372940585008E-02 
2208	 2.86977431513104E-02 
2209	 2.98559496332921E-02 
2210	 3.25160357144585E-02 
2211	 3.49397224003847E-02 
2212	 3.37093333307108E-02 
2213	 3.34775811357113E-02 
2214	 3.37066351669219E-02 
2215	 3.27705369085309E-02 
2216	 3.46122660391229E-02 
2217	 3.42011662605436E-02 
2218	 3.29314496979789E-02 
2219	 3.10085137285621E-02 
2220	 2.75296305231636E-02 
2221	 2.57823234114405E-02 
2222	 2.50262114622345E-02 
2223	 2.41080172215044E-02 
2224	 2.29592181993614E-02 
2225	 2.14284149204853E-02 
2226	 1.92449386023211E-02 
2227	 1.86076435718703E-02 
2228	 0.017823652242778 
2229	 1.96764321582166E-02 
2230	 2.58785879069424E-02 
2231	 2.77722962224421E-02 
2232	 2.98241373009381E-02 
2233	 3.03778260109195E-02 
2234	 2.65709306695832E-02 
2235	 2.49595772239161E-02 
2236	 2.61854898307139E-02 
2237	 2.76938804198689E-02 
2238	 3.26744782045033E-02 
2239	 3.35276649462169E-02 
2240	 3.35208571510859E-02 
2241	 3.48634227827166E-02 
2242	 3.29654844712263E-02 
2243	 3.35268214355526E-02 
2244	 3.63347750261175E-02 
2245	 3.79270805965352E-02 
2246	 3.63986185661572E-02 
2247	 3.50313947775617E-02 
2248	 3.56166484802228E-02 
2249	 3.37372219002016E-02 
2250	 3.19387197437444E-02 
2251	 3.39296540775757E-02 
2252	 3.30503834837051E-02 
2253	 2.94001651604962E-02 
2254	 0.030964884507462 
2255	 3.39113924851872E-02 
2256	 3.36835247004208E-02 
2257	 3.15174076499615E-02 
2258	 2.78844613634357E-02 
2259	 2.26494142560628E-02 
2260	 2.27794086919705E-02 
2261	 2.76701226091116E-02 
2262	 3.08987902586369E-02 
2263	 3.85591624416047E-02 
2264	 0.039874644158313 
2265	 0.033569732758884 
2266	 3.25414382669303E-02 
2267	 3.28825510844412E-02 
2268	 3.42221649122319E-02 
2269	 4.07001920682545E-02 
2270	 0.042168539965999 
2271	 4.05608760336429E-02 
2272	 0.040165147473163 
2273	 3.71697613302925E-02 
2274	 3.47452359005579E-02 
2275	 3.24713519502186E-02 
2276	 3.20184119474922E-02 
2277	 3.26881889108796E-02 
2278	 3.24545605921937E-02 
2279	 3.53419960456113E-02 
2280	 3.34503391882313E-02 
2281	 2.39630653579225E-02 
2282	 2.49914063965633E-02 
2283	 2.74385024402563E-02 
2284	 2.53206502683342E-02 
2285	 3.09137607480737E-02 
2286	 0.03518219180575 
2287	 3.38732015145177E-02 
2288	 3.22112284214929E-02 
2289	 3.35930799521067E-02 
2290	 3.24981229518068E-02 
2291	 2.46602529699176E-02 
2292	 2.54086289386912E-02 
2293	 3.02758387469298E-02 
2294	 2.58080127167197E-02 
2295	 2.61378608069464E-02 
2296	 3.66763373826604E-02 
2297	 4.18406090633018E-02 
2298	 4.09386857223333E-02 
2299	 4.58060313184582E-02 
2300	 4.10340453787142E-02 
2301	 2.70483263815126E-02 
2302	 3.02259130559071E-02 
2303	 3.38852084288519E-02 
2304	 2.94909019553071E-02 
2305	 2.84165807829053E-02 
2306	 2.36643246565399E-02 
2307	 1.35560128332587E-02 
2308	 1.45858213351548E-02 
2309	 2.23200566444008E-02 
2310	 0.019574268918192 
2311	 2.76519337224661E-02 
2312	 0.032134441353584 
2313	 2.14008322830387E-02 
2314	 2.38043405680831E-02 
2315	 2.53098840665093E-02 
2316	 0.02245072438702 
2317	 2.69072107933013E-02 
2318	 0.026093039537242 
2319	 1.61044101570203E-02 
2320	 7.02098608889685E-03 
2321	 1.59271246494322E-02 
2322	 3.20120111847225E-02 
2323	 4.09940098357495E-02 
2324	 4.58082845478953E-02 
2325	 3.40502088923037E-02 
2326	 0.020306214287246 
2327	 1.40344246394419E-02 
2328	 6.88046405278772E-03 
2329	 6.59575920451147E-03 
2330	 1.61723224676192E-02 
2331	 2.29270679443789E-02 
2332	 3.11818874052422E-02 
2333	 4.66032038456608E-02 
2334	 4.99181550841805E-02 
2335	 5.11961036076753E-02 
2336	 0.04323297724331 
2337	 1.96804149104768E-02 
2338	 9.6004935959501E-03 
2339	 5.95602078898904E-03 
2340	 1.26091840102379E-03 
2341	 5.73671674418981E-03 
2342	 1.92423107297552E-02 
2343	 1.49903448207012E-02 
2344	 1.04138591226129E-02 
2345	 2.16253495406608E-02 
2346	 1.04706926676013E-02 
2347	-3.30102638916014E-03 
2348	 1.70326170297146E-02 
2349	 4.77399666695534E-02 
2350	 4.18467892445723E-02 
2351	 5.16361568505275E-02 
2352	 6.27090130117577E-02 
2353	 0.029571152340725 
2354	 2.02754756043965E-02 
2355	 1.31998142209719E-02 
2356	 0.015272893431552 
2357	 2.76381691745276E-02 
2358	 2.93692565827325E-02 
2359	 3.91816121586963E-02 
2360	 3.33295162414611E-02 
2361	 3.98078571550636E-02 
2362	 4.24754447316937E-02 
2363	 3.75696424132963E-02 
2364	 5.28971370196513E-02 
2365	 5.58801899301303E-02 
2366	 5.49597952504775E-02 
2367	 8.51159360161042E-02 
2368	 0.114575198459645 
2369	 0.104127757524881 
2370	 0.112638439712174 
2371	 0.080121817213229 
2372	 1.51757044646102E-02 
2373	 4.05258279072162E-03 
2374	-2.15984345187914E-02 
2375	-8.70625651017576E-03 
2376	 3.33818948514292E-02 
2377	 6.42536529883946E-02 
2378	 0.114080784641301 
2379	 0.152456805359031 
2380	 0.154546101142284 
2381	 9.68400413555436E-02 
2382	 3.47425619725532E-02 
2383	 2.64010082434745E-02 
2384	 3.73702320461147E-02 
2385	 4.33018001127994E-02 
2386	 0.053832469099907 
2387	 9.35454239617158E-03 
2388	-6.33221437730923E-02 
2389	-6.64085354279419E-02 
2390	-7.55132573149123E-02 
2391	-9.28407572594208E-02 
2392	-0.13140798332648 
2393	-0.16909735281049 
2394	-0.155542662386178 
2395	-0.118284327737169 
2396	-7.12351861918047E-02 
2397	-7.34936683593431E-02 
2398	 7.33374240285771E-03 
2399	 1.94889956759767E-02 
2400	-7.51842094170302E-02 
2401	-2.55549837062729E-03 
2402	-1.41874582070411E-02 
2403	-5.08303203657868E-02 
2404	-5.40759728229652E-02 
2405	-8.73579868267546E-02 
2406	-9.96323237224865E-02 
2407	-0.168633320522597 
2408	-0.112662527248574 
2409	-4.69344294029997E-02 
2410	-7.97728867122208E-02 
2411	 1.10387998452259E-02 
2412	 0.200056197365096 
2413	 0.296660364306462 
2414	 0.331076387350316 
2415	 0.470677516734396 
2416	 0.157031158507921 
2417	-8.47399167831192E-03 
2418	-2.69395697095193E-02 
2419	-0.214967712126358 
2420	-0.258705151395056 
2421	-8.39781037344601E-02 
2422	 0.214157366987536 
2423	 0.436103760489564 
2424	 0.26655249007889 
2425	 0.133031464228485 
2426	 0.161745323571818 
2427	 9.37848937139283E-02 
2428	 0.021808262199142 
2429	 0.109321107105981 
2430	 5.50165626513451E-02 
2431	 4.60336692964254E-02 
2432	 0.261172410825047 
2433	 0.277865742273414 
2434	 0.325169206545602 
2435	 0.725493483414941 
2436	 3.71227213333129 
2437	-0.108317919591353 
2438	 6.06851439396916E-02 
2439	 1.08015783745439 
2440	 8.21318375014421 
2441	 1.16697259480844 
2442	 2.52290394497639 
2443	 0.343113651688766 
2444	 0.325564617056856 
2445	 0.146376757029725 
2446	 3.33064156207287E-02 
2447	 0.444472599538943 
2448	 0.466218135734785 
2449	 3.94257707997942E-02 
2450	-0.643093964563838 
2451	-0.930208650918309 
2452	-0.844479725370516 
2453	-11.4737987162558 
2454	-1.20649840264987 
2455	 8.32249391822303 
2456	 0.218702228748918 
2457	 0.386855180883428 
2458	 0.109065617865963 
2459	-0.41390348896494 
2460	-1.80890142243553 
2461	-12.1029951796103 
2462	-11.821321085354 
2463	-2.27117039640121 
2464	 3.26318206830595 
2465	-3.81066079435748 
2466	 4.09632777548896 
2467	-21.2342831818481 
2468	-3.35336498557907 
2469	-10.9548414661863 
2470	 1.81079626326237 
2471	 2.46079033341148 
2472	 15.6946792485564 
2473	-10.9688310417647 
2474	-3.81704263526363 
2475	-1.98558220956442 
2476	 15.7963001445579 
2477	 16.401750075493 
2478	 1.56181197890053 
2479	-0.790726446122294 
2480	-0.578459306980306 
2481	-0.405455186349719 
2482	-0.423508385470358 
2483	-0.956369742697748 
2484	-1.34604304828941 
2485	-2.91014108635485 
2486	 2.75864640962163 
2487	 8.74294228561354 
2488	 171.378261650506 
2489	-2.84392629441697 
2490	-2.79296507307221 
2491	 6.27563273533577 
2492	 2.99568175223398 
2493	 3.17710117377237 
2494	-5.73541089567569 
2495	 0.899351054281762 
2496	 0.655621631291273 
2497	 0.107736756389064 
2498	-0.184901772803617 
2499	-0.179907467432568 
2500	 0.188841855721475 
