Wavelength	rt0805close00007.asd
350	 0.058118491586929 
351	 5.77968791432208E-02 
352	 5.80226275586467E-02 
353	 5.82983734812078E-02 
354	 0.058268962372506 
355	 5.84356147462421E-02 
356	 0.05848148283515 
357	 5.82612144544385E-02 
358	 5.78153354730837E-02 
359	 5.76181779547531E-02 
360	 5.78326079249228E-02 
361	 5.81848986349793E-02 
362	 5.81711810167076E-02 
363	 5.79878948801423E-02 
364	 5.79226574403119E-02 
365	 5.79604252275232E-02 
366	 5.75962644401728E-02 
367	 5.81901605989814E-02 
368	 0.058646584273365 
369	 5.79890169008487E-02 
370	 5.79347064473739E-02 
371	 5.84277698896455E-02 
372	 5.88612708491109E-02 
373	 5.84952545885007E-02 
374	 5.85210865975254E-02 
375	 5.83465183216764E-02 
376	 5.80110780607591E-02 
377	 0.058618890649421 
378	 5.89666888225646E-02 
379	 5.91166767272795E-02 
380	 5.93623895467918E-02 
381	 5.97887578899269E-02 
382	 5.94422380098318E-02 
383	 5.91438676240941E-02 
384	 6.01208663267221E-02 
385	 5.99399764156168E-02 
386	 6.00809049773157E-02 
387	 6.06428305911961E-02 
388	 5.99702270341861E-02 
389	 6.03697062431685E-02 
390	 0.06122760230477 
391	 6.15939905236662E-02 
392	 6.11549401297792E-02 
393	 6.05014358611871E-02 
394	 6.05389376792507E-02 
395	 6.16997420744928E-02 
396	 6.18342117460269E-02 
397	 6.17408197366358E-02 
398	 6.17649223202621E-02 
399	 6.17048560914953E-02 
400	 6.16731999720225E-02 
401	 6.18342871690231E-02 
402	 6.21534156701916E-02 
403	 6.21566968198199E-02 
404	 6.21025915873254E-02 
405	 6.21816677975744E-02 
406	 6.24831665042642E-02 
407	 6.26986318151276E-02 
408	 6.27600915949783E-02 
409	 0.062642975239476 
410	 6.23770590889216E-02 
411	 6.28529743973928E-02 
412	 6.32010230804652E-02 
413	 6.29562026291125E-02 
414	 6.34047387127397E-02 
415	 6.36783914381997E-02 
416	 6.37186673911282E-02 
417	 6.37900638111141E-02 
418	 6.39735764384805E-02 
419	 6.42669954008254E-02 
420	 6.45184953129219E-02 
421	 6.44525548250319E-02 
422	 6.46492978368833E-02 
423	 6.50081904698408E-02 
424	 6.53173655220105E-02 
425	 6.54934122812952E-02 
426	 6.55836052742056E-02 
427	 6.56456513706627E-02 
428	 6.57809835801768E-02 
429	 6.63459615872273E-02 
430	 6.68124544477279E-02 
431	 6.70064449447489E-02 
432	 6.72641120356355E-02 
433	 6.75536260972791E-02 
434	 6.79074211003026E-02 
435	 6.83024016213282E-02 
436	 6.85199648416516E-02 
437	 6.88797721414466E-02 
438	 6.92413927341173E-02 
439	 6.93030966444123E-02 
440	 0.069732627256061 
441	 7.01780905727832E-02 
442	 7.04605365382787E-02 
443	 0.070817855459596 
444	 7.11907503947353E-02 
445	 7.15082764642631E-02 
446	 7.17344055114218E-02 
447	 7.19782514921475E-02 
448	 7.23070796734775E-02 
449	 7.26227137627788E-02 
450	 7.27349406168746E-02 
451	 7.28939342662175E-02 
452	 7.30220872231627E-02 
453	 7.31005541084367E-02 
454	 7.33348633502715E-02 
455	 7.35299591315353E-02 
456	 7.36360998355122E-02 
457	 7.37006791669644E-02 
458	 7.39949037106983E-02 
459	 7.40845315750431E-02 
460	 7.40189886247847E-02 
461	 7.43296601989311E-02 
462	 7.43494395255278E-02 
463	 7.43535716910754E-02 
464	 7.45780305370138E-02 
465	 7.46158587123088E-02 
466	 0.074761573281946 
467	 7.49267514447419E-02 
468	 7.49109623267938E-02 
469	 7.51472289957863E-02 
470	 7.54182445598439E-02 
471	 7.55562984571316E-02 
472	 7.55416466385382E-02 
473	 7.56579397196872E-02 
474	 7.58567722211226E-02 
475	 7.60269695390699E-02 
476	 7.61858977526544E-02 
477	 7.64045048490032E-02 
478	 7.65933985302766E-02 
479	 7.66039631302655E-02 
480	 7.69298765446222E-02 
481	 7.71997815022314E-02 
482	 7.72147379261332E-02 
483	 7.73363240747603E-02 
484	 7.76976542486795E-02 
485	 7.81276766337299E-02 
486	 7.83995177487025E-02 
487	 0.078756443938404 
488	 7.91167608159521E-02 
489	 7.94267209238758E-02 
490	 7.96833420194312E-02 
491	 8.00243023584606E-02 
492	 8.03992419215731E-02 
493	 8.07632696214555E-02 
494	 8.12149902486523E-02 
495	 0.081560854095087 
496	 8.19713581666852E-02 
497	 8.27073710686488E-02 
498	 8.31048078714287E-02 
499	 8.34530855658885E-02 
500	 8.39528566661819E-02 
501	 8.45090678041678E-02 
502	 8.51170805034126E-02 
503	 8.56861257151363E-02 
504	 8.61818986727076E-02 
505	 8.68989728613763E-02 
506	 8.73802738845406E-02 
507	 8.77098192418724E-02 
508	 8.83699798358625E-02 
509	 8.88997085832579E-02 
510	 8.94504040551035E-02 
511	 9.01154086265719E-02 
512	 9.06180948622734E-02 
513	 9.12368050056123E-02 
514	 0.09186986165343 
515	 9.23322196043838E-02 
516	 0.093122870283068 
517	 9.39115068260589E-02 
518	 9.45529212225203E-02 
519	 9.52259882092608E-02 
520	 0.095860736462596 
521	 9.65293519494211E-02 
522	 9.72858595221346E-02 
523	 9.80100647648589E-02 
524	 0.098731419948012 
525	 9.94639732877468E-02 
526	 0.100210061081619 
527	 0.1009323471396 
528	 0.101614302819313 
529	 0.102301732329647 
530	 0.103172244035175 
531	 0.104004750220895 
532	 0.10480023823608 
533	 0.10562311382304 
534	 0.106397343508075 
535	 0.107234738944759 
536	 0.108135952608058 
537	 0.108961181296596 
538	 0.109837115509788 
539	 0.110696850368645 
540	 0.111509826748951 
541	 0.112540477477314 
542	 0.113405191652872 
543	 0.114157864412065 
544	 0.115107087674187 
545	 0.116092218304983 
546	 0.117007981707318 
547	 0.117829353363198 
548	 0.118668147257774 
549	 0.119524851703627 
550	 0.120368608199911 
551	 0.121183881623251 
552	 0.122127304098192 
553	 0.123024319872177 
554	 0.123827674089726 
555	 0.124648953753643 
556	 0.125436999928671 
557	 0.126291483336546 
558	 0.12723303795144 
559	 0.127944823967365 
560	 0.128691399832476 
561	 0.12949905622242 
562	 0.130253443631165 
563	 0.131013211513434 
564	 0.131684778549055 
565	 0.132275646054188 
566	 0.133036569810671 
567	 0.133642787350576 
568	 0.134190456317055 
569	 0.134863862309564 
570	 0.135399611678511 
571	 0.135918779529471 
572	 0.136438184482636 
573	 0.136840310580343 
574	 0.137249087240102 
575	 0.13766869390543 
576	 0.138092053057937 
577	 0.138600533944904 
578	 0.138943381495261 
579	 0.13917077491011 
580	 0.139505715576625 
581	 0.139864611584845 
582	 0.140101069904925 
583	 0.140226827226689 
584	 0.140556474696656 
585	 0.14090407716306 
586	 0.141227126260408 
587	 0.141545357927303 
588	 0.14199070559345 
589	 0.142143065557573 
590	 0.141991418324556 
591	 0.141996012925665 
592	 0.142001538701635 
593	 0.141884215808547 
594	 0.141609702116611 
595	 0.141411313794893 
596	 0.141127187635289 
597	 0.140743613673001 
598	 0.140327872254462 
599	 0.139844222312205 
600	 0.13941647932156 
601	 0.139139850256278 
602	 0.139040079880906 
603	 0.138959848419458 
604	 0.138902969176862 
605	 0.13890288872624 
606	 0.138836297334347 
607	 0.138804195386867 
608	 0.138851303534797 
609	 0.138947645050328 
610	 0.138976149208411 
611	 0.138910554744898 
612	 0.138785050743382 
613	 0.138729666916118 
614	 0.138689228302235 
615	 0.138687918351699 
616	 0.138767144155123 
617	 0.138743925759992 
618	 0.138673594629623 
619	 0.13859073517182 
620	 0.138444617101263 
621	 0.138389408865514 
622	 0.138435376659967 
623	 0.138516661336838 
624	 0.138472397423761 
625	 0.138484457387523 
626	 0.138601798146958 
627	 0.138720979996436 
628	 0.138595918969777 
629	 0.138473368367106 
630	 0.138514168728487 
631	 0.138387981656358 
632	 0.138351851780104 
633	 0.138323908839453 
634	 0.138118974267545 
635	 0.138058122458163 
636	 0.138128371775823 
637	 0.138219353958361 
638	 0.138136921301348 
639	 0.13794825266544 
640	 0.137795992331475 
641	 0.137791780210686 
642	 0.137800477949161 
643	 0.137895867710442 
644	 0.138051159682691 
645	 0.138156830872863 
646	 0.138284240800926 
647	 0.138242399669356 
648	 0.137963624835853 
649	 0.137728781392609 
650	 0.13763366460761 
651	 0.137506994313447 
652	 0.137155471925008 
653	 0.137003024708976 
654	 0.136683863684772 
655	 0.136132597809264 
656	 0.13583650412489 
657	 0.135362873358167 
658	 0.134815085649903 
659	 0.134343289222807 
660	 0.133991535819387 
661	 0.133529020360743 
662	 0.133003261794901 
663	 0.132641645850352 
664	 0.132480145094006 
665	 0.13223144852653 
666	 0.131791499800925 
667	 0.131449427364765 
668	 0.131200393229981 
669	 0.131061481556773 
670	 0.131017452083821 
671	 0.130923405157356 
672	 0.130807699501462 
673	 0.130783451376363 
674	 0.13100869903526 
675	 0.131084204507662 
676	 0.131115820772809 
677	 0.131270524973513 
678	 0.131626101727762 
679	 0.131948032283698 
680	 0.132278648430615 
681	 0.132759555260695 
682	 0.13322049482504 
683	 0.133779646454149 
684	 0.134474830412449 
685	 0.135283381297362 
686	 0.136324539546633 
687	 0.137208046279064 
688	 0.13759506912075 
689	 0.137937865289724 
690	 0.138567584046109 
691	 0.13937014736174 
692	 0.139944268440451 
693	 0.14030020636644 
694	 0.140368656379303 
695	 0.140213142000756 
696	 0.139997909539612 
697	 0.139998839589369 
698	 0.140225575402022 
699	 0.14048087913597 
700	 0.140151356425197 
701	 0.139725766884827 
702	 0.139322391311915 
703	 0.138714167755173 
704	 0.138260670947123 
705	 0.137730629733075 
706	 0.137010023727151 
707	 0.136372611662813 
708	 0.135690104509252 
709	 0.134872981573844 
710	 0.133881050796834 
711	 0.13282971736283 
712	 0.131835681689988 
713	 0.130919813027604 
714	 0.129992354024732 
715	 0.129663943130904 
716	 0.129464130448117 
717	 0.128665480565598 
718	 0.127522937600399 
719	 0.125176020087847 
720	 0.122801979169124 
721	 0.121131794442679 
722	 0.120070749979689 
723	 0.11891781024229 
724	 0.117416483561827 
725	 0.115555140976996 
726	 0.113488400978785 
727	 0.111172986967755 
728	 0.108610339724384 
729	 0.106132292873401 
730	 0.103076857441029 
731	 9.98197377007303E-02 
732	 0.096883224944872 
733	 9.47618231635477E-02 
734	 9.30523398148861E-02 
735	 9.15252472439669E-02 
736	 9.01489343038687E-02 
737	 8.89842895472196E-02 
738	 8.79783559879949E-02 
739	 8.71707833487541E-02 
740	 8.69025318300444E-02 
741	 8.66430628381503E-02 
742	 8.63171207754779E-02 
743	 8.60928744172579E-02 
744	 8.60301588358775E-02 
745	 8.59376162413689E-02 
746	 0.085815953935464 
747	 8.59497215480186E-02 
748	 8.60347282244861E-02 
749	 8.60246173607459E-02 
750	 0.085985198899929 
751	 8.61233690167964E-02 
752	 8.61684426403629E-02 
753	 8.61113672224884E-02 
754	 8.60940735422933E-02 
755	 8.61470544310686E-02 
756	 8.63240490974286E-02 
757	 8.66282082101016E-02 
758	 8.70841843070491E-02 
759	 8.82347049078853E-02 
760	 8.96459265624028E-02 
761	 8.96911951241682E-02 
762	 8.99022328169719E-02 
763	 8.94919060203459E-02 
764	 8.87150832788266E-02 
765	 8.80874642475756E-02 
766	 0.087858092719163 
767	 8.78027304593933E-02 
768	 8.78214789589391E-02 
769	 8.79197817405452E-02 
770	 8.81155673950164E-02 
771	 8.83218018786844E-02 
772	 0.088496561567131 
773	 8.87761591133601E-02 
774	 0.089067327599611 
775	 8.93346493189026E-02 
776	 8.95880003461254E-02 
777	 8.99169854874036E-02 
778	 9.03019433747791E-02 
779	 9.06551660266006E-02 
780	 9.08562238317104E-02 
781	 9.12306792052595E-02 
782	 9.17910581394149E-02 
783	 9.23944984513496E-02 
784	 9.26660621117563E-02 
785	 9.32424342741842E-02 
786	 9.39524157456843E-02 
787	 9.44213811193554E-02 
788	 9.50294537231547E-02 
789	 9.54033128930256E-02 
790	 9.56350865431515E-02 
791	 9.61652334629065E-02 
792	 9.65236541191699E-02 
793	 0.096859137868104 
794	 0.097313781980399 
795	 0.097865469486083 
796	 9.84066851420355E-02 
797	 9.87672576931625E-02 
798	 9.89307135571816E-02 
799	 9.92997217400099E-02 
800	 9.98192045968854E-02 
801	 0.100241230473336 
802	 0.100276123611253 
803	 0.100122905698493 
804	 0.100153976564794 
805	 0.100312728727806 
806	 0.100111007819715 
807	 0.100013143504295 
808	 0.100199267407355 
809	 0.100580344510833 
810	 0.100488524222591 
811	 0.100414907017602 
812	 0.100584791599127 
813	 0.100959646670773 
814	 0.100576818444747 
815	 0.100042129507162 
816	 9.95189911281657E-02 
817	 9.86543816952896E-02 
818	 9.71373792221945E-02 
819	 9.59230575860318E-02 
820	 9.51692659474009E-02 
821	 9.41687346884312E-02 
822	 9.27278418580486E-02 
823	 9.10038135903381E-02 
824	 8.92253606215576E-02 
825	 8.71253623630647E-02 
826	 8.51874115717097E-02 
827	 8.30444276989168E-02 
828	 8.04130206108871E-02 
829	 7.84925551168053E-02 
830	 7.64271388174143E-02 
831	 7.43001243582004E-02 
832	 7.28949643613666E-02 
833	 7.14443616469489E-02 
834	 7.00394822643149E-02 
835	 6.88814059378188E-02 
836	 6.81856101625602E-02 
837	 0.067456934290225 
838	 6.68037341403458E-02 
839	 6.63294423785963E-02 
840	 6.57942371067923E-02 
841	 0.065216023490294 
842	 6.47284933696196E-02 
843	 6.44130382895729E-02 
844	 6.38786226578062E-02 
845	 6.33881446305523E-02 
846	 0.063078079504267 
847	 6.29062926047574E-02 
848	 6.22607322306854E-02 
849	 6.16590122895857E-02 
850	 6.13638049065723E-02 
851	 6.11246587011166E-02 
852	 6.08614998425044E-02 
853	 6.04721338774277E-02 
854	 6.00178343614301E-02 
855	 5.98558581069962E-02 
856	 0.059690723617676 
857	 0.059401814840516 
858	 5.89753273765798E-02 
859	 5.85521468886274E-02 
860	 0.058294286349509 
861	 5.80275823525472E-02 
862	 5.75374394001637E-02 
863	 5.75357476948801E-02 
864	 5.72922686200581E-02 
865	 5.68902394928354E-02 
866	 5.70614525566266E-02 
867	 5.63129766227378E-02 
868	 5.55872644097841E-02 
869	 5.53396755072307E-02 
870	 0.054965445354 
871	 5.43911483731001E-02 
872	 5.39023208693475E-02 
873	 0.053704056399955 
874	 0.053654417331966 
875	 5.30218697593765E-02 
876	 5.23292454231267E-02 
877	 0.052149626107606 
878	 5.16540090585159E-02 
879	 5.13460557670777E-02 
880	 5.10417993384179E-02 
881	 5.03594082030035E-02 
882	 4.97675637763679E-02 
883	 4.92366769203717E-02 
884	 4.88118507518238E-02 
885	 4.85979447282267E-02 
886	 4.86581979490613E-02 
887	 4.82574443189336E-02 
888	 0.047501911067902 
889	 0.047462143098288 
890	 4.73239647747039E-02 
891	 4.71219121722351E-02 
892	 4.70065947320834E-02 
893	 4.70673175073873E-02 
894	 0.046861082708077 
895	 4.67718555012103E-02 
896	 4.72016361487746E-02 
897	 4.76384370570002E-02 
898	 4.72433212815327E-02 
899	 4.62797361379766E-02 
900	 4.54819613795044E-02 
901	 4.52421933522218E-02 
902	 4.50489022109824E-02 
903	 4.47632009916177E-02 
904	 0.04428312813112 
905	 4.27694277513351E-02 
906	 4.18755377808803E-02 
907	 4.23228051012005E-02 
908	 4.35561562859826E-02 
909	 4.23664517160463E-02 
910	 4.20106707212291E-02 
911	 4.24354155217255E-02 
912	 4.05094508926526E-02 
913	 4.03734796097035E-02 
914	 4.02912993061615E-02 
915	 3.93513083230477E-02 
916	 3.84779787973141E-02 
917	 3.77184917980569E-02 
918	 0.036303762753441 
919	 3.48236726924837E-02 
920	 3.55013155513512E-02 
921	 0.035242836801515 
922	 3.42836753106043E-02 
923	 3.36803394409591E-02 
924	 3.49152503025667E-02 
925	 0.033768732389754 
926	 3.27288351199024E-02 
927	 3.45418122665914E-02 
928	 3.23367134418448E-02 
929	 0.029663222565308 
930	 3.00301354476819E-02 
931	 3.63405233298919E-02 
932	 4.01469694997228E-02 
933	 3.49782847621583E-02 
934	 2.98454250415765E-02 
935	 3.64783787451089E-02 
936	 3.89362656469519E-02 
937	 3.54817091744081E-02 
938	 3.21181884243443E-02 
939	 3.32937851322512E-02 
940	 3.03653215005833E-02 
941	 3.50386793987865E-02 
942	 3.83633217052447E-02 
943	 2.66986972338827E-02 
944	 2.87519699253673E-02 
945	 3.17228139775633E-02 
946	 2.92009397493017E-02 
947	 2.33496500095703E-02 
948	 2.72288214130017E-02 
949	 0.028933900857994 
950	 0.027779836466327 
951	 2.97681341021438E-02 
952	 0.031584801051848 
953	 3.54204692990698E-02 
954	 3.73834632393859E-02 
955	 3.20745779932905E-02 
956	 2.95239203213745E-02 
957	 2.91827116234988E-02 
958	 2.89429477132557E-02 
959	 2.72436247947543E-02 
960	 2.86506987918025E-02 
961	 2.73231253866359E-02 
962	 2.41273890073332E-02 
963	 2.36895892145243E-02 
964	 2.20760169871129E-02 
965	 2.41398047028766E-02 
966	 2.73631400239335E-02 
967	 2.57938010133119E-02 
968	 2.66163677342883E-02 
969	 2.56873698723276E-02 
970	 2.38148066193752E-02 
971	 2.56583604669613E-02 
972	 2.59050226840935E-02 
973	 2.47183189491131E-02 
974	 2.37356133466615E-02 
975	 2.49043871451977E-02 
976	 2.60926323033981E-02 
977	 2.52219019840958E-02 
978	 2.38784806752682E-02 
979	 2.53683186034183E-02 
980	 2.32326369410298E-02 
981	 2.36088993306129E-02 
982	 2.53711962934994E-02 
983	 2.25281911849378E-02 
984	 2.22793032063228E-02 
985	 2.20416277432969E-02 
986	 2.14538694313196E-02 
987	 2.22291417822051E-02 
988	 0.023210064847738 
989	 0.023452352609599 
990	 2.32987921453258E-02 
991	 2.35861683429868E-02 
992	 0.021738662468993 
993	 2.16297567459167E-02 
994	 2.22556697207394E-02 
995	 2.03526794950943E-02 
996	 0.022848007393741 
997	 2.31486948766386E-02 
998	 2.13320620376608E-02 
999	 2.16798483357733E-02 
1000	 2.35385906191119E-02 
1001	 2.26968570064731E-02 
1002	 2.28994541300522E-02 
1003	 2.29847580143659E-02 
1004	 2.25996784421633E-02 
1005	 2.23112371521107E-02 
1006	 2.21347052327264E-02 
1007	 2.19113232525811E-02 
1008	 2.17752665600786E-02 
1009	 2.14848880819014E-02 
1010	 2.17109909645978E-02 
1011	 0.021995323861054 
1012	 2.20688613890125E-02 
1013	 2.25942287242382E-02 
1014	 2.28192996316584E-02 
1015	 2.29808392189596E-02 
1016	 2.30435355807937E-02 
1017	 0.02298520746212 
1018	 2.29624150833187E-02 
1019	 2.30586313470098E-02 
1020	 2.27015076333553E-02 
1021	 2.19689380056136E-02 
1022	 2.13793383939547E-02 
1023	 2.14311220755708E-02 
1024	 2.09735831236655E-02 
1025	 2.15456860649317E-02 
1026	 2.25096191505144E-02 
1027	 2.25684909477159E-02 
1028	 2.19952065831567E-02 
1029	 2.21483922964439E-02 
1030	 2.22835759668486E-02 
1031	 2.23678785520586E-02 
1032	 2.28527403325081E-02 
1033	 2.29942297273537E-02 
1034	 2.26481146347348E-02 
1035	 2.25495510249923E-02 
1036	 2.28040049107046E-02 
1037	 2.27627801839643E-02 
1038	 2.22718921332227E-02 
1039	 2.22713012736743E-02 
1040	 2.28243160287572E-02 
1041	 2.26813359140348E-02 
1042	 2.26011075858007E-02 
1043	 2.25894446073698E-02 
1044	 2.27767929918103E-02 
1045	 2.27318732374698E-02 
1046	 2.28692408714674E-02 
1047	 2.35599724467573E-02 
1048	 2.38704803571384E-02 
1049	 2.38825211430643E-02 
1050	 2.39173499776042E-02 
1051	 2.40476195807845E-02 
1052	 0.024002991695082 
1053	 2.34968689620425E-02 
1054	 2.33932489231379E-02 
1055	 2.35229677993377E-02 
1056	 2.35796247518724E-02 
1057	 2.36991499032122E-02 
1058	 2.41260785543537E-02 
1059	 2.41191892966043E-02 
1060	 2.38132194072997E-02 
1061	 2.37554055829195E-02 
1062	 2.35662429626744E-02 
1063	 2.36139710671642E-02 
1064	 2.38588169722936E-02 
1065	 2.41075577594198E-02 
1066	 2.46614081916961E-02 
1067	 2.48097823420754E-02 
1068	 2.46736374365665E-02 
1069	 2.47597861644509E-02 
1070	 2.47762391784569E-02 
1071	 2.47562343215492E-02 
1072	 2.50157131780696E-02 
1073	 2.50215627760392E-02 
1074	 2.49915693488958E-02 
1075	 2.46106485933488E-02 
1076	 2.46308748423166E-02 
1077	 2.49496016769068E-02 
1078	 2.49367711582946E-02 
1079	 0.025020936898274 
1080	 2.48138271750246E-02 
1081	 2.40433498518857E-02 
1082	 2.36908292955959E-02 
1083	 2.33910947225786E-02 
1084	 0.02325437359239 
1085	 2.32629266260043E-02 
1086	 2.35010670643824E-02 
1087	 2.41843801296159E-02 
1088	 2.44037632121276E-02 
1089	 2.44044812091099E-02 
1090	 2.49449422668778E-02 
1091	 2.47758620159146E-02 
1092	 2.38182501016153E-02 
1093	 2.36204942158373E-02 
1094	 2.35000265462721E-02 
1095	 2.35433626087411E-02 
1096	 2.40973419142271E-02 
1097	 2.44235411872342E-02 
1098	 2.48548051486595E-02 
1099	 2.47266321380683E-02 
1100	 2.41408207158173E-02 
1101	 2.40664017571836E-02 
1102	 2.36642294321525E-02 
1103	 2.36788376532308E-02 
1104	 2.49355139931964E-02 
1105	 2.47620568751085E-02 
1106	 2.48408469352874E-02 
1107	 2.55199276199842E-02 
1108	 2.52828105611338E-02 
1109	 2.62750772198387E-02 
1110	 2.65878025023147E-02 
1111	 2.62606335036251E-02 
1112	 2.62594375630137E-02 
1113	 2.62313563676738E-02 
1114	 2.58735208621801E-02 
1115	 0.025653307904415 
1116	 2.55633174330792E-02 
1117	 2.45239167835745E-02 
1118	 0.02478179968559 
1119	 0.025841481451488 
1120	 2.88872420953683E-02 
1121	 4.08826398668839E-02 
1122	 4.54849253853715E-02 
1123	 4.10223552603219E-02 
1124	 3.49446851136233E-02 
1125	 1.64987062932524E-02 
1126	 2.51296897594677E-02 
1127	 5.43470263461047E-02 
1128	 6.01839154516593E-02 
1129	 5.87283347665347E-02 
1130	 4.64253482318516E-02 
1131	 3.91327249276715E-02 
1132	 2.75173130402459E-02 
1133	 2.87026874845962E-02 
1134	 3.69258899433174E-02 
1135	 3.52218771862367E-02 
1136	 3.24223388093115E-02 
1137	 3.02352157123143E-02 
1138	 1.97809406994393E-02 
1139	 0.022207254575085 
1140	 3.46342582867813E-02 
1141	 3.68423092000209E-02 
1142	 3.61507681003141E-02 
1143	 3.87273884228441E-02 
1144	 3.46559944021681E-02 
1145	 2.91360125240717E-02 
1146	 3.00979071842836E-02 
1147	 3.07164924874117E-02 
1148	 3.22967063982903E-02 
1149	 0.03320371669681 
1150	 3.19751243163081E-02 
1151	 2.84490900924815E-02 
1152	 2.88852145944135E-02 
1153	 2.97435170130144E-02 
1154	 2.98296602530148E-02 
1155	 3.19660077073066E-02 
1156	 3.09091374643221E-02 
1157	 2.69731580388388E-02 
1158	 2.49203371600148E-02 
1159	 2.42800194410945E-02 
1160	 2.44043377420731E-02 
1161	 2.57166689640864E-02 
1162	 2.65754506068334E-02 
1163	 2.57483810232764E-02 
1164	 2.44631136537872E-02 
1165	 2.41772367626497E-02 
1166	 2.40008468554061E-02 
1167	 2.36455810416685E-02 
1168	 2.38249871110782E-02 
1169	 0.023577965984952 
1170	 2.27260282580626E-02 
1171	 2.25955548073899E-02 
1172	 0.023118667183204 
1173	 2.32814271170842E-02 
1174	 2.34522244603076E-02 
1175	 2.37983489431257E-02 
1176	 2.37740710220854E-02 
1177	 2.31303810908134E-02 
1178	 0.022520011968852 
1179	 2.26877586548248E-02 
1180	 2.28948258807477E-02 
1181	 2.26623427603746E-02 
1182	 2.25659366185523E-02 
1183	 2.22905909400381E-02 
1184	 2.22288741894882E-02 
1185	 2.24519486448925E-02 
1186	 2.24656732021053E-02 
1187	 2.23121231561653E-02 
1188	 2.20245461418411E-02 
1189	 2.20710850872329E-02 
1190	 2.25566917557878E-02 
1191	 2.29893655502741E-02 
1192	 2.30850618908409E-02 
1193	 2.29289477394485E-02 
1194	 2.27866823433808E-02 
1195	 2.29174855301201E-02 
1196	 2.28952362713047E-02 
1197	 2.25974997860539E-02 
1198	 2.21867405261745E-02 
1199	 2.19382766867216E-02 
1200	 2.19802949546235E-02 
1201	 0.022215064380911 
1202	 2.22084425202846E-02 
1203	 2.21062402026319E-02 
1204	 2.21059259291966E-02 
1205	 2.19471664610668E-02 
1206	 2.19829535047774E-02 
1207	 2.19019759491437E-02 
1208	 2.17533480414456E-02 
1209	 2.20942119079066E-02 
1210	 2.22952422227417E-02 
1211	 2.22886094637708E-02 
1212	 0.022471904237582 
1213	 2.23376029334118E-02 
1214	 2.20766465149612E-02 
1215	 2.18744265255329E-02 
1216	 2.19731417398906E-02 
1217	 2.14544768207615E-02 
1218	 2.08907012679341E-02 
1219	 2.10535007344956E-02 
1220	 2.10009437362122E-02 
1221	 2.08269711639162E-02 
1222	 2.13060756329718E-02 
1223	 2.13527535704294E-02 
1224	 2.07145416779024E-02 
1225	 2.06025748457877E-02 
1226	 2.05907993257863E-02 
1227	 0.020549825523402 
1228	 2.08238371893936E-02 
1229	 2.07131699054597E-02 
1230	 0.020588220251948 
1231	 2.08999735594693E-02 
1232	 0.021260985372016 
1233	 2.13830935124666E-02 
1234	 0.021298193706919 
1235	 2.12941927427258E-02 
1236	 2.08054319500036E-02 
1237	 2.05700009067424E-02 
1238	 2.06005401878399E-02 
1239	 2.08006852058803E-02 
1240	 2.07275384394091E-02 
1241	 2.07448897774297E-02 
1242	 2.06957597112979E-02 
1243	 2.03599872143403E-02 
1244	 2.02593011520715E-02 
1245	 2.04156747318327E-02 
1246	 2.02391070087965E-02 
1247	 2.01812690766387E-02 
1248	 2.04183263198194E-02 
1249	 2.03528121785064E-02 
1250	 2.04055346233102E-02 
1251	 2.06674336714022E-02 
1252	 2.05836771499366E-02 
1253	 2.02987215158414E-02 
1254	 2.03790975961738E-02 
1255	 2.08004712042054E-02 
1256	 2.09236850502069E-02 
1257	 2.07635777531885E-02 
1258	 2.07508513984808E-02 
1259	 2.07286638637168E-02 
1260	 2.07349902802193E-02 
1261	 2.08392155029851E-02 
1262	 2.09342521610376E-02 
1263	 2.11638378072539E-02 
1264	 2.08811683381335E-02 
1265	 2.06875809781529E-02 
1266	 2.09095310885654E-02 
1267	 2.09682971512477E-02 
1268	 0.02103849447954 
1269	 2.13565618741047E-02 
1270	 2.12876697838253E-02 
1271	 2.06141550018637E-02 
1272	 2.05777144937906E-02 
1273	 2.08763184066789E-02 
1274	 2.05287878573251E-02 
1275	 2.06042507882495E-02 
1276	 2.10334759860722E-02 
1277	 0.020658112130718 
1278	 0.020286505624746 
1279	 2.06782847335786E-02 
1280	 0.020802560621837 
1281	 2.07017720239704E-02 
1282	 2.08159958880395E-02 
1283	 2.09620840591263E-02 
1284	 2.04637644470498E-02 
1285	 2.03149913964535E-02 
1286	 2.08620371861537E-02 
1287	 2.09528428709885E-02 
1288	 2.06002481728794E-02 
1289	 2.06490379873653E-02 
1290	 2.10261371060885E-02 
1291	 2.08566227734581E-02 
1292	 2.07807590920043E-02 
1293	 2.10938858891723E-02 
1294	 2.11559601077208E-02 
1295	 2.12230732627486E-02 
1296	 2.15034746962856E-02 
1297	 2.15837973780362E-02 
1298	 2.15572242538102E-02 
1299	 2.16885529570212E-02 
1300	 2.16201764454117E-02 
1301	 2.12654471781923E-02 
1302	 2.16859945690764E-02 
1303	 2.24251002355918E-02 
1304	 2.21392538414705E-02 
1305	 2.19195903994733E-02 
1306	 0.021973228865 
1307	 2.15806056237613E-02 
1308	 2.14969346306788E-02 
1309	 2.20612540778138E-02 
1310	 2.25233735303489E-02 
1311	 2.28267452652672E-02 
1312	 0.022974139657998 
1313	 2.36444955740442E-02 
1314	 2.37574970080995E-02 
1315	 2.29852214929825E-02 
1316	 2.28996622810525E-02 
1317	 2.25833226611052E-02 
1318	 2.26718701510374E-02 
1319	 2.40440222417195E-02 
1320	 0.024273273098384 
1321	 2.32930997963671E-02 
1322	 2.40400166062034E-02 
1323	 0.025421990607683 
1324	 2.43699331504894E-02 
1325	 2.37154318943789E-02 
1326	 2.48628715113413E-02 
1327	 2.57614412677707E-02 
1328	 2.54287336913371E-02 
1329	 2.63148342917263E-02 
1330	 2.92158938528045E-02 
1331	 0.029517438752845 
1332	 2.92059069190091E-02 
1333	 0.029513734620377 
1334	 2.76662401323844E-02 
1335	 2.75723678439183E-02 
1336	 2.77324551663548E-02 
1337	 2.81567743935327E-02 
1338	 3.05890099838397E-02 
1339	 3.07147990220702E-02 
1340	 2.88449207032263E-02 
1341	 2.79337991305062E-02 
1342	 2.54563734752827E-02 
1343	 2.53643683757332E-02 
1344	 2.74130673547264E-02 
1345	 2.86633658744739E-02 
1346	 3.78979499921029E-02 
1347	 3.98433939133239E-02 
1348	 1.82680243044434E-02 
1349	 0.016320429173447 
1350	 4.06990846233209E-02 
1351	 4.34400792979455E-02 
1352	 5.90175243868146E-02 
1353	 0.114871074714634 
1354	 0.201740167444758 
1355	 0.188473701364522 
1356	 0.208363502251744 
1357	 0.219211692643853 
1358	 5.11135181174893E-02 
1359	-5.92080098423938E-02 
1360	 0.290217254811943 
1361	 0.405788568514555 
1362	 0.22997203327511 
1363	 0.27752234786675 
1364	 0.448632209115442 
1365	 0.499117397933257 
1366	 0.375043094005576 
1367	 0.174467259857227 
1368	 0.116742267636259 
1369	-0.430343651475543 
1370	-0.565966132315187 
1371	 7.80808341366047E-02 
1372	 0.17880201802463 
1373	 5.62991791481253E-02 
1374	 0.047249830369675 
1375	 0.125878429091039 
1376	 9.33851575803839E-02 
1377	-3.57692673163385E-02 
1378	-2.13758355533701E-02 
1379	 4.70352076893879E-02 
1380	 2.09384912664631E-02 
1381	 0.321844380550643 
1382	 0.292708742145887 
1383	-0.382118390047859 
1384	-0.303494732291638 
1385	-5.68059054839238E-02 
1386	-2.03758683882854E-03 
1387	 0.204797839948875 
1388	 0.372927323684344 
1389	 2.21041532951395 
1390	 1.61580990918574 
1391	 0.709215392535034 
1392	 0.433991854867691 
1393	 0.426222121134383 
1394	 0.355090079830965 
1395	 0.181387566735478 
1396	 0.293666288113321 
1397	 0.226691553069987 
1398	 0.027581502143337 
1399	 0.307049115511629 
1400	 0.413570953672281 
1401	 0.409088945464552 
1402	 0.520831995762018 
1403	 0.235176073304928 
1404	-4.32892389577276E-02 
1405	-0.263702506445145 
1406	-1.32983041386502 
1407	-1.00142161355566 
1408	-0.497358599224094 
1409	-0.317175824212673 
1410	 0.140979073832148 
1411	 8.50392689482335E-02 
1412	-0.227124409288893 
1413	-0.24161080424252 
1414	-0.588076323655858 
1415	-0.413248216537911 
1416	 0.507933406410368 
1417	 0.563511210348371 
1418	 5.24064322309605E-02 
1419	 2.15251282117786E-02 
1420	 4.81628780571712E-02 
1421	-1.29261894941919E-02 
1422	-8.80764229371804E-02 
1423	-5.76164092936465E-02 
1424	-2.26329876013656E-02 
1425	-2.15420374225912E-02 
1426	 2.62397231744783E-02 
1427	 4.75509866964385E-02 
1428	 1.83968851788875E-02 
1429	 9.02119598248317E-03 
1430	 2.99962069743711E-02 
1431	 3.42885606928993E-02 
1432	 2.10267950989044E-02 
1433	 1.60492991487036E-02 
1434	 1.13812010715275E-02 
1435	 1.93288376714314E-02 
1436	 3.60844928142935E-02 
1437	 4.52315600787074E-02 
1438	 6.76247721712084E-02 
1439	 7.79207861582086E-02 
1440	 0.06065043453595 
1441	 4.97964668168501E-02 
1442	 2.20410613733573E-02 
1443	 1.89496079089502E-02 
1444	 4.15328608965629E-02 
1445	 3.89954296630821E-02 
1446	 2.39465057867848E-02 
1447	 1.76263279318989E-02 
1448	 2.74775779764057E-02 
1449	 3.18410904969563E-02 
1450	 3.33961734639798E-02 
1451	 3.92417670278994E-02 
1452	 4.05051128699581E-02 
1453	 4.42618342915676E-02 
1454	 3.97650631279795E-02 
1455	 3.35492394902498E-02 
1456	 3.31390343813997E-02 
1457	 2.85912389924678E-02 
1458	 2.74359144903038E-02 
1459	 3.23934213830198E-02 
1460	 3.64756317070905E-02 
1461	 4.22205042450257E-02 
1462	 4.00649836225195E-02 
1463	 0.034607890330721 
1464	 3.47099038373289E-02 
1465	 2.71909507834214E-02 
1466	 2.66323416910802E-02 
1467	 4.19414492472816E-02 
1468	 4.34384406105746E-02 
1469	 3.69047551258351E-02 
1470	 3.26617930787547E-02 
1471	 2.17605226778044E-02 
1472	 2.16410559670552E-02 
1473	 3.00914603722673E-02 
1474	 2.91372459596863E-02 
1475	 2.58951868988413E-02 
1476	 2.69935579936245E-02 
1477	 2.60979483064977E-02 
1478	 2.62706823869549E-02 
1479	 3.08898174067479E-02 
1480	 3.33109564600847E-02 
1481	 3.50139935476894E-02 
1482	 0.032894490219491 
1483	 2.75391722515819E-02 
1484	 2.84873855741879E-02 
1485	 0.03147582897557 
1486	 2.95994278834215E-02 
1487	 2.78898959467814E-02 
1488	 2.86353205337042E-02 
1489	 2.82453727348016E-02 
1490	 2.68245443431715E-02 
1491	 2.66073560916065E-02 
1492	 0.026855904795607 
1493	 2.59468280639459E-02 
1494	 2.51819300387905E-02 
1495	 2.59408189458788E-02 
1496	 2.59677596420631E-02 
1497	 2.46612402274787E-02 
1498	 2.40151691056952E-02 
1499	 2.39427178761942E-02 
1500	 2.35833866960755E-02 
1501	 2.28532335587233E-02 
1502	 2.24570670128867E-02 
1503	 2.24386619266358E-02 
1504	 2.24313228397922E-02 
1505	 2.26415797357894E-02 
1506	 2.22565883581258E-02 
1507	 2.29038874125108E-02 
1508	 2.27738236861758E-02 
1509	 2.20026263482413E-02 
1510	 2.22297957055622E-02 
1511	 0.022350287491353 
1512	 2.20433686082411E-02 
1513	 2.19221441521416E-02 
1514	 2.18941066761998E-02 
1515	 2.20788726792821E-02 
1516	 2.22505574963313E-02 
1517	 2.19864700270054E-02 
1518	 2.16961053103077E-02 
1519	 2.12949435337707E-02 
1520	 2.04521239086563E-02 
1521	 2.00647890577528E-02 
1522	 2.06560911950507E-02 
1523	 2.09343155294924E-02 
1524	 2.05133982387916E-02 
1525	 2.02206876306084E-02 
1526	 2.01916443689653E-02 
1527	 2.01144234168801E-02 
1528	 1.98920440483145E-02 
1529	 0.020201934401292 
1530	 2.04463714721763E-02 
1531	 2.00995621541032E-02 
1532	 2.02757923902022E-02 
1533	 2.06519137643487E-02 
1534	 2.06381918170799E-02 
1535	 2.07747846470876E-02 
1536	 2.09349460380295E-02 
1537	 2.08211126598439E-02 
1538	 2.06492703122601E-02 
1539	 2.06727177530942E-02 
1540	 2.06273545439123E-02 
1541	 2.01654331783525E-02 
1542	 1.99569825615329E-02 
1543	 2.01159828243393E-02 
1544	 2.00595984060643E-02 
1545	 2.05215135972486E-02 
1546	 2.10121701179323E-02 
1547	 2.02742289130257E-02 
1548	 1.97494563306173E-02 
1549	 2.01029529572753E-02 
1550	 2.01710370742786E-02 
1551	 2.00318318594218E-02 
1552	 0.020159705229736 
1553	 2.01674969971557E-02 
1554	 1.98323999318204E-02 
1555	 1.98456147074944E-02 
1556	 2.04153205772861E-02 
1557	 2.04652483032528E-02 
1558	 1.98835543118707E-02 
1559	 1.97880502633143E-02 
1560	 2.01664811028453E-02 
1561	 2.03443127703694E-02 
1562	 2.04024092862465E-02 
1563	 2.04329056138672E-02 
1564	 2.04156949488735E-02 
1565	 2.03288782556993E-02 
1566	 2.00097675659205E-02 
1567	 1.97369339035841E-02 
1568	 1.97973990861444E-02 
1569	 2.00410063195905E-02 
1570	 2.00359308306655E-02 
1571	 1.99488417835574E-02 
1572	 1.98138223216716E-02 
1573	 0.019507302875036 
1574	 1.98384684201822E-02 
1575	 2.04520281808767E-02 
1576	 2.03118145453805E-02 
1577	 2.01437083734524E-02 
1578	 2.04355027614022E-02 
1579	 2.04856512153286E-02 
1580	 2.05700760198596E-02 
1581	 2.06187096633054E-02 
1582	 2.02339413275963E-02 
1583	 1.99339720709217E-02 
1584	 1.98138567189393E-02 
1585	 1.98995591066106E-02 
1586	 2.01441837512498E-02 
1587	 2.02661047832619E-02 
1588	 0.020189247328956 
1589	 2.00038887509727E-02 
1590	 1.98728354650691E-02 
1591	 1.97814144889451E-02 
1592	 1.98540597041657E-02 
1593	 1.96786033134813E-02 
1594	 1.93409424358152E-02 
1595	 1.96058209185847E-02 
1596	 0.02006796744167 
1597	 2.03440621754804E-02 
1598	 2.02992540251261E-02 
1599	 1.99280958746485E-02 
1600	 1.96202802439674E-02 
1601	 1.94447397475021E-02 
1602	 0.019345247665544 
1603	 1.93145230905098E-02 
1604	 1.92875047555524E-02 
1605	 0.019360437870269 
1606	 1.97057067960612E-02 
1607	 2.02052993857863E-02 
1608	 2.02786198737488E-02 
1609	 2.00209380517541E-02 
1610	 0.02017184413837 
1611	 2.03189549656536E-02 
1612	 2.03127965258588E-02 
1613	 2.05075069673596E-02 
1614	 2.02922515608681E-02 
1615	 1.98867847794299E-02 
1616	 2.00599779476564E-02 
1617	 2.04032279277914E-02 
1618	 2.07133685585183E-02 
1619	 2.10559669675955E-02 
1620	 2.07825789231622E-02 
1621	 2.02211376068103E-02 
1622	 0.02024607414985 
1623	 0.020224593227038 
1624	 1.99045134863518E-02 
1625	 1.94795437051313E-02 
1626	 1.90897386329495E-02 
1627	 0.01929222185882 
1628	 1.95652214073647E-02 
1629	 1.96759879869625E-02 
1630	 1.97978620465538E-02 
1631	 1.96811919190728E-02 
1632	 1.97729387422343E-02 
1633	 2.03737336614821E-02 
1634	 2.07189407666035E-02 
1635	 2.02836020699611E-02 
1636	 2.00485442182909E-02 
1637	 2.05531912435694E-02 
1638	 2.08853913578576E-02 
1639	 2.05650817572497E-02 
1640	 0.0201652609593 
1641	 1.97443050922146E-02 
1642	 1.92700139103233E-02 
1643	 1.94515402738388E-02 
1644	 1.97803619779433E-02 
1645	 0.019799075178091 
1646	 0.019659080225453 
1647	 1.96791311555754E-02 
1648	 2.01955657706314E-02 
1649	 2.03163688094901E-02 
1650	 2.03348296681726E-02 
1651	 2.06667200772419E-02 
1652	 2.06261052389485E-02 
1653	 2.07536249018709E-02 
1654	 0.020542346312357 
1655	 2.03095497854451E-02 
1656	 2.04431073222871E-02 
1657	 2.03659901491924E-02 
1658	 2.02878367979838E-02 
1659	 0.020424042892028 
1660	 2.06026101684869E-02 
1661	 2.09853494932282E-02 
1662	 2.08328154926672E-02 
1663	 2.03314392154087E-02 
1664	 0.020261159372992 
1665	 2.01926060942779E-02 
1666	 1.98877678263539E-02 
1667	 1.95047146247181E-02 
1668	 2.03845909203957E-02 
1669	 2.02789968267257E-02 
1670	 1.92311965204459E-02 
1671	 1.96133423118813E-02 
1672	 1.99896760614426E-02 
1673	 0.019709142163218 
1674	 1.99731971662279E-02 
1675	 2.01391462300046E-02 
1676	 1.95902151882478E-02 
1677	 1.92842639548735E-02 
1678	 1.98130398721017E-02 
1679	 2.03056245338529E-02 
1680	 2.03352730121067E-02 
1681	 2.02484261786496E-02 
1682	 0.019942848779197 
1683	 1.94133154243314E-02 
1684	 1.94160791479435E-02 
1685	 1.99735957449876E-02 
1686	 2.00901403464692E-02 
1687	 1.97000406812275E-02 
1688	 1.95875951189082E-02 
1689	 1.97588720038367E-02 
1690	 1.95135155916093E-02 
1691	 2.00925419940977E-02 
1692	 2.14817143590284E-02 
1693	 2.10278734446721E-02 
1694	 0.020660541850774 
1695	 2.11700988161547E-02 
1696	 2.02240850465945E-02 
1697	 1.98140364397854E-02 
1698	 0.020367599382182 
1699	 2.06911623559763E-02 
1700	 2.09364078998398E-02 
1701	 2.10700841642372E-02 
1702	 2.08099411015011E-02 
1703	 2.01710838016751E-02 
1704	 2.04499056431672E-02 
1705	 2.09430131770507E-02 
1706	 2.09063763533038E-02 
1707	 2.10522754603586E-02 
1708	 2.09297994740507E-02 
1709	 2.05518312953117E-02 
1710	 2.02623154965384E-02 
1711	 1.99438308914301E-02 
1712	 2.00608153205809E-02 
1713	 1.99824580917576E-02 
1714	 2.00734222614655E-02 
1715	 2.04036592312756E-02 
1716	 2.02046617393929E-02 
1717	 2.09935329017374E-02 
1718	 2.18300738209164E-02 
1719	 0.020629159080436 
1720	 1.95817971909192E-02 
1721	 2.06637011535619E-02 
1722	 2.11585223590202E-02 
1723	 2.12321328954813E-02 
1724	 2.23096139920883E-02 
1725	 0.02167876768034 
1726	 0.0204975221008 
1727	 2.11159633542789E-02 
1728	 2.13425772728863E-02 
1729	 2.08455751539662E-02 
1730	 2.08702182103026E-02 
1731	 2.08793209503006E-02 
1732	 2.08528433044569E-02 
1733	 2.05763169008431E-02 
1734	 2.08185637662634E-02 
1735	 2.17470768668109E-02 
1736	 2.12663357063019E-02 
1737	 2.17801201279753E-02 
1738	 2.29710373523818E-02 
1739	 2.16540189063407E-02 
1740	 2.13970322935255E-02 
1741	 2.25714034606657E-02 
1742	 2.20099903900668E-02 
1743	 0.021821997336397 
1744	 2.26641980944169E-02 
1745	 0.021936417298443 
1746	 2.12144225436544E-02 
1747	 2.15986865019588E-02 
1748	 2.28655015609213E-02 
1749	 2.23796885694895E-02 
1750	 2.15444011737746E-02 
1751	 2.18216112633987E-02 
1752	 2.09425129485302E-02 
1753	 2.08098789082669E-02 
1754	 2.24170195860723E-02 
1755	 2.25393254647797E-02 
1756	 2.15785769319815E-02 
1757	 0.02376257329986 
1758	 2.40428724232915E-02 
1759	 2.25390911659008E-02 
1760	 2.17746888711587E-02 
1761	 2.12825938367089E-02 
1762	 2.11567685306548E-02 
1763	 2.40565454658526E-02 
1764	 2.57319707739802E-02 
1765	 2.30500735121365E-02 
1766	 2.17102840386939E-02 
1767	 2.15249980152798E-02 
1768	 1.99625512841189E-02 
1769	 0.021027505197632 
1770	 2.33004183834599E-02 
1771	 2.21432860348473E-02 
1772	 2.17266231986374E-02 
1773	 2.30180908516115E-02 
1774	 2.19507758618182E-02 
1775	 2.69034106511508E-02 
1776	 2.72271090307678E-02 
1777	 2.39350685845832E-02 
1778	 2.30385355451339E-02 
1779	 1.62970332154617E-02 
1780	 1.59778765229964E-02 
1781	 0.026530589014399 
1782	 2.91478784299561E-02 
1783	 2.96722404651387E-02 
1784	 2.97994037690372E-02 
1785	 2.41050323991432E-02 
1786	 0.020872941955371 
1787	 1.88458297851965E-02 
1788	 1.95457328395141E-02 
1789	 0.022783175044186 
1790	 2.60334405261898E-02 
1791	 2.50310496715854E-02 
1792	 2.61861200009113E-02 
1793	 2.46090588781644E-02 
1794	 2.70408041502583E-02 
1795	 3.64160434924582E-02 
1796	 2.58547421765482E-02 
1797	 3.80915630430469E-03 
1798	-0.01597387690883 
1799	-2.47800300274384E-02 
1800	 4.19045890004985E-02 
1801	 7.08388411388508E-02 
1802	 9.22015565886016E-02 
1803	 0.109665692793461 
1804	-9.27034748795651E-03 
1805	-2.31118893125839E-02 
1806	 0.142002672606466 
1807	 0.213772572769365 
1808	 0.349830553169317 
1809	 0.40366225544502 
1810	 0.121406476224232 
1811	-4.23478921048453E-02 
1812	-0.653155138893106 
1813	-1.34355831225483 
1814	 0.609381723373341 
1815	 1.44861531207212 
1816	 0.920139191699014 
1817	 1.22082547216818 
1818	 0.968534895766917 
1819	 0.724262001613929 
1820	 0.225488350346268 
1821	-0.24679814070169 
1822	-0.413517424121736 
1823	-0.46524857773573 
1824	-0.450700491792887 
1825	-3.60862234384132E-02 
1826	 0.13012958872893 
1827	 3.28748676028486E-02 
1828	-5.18849481513238E-03 
1829	-0.120426254640643 
1830	-0.195312258319544 
1831	-0.240649254865442 
1832	-0.423155177900829 
1833	-0.123552208984707 
1834	-0.295582162362529 
1835	-0.964152463322474 
1836	-1.40926580990505 
1837	 5.71246800649223 
1838	 1.91505643592089 
1839	 4.71285752255767E-02 
1840	 76.1071960979975 
1841	-4.86486783727785 
1842	-2.14651413052134 
1843	-3.1190719861021 
1844	-1.73372362859329 
1845	-2.40817565746639 
1846	 3.19208419523394 
1847	 1.67001246515295 
1848	 0.472270368814684 
1849	 5.68131047015811E-02 
1850	 0.105442922200064 
1851	 0.470199138801608 
1852	 1.1784655057079 
1853	 0.585971549371795 
1854	 0.498636841665674 
1855	-0.531435320640389 
1856	-0.324943685247929 
1857	-2.55257020518652 
1858	-2.25685873457016 
1859	-7.79184425771415 
1860	 19.216670834665 
1861	-2.97609854839324 
1862	-2.21575740071479 
1863	 13.9093846377763 
1864	 1.75082511948046 
1865	-3.904055694373 
1866	 1.57129536850535 
1867	 0.42353334247303 
1868	 2.14443073564121 
1869	 2.77943418146505 
1870	 1.41983426199468 
1871	 0.929976567833271 
1872	 1.16810525123786 
1873	 0.729579427558288 
1874	 0.501605533672182 
1875	 0.606207280978579 
1876	 0.48470438629202 
1877	 0.63813940796322 
1878	 0.503648548798666 
1879	-9.72448585818077E-02 
1880	-0.572241723701387 
1881	-1.25797685835896 
1882	-1.29626077918954 
1883	-1.98102869620163 
1884	 2.00777563557525 
1885	 0.749918633725655 
1886	 11.0202975630738 
1887	-4.72618033647372 
1888	 0.785575051181449 
1889	 0.484356862870903 
1890	 0.617958719929129 
1891	 0.46137036362823 
1892	-0.102479459607074 
1893	-0.219582535835435 
1894	 0.221288243491761 
1895	 0.219957373337223 
1896	 0.703635744397987 
1897	 0.639431922999513 
1898	-4.53133198152208E-02 
1899	-0.264703446197909 
1900	-0.216782689195987 
1901	 0.394785477546499 
1902	 1.20247582847553 
1903	 2.50619374275243 
1904	 2.43442341112961 
1905	 1.91592686661461 
1906	-34.4494094758048 
1907	-2.32594522518652 
1908	-0.438776259721589 
1909	 0.497511537301677 
1910	-2.59697229064244 
1911	 9.68820779480404 
1912	-10.4229020370186 
1913	-4.21211537556764 
1914	-4.02668617677349 
1915	-5.02382682869652 
1916	-0.951631629822377 
1917	-10.5601630298276 
1918	 0.95551088148521 
1919	 0.678714450805319 
1920	 0.435464761395068 
1921	 0.334058644317055 
1922	 1.11794428662516 
1923	 3.23244638047626 
1924	 17.5005979439417 
1925	 18.0697685311285 
1926	 25.4853156091438 
1927	-6.37292000094847 
1928	 15.0356307548257 
1929	 0.907020269028672 
1930	 0.756071102720892 
1931	 0.345822569452717 
1932	-0.16053506153843 
1933	 0.409498005288101 
1934	 0.942812237417998 
1935	 1.37805680525004 
1936	 3.04970546544426 
1937	 1.77021401725895 
1938	 0.70896031722836 
1939	 0.216374900778285 
1940	-0.153381072216391 
1941	-0.17558647833391 
1942	-8.70295191594549E-02 
1943	 2.31748608947364E-02 
1944	 2.68335284525648E-02 
1945	 0.183635672447512 
1946	 0.312189811966717 
1947	 0.264129498022526 
1948	 0.486095514894919 
1949	 0.589152448389179 
1950	 0.246890480092869 
1951	-6.09257401416897E-02 
1952	-0.150187084170131 
1953	-0.269745042288918 
1954	-0.264328989974167 
1955	-4.77915162598413E-02 
1956	 0.113198931286891 
1957	 9.76367942798553E-02 
1958	 8.70182271885916E-02 
1959	 7.82311408429254E-02 
1960	 6.24107142691814E-02 
1961	 0.052794950915746 
1962	 3.65486954270963E-02 
1963	 2.29776005758274E-02 
1964	 1.62902429336597E-02 
1965	 1.03970665371972E-02 
1966	 1.22812221604144E-02 
1967	 1.93995248680141E-02 
1968	 2.40516393627019E-02 
1969	 2.67917138656868E-02 
1970	 3.09247977016855E-02 
1971	 3.31682943151247E-02 
1972	 3.12406412432545E-02 
1973	 2.91617900871166E-02 
1974	 3.27917693299658E-02 
1975	 2.86860985688513E-02 
1976	 2.31569386768326E-02 
1977	 2.26823995012666E-02 
1978	 2.36788239422413E-02 
1979	 2.51330202339267E-02 
1980	 2.96615324569459E-02 
1981	 3.26256512179865E-02 
1982	 3.19982508603943E-02 
1983	 2.85735946435252E-02 
1984	 2.64989276474476E-02 
1985	 2.78386183999185E-02 
1986	 2.88188581427995E-02 
1987	 3.04849323551694E-02 
1988	 3.17402052717184E-02 
1989	 0.030712969866988 
1990	 3.21447858532037E-02 
1991	 3.33922353189086E-02 
1992	 0.031121819712932 
1993	 2.78061968196936E-02 
1994	 2.59654481001491E-02 
1995	 2.38104238697002E-02 
1996	 2.13904590681931E-02 
1997	 1.90829727443436E-02 
1998	 2.36811890727015E-02 
1999	 3.09601992942201E-02 
2000	 3.83281176060027E-02 
2001	 4.55251457271351E-02 
2002	 5.16821718090795E-02 
2003	 0.049630066920789 
2004	 3.62195577532845E-02 
2005	 3.39220312952744E-02 
2006	 3.11222921979061E-02 
2007	 0.031602529275995 
2008	 4.14041395582549E-02 
2009	 4.04477228672012E-02 
2010	 3.13791903766087E-02 
2011	 0.030786144687069 
2012	 3.24109400314344E-02 
2013	 2.02091609977977E-02 
2014	 2.27852993344848E-02 
2015	 2.87713398140567E-02 
2016	 2.32142601551701E-02 
2017	 2.67173626268065E-02 
2018	 3.34593791019053E-02 
2019	 3.36180732385254E-02 
2020	 3.16400223485174E-02 
2021	 3.44478064723253E-02 
2022	 3.36934880710427E-02 
2023	 2.66856694590424E-02 
2024	 2.50084824993931E-02 
2025	 2.48851184286938E-02 
2026	 2.49191838395366E-02 
2027	 2.56225767990027E-02 
2028	 2.84889342311335E-02 
2029	 2.69684992635859E-02 
2030	 2.53982184366701E-02 
2031	 0.024623441257449 
2032	 2.32257644807532E-02 
2033	 2.44160226710699E-02 
2034	 0.026220421498719 
2035	 2.77940458278778E-02 
2036	 2.67348946942621E-02 
2037	 2.44068438931583E-02 
2038	 2.29720494388512E-02 
2039	 2.19029378185069E-02 
2040	 1.93766408766451E-02 
2041	 1.96543973646554E-02 
2042	 2.30788157457923E-02 
2043	 2.39634069954452E-02 
2044	 2.42786988534444E-02 
2045	 2.53286378339548E-02 
2046	 2.53803578057076E-02 
2047	 2.57118017872913E-02 
2048	 2.57560644050547E-02 
2049	 2.62048864907242E-02 
2050	 2.76407311256904E-02 
2051	 2.69983096270481E-02 
2052	 2.70995602343606E-02 
2053	 2.84537676688553E-02 
2054	 0.027852802042944 
2055	 2.76971395431042E-02 
2056	 2.71152784525729E-02 
2057	 2.60107918386891E-02 
2058	 2.43189354075565E-02 
2059	 2.07659002839385E-02 
2060	 2.04796022572238E-02 
2061	 2.14209104319256E-02 
2062	 2.29485822212911E-02 
2063	 2.65409837942104E-02 
2064	 3.04112176982614E-02 
2065	 2.80684779044979E-02 
2066	 2.68676867691462E-02 
2067	 0.027581792780193 
2068	 2.45633649578076E-02 
2069	 2.43852505679368E-02 
2070	 2.80430227248963E-02 
2071	 0.027962580339247 
2072	 2.60458292231732E-02 
2073	 2.55255836169807E-02 
2074	 2.47622820188333E-02 
2075	 2.38228632384082E-02 
2076	 2.40796160282966E-02 
2077	 2.37522690700483E-02 
2078	 2.20257529375566E-02 
2079	 0.021896355005492 
2080	 2.20448869902441E-02 
2081	 2.24870153752073E-02 
2082	 2.49819190036001E-02 
2083	 2.69220232042249E-02 
2084	 2.84076070203781E-02 
2085	 2.92989126568727E-02 
2086	 2.82760801592485E-02 
2087	 0.027337832198872 
2088	 2.59017866717021E-02 
2089	 2.35207892255751E-02 
2090	 2.15882282072694E-02 
2091	 2.06834288495653E-02 
2092	 2.00708232447644E-02 
2093	 1.94762529042204E-02 
2094	 2.03530082026282E-02 
2095	 2.37257604180138E-02 
2096	 2.42952064311176E-02 
2097	 0.024342562836292 
2098	 2.44287503371336E-02 
2099	 2.33939752948307E-02 
2100	 2.16794730182875E-02 
2101	 2.02775699357735E-02 
2102	 1.96641738425326E-02 
2103	 1.91889855476136E-02 
2104	 1.98528393748864E-02 
2105	 2.10838100773507E-02 
2106	 2.20763602421357E-02 
2107	 2.25908317635782E-02 
2108	 2.13168601608569E-02 
2109	 2.06506106819272E-02 
2110	 1.96751927440881E-02 
2111	 0.018838192102092 
2112	 1.93663681153355E-02 
2113	 1.97695032749776E-02 
2114	 2.13748546425004E-02 
2115	 2.22190767699943E-02 
2116	 2.26513147512622E-02 
2117	 2.28024471564041E-02 
2118	 0.022337844761165 
2119	 2.20067293811602E-02 
2120	 2.23050315007693E-02 
2121	 2.12816566492795E-02 
2122	 1.91970376709429E-02 
2123	 1.89198944627451E-02 
2124	 1.90278645140818E-02 
2125	 1.92179388520157E-02 
2126	 2.01698058396349E-02 
2127	 2.05204620902928E-02 
2128	 1.94476043126016E-02 
2129	 2.01908752125818E-02 
2130	 2.16516267866428E-02 
2131	 2.25278873957866E-02 
2132	 2.29843578987761E-02 
2133	 2.15287056557773E-02 
2134	 2.12696553907703E-02 
2135	 2.02047033194259E-02 
2136	 2.10787745041011E-02 
2137	 2.42689065336178E-02 
2138	 2.54109009055448E-02 
2139	 2.67089406156581E-02 
2140	 2.67153118606833E-02 
2141	 2.49187097186497E-02 
2142	 2.38850688226618E-02 
2143	 2.21191399939175E-02 
2144	 0.021699929414965 
2145	 2.24156862998908E-02 
2146	 2.31893084303346E-02 
2147	 2.35571784636182E-02 
2148	 0.023802400820445 
2149	 2.40426210721429E-02 
2150	 2.23108912943694E-02 
2151	 2.09146955439367E-02 
2152	 2.04536096086371E-02 
2153	 0.019651566224856 
2154	 1.87007622275653E-02 
2155	 1.82844628999494E-02 
2156	 1.96341498917958E-02 
2157	 2.00874410976134E-02 
2158	 1.99952629944061E-02 
2159	 1.95599383645346E-02 
2160	 1.84992119931276E-02 
2161	 1.84600159901063E-02 
2162	 1.89821842710769E-02 
2163	 1.90971173549763E-02 
2164	 2.03454618910449E-02 
2165	 2.04798006704873E-02 
2166	 1.87694288062652E-02 
2167	 1.75292329672631E-02 
2168	 1.53839139524663E-02 
2169	 1.54202095864279E-02 
2170	 1.65145799810001E-02 
2171	 1.83785451798271E-02 
2172	 1.92175512788614E-02 
2173	 2.07624430759506E-02 
2174	 2.09476338863407E-02 
2175	 1.88100604753596E-02 
2176	 1.77386236120375E-02 
2177	 1.76360933463844E-02 
2178	 1.81512387129522E-02 
2179	 1.83637800835584E-02 
2180	 1.86002567447782E-02 
2181	 1.94583253977427E-02 
2182	 1.92515977211448E-02 
2183	 1.98872593278802E-02 
2184	 1.96977516255967E-02 
2185	 1.81762508847215E-02 
2186	 1.84526506622024E-02 
2187	 1.89562480276952E-02 
2188	 1.80783845518408E-02 
2189	 1.84789100245478E-02 
2190	 1.76626580641583E-02 
2191	 1.32355686497039E-02 
2192	 1.28748895486745E-02 
2193	 0.014643643514022 
2194	 1.69247955676218E-02 
2195	 2.26169320394047E-02 
2196	 2.35730007549879E-02 
2197	 2.21744152057237E-02 
2198	 2.25159634398709E-02 
2199	 2.03548150905512E-02 
2200	 2.09160455968544E-02 
2201	 2.40937551710003E-02 
2202	 2.56885774521355E-02 
2203	 0.022911437403975 
2204	 1.98840888664361E-02 
2205	 1.74585974618415E-02 
2206	 1.40210631623779E-02 
2207	 0.015770600719915 
2208	 1.73571933957208E-02 
2209	 1.66065145917477E-02 
2210	 1.89176092171181E-02 
2211	 1.86179446472948E-02 
2212	 1.64025238979682E-02 
2213	 1.84697676624555E-02 
2214	 2.13925815638861E-02 
2215	 2.14285654085052E-02 
2216	 2.16782210720668E-02 
2217	 2.28906934332245E-02 
2218	 2.28848160806878E-02 
2219	 2.31406295308883E-02 
2220	 2.62622235174977E-02 
2221	 2.57994293699187E-02 
2222	 2.19687274964985E-02 
2223	 2.06734267522995E-02 
2224	 0.019155298097916 
2225	 0.018197930735693 
2226	 0.01935100409729 
2227	 1.87717859732809E-02 
2228	 1.50292789386476E-02 
2229	 1.43751384369973E-02 
2230	 0.016797819745706 
2231	 0.015789383368823 
2232	 1.35774747888207E-02 
2233	 0.014709213312846 
2234	 1.61143937246901E-02 
2235	 1.55166536910105E-02 
2236	 2.08885869782326E-02 
2237	 2.56947346829697E-02 
2238	 2.53559662856226E-02 
2239	 2.55841062759039E-02 
2240	 2.16906914204196E-02 
2241	 1.74184205290428E-02 
2242	 1.96731641804525E-02 
2243	 1.81150567063539E-02 
2244	 0.015818971347942 
2245	 1.84818295963873E-02 
2246	 2.14189300204375E-02 
2247	 2.30535388592637E-02 
2248	 2.45537616999622E-02 
2249	 2.18649202141441E-02 
2250	 1.68811326195984E-02 
2251	 1.63395986909639E-02 
2252	 0.017347242855557 
2253	 1.93272037378352E-02 
2254	 2.42405751778416E-02 
2255	 2.42546093086004E-02 
2256	 2.20622005714885E-02 
2257	 2.73044590070754E-02 
2258	 2.69349974789257E-02 
2259	 2.42764556921121E-02 
2260	 2.44768255939142E-02 
2261	 0.025937241055663 
2262	 2.58906766438613E-02 
2263	 0.027218932579121 
2264	 2.84685596331508E-02 
2265	 3.03690194685859E-02 
2266	 2.96092044840303E-02 
2267	 2.65853196100547E-02 
2268	 2.31916458326669E-02 
2269	 1.74377661733666E-02 
2270	 1.44107914791489E-02 
2271	 1.19147013033175E-02 
2272	 1.31454318759907E-02 
2273	 1.67987458163345E-02 
2274	 1.78977173697574E-02 
2275	 2.28749787432408E-02 
2276	 0.024256781005976 
2277	 2.11382043606509E-02 
2278	 2.09401762073454E-02 
2279	 1.94154183735361E-02 
2280	 1.96057476857769E-02 
2281	 0.021046801794742 
2282	 2.57300562585629E-02 
2283	 2.36175561324435E-02 
2284	 2.22529920529421E-02 
2285	 2.39606660665527E-02 
2286	 2.34020377106168E-02 
2287	 2.34004640292767E-02 
2288	 0.025026407544098 
2289	 2.71125966773101E-02 
2290	 2.20966097354128E-02 
2291	 2.05580420418096E-02 
2292	 2.14353665934435E-02 
2293	 1.62127492498414E-02 
2294	 1.84140907790607E-02 
2295	 2.32411239462613E-02 
2296	 3.01595998898173E-02 
2297	 4.03027367565122E-02 
2298	 3.83815022288823E-02 
2299	 2.93108478159209E-02 
2300	 2.33681627170585E-02 
2301	 1.40130449932795E-02 
2302	 1.02920658807603E-02 
2303	 1.89177261565471E-02 
2304	 0.019940128134242 
2305	 1.67632896320407E-02 
2306	 1.81249097982018E-02 
2307	 1.37031586028401E-02 
2308	 1.24086206784393E-02 
2309	 1.67584280236236E-02 
2310	 0.016611587416725 
2311	 0.011248626874135 
2312	 9.38246867466981E-03 
2313	 1.62174358656488E-02 
2314	 1.88461325036514E-02 
2315	 1.97578965955262E-02 
2316	 2.40284941328436E-02 
2317	 2.05476652134305E-02 
2318	 1.04101575654519E-02 
2319	 7.6507008967454E-03 
2320	 1.37963811532941E-02 
2321	 1.22960352655444E-02 
2322	 2.14331833681001E-02 
2323	 3.94741071319521E-02 
2324	 3.07937026166375E-02 
2325	 2.81415324650452E-02 
2326	 2.65499509335426E-02 
2327	 1.35869099778522E-02 
2328	 1.95165011325991E-02 
2329	 2.22310366060903E-02 
2330	 1.68917309715589E-02 
2331	 1.39214519855589E-02 
2332	 1.10166937665175E-02 
2333	 1.81492490786031E-02 
2334	 3.61897182369925E-02 
2335	 0.038435450328169 
2336	 3.10588996865999E-02 
2337	 3.91694879114301E-02 
2338	 4.08730538718956E-02 
2339	 0.040541804075071 
2340	 4.98423407413117E-02 
2341	 5.58459162592807E-02 
2342	 0.053490572226028 
2343	 4.43315987422508E-02 
2344	 5.13637654761134E-02 
2345	 6.28517044464345E-02 
2346	 0.056537780492571 
2347	 6.71167924803513E-02 
2348	 8.13015938647691E-02 
2349	 6.14983825346085E-02 
2350	 4.07513629865799E-02 
2351	 2.05800554899525E-02 
2352	 1.26776274821426E-02 
2353	 3.87490529761752E-02 
2354	 5.26404668858162E-02 
2355	 3.36325749372241E-02 
2356	 3.55221402193704E-02 
2357	 5.20186778179561E-02 
2358	 5.16375196476873E-02 
2359	 6.16717134215345E-02 
2360	 5.55581344233347E-02 
2361	 3.53932553073611E-02 
2362	 1.24631950754867E-02 
2363	-1.32467576351876E-02 
2364	 7.93060561854705E-03 
2365	 3.74075158266389E-02 
2366	 0.048783479175925 
2367	 8.55050147199724E-02 
2368	 0.098195809255573 
2369	 8.82522358396159E-02 
2370	 0.122017438494608 
2371	 0.14649113364363 
2372	 0.126562021583664 
2373	 8.92146805308376E-02 
2374	 7.86801380684041E-02 
2375	 5.19787052590983E-02 
2376	 4.45763370565237E-02 
2377	 0.114343990906783 
2378	 9.38447557442035E-02 
2379	 5.53912109983796E-02 
2380	 8.76138936546541E-02 
2381	 7.54472280633754E-02 
2382	 8.66394096744573E-02 
2383	 0.182050643093056 
2384	 0.22941145347801 
2385	 0.216511203495507 
2386	 0.101359046288228 
2387	-6.52626949968326E-02 
2388	-0.130950051239598 
2389	-0.090006596376187 
2390	-1.43599824017264E-02 
2391	 5.44709181180446E-02 
2392	 7.66924738611294E-02 
2393	 8.03982220316337E-02 
2394	 4.01872049318024E-02 
2395	-1.74059489470101E-02 
2396	 3.13830895033869E-02 
2397	 0.136449764855179 
2398	 0.17367714923241 
2399	 0.192812436700233 
2400	 0.172191177141794 
2401	 3.72507584542708E-02 
2402	 2.62762779961488E-02 
2403	 0.102869260584168 
2404	 9.56585621658908E-02 
2405	 0.120468194314896 
2406	 8.80557815338975E-02 
2407	-0.145120556511287 
2408	-0.216572602361066 
2409	-0.258399971694681 
2410	-0.292948173205493 
2411	-4.50597797623904E-02 
2412	 0.164749362138766 
2413	 0.464963007961947 
2414	 0.966503336738714 
2415	 0.968576758511363 
2416	 0.61562511366582 
2417	 0.390785116012835 
2418	 0.162081179121794 
2419	 5.01078111097334E-02 
2420	 0.170521516268123 
2421	 0.1993333970246 
2422	 0.143069012196666 
2423	-0.188550777589741 
2424	-0.523782923233711 
2425	-0.481925181712703 
2426	-0.425359361444616 
2427	-0.304841196109421 
2428	-0.151623067847817 
2429	-8.48878270895238E-03 
2430	-0.12650840823873 
2431	-0.172149347085046 
2432	 0.179395013693769 
2433	 0.241145294312471 
2434	 0.233005511627164 
2435	 0.467425788305524 
2436	-1.77809946337298 
2437	 1.34231587025857 
2438	 0.910851677586753 
2439	 1.01532214407807 
2440	 2.61581449180206 
2441	 1.24065664483287 
2442	 5.07127968723915 
2443	 1.99388397935479 
2444	 1.3493101702598 
2445	 1.12504492228056 
2446	 0.375491150955375 
2447	 0.237357386067132 
2448	 0.242546886396646 
2449	 0.436762176268217 
2450	 0.627284378326358 
2451	 0.462114275832571 
2452	 0.565067252890584 
2453	 17.5993313612417 
2454	-20.7557949593888 
2455	 57.587410245865 
2456	 2.24109673797613 
2457	 0.353814772599232 
2458	 0.227355439619369 
2459	 0.79290444756254 
2460	 1.01568915373241 
2461	 4.86270155575329 
2462	 4.1511909659794 
2463	-0.228696267611887 
2464	 6.24882264466893 
2465	 2.91380982597728 
2466	-2.35085131076896 
2467	 1.46644746407441 
2468	 0.409867815313261 
2469	 1.77886556394818 
2470	-0.550072747553956 
2471	-2.33606468372917E-02 
2472	 3.08371677846695 
2473	-2.14785305675055 
2474	-0.447691494925635 
2475	 0.356808991727754 
2476	-26.240035783669 
2477	-31.067886253534 
2478	-5.44328841341174 
2479	 0.926817469074709 
2480	-0.432377372101695 
2481	-1.22647817307443 
2482	-0.657531380726137 
2483	-0.503753526437221 
2484	-0.499574241806354 
2485	-2.1045237629187 
2486	 2.38740834568523 
2487	 17.1145831599155 
2488	 177.183508357349 
2489	-1.88593076159713 
2490	-2.17326876103932 
2491	 2.96971641435563 
2492	 1.41086502328148 
2493	-0.472537921502602 
2494	 3.3755146658765 
2495	-5.14626044028824E-02 
2496	-0.454056490478496 
2497	-0.763252787079253 
2498	-0.283042378942047 
2499	-0.6057893867123 
2500	 0.765735516968109 
