Wavelength	rt0805close00005.asd
350	 6.89165057823665E-02 
351	 6.84123356989653E-02 
352	 6.84371669119424E-02 
353	 0.068606116959491 
354	 6.85402605447989E-02 
355	 6.85476357826614E-02 
356	 6.84512364723017E-02 
357	 6.84720980096774E-02 
358	 6.86873586518954E-02 
359	 6.80296905766403E-02 
360	 0.067693599218788 
361	 6.81715474612963E-02 
362	 0.069201770576478 
363	 6.88307832386677E-02 
364	 6.81064403987672E-02 
365	 6.79531947315403E-02 
366	 6.85104063598446E-02 
367	 6.90065009996669E-02 
368	 6.88518096530577E-02 
369	 0.06801604854023 
370	 6.79939176141669E-02 
371	 6.84666467780908E-02 
372	 6.89205347902991E-02 
373	 6.88591005665903E-02 
374	 6.90307819783618E-02 
375	 6.90345397336331E-02 
376	 6.87343085293391E-02 
377	 6.85105192347718E-02 
378	 6.89847984487124E-02 
379	 6.96268943559578E-02 
380	 6.98305889109495E-02 
381	 6.97089023443923E-02 
382	 0.069419367568793 
383	 6.93465764168135E-02 
384	 6.97907676710067E-02 
385	 6.97999946975223E-02 
386	 7.01030617725902E-02 
387	 7.06678654883865E-02 
388	 7.05428039257326E-02 
389	 7.08935922874142E-02 
390	 7.14677271374238E-02 
391	 0.071725944293898 
392	 0.071067870623982 
393	 7.07493426186328E-02 
394	 7.10268213429982E-02 
395	 7.15949796808028E-02 
396	 0.071702621072996 
397	 7.17283671970811E-02 
398	 7.18995431549342E-02 
399	 7.22175976804348E-02 
400	 7.20429481670758E-02 
401	 7.19138761925936E-02 
402	 0.072136176306463 
403	 7.21037638927545E-02 
404	 7.20509790431064E-02 
405	 7.23032017263527E-02 
406	 7.29618593448682E-02 
407	 7.26836898340744E-02 
408	 7.24314193415049E-02 
409	 7.25542597394421E-02 
410	 0.072665609603836 
411	 7.30505925430192E-02 
412	 7.32690170881623E-02 
413	 7.31454810290477E-02 
414	 7.34151024857103E-02 
415	 7.36441534370307E-02 
416	 7.38200533848454E-02 
417	 0.074045706926973 
418	 7.40292358349808E-02 
419	 7.42142477187122E-02 
420	 7.46186022053026E-02 
421	 7.47695619747384E-02 
422	 7.47942568520233E-02 
423	 7.49754336145917E-02 
424	 7.53954159344302E-02 
425	 7.54841941120345E-02 
426	 7.56319252959004E-02 
427	 7.59178916464415E-02 
428	 7.62665024838757E-02 
429	 7.66940217553701E-02 
430	 7.69447152509958E-02 
431	 7.70748522053118E-02 
432	 7.75161657359288E-02 
433	 7.79380647031592E-02 
434	 7.82496795428166E-02 
435	 7.84745604526014E-02 
436	 0.078785779634217 
437	 7.92029606411302E-02 
438	 7.95735463171391E-02 
439	 7.97170487300416E-02 
440	 8.01027930277789E-02 
441	 8.04813809561946E-02 
442	 8.07328242773234E-02 
443	 8.10437188034366E-02 
444	 8.12892097814201E-02 
445	 0.081575686960904 
446	 8.19702220203294E-02 
447	 8.21447305655244E-02 
448	 8.23922404174106E-02 
449	 8.26986793375238E-02 
450	 8.28345213385936E-02 
451	 8.29588224819886E-02 
452	 0.083104125603575 
453	 8.32641965701801E-02 
454	 8.33983999337172E-02 
455	 8.34283953688787E-02 
456	 8.34992382534438E-02 
457	 8.37553938586387E-02 
458	 8.38838863666096E-02 
459	 8.39467523767208E-02 
460	 8.40129700622864E-02 
461	 8.41300363334595E-02 
462	 8.41165485813268E-02 
463	 8.41558342847542E-02 
464	 8.43531283125168E-02 
465	 8.43883821397392E-02 
466	 8.45466295618827E-02 
467	 8.46925791706383E-02 
468	 8.45804758699549E-02 
469	 8.47541705041797E-02 
470	 8.50174496300927E-02 
471	 8.52004461636521E-02 
472	 8.52661898429937E-02 
473	 8.52483249383553E-02 
474	 8.53187973400157E-02 
475	 0.085575851919735 
476	 8.57538751278552E-02 
477	 8.58614970682748E-02 
478	 8.59637246854793E-02 
479	 8.61562825150436E-02 
480	 8.64089066436141E-02 
481	 8.66335140162959E-02 
482	 8.67749106259934E-02 
483	 8.68385702058792E-02 
484	 8.70583447409824E-02 
485	 8.74269403551677E-02 
486	 8.78131732620935E-02 
487	 8.80363408860256E-02 
488	 8.82538400153535E-02 
489	 8.85341002996274E-02 
490	 8.88415757800369E-02 
491	 8.92527183540387E-02 
492	 8.96662769925152E-02 
493	 9.00406024524918E-02 
494	 0.090632430002618 
495	 9.09522398214138E-02 
496	 9.11638686824118E-02 
497	 9.17007027997853E-02 
498	 9.21550865727495E-02 
499	 9.26116332978338E-02 
500	 9.31349105897601E-02 
501	 9.36849900405555E-02 
502	 9.41402136608698E-02 
503	 9.45928950525177E-02 
504	 9.51596152274512E-02 
505	 9.57836412368293E-02 
506	 9.63252866853053E-02 
507	 9.68067164574435E-02 
508	 9.73716511305648E-02 
509	 9.79647563487933E-02 
510	 9.85061850207703E-02 
511	 9.89876225126203E-02 
512	 9.95788734781116E-02 
513	 0.100188148962485 
514	 0.100773564010138 
515	 0.10133923924264 
516	 0.102106836116271 
517	 0.102828619154052 
518	 0.103423088311357 
519	 0.104066823116987 
520	 0.104689756015841 
521	 0.10537754207845 
522	 0.106180393631833 
523	 0.106914239506739 
524	 0.107574880997104 
525	 0.108263753824653 
526	 0.109121336527495 
527	 0.109753241262082 
528	 0.110463111091336 
529	 0.111375562964388 
530	 0.112069349549489 
531	 0.112803479536831 
532	 0.113597163047855 
533	 0.114397079766079 
534	 0.115262381074667 
535	 0.116134722198827 
536	 0.117000024711567 
537	 0.117894901108373 
538	 0.118700976088227 
539	 0.119512275395466 
540	 0.12043034239845 
541	 0.121430172836728 
542	 0.122251783252259 
543	 0.12302284479298 
544	 0.124067748420255 
545	 0.124988510839046 
546	 0.125859488317871 
547	 0.126741566178083 
548	 0.127543532522469 
549	 0.128427547212484 
550	 0.129341611498537 
551	 0.130183615598792 
552	 0.131034454143839 
553	 0.131900700865418 
554	 0.132754322759056 
555	 0.133532739175783 
556	 0.134423233735219 
557	 0.135338577859513 
558	 0.136154207096881 
559	 0.136879173381459 
560	 0.137669804214267 
561	 0.138461246239282 
562	 0.13909165322404 
563	 0.139927736968428 
564	 0.140660128450676 
565	 0.141160272547305 
566	 0.141821227665916 
567	 0.142419701262355 
568	 0.143048277635637 
569	 0.14381528092767 
570	 0.144292417011293 
571	 0.144775865902644 
572	 0.145333660906785 
573	 0.145746411878816 
574	 0.146288605294807 
575	 0.14683492661826 
576	 0.147250134159304 
577	 0.147690474855665 
578	 0.148047631778304 
579	 0.148362905587902 
580	 0.148759793781829 
581	 0.149211225818749 
582	 0.149584560141578 
583	 0.149842746263215 
584	 0.150131801326954 
585	 0.150528251228794 
586	 0.15094715255668 
587	 0.15129452413925 
588	 0.151891443859783 
589	 0.15225125482335 
590	 0.152232737676589 
591	 0.152167354862546 
592	 0.152233087773236 
593	 0.152327398348508 
594	 0.152327756930502 
595	 0.152278718405546 
596	 0.152146548392674 
597	 0.151964348996891 
598	 0.151795588691515 
599	 0.151596446710748 
600	 0.151435814054402 
601	 0.15134684598247 
602	 0.151283608330047 
603	 0.151242378166724 
604	 0.151228329309208 
605	 0.15125095089657 
606	 0.151329740648792 
607	 0.15130123323494 
608	 0.151263243547623 
609	 0.151559127436909 
610	 0.151475876276681 
611	 0.151341378925548 
612	 0.15147334539434 
613	 0.151497943483882 
614	 0.15140315564727 
615	 0.151353737715973 
616	 0.15155367374439 
617	 0.151524936463461 
618	 0.151423019227502 
619	 0.151386806575137 
620	 0.151416187830594 
621	 0.15143098668431 
622	 0.151450623141188 
623	 0.151505736043705 
624	 0.151510731468233 
625	 0.151496802169754 
626	 0.15153424954284 
627	 0.151709026783431 
628	 0.151734548529487 
629	 0.151660676856514 
630	 0.151594179901198 
631	 0.151603029878207 
632	 0.151557421033726 
633	 0.151470121452609 
634	 0.151416231117316 
635	 0.151355364412657 
636	 0.151399982562561 
637	 0.151522128006282 
638	 0.151485139906618 
639	 0.151250650080583 
640	 0.151082584553133 
641	 0.151203882719126 
642	 0.151275722836967 
643	 0.151310889504789 
644	 0.151407084587579 
645	 0.151704404676294 
646	 0.151820129879271 
647	 0.151762801969477 
648	 0.151628215743952 
649	 0.151480325579358 
650	 0.151445899612648 
651	 0.151401083876579 
652	 0.151184161681498 
653	 0.151083810996713 
654	 0.150899032611753 
655	 0.150599070094621 
656	 0.150465049569449 
657	 0.150221716973711 
658	 0.14985731165307 
659	 0.149461435835149 
660	 0.149309520889545 
661	 0.14910175123423 
662	 0.148816942574692 
663	 0.148612364284795 
664	 0.148524839053114 
665	 0.148353645013907 
666	 0.148057180242164 
667	 0.14793286068783 
668	 0.147805650945881 
669	 0.147705546353465 
670	 0.147715043091332 
671	 0.147870443775207 
672	 0.14783278128569 
673	 0.147687475829095 
674	 0.147900591654742 
675	 0.148135205094364 
676	 0.148245992694182 
677	 0.148247410681632 
678	 0.148448444389708 
679	 0.148723503744711 
680	 0.149086921765646 
681	 0.149583219535051 
682	 0.150061072199051 
683	 0.150529601037535 
684	 0.151049065162155 
685	 0.151795086782068 
686	 0.152656172403114 
687	 0.153411848444486 
688	 0.153890097460665 
689	 0.154278461747097 
690	 0.154730728801329 
691	 0.155389474477849 
692	 0.156330138248125 
693	 0.156857682951565 
694	 0.156970909991994 
695	 0.156891493331999 
696	 0.156867415865884 
697	 0.157115311821514 
698	 0.157580771257384 
699	 0.158009782276074 
700	 0.157960452284931 
701	 0.157784270037571 
702	 0.157629961561673 
703	 0.157428147191746 
704	 0.157222552456996 
705	 0.157054536624699 
706	 0.156900953815019 
707	 0.156584533789164 
708	 0.156218536467468 
709	 0.155795654446737 
710	 0.155293123338124 
711	 0.154812074192798 
712	 0.154321105729993 
713	 0.153870259368066 
714	 0.153602835098404 
715	 0.153797761039585 
716	 0.154091574200507 
717	 0.153891239116907 
718	 0.153424470727325 
719	 0.151783274642939 
720	 0.149999134278323 
721	 0.14887315348703 
722	 0.148461211457767 
723	 0.148017878529846 
724	 0.147127587923763 
725	 0.145831031982317 
726	 0.144435788848548 
727	 0.142930786700075 
728	 0.141221331472279 
729	 0.139249504422117 
730	 0.13694107717524 
731	 0.134548057382389 
732	 0.132265133740329 
733	 0.130534249517655 
734	 0.129224927825774 
735	 0.128163613110945 
736	 0.127088796030567 
737	 0.126276648578127 
738	 0.125572042901335 
739	 0.124885964101407 
740	 0.124553486457643 
741	 0.124374526217617 
742	 0.124224514938093 
743	 0.124045139419582 
744	 0.123968576031789 
745	 0.124004595250691 
746	 0.124106130830921 
747	 0.124170911551616 
748	 0.124196524006181 
749	 0.124190055498905 
750	 0.1241938538884 
751	 0.124353554180661 
752	 0.124425251387456 
753	 0.124400831557716 
754	 0.124406570411136 
755	 0.124442034178093 
756	 0.124614336043186 
757	 0.124961887282635 
758	 0.125537801432474 
759	 0.126522762575887 
760	 0.127711800222298 
761	 0.127991165630686 
762	 0.127808754176803 
763	 0.127449096071372 
764	 0.126924692527147 
765	 0.126261320295616 
766	 0.126055351656974 
767	 0.125994542508818 
768	 0.125953139826611 
769	 0.125976811739998 
770	 0.126094996180521 
771	 0.126193295236723 
772	 0.12624710864539 
773	 0.126563221726446 
774	 0.126832707883333 
775	 0.126994594390238 
776	 0.127125690853211 
777	 0.127368587718715 
778	 0.127684707455922 
779	 0.128022300526679 
780	 0.128332710424782 
781	 0.128543528351728 
782	 0.128800277802597 
783	 0.129169669386143 
784	 0.129438942451935 
785	 0.12984658184283 
786	 0.130358306887724 
787	 0.130854664363522 
788	 0.131421376381959 
789	 0.131667510163068 
790	 0.131716248502309 
791	 0.132062764811976 
792	 0.132182431819777 
793	 0.132282512210376 
794	 0.132605733877754 
795	 0.133303483807802 
796	 0.133727637621211 
797	 0.133816290363597 
798	 0.133785503954152 
799	 0.134010326273478 
800	 0.134313839809468 
801	 0.134545235702529 
802	 0.134600789485162 
803	 0.134556385885312 
804	 0.134518492491417 
805	 0.134463786076844 
806	 0.134242010482905 
807	 0.134164402245837 
808	 0.134263790580111 
809	 0.134448826291025 
810	 0.134453794977744 
811	 0.134476215897559 
812	 0.134703045759978 
813	 0.135143173075413 
814	 0.134726222764908 
815	 0.134109256085372 
816	 0.133627113219526 
817	 0.133084021628924 
818	 0.131810874141199 
819	 0.130654642031579 
820	 0.129907016855975 
821	 0.12922661264015 
822	 0.127988106191491 
823	 0.126447483569558 
824	 0.124982270613942 
825	 0.123319615506131 
826	 0.121618876660668 
827	 0.119790011164705 
828	 0.117827135983654 
829	 0.115872051101507 
830	 0.113975761039869 
831	 0.11221060975763 
832	 0.110708893478463 
833	 0.109411369206718 
834	 0.108059458105566 
835	 0.106829536989553 
836	 0.106441499488366 
837	 0.105594367069598 
838	 0.10462799292461 
839	 0.104015648648181 
840	 0.103673626207965 
841	 0.103208385782111 
842	 0.102678609125781 
843	 0.102240758526445 
844	 0.10156796107313 
845	 0.101208462591389 
846	 0.101022815336276 
847	 0.100464315338077 
848	 0.100025983045517 
849	 9.96029761306379E-02 
850	 9.91589609345797E-02 
851	 9.88108198305612E-02 
852	 9.83634711940782E-02 
853	 9.79397277211055E-02 
854	 9.76460297229622E-02 
855	 9.74065062278187E-02 
856	 9.69423776103927E-02 
857	 9.65436608785398E-02 
858	 9.64326027612144E-02 
859	 9.60337685897787E-02 
860	 9.55175900449616E-02 
861	 9.50615481764938E-02 
862	 9.48022525096706E-02 
863	 9.46540597909752E-02 
864	 9.44067278683952E-02 
865	 9.40665310305874E-02 
866	 9.37901142184793E-02 
867	 9.29443916602015E-02 
868	 9.24407422977721E-02 
869	 9.24741120135964E-02 
870	 9.20816841648965E-02 
871	 9.10750985923376E-02 
872	 9.05344068256125E-02 
873	 9.08739211635757E-02 
874	 9.04212858572441E-02 
875	 8.96743398771636E-02 
876	 8.89579595519933E-02 
877	 8.84617167552611E-02 
878	 0.087982523821374 
879	 8.75114378695817E-02 
880	 8.69615736206519E-02 
881	 8.62959821099162E-02 
882	 8.59142801634252E-02 
883	 8.53678751933489E-02 
884	 8.47765192083584E-02 
885	 8.46427212764345E-02 
886	 8.46527478744978E-02 
887	 8.39964655933223E-02 
888	 8.29094615677871E-02 
889	 8.27617820639779E-02 
890	 8.26410141026335E-02 
891	 8.21742782289583E-02 
892	 8.15908569229355E-02 
893	 8.21450260856243E-02 
894	 8.21832925606906E-02 
895	 8.20598758818929E-02 
896	 8.25028208326433E-02 
897	 8.31583407889685E-02 
898	 8.26502604849014E-02 
899	 8.16055180410465E-02 
900	 8.10541295658054E-02 
901	 8.03212356710095E-02 
902	 7.98071883213019E-02 
903	 7.90684217827015E-02 
904	 7.77437276495255E-02 
905	 7.73692110455154E-02 
906	 7.74696623420823E-02 
907	 7.75248726549357E-02 
908	 7.70428420446832E-02 
909	 7.60876046687111E-02 
910	 7.56363358650035E-02 
911	 7.52399883539799E-02 
912	 7.33799189254159E-02 
913	 7.20728870817259E-02 
914	 7.13497863245024E-02 
915	 7.07135298193879E-02 
916	 0.069506418037653 
917	 6.82118012665905E-02 
918	 6.63520635309127E-02 
919	 6.45792285816073E-02 
920	 6.49288918499389E-02 
921	 6.43629078302198E-02 
922	 6.33078475993522E-02 
923	 6.22044347228123E-02 
924	 6.00431058977264E-02 
925	 0.059016075059762 
926	 5.86092059047036E-02 
927	 5.78604894232711E-02 
928	 0.058299621623106 
929	 5.74144094049533E-02 
930	 0.054980279901623 
931	 5.37823094439959E-02 
932	 6.17687861364818E-02 
933	 6.01217687254519E-02 
934	 5.19558005680074E-02 
935	 0.052412282407946 
936	 4.89061172797427E-02 
937	 5.25193289022839E-02 
938	 5.85999268603898E-02 
939	 5.85151154679531E-02 
940	 4.39285213528243E-02 
941	 0.041857188354277 
942	 4.56470311086555E-02 
943	 3.64533498513779E-02 
944	 4.00882346507599E-02 
945	 4.84678851141991E-02 
946	 4.99356659104545E-02 
947	 3.85834885430855E-02 
948	 3.69970406344015E-02 
949	 3.62691447050827E-02 
950	 3.60257284596559E-02 
951	 4.05337269385456E-02 
952	 4.22518526951494E-02 
953	 4.04908191023855E-02 
954	 3.66519561239136E-02 
955	 0.033232216058678 
956	 3.19387435337813E-02 
957	 0.033850818344324 
958	 0.03539554202094 
959	 3.19305221257746E-02 
960	 2.90860845004495E-02 
961	 2.77930361839916E-02 
962	 2.75421039144829E-02 
963	 2.73051328687846E-02 
964	 0.026680337301903 
965	 2.82133413669459E-02 
966	 3.00425033704864E-02 
967	 2.83207417417841E-02 
968	 2.60643917101353E-02 
969	 2.64703468831684E-02 
970	 2.74506200904828E-02 
971	 2.42191000141823E-02 
972	 2.76084199307329E-02 
973	 2.94901782457791E-02 
974	 2.72945030637953E-02 
975	 2.59798750094069E-02 
976	 0.026672442161486 
977	 2.62183074610327E-02 
978	 2.50638758325325E-02 
979	 2.63463628552993E-02 
980	 0.026896898396593 
981	 2.56971565799727E-02 
982	 2.43414184077424E-02 
983	 2.53251023364405E-02 
984	 2.46231944734571E-02 
985	 2.33054220383686E-02 
986	 2.24731278672194E-02 
987	 2.27988572222453E-02 
988	 2.48290442790908E-02 
989	 2.54396327235496E-02 
990	 2.42710846247659E-02 
991	 0.023359786617533 
992	 2.39723867138893E-02 
993	 2.48957908725702E-02 
994	 2.53856465078744E-02 
995	 2.54274142151889E-02 
996	 2.59365491157129E-02 
997	 2.58928169194535E-02 
998	 2.48690948694223E-02 
999	 2.34915136782411E-02 
1000	 2.49546685287987E-02 
1001	 0.024672251446981 
1002	 2.47646309326411E-02 
1003	 2.45876041759982E-02 
1004	 2.38275856888692E-02 
1005	 2.35207445997426E-02 
1006	 2.32692067744515E-02 
1007	 2.28816831640305E-02 
1008	 2.32901139842801E-02 
1009	 2.44456164477293E-02 
1010	 0.025011361706404 
1011	 2.58619484558994E-02 
1012	 2.63859851785563E-02 
1013	 2.60441815907583E-02 
1014	 0.026040614630229 
1015	 2.59990292926829E-02 
1016	 2.61482607585539E-02 
1017	 2.63873145356248E-02 
1018	 2.64441024878526E-02 
1019	 2.65136098537052E-02 
1020	 2.68516514501894E-02 
1021	 2.71995087966038E-02 
1022	 0.027411076966163 
1023	 2.80368955728788E-02 
1024	 0.028241313530587 
1025	 2.87707877258327E-02 
1026	 0.029245363604882 
1027	 2.95696335047895E-02 
1028	 3.00890007223636E-02 
1029	 3.04552688596458E-02 
1030	 3.05941380889495E-02 
1031	 3.06202538355855E-02 
1032	 3.03451758780694E-02 
1033	 3.07206258934575E-02 
1034	 3.10014671687563E-02 
1035	 0.031627272849904 
1036	 3.32594402559665E-02 
1037	 3.42330149986912E-02 
1038	 3.48961590312961E-02 
1039	 3.56878054133023E-02 
1040	 3.60547944218054E-02 
1041	 3.66606418328087E-02 
1042	 3.68948903349649E-02 
1043	 0.036700516767792 
1044	 3.71074910391818E-02 
1045	 3.75992326828702E-02 
1046	 3.81109775372969E-02 
1047	 3.90123864500655E-02 
1048	 3.96772046093685E-02 
1049	 4.04292551844932E-02 
1050	 4.06774247598113E-02 
1051	 0.040395772071377 
1052	 4.06990634382003E-02 
1053	 4.04695196221535E-02 
1054	 0.041009738782514 
1055	 0.043280492802315 
1056	 4.42153193440369E-02 
1057	 4.47400000181887E-02 
1058	 4.51049058466401E-02 
1059	 4.51135868827868E-02 
1060	 4.37482686893288E-02 
1061	 4.39188974924443E-02 
1062	 4.49939523600735E-02 
1063	 4.52914310339921E-02 
1064	 4.58158633861364E-02 
1065	 4.61118060600038E-02 
1066	 4.58226366629029E-02 
1067	 4.57905954641096E-02 
1068	 4.59863154646836E-02 
1069	 4.61078617510055E-02 
1070	 4.60622060869938E-02 
1071	 4.60897221843752E-02 
1072	 4.62748469671785E-02 
1073	 4.63594219760579E-02 
1074	 4.64570212374179E-02 
1075	 4.66513794846698E-02 
1076	 4.65039885356031E-02 
1077	 4.60058029715743E-02 
1078	 4.60153805165944E-02 
1079	 4.63170076551133E-02 
1080	 4.60235149864621E-02 
1081	 4.56275883281153E-02 
1082	 4.53764160071036E-02 
1083	 4.45969108127132E-02 
1084	 4.41119542445045E-02 
1085	 4.42082129650006E-02 
1086	 4.40318183588325E-02 
1087	 4.33992728381197E-02 
1088	 4.30965348374269E-02 
1089	 4.29130910742636E-02 
1090	 4.31177265222018E-02 
1091	 0.042830327185761 
1092	 4.25666991243448E-02 
1093	 4.20044649327196E-02 
1094	 4.05032240216056E-02 
1095	 4.03079377157009E-02 
1096	 4.11212365593135E-02 
1097	 4.09816099786084E-02 
1098	 4.12572834441662E-02 
1099	 4.10172665210188E-02 
1100	 3.94289450724261E-02 
1101	 0.038430075452188 
1102	 3.75269732413203E-02 
1103	 3.70941879195558E-02 
1104	 3.66204911815846E-02 
1105	 3.72031965355429E-02 
1106	 3.79969023457711E-02 
1107	 3.70291173048077E-02 
1108	 3.73167030207243E-02 
1109	 3.80053578220926E-02 
1110	 0.037756344509079 
1111	 3.80294502397886E-02 
1112	 3.78777395786214E-02 
1113	 3.45490193901306E-02 
1114	 3.43054495480577E-02 
1115	 3.78919297022766E-02 
1116	 3.90638395702647E-02 
1117	 4.20551646467722E-02 
1118	 4.35904759000957E-02 
1119	 3.89483445691327E-02 
1120	 3.89868334578455E-02 
1121	 4.52122824966445E-02 
1122	 4.40290789972019E-02 
1123	 5.21107368486026E-02 
1124	 5.57990952662267E-02 
1125	 3.79855145951195E-02 
1126	 3.52912059786367E-02 
1127	 3.92470125057166E-02 
1128	 3.07914823516141E-02 
1129	 3.68201146600551E-02 
1130	 6.42527017018878E-02 
1131	 6.44281793042342E-02 
1132	 5.09860754617724E-02 
1133	 4.93687870216052E-02 
1134	 4.54846209738549E-02 
1135	 4.16370440327659E-02 
1136	 0.048417471131456 
1137	 4.72986696351188E-02 
1138	 4.24558726058757E-02 
1139	 2.69375057754064E-02 
1140	 2.61598949316655E-02 
1141	 2.76812421301634E-02 
1142	 2.80745230952544E-02 
1143	 3.66233667610421E-02 
1144	 3.69454561786342E-02 
1145	 3.02296236865292E-02 
1146	 3.17306769437406E-02 
1147	 3.44890919565197E-02 
1148	 3.39235049506619E-02 
1149	 3.22759897303885E-02 
1150	 0.031819931596672 
1151	 2.92076981579112E-02 
1152	 2.87955647837373E-02 
1153	 0.031083341246254 
1154	 3.04620377769944E-02 
1155	 2.91960944028299E-02 
1156	 2.73277408311037E-02 
1157	 2.48277886265298E-02 
1158	 2.49139398129213E-02 
1159	 2.57409175929712E-02 
1160	 2.44592422049772E-02 
1161	 2.34875891095918E-02 
1162	 2.37790003267957E-02 
1163	 2.25884803736042E-02 
1164	 2.17632569398921E-02 
1165	 2.30969589874803E-02 
1166	 2.31154786665638E-02 
1167	 2.25247153149756E-02 
1168	 2.30876429152811E-02 
1169	 2.26924911688332E-02 
1170	 0.022156839598423 
1171	 0.022056551636092 
1172	 2.25059661632974E-02 
1173	 0.022186051428435 
1174	 2.14630622543143E-02 
1175	 2.16107266946876E-02 
1176	 2.12888150148467E-02 
1177	 2.08058936750907E-02 
1178	 2.13915081932672E-02 
1179	 2.15435420397781E-02 
1180	 2.12428417241281E-02 
1181	 2.15486337881709E-02 
1182	 2.15977558363305E-02 
1183	 2.13189324428376E-02 
1184	 2.15025919118639E-02 
1185	 2.22277627928837E-02 
1186	 2.24146065942213E-02 
1187	 2.20509446781663E-02 
1188	 0.022173315241851 
1189	 2.18787838079266E-02 
1190	 2.11787998054533E-02 
1191	 2.15220979683203E-02 
1192	 2.17790979094847E-02 
1193	 0.022129583064836 
1194	 2.16031542700299E-02 
1195	 2.12947712954601E-02 
1196	 2.12879993294332E-02 
1197	 0.020906057000639 
1198	 0.021014665222034 
1199	 2.17640769536248E-02 
1200	 2.15835732008562E-02 
1201	 2.09884285375322E-02 
1202	 2.12980325016024E-02 
1203	 2.14946838047605E-02 
1204	 2.12658684664777E-02 
1205	 2.11843797592342E-02 
1206	 2.06984527947934E-02 
1207	 2.01249133507527E-02 
1208	 2.04128951710722E-02 
1209	 2.11650394006296E-02 
1210	 2.13395482163411E-02 
1211	 0.020841087514051 
1212	 2.05080601059741E-02 
1213	 2.04712492216961E-02 
1214	 2.04660741805963E-02 
1215	 2.06080551588243E-02 
1216	 2.11015901433172E-02 
1217	 2.13021491448688E-02 
1218	 2.11665308920907E-02 
1219	 2.09060176209399E-02 
1220	 2.07515050501313E-02 
1221	 2.09302863583016E-02 
1222	 2.08356638720134E-02 
1223	 2.03220761564781E-02 
1224	 2.02235030257924E-02 
1225	 2.03993116593327E-02 
1226	 2.03963885184147E-02 
1227	 2.05076603486034E-02 
1228	 2.06758228885343E-02 
1229	 0.020455452709305 
1230	 1.99490151039862E-02 
1231	 2.00495493631418E-02 
1232	 2.04839463715386E-02 
1233	 2.04041933528599E-02 
1234	 2.02308565817383E-02 
1235	 2.03458984765834E-02 
1236	 2.03774446883336E-02 
1237	 2.03394468350228E-02 
1238	 2.03991800044945E-02 
1239	 2.09338399360829E-02 
1240	 2.11701580053005E-02 
1241	 2.04989442121446E-02 
1242	 1.97536280772411E-02 
1243	 1.97670013371462E-02 
1244	 1.97357443557312E-02 
1245	 1.98120401172815E-02 
1246	 2.04245047943729E-02 
1247	 2.05572572585586E-02 
1248	 2.03246404824198E-02 
1249	 2.03154511621902E-02 
1250	 0.020197243130743 
1251	 1.99731243061202E-02 
1252	 1.99886740836346E-02 
1253	 1.99782220148953E-02 
1254	 2.00233632268429E-02 
1255	 2.03358895483285E-02 
1256	 2.04565834559401E-02 
1257	 2.01794608949338E-02 
1258	 2.02115738330002E-02 
1259	 2.05997127311194E-02 
1260	 2.06146532163072E-02 
1261	 2.02077850807497E-02 
1262	 2.03347992063976E-02 
1263	 2.08030760607047E-02 
1264	 2.08404524228437E-02 
1265	 2.04733095014474E-02 
1266	 2.06524051918567E-02 
1267	 2.06110685788213E-02 
1268	 2.05266947348126E-02 
1269	 2.09735691822906E-02 
1270	 2.11362168735991E-02 
1271	 2.07935940540735E-02 
1272	 2.03179917079729E-02 
1273	 2.02111461548396E-02 
1274	 2.04709772900406E-02 
1275	 2.06105372139882E-02 
1276	 2.04448410758131E-02 
1277	 2.03148821175178E-02 
1278	 2.04965642256562E-02 
1279	 2.04144181988446E-02 
1280	 2.01247478007108E-02 
1281	 2.00948616549757E-02 
1282	 2.01003648954055E-02 
1283	 2.00544389410488E-02 
1284	 2.01872126872238E-02 
1285	 2.03555650087505E-02 
1286	 2.04859228293654E-02 
1287	 2.05099674928842E-02 
1288	 2.05415535619574E-02 
1289	 2.05974961865434E-02 
1290	 2.05852656966313E-02 
1291	 2.06081389588853E-02 
1292	 2.04631050287968E-02 
1293	 2.06386577243138E-02 
1294	 2.11799139970097E-02 
1295	 2.08244000206477E-02 
1296	 2.07787048550369E-02 
1297	 2.17202672691652E-02 
1298	 2.14171404110147E-02 
1299	 2.09648181594613E-02 
1300	 2.14131027850062E-02 
1301	 2.13016200420349E-02 
1302	 2.11404649145337E-02 
1303	 2.09592018946604E-02 
1304	 2.06406716679211E-02 
1305	 2.10403827807084E-02 
1306	 2.11791984755396E-02 
1307	 2.16664706780965E-02 
1308	 2.19554634535625E-02 
1309	 2.21131711784353E-02 
1310	 2.21400266093109E-02 
1311	 2.19993522158079E-02 
1312	 2.19424558399706E-02 
1313	 2.19544073872478E-02 
1314	 2.18431338158387E-02 
1315	 2.13101305280747E-02 
1316	 2.15808999043638E-02 
1317	 2.24291808082538E-02 
1318	 2.27533532043002E-02 
1319	 2.36956678433866E-02 
1320	 2.38572764649424E-02 
1321	 2.32484718505065E-02 
1322	 2.26925501526292E-02 
1323	 2.23332218018235E-02 
1324	 2.23258036655791E-02 
1325	 2.35819723193483E-02 
1326	 2.50201766956806E-02 
1327	 2.45624482580181E-02 
1328	 2.36501721540711E-02 
1329	 2.50136589790509E-02 
1330	 2.50788234629963E-02 
1331	 0.022321336851834 
1332	 2.20858281079112E-02 
1333	 2.38456322949368E-02 
1334	 2.34761113079259E-02 
1335	 2.33049823521397E-02 
1336	 0.026425880665632 
1337	 2.72585468685365E-02 
1338	 2.40606910286863E-02 
1339	 2.31750256504931E-02 
1340	 0.024665979169933 
1341	 2.55960423487255E-02 
1342	 2.52184451073467E-02 
1343	 2.46810161236262E-02 
1344	 2.47718041114454E-02 
1345	 0.02635001277011 
1346	 3.02521167733091E-02 
1347	 3.16756562228823E-02 
1348	 3.40814677765216E-02 
1349	 3.50803683078613E-02 
1350	 1.57961862457045E-02 
1351	 1.06246678681535E-02 
1352	 3.99374176026968E-02 
1353	 6.76474773414077E-02 
1354	 0.141777799991593 
1355	 0.229394668351902 
1356	 9.66073891899373E-02 
1357	 0.169399194747744 
1358	 0.475031387441446 
1359	 0.409209423212706 
1360	 0.216322649668393 
1361	 0.222769939061634 
1362	 6.62313519332957E-03 
1363	-0.130462445052532 
1364	 0.32313773303102 
1365	 0.71845985246774 
1366	 0.396341300835347 
1367	-4.72281759682733E-02 
1368	 6.26550784739779E-02 
1369	 0.995698582567597 
1370	 0.755365948548383 
1371	 0.205278871612761 
1372	 0.305038989234898 
1373	 5.34720567459929E-02 
1374	-4.92317905285999E-02 
1375	 0.475439705969275 
1376	 0.666369610237003 
1377	 0.269622130416885 
1378	 0.211964255063977 
1379	 1.07764219397006 
1380	 1.52495063650372 
1381	 0.223914261790119 
1382	 2.98157375712561E-02 
1383	 0.535264329311642 
1384	 0.331691247046168 
1385	-0.180490660493636 
1386	 0.153943598296455 
1387	 0.575127544444469 
1388	 0.505902454622993 
1389	 0.412828888755728 
1390	 1.26800981114527 
1391	 1.0901291853111 
1392	 0.80646454227988 
1393	 9.97313287219555E-02 
1394	 0.174451822160174 
1395	 0.246457527286761 
1396	-5.22437454592622E-02 
1397	 1.11381037637412E-02 
1398	 0.444917669640256 
1399	 0.140368455632351 
1400	-0.314972843956818 
1401	 0.333083417677589 
1402	 0.666543605035543 
1403	 0.315474147219187 
1404	 0.307314267587137 
1405	 0.305445299999597 
1406	-0.417626650202136 
1407	-0.218649591530751 
1408	 0.347627368067265 
1409	 0.388910001555172 
1410	 0.250018910560182 
1411	 0.223854755077881 
1412	 0.120772580629612 
1413	 8.93648944367616E-02 
1414	 0.292209367729263 
1415	 0.185717299699256 
1416	-0.100429632572447 
1417	-0.075389326600318 
1418	 0.113308312428737 
1419	 6.46800548199813E-02 
1420	 4.54652375876991E-02 
1421	 2.73029123142185E-02 
1422	-0.119730553286342 
1423	-0.116623810651753 
1424	-2.19819739757667E-02 
1425	-3.74022395568727E-03 
1426	 8.2462704515305E-03 
1427	 1.09616051799106E-02 
1428	-5.05030069253748E-02 
1429	-2.10730009631014E-02 
1430	 0.128977755869325 
1431	 0.119980977181888 
1432	 1.57512470511073E-02 
1433	 2.36097028971563E-02 
1434	-0.010035502633903 
1435	-2.94591673724073E-02 
1436	 1.81102225210779E-02 
1437	 0.136214095558363 
1438	 0.101606391263783 
1439	 5.26642089917301E-02 
1440	 9.97643277956885E-02 
1441	 0.12290351447308 
1442	 6.59307102253779E-02 
1443	 5.03663766212534E-02 
1444	 7.54586944797203E-02 
1445	 5.37797611531749E-02 
1446	 3.55117686326098E-02 
1447	 4.75700243776901E-02 
1448	 3.86690066383091E-02 
1449	 0.019772895818482 
1450	 0.026190189391703 
1451	 4.14656033804522E-02 
1452	 4.80618946056909E-02 
1453	 4.69676914427532E-02 
1454	 4.36052590630995E-02 
1455	 3.75438139978726E-02 
1456	 3.70659486478967E-02 
1457	 3.35679128873254E-02 
1458	 3.52252295269777E-02 
1459	 4.52017786374367E-02 
1460	 0.043185171034268 
1461	 3.39400882042003E-02 
1462	 3.51281370718098E-02 
1463	 3.72599688380333E-02 
1464	 3.49917255639937E-02 
1465	 3.91121980627073E-02 
1466	 4.12030670449897E-02 
1467	 3.38725530633308E-02 
1468	 0.028644321820146 
1469	 2.76400311924849E-02 
1470	 2.89939772835867E-02 
1471	 2.74692887535855E-02 
1472	 2.78295387729954E-02 
1473	 3.94732834714202E-02 
1474	 3.83865425719371E-02 
1475	 2.14312089255503E-02 
1476	 2.18986015951198E-02 
1477	 3.21038846661297E-02 
1478	 3.22091594189017E-02 
1479	 3.21848376067673E-02 
1480	 3.54906014754398E-02 
1481	 3.89117459465177E-02 
1482	 3.50713600590908E-02 
1483	 2.83299311474524E-02 
1484	 2.85388452541376E-02 
1485	 2.94115474658079E-02 
1486	 2.64873253964956E-02 
1487	 2.50356507266678E-02 
1488	 2.54829918830997E-02 
1489	 2.35360547144249E-02 
1490	 2.19238061943357E-02 
1491	 2.28387698581449E-02 
1492	 2.34409015142127E-02 
1493	 2.30645385935324E-02 
1494	 2.22932302498695E-02 
1495	 2.17840797934135E-02 
1496	 2.20304680704782E-02 
1497	 2.19681734414102E-02 
1498	 2.15523850632559E-02 
1499	 2.17211000232966E-02 
1500	 2.19044140202263E-02 
1501	 2.16223256737905E-02 
1502	 2.12850948678982E-02 
1503	 2.13059703585346E-02 
1504	 2.12411826648896E-02 
1505	 2.10677073745519E-02 
1506	 2.02499622222019E-02 
1507	 1.98877935419453E-02 
1508	 2.06930685499164E-02 
1509	 2.18002967162637E-02 
1510	 2.20266081013002E-02 
1511	 2.13807061616789E-02 
1512	 2.11248884735552E-02 
1513	 2.15220619547877E-02 
1514	 2.13915218858712E-02 
1515	 2.12564532384127E-02 
1516	 2.12696812072734E-02 
1517	 2.06580848105186E-02 
1518	 2.02268010996672E-02 
1519	 2.02783250124475E-02 
1520	 2.01927090456595E-02 
1521	 1.96650382608161E-02 
1522	 0.01958073162464 
1523	 2.01705678672412E-02 
1524	 2.00987596623369E-02 
1525	 1.96259627658838E-02 
1526	 1.92529245125599E-02 
1527	 1.88567984664952E-02 
1528	 1.91987918959031E-02 
1529	 1.97022780605711E-02 
1530	 1.96949836273684E-02 
1531	 1.98262769289073E-02 
1532	 1.99925363130755E-02 
1533	 1.99219937724227E-02 
1534	 1.98364371167596E-02 
1535	 1.97337021736743E-02 
1536	 1.95441379752706E-02 
1537	 1.95299240019791E-02 
1538	 1.99754548081873E-02 
1539	 2.01666121961037E-02 
1540	 1.97157393330892E-02 
1541	 1.96372520371076E-02 
1542	 1.95046122352232E-02 
1543	 1.89681005134096E-02 
1544	 1.90229481717074E-02 
1545	 1.92340143833049E-02 
1546	 1.91393329805292E-02 
1547	 1.91768718893831E-02 
1548	 1.92937635223674E-02 
1549	 1.92058437406711E-02 
1550	 1.88841094373291E-02 
1551	 1.85846803523385E-02 
1552	 1.88834698377696E-02 
1553	 1.93540517064194E-02 
1554	 1.93937327295906E-02 
1555	 1.94445479707164E-02 
1556	 1.95047331924283E-02 
1557	 1.95312463294943E-02 
1558	 1.94911235435396E-02 
1559	 1.93691221619208E-02 
1560	 1.94609828518302E-02 
1561	 1.93716292888435E-02 
1562	 1.90201264957963E-02 
1563	 1.92294510055681E-02 
1564	 1.97175921382619E-02 
1565	 1.95946222906581E-02 
1566	 1.93968545804915E-02 
1567	 1.97406175661104E-02 
1568	 1.97104343961381E-02 
1569	 1.92072174491416E-02 
1570	 1.94026618501945E-02 
1571	 1.96804071916158E-02 
1572	 1.95768897035426E-02 
1573	 0.0199189004214 
1574	 2.00584559538385E-02 
1575	 1.95101031351232E-02 
1576	 1.92126000977405E-02 
1577	 0.019256935746139 
1578	 1.93664803367595E-02 
1579	 1.97936703536416E-02 
1580	 2.01164066346702E-02 
1581	 0.019640630725082 
1582	 1.93755809791403E-02 
1583	 1.98915613278922E-02 
1584	 1.99499703967674E-02 
1585	 1.98154038771688E-02 
1586	 1.96260432167301E-02 
1587	 1.92799731827448E-02 
1588	 1.93855185456755E-02 
1589	 1.92897317671476E-02 
1590	 1.89786776826712E-02 
1591	 1.87926490483014E-02 
1592	 1.85479303571665E-02 
1593	 1.86178000599022E-02 
1594	 1.90548207447018E-02 
1595	 1.94402007648896E-02 
1596	 1.94294890117317E-02 
1597	 1.91277055285688E-02 
1598	 1.92650076798555E-02 
1599	 1.95742317702231E-02 
1600	 1.92899065052476E-02 
1601	 1.91295999887426E-02 
1602	 0.019303453765442 
1603	 1.86515218935769E-02 
1604	 1.80297662710118E-02 
1605	 1.88006440743034E-02 
1606	 1.90808709563371E-02 
1607	 1.87301760073049E-02 
1608	 1.94713784939664E-02 
1609	 1.95506254327838E-02 
1610	 0.018637026593035 
1611	 1.89310798094316E-02 
1612	 1.94406118997983E-02 
1613	 1.90377991827959E-02 
1614	 1.89168933487361E-02 
1615	 1.89010025711255E-02 
1616	 1.85868250598614E-02 
1617	 1.84264692872186E-02 
1618	 1.85525108357353E-02 
1619	 1.90486635748011E-02 
1620	 1.91008617344782E-02 
1621	 1.85258418588806E-02 
1622	 1.84741251836857E-02 
1623	 1.88155388253187E-02 
1624	 0.018701840583711 
1625	 1.84568271964241E-02 
1626	 1.85905126016636E-02 
1627	 1.86531123315614E-02 
1628	 1.87122812530395E-02 
1629	 1.91072891716926E-02 
1630	 1.92382481807491E-02 
1631	 1.92195162881302E-02 
1632	 1.91012247233064E-02 
1633	 1.87332900961147E-02 
1634	 1.89121449031605E-02 
1635	 1.91922490591394E-02 
1636	 1.91142449962623E-02 
1637	 1.92435021075145E-02 
1638	 1.92956483812957E-02 
1639	 1.91614813092669E-02 
1640	 1.89999044844161E-02 
1641	 1.90533534172761E-02 
1642	 1.95070016218344E-02 
1643	 1.97901814119384E-02 
1644	 1.96338746007529E-02 
1645	 1.91852554167195E-02 
1646	 1.87826597098621E-02 
1647	 1.85499286865052E-02 
1648	 1.88617230586752E-02 
1649	 0.019714749739188 
1650	 1.98621179203532E-02 
1651	 1.94685544536871E-02 
1652	 1.90340342153102E-02 
1653	 1.91156919931766E-02 
1654	 1.89922116217574E-02 
1655	 1.87269780264803E-02 
1656	 1.87284633074316E-02 
1657	 1.85563535924066E-02 
1658	 1.85067255736036E-02 
1659	 1.88715863970382E-02 
1660	 0.019133894395841 
1661	 1.95742186567298E-02 
1662	 1.95883952035714E-02 
1663	 1.92179331731788E-02 
1664	 0.01912938342554 
1665	 1.86974832047761E-02 
1666	 1.87808493629343E-02 
1667	 1.98987271856318E-02 
1668	 0.019541164121485 
1669	 1.87022262551796E-02 
1670	 0.018071709455632 
1671	 1.82256509438651E-02 
1672	 1.91309360579012E-02 
1673	 0.019422555382554 
1674	 1.87497894990008E-02 
1675	 1.85436261489943E-02 
1676	 1.89743878431287E-02 
1677	 1.93614704324386E-02 
1678	 0.019443808905898 
1679	 0.019491892324492 
1680	 1.95644983963057E-02 
1681	 1.92824896831327E-02 
1682	 1.95702118492104E-02 
1683	 0.019743105037043 
1684	 1.90950302753579E-02 
1685	 1.90027684441018E-02 
1686	 1.94294629222032E-02 
1687	 1.97362150436761E-02 
1688	 1.99048306326167E-02 
1689	 1.97507748177419E-02 
1690	 1.94960396403558E-02 
1691	 0.019713415347697 
1692	 1.99647910066448E-02 
1693	 1.99609536560264E-02 
1694	 1.97770512709496E-02 
1695	 1.93686137691307E-02 
1696	 1.91023492475011E-02 
1697	 1.92884574063247E-02 
1698	 2.00692683217497E-02 
1699	 2.01829522767525E-02 
1700	 1.94486791661404E-02 
1701	 1.95304839606983E-02 
1702	 1.94418109163571E-02 
1703	 1.89408765331868E-02 
1704	 1.96084246896165E-02 
1705	 1.96423512065216E-02 
1706	 1.90890221163458E-02 
1707	 1.97688686847449E-02 
1708	 1.96916882110507E-02 
1709	 1.92061362416261E-02 
1710	 1.91589497177103E-02 
1711	 1.86925562963567E-02 
1712	 1.89741409789962E-02 
1713	 1.91480674934417E-02 
1714	 1.93573860453067E-02 
1715	 1.98628627644407E-02 
1716	 2.00586495131763E-02 
1717	 2.00042699210836E-02 
1718	 1.95443676931854E-02 
1719	 1.93129212648808E-02 
1720	 1.97637727928036E-02 
1721	 1.98705735211197E-02 
1722	 1.97035048186626E-02 
1723	 1.95073109546152E-02 
1724	 1.90789725256108E-02 
1725	 1.92948991923463E-02 
1726	 2.03535858002669E-02 
1727	 2.11702588780842E-02 
1728	 2.05503315682539E-02 
1729	 1.92935879679791E-02 
1730	 1.87622796269239E-02 
1731	 1.87845357971688E-02 
1732	 1.97818473451305E-02 
1733	 2.09965168342792E-02 
1734	 2.04194725900353E-02 
1735	 1.93568169491443E-02 
1736	 1.88967319817541E-02 
1737	 1.82847389216239E-02 
1738	 1.90364558247374E-02 
1739	 1.99025555867299E-02 
1740	 1.92479943978688E-02 
1741	 1.96657014162811E-02 
1742	 0.020391903264076 
1743	 2.03704444129264E-02 
1744	 2.04309243255027E-02 
1745	 2.03054076758953E-02 
1746	 0.019975512194517 
1747	 2.01485831935389E-02 
1748	 2.16506375470736E-02 
1749	 2.18428915619546E-02 
1750	 2.12329397862693E-02 
1751	 2.09496505852196E-02 
1752	 1.93607943972821E-02 
1753	 1.94805504262841E-02 
1754	 2.15392866959396E-02 
1755	 2.18682109527013E-02 
1756	 0.022206136066593 
1757	 1.95743988426399E-02 
1758	 1.84663117961635E-02 
1759	 1.96992798219331E-02 
1760	 2.19357428358425E-02 
1761	 2.45896262308959E-02 
1762	 2.50310751315712E-02 
1763	 2.30067442808849E-02 
1764	 2.28203619007086E-02 
1765	 0.025015455570296 
1766	 2.51262314311193E-02 
1767	 2.27351909237039E-02 
1768	 2.13152170542445E-02 
1769	 2.11026821174717E-02 
1770	 2.18055056274642E-02 
1771	 0.025395595625552 
1772	 2.61419091956752E-02 
1773	 2.19985281026304E-02 
1774	 2.07858696779535E-02 
1775	 0.02272851872235 
1776	 2.30648236112518E-02 
1777	 2.41468046838862E-02 
1778	 2.43762176484471E-02 
1779	 2.18391953843935E-02 
1780	 2.13731710369349E-02 
1781	 2.32770846262776E-02 
1782	 2.39652009184911E-02 
1783	 2.40357029593098E-02 
1784	 2.65595554270565E-02 
1785	 3.09180087258889E-02 
1786	 3.15261697703426E-02 
1787	 3.22618502064258E-02 
1788	 3.20520667434193E-02 
1789	 2.74314046584495E-02 
1790	 2.76835603871179E-02 
1791	 2.64108457674719E-02 
1792	 2.60310865311068E-02 
1793	 2.80461013757102E-02 
1794	 4.31564440631958E-02 
1795	 5.52465732183865E-02 
1796	 6.85957740619123E-02 
1797	 7.69544384639195E-02 
1798	 5.01862338377007E-02 
1799	 5.59896477917277E-02 
1800	 7.89910992823725E-02 
1801	 0.090743359453488 
1802	 0.139078580518036 
1803	 0.165907536494432 
1804	 0.124071968530483 
1805	 0.10992571804455 
1806	 8.44512876585872E-02 
1807	 6.65860470103135E-02 
1808	 3.24173035743077E-02 
1809	 8.91900749919139E-02 
1810	 0.318349737477157 
1811	 0.503807760690151 
1812	 1.46864956663725 
1813	 3.36480638325569 
1814	 7.80154284782638 
1815	 1.97810782999596 
1816	-0.505457649115923 
1817	 6.60746217161201E-02 
1818	 0.123615844184058 
1819	 0.985482142315068 
1820	 1.28718978097757 
1821	 0.134862508934808 
1822	-6.07576979410906E-02 
1823	-0.374474627282198 
1824	-0.411404217710946 
1825	 1.91590733367456 
1826	 3.0462436858268 
1827	 2.23136875026252 
1828	 1.47715353308647 
1829	 0.135620533380228 
1830	 0.022726316695771 
1831	-0.228256385027128 
1832	-3.25069965729438E-02 
1833	 0.515343249984577 
1834	 0.605326972876603 
1835	 0.508461537668581 
1836	 0.378134090614835 
1837	 2.2526140860424 
1838	 1.17136879580772 
1839	 0.841443703446208 
1840	-19.0806993866876 
1841	-0.157617413861334 
1842	-0.958430137971782 
1843	-1.77467924471788 
1844	-0.833302203995512 
1845	-1.43205464011308 
1846	 2.1527046649509 
1847	 1.15800481694709 
1848	 0.401065430536514 
1849	 0.378900698676149 
1850	 0.699412553229621 
1851	 0.39689930369871 
1852	 0.314510895541576 
1853	 0.271505475365813 
1854	 0.196736413914017 
1855	-0.599282294071029 
1856	-0.729223112183025 
1857	-0.558399939875115 
1858	-0.591326892680894 
1859	-1.28501123882435 
1860	 6.16875234552336 
1861	-1.41754617377579 
1862	-1.68132688493276 
1863	 20.3394564753137 
1864	 6.52580308914778 
1865	-38.0900779970568 
1866	 12.5028914350986 
1867	 0.727427862445496 
1868	 2.03634610508536 
1869	 2.07451622862651 
1870	 0.314262532343318 
1871	 0.133890171766332 
1872	 0.39481848655052 
1873	 0.369647484185224 
1874	 0.631310176266883 
1875	 0.224458846179498 
1876	 0.328105891093402 
1877	 0.620431484999579 
1878	 0.628928423793396 
1879	 1.01507522647694 
1880	 1.15807643276744 
1881	 0.974032443978089 
1882	-0.231748617778359 
1883	-1.60282466816756 
1884	 3.17275040657595 
1885	-5.46950287373782 
1886	-16.6428722900045 
1887	 6.89691290588439 
1888	-0.799694017199079 
1889	-0.390330998468379 
1890	-0.218728477564838 
1891	-0.17692041213707 
1892	-4.47678266031038E-02 
1893	-0.422148817370655 
1894	-0.214372008604878 
1895	 3.72273367513792E-02 
1896	-5.49086154329636E-02 
1897	 0.504071426260684 
1898	 0.687704235227093 
1899	 0.434271635161661 
1900	 0.472295486444548 
1901	 1.42918637463886 
1902	 2.073856993996 
1903	 1.09674344801702 
1904	 1.23587478827526 
1905	 1.26745131290504 
1906	-5.08896981997575 
1907	 3.38525403917835 
1908	 9.67250804636272E-02 
1909	-3.45999190790735 
1910	-0.889301913312897 
1911	 1.38190466193211 
1912	 7.96885573231675 
1913	 3.32174059742712 
1914	 1.52160462017021 
1915	 1.4720825811839 
1916	 8.85243492727621E-02 
1917	 0.784956589040021 
1918	 0.292330747797411 
1919	-0.111680613886253 
1920	-0.362709898180923 
1921	-0.386560897686886 
1922	-1.15120609455723 
1923	-2.32973080607453 
1924	 2.02914794687756 
1925	 10.2294061640501 
1926	 15.9187975276426 
1927	-5.02170231867859 
1928	 6.42793355929954 
1929	-0.790060697486325 
1930	-1.49688725188019 
1931	-1.64506745542135 
1932	-1.17655702293617 
1933	-0.87915591059931 
1934	-0.535986353061336 
1935	-0.705954992193692 
1936	-0.896548889213316 
1937	-0.369500238313044 
1938	 5.34629140944331E-03 
1939	 0.258680646003001 
1940	 0.45779095079532 
1941	 0.366594074994216 
1942	 0.459362887313422 
1943	 0.438084543926467 
1944	 0.106161206540268 
1945	 0.194632752792124 
1946	 0.291709025005988 
1947	 0.106562269542625 
1948	 0.203425441071019 
1949	 0.134557420108291 
1950	-0.11893281184671 
1951	-0.185300111930971 
1952	-0.197715803607163 
1953	-0.159956592209459 
1954	-0.168108159793901 
1955	-0.131041535357478 
1956	-4.73515002231219E-02 
1957	-7.66820772919253E-02 
1958	-0.108456612609621 
1959	-7.31374282416468E-02 
1960	-4.84842986844106E-02 
1961	-2.63287645901065E-02 
1962	-5.2311185467408E-03 
1963	 1.30147729386647E-03 
1964	-1.77238909530513E-02 
1965	-3.58298639320248E-02 
1966	-3.11158051741558E-02 
1967	-2.02800204480917E-02 
1968	-8.79301189739905E-03 
1969	 7.66443897972278E-03 
1970	 2.71087631153155E-02 
1971	 3.40817673645698E-02 
1972	 3.29612518663835E-02 
1973	 3.32720511204111E-02 
1974	 3.24554509489615E-02 
1975	 2.83926010442987E-02 
1976	 2.86444193277681E-02 
1977	 2.82308215170263E-02 
1978	 2.81100498487411E-02 
1979	 0.029563059087036 
1980	 3.40907751893775E-02 
1981	 3.41892563115091E-02 
1982	 3.38209314462456E-02 
1983	 3.00740584035863E-02 
1984	 2.16402380856298E-02 
1985	 2.03959862644924E-02 
1986	 2.31990363588615E-02 
1987	 2.60540768694227E-02 
1988	 2.83709598533065E-02 
1989	 2.66093300420032E-02 
1990	 2.27693784613643E-02 
1991	 1.92604260306324E-02 
1992	 1.74799951795399E-02 
1993	 1.77778558132446E-02 
1994	 1.83712648257838E-02 
1995	 1.90224869136753E-02 
1996	 1.87252350690426E-02 
1997	 2.04942765413615E-02 
1998	 2.29113519782819E-02 
1999	 2.63758931887309E-02 
2000	 0.031530931208938 
2001	 3.54003797609927E-02 
2002	 3.49419744893188E-02 
2003	 2.83045114524784E-02 
2004	 2.44652952984115E-02 
2005	 2.50262156701575E-02 
2006	 3.42017123712204E-02 
2007	 4.46735538098363E-02 
2008	 3.88770992731296E-02 
2009	 3.25081519369139E-02 
2010	 1.51388734921883E-02 
2011	 9.02085642041975E-03 
2012	 1.64456454562145E-03 
2013	 4.80225975714335E-03 
2014	 1.26869620562402E-02 
2015	 2.01652676897446E-02 
2016	 2.64866151952773E-02 
2017	 2.91448187131624E-02 
2018	 2.75274491016041E-02 
2019	 2.56245778861917E-02 
2020	 2.58475708540271E-02 
2021	 2.64015165016729E-02 
2022	 2.76602640328073E-02 
2023	 0.030711649452293 
2024	 3.09164966536062E-02 
2025	 2.91114308919953E-02 
2026	 2.68656426033916E-02 
2027	 2.32497765769105E-02 
2028	 0.022062083483551 
2029	 2.23227631795755E-02 
2030	 2.11343123978663E-02 
2031	 2.08866487319423E-02 
2032	 2.08106244512519E-02 
2033	 1.87237057358885E-02 
2034	 1.97239786387434E-02 
2035	 2.22869314595285E-02 
2036	 2.30303622150291E-02 
2037	 2.21003683159405E-02 
2038	 2.04023506017763E-02 
2039	 1.98552597665909E-02 
2040	 1.90170507129786E-02 
2041	 0.018591902041851 
2042	 1.93286389611414E-02 
2043	 1.94011816893279E-02 
2044	 1.90096337830143E-02 
2045	 1.92951521176038E-02 
2046	 0.018243250044856 
2047	 1.82739418099437E-02 
2048	 1.82784400888069E-02 
2049	 1.80893137254613E-02 
2050	 2.00724274572591E-02 
2051	 1.99727681127428E-02 
2052	 1.71331953328637E-02 
2053	 1.53483542003737E-02 
2054	 1.39828754303065E-02 
2055	 1.45315926378918E-02 
2056	 0.014031514087971 
2057	 1.40123240533427E-02 
2058	 1.46631012003233E-02 
2059	 1.49455287362489E-02 
2060	 1.52376640985374E-02 
2061	 1.65379547274532E-02 
2062	 1.93463784055102E-02 
2063	 2.05204140076515E-02 
2064	 0.021078969295405 
2065	 2.35732826561717E-02 
2066	 2.55828464996557E-02 
2067	 2.44901580473788E-02 
2068	 2.30838928257057E-02 
2069	 2.35409617596567E-02 
2070	 2.19219800228346E-02 
2071	 2.06905251829113E-02 
2072	 2.24182955190894E-02 
2073	 2.22854483247225E-02 
2074	 0.02062736372066 
2075	 2.05212904200536E-02 
2076	 2.10444028278938E-02 
2077	 2.04320040623474E-02 
2078	 1.93406909488497E-02 
2079	 1.94881900773595E-02 
2080	 2.03367414249699E-02 
2081	 1.99889848211793E-02 
2082	 1.96582670708314E-02 
2083	 1.97475640489454E-02 
2084	 1.94955391460098E-02 
2085	 0.020394438602873 
2086	 0.021826570044518 
2087	 2.33224637756398E-02 
2088	 2.41419023191742E-02 
2089	 2.35643267092846E-02 
2090	 2.35987893127154E-02 
2091	 2.39527106246577E-02 
2092	 2.34207896789048E-02 
2093	 2.24971239781394E-02 
2094	 2.10810998488567E-02 
2095	 1.79728077156755E-02 
2096	 1.65992758875589E-02 
2097	 1.48598384534491E-02 
2098	 1.55730882580423E-02 
2099	 1.91136938162818E-02 
2100	 2.08047816983313E-02 
2101	 2.30524513745577E-02 
2102	 2.41697158747666E-02 
2103	 2.01536146319115E-02 
2104	 1.82131905019461E-02 
2105	 0.018411307692935 
2106	 1.67387149755207E-02 
2107	 1.66913315844793E-02 
2108	 1.84355649835033E-02 
2109	 1.87197644082047E-02 
2110	 1.74587623372534E-02 
2111	 1.61708480173004E-02 
2112	 1.52201990289028E-02 
2113	 1.53877466917443E-02 
2114	 1.65075714803831E-02 
2115	 1.61955485139542E-02 
2116	 0.016114979907075 
2117	 1.67862807720561E-02 
2118	 1.66261804389789E-02 
2119	 1.66663465190282E-02 
2120	 1.82591494512626E-02 
2121	 1.87887400390599E-02 
2122	 1.84467121629238E-02 
2123	 1.75589017262777E-02 
2124	 1.78378414965989E-02 
2125	 1.87874706645311E-02 
2126	 1.88826110661075E-02 
2127	 1.90236556168111E-02 
2128	 1.70410324412683E-02 
2129	 1.53121564678893E-02 
2130	 1.70639459726344E-02 
2131	 1.77211294676961E-02 
2132	 0.018483194615933 
2133	 1.99888747128648E-02 
2134	 1.97592494401712E-02 
2135	 1.50538815765695E-02 
2136	 0.015236764236443 
2137	 1.87810493984334E-02 
2138	 2.00668487367611E-02 
2139	 2.24007301311155E-02 
2140	 2.25431520112594E-02 
2141	 1.99167383233313E-02 
2142	 1.88793529485857E-02 
2143	 1.67953694904195E-02 
2144	 1.77053599777398E-02 
2145	 1.87516243815926E-02 
2146	 1.90441255456117E-02 
2147	 1.99619615217919E-02 
2148	 0.020385944034 
2149	 2.05032285189907E-02 
2150	 1.97281975598574E-02 
2151	 1.94282587830563E-02 
2152	 2.01693537016834E-02 
2153	 2.27900169624999E-02 
2154	 2.50874713961268E-02 
2155	 2.46703929262681E-02 
2156	 2.34678271391292E-02 
2157	 2.34087886536169E-02 
2158	 2.31645737720046E-02 
2159	 2.32249021037028E-02 
2160	 2.41872155842893E-02 
2161	 2.39032249893837E-02 
2162	 2.20881188578726E-02 
2163	 2.11219030222695E-02 
2164	 2.05559040876418E-02 
2165	 2.07224462157056E-02 
2166	 2.06991711829323E-02 
2167	 2.16865954179309E-02 
2168	 2.58338815227905E-02 
2169	 2.62698948446839E-02 
2170	 2.58237296987663E-02 
2171	 0.024198533120813 
2172	 1.91158233592659E-02 
2173	 1.52628677510957E-02 
2174	 0.016550156905226 
2175	 1.69430311219933E-02 
2176	 1.69480030115929E-02 
2177	 1.73834208126142E-02 
2178	 1.66129132226019E-02 
2179	 1.49971542223588E-02 
2180	 1.62634422624637E-02 
2181	 1.95590406080044E-02 
2182	 1.94252242657535E-02 
2183	 1.87639122575812E-02 
2184	 1.86073795100174E-02 
2185	 1.86518874160689E-02 
2186	 1.87766548295219E-02 
2187	 2.01352529884714E-02 
2188	 1.97682291063602E-02 
2189	 1.78089445642624E-02 
2190	 1.79858475069538E-02 
2191	 1.87760833714084E-02 
2192	 1.99347470163026E-02 
2193	 2.29693334250417E-02 
2194	 2.36674322976207E-02 
2195	 2.34450175974685E-02 
2196	 2.28933068826905E-02 
2197	 2.06258144690822E-02 
2198	 2.03829124639617E-02 
2199	 2.05780991591116E-02 
2200	 1.98673243643448E-02 
2201	 0.023011141977597 
2202	 2.45886503307056E-02 
2203	 2.34785475944893E-02 
2204	 0.021982557549685 
2205	 1.64457256481195E-02 
2206	 1.26661572916644E-02 
2207	 1.68277034866946E-02 
2208	 1.94848723787667E-02 
2209	 1.89709379855992E-02 
2210	 2.12151226946094E-02 
2211	 1.94450637722462E-02 
2212	 1.47295912547231E-02 
2213	 1.28073479945755E-02 
2214	 1.34330417852335E-02 
2215	 1.52466319343814E-02 
2216	 1.81549997279501E-02 
2217	 1.84479297076805E-02 
2218	 0.01934514224949 
2219	 1.99171128078096E-02 
2220	 1.72389958488851E-02 
2221	 0.0160602355955 
2222	 1.83986480722203E-02 
2223	 1.88677018627148E-02 
2224	 1.60457168466887E-02 
2225	 1.56292304850316E-02 
2226	 0.016902859632866 
2227	 1.74050671928615E-02 
2228	 1.85715450910498E-02 
2229	 1.87428066720353E-02 
2230	 1.97666608351144E-02 
2231	 1.91134801568602E-02 
2232	 1.45784684652425E-02 
2233	 1.35946336578225E-02 
2234	 1.49555725988142E-02 
2235	 1.28131761440003E-02 
2236	 1.16450484754171E-02 
2237	 1.37830313485835E-02 
2238	 1.28743184284919E-02 
2239	 0.012550837947379 
2240	 0.017423458795626 
2241	 1.91266556887692E-02 
2242	 1.83132407778268E-02 
2243	 2.12967911117623E-02 
2244	 1.99184823040373E-02 
2245	 1.63740063854827E-02 
2246	 2.00583677284055E-02 
2247	 2.00639246563612E-02 
2248	 1.63488887343526E-02 
2249	 1.99031983436387E-02 
2250	 2.08956810854363E-02 
2251	 1.68635578945749E-02 
2252	 1.59838171187788E-02 
2253	 1.59736833120708E-02 
2254	 1.26865607539812E-02 
2255	 8.85384799728879E-03 
2256	 8.89831150526036E-03 
2257	 9.74025480836797E-03 
2258	 1.10501889061109E-02 
2259	 1.57325396373468E-02 
2260	 1.95064515194228E-02 
2261	 2.64057003957907E-02 
2262	 2.63316150289609E-02 
2263	 2.03791822227618E-02 
2264	 1.88397816481046E-02 
2265	 1.62334543996638E-02 
2266	 1.41044694941172E-02 
2267	 1.53818369763915E-02 
2268	 0.014684405228692 
2269	 1.05111121242963E-02 
2270	 8.29097436557382E-03 
2271	 7.18353378709322E-03 
2272	 7.56467346217717E-03 
2273	 9.62207995109165E-03 
2274	 9.71500710323125E-03 
2275	 1.00004015017135E-02 
2276	 1.03418625233294E-02 
2277	 9.85426793178246E-03 
2278	 9.13060341738462E-03 
2279	 9.59515555499555E-03 
2280	 8.23311857560345E-03 
2281	 3.96290382982247E-03 
2282	 1.35550651395013E-03 
2283	 5.48509068167045E-03 
2284	 1.07911041874926E-02 
2285	 1.38922971434868E-02 
2286	 1.41768437281001E-02 
2287	 1.15035906178465E-02 
2288	 9.03977333517868E-03 
2289	 1.43161413951566E-02 
2290	 1.85999065082447E-02 
2291	 1.97082683286912E-02 
2292	 1.97868876945324E-02 
2293	 1.71279489780861E-02 
2294	 1.70686816181975E-02 
2295	 0.013789211948401 
2296	 1.05812998768263E-02 
2297	 7.96348714748624E-03 
2298	 6.96322817891023E-03 
2299	 9.24059449121075E-03 
2300	 8.14516688936379E-03 
2301	 9.7403052666678E-03 
2302	 0.015936945045631 
2303	 1.89920853282668E-02 
2304	 1.56004526458229E-02 
2305	 1.12233168843803E-02 
2306	 1.57999498064038E-02 
2307	 1.69742017626888E-02 
2308	 1.69697796323271E-02 
2309	 2.02911357363224E-02 
2310	 5.60729017717951E-03 
2311	 5.56769216857826E-04 
2312	 7.28011297655714E-03 
2313	 2.42075599850789E-03 
2314	 4.19304728912935E-03 
2315	 9.65035879223641E-03 
2316	 9.34695953373084E-03 
2317	 1.34908424859283E-02 
2318	 1.66302119137839E-02 
2319	 2.43505674788807E-03 
2320	-0.003313420721961 
2321	 6.72803368729226E-03 
2322	 8.50318308940481E-03 
2323	 1.81719184814917E-02 
2324	 2.42075524217479E-02 
2325	 7.68421836385384E-03 
2326	 2.28303398922047E-03 
2327	 5.72091181924251E-03 
2328	 1.06968156346173E-02 
2329	 2.09983104206971E-02 
2330	 1.50099035637598E-02 
2331	 8.05255572991863E-03 
2332	 1.15206510823531E-02 
2333	 4.37046092563815E-03 
2334	 3.30035884216381E-03 
2335	 8.74566753958334E-03 
2336	-6.61799356860088E-03 
2337	-1.22489724978169E-02 
2338	 1.26339142061151E-03 
2339	-2.13515967370782E-03 
2340	-0.010547671840704 
2341	-5.73020369426272E-03 
2342	 5.29854492082799E-03 
2343	 2.17511955823601E-02 
2344	 0.033996898700796 
2345	 3.93696547365411E-02 
2346	 2.41099102644536E-02 
2347	 6.71551262850769E-03 
2348	 0.022790941490933 
2349	 3.57479636133232E-02 
2350	 3.83919174711918E-02 
2351	 3.67978576318845E-02 
2352	 1.12111890106596E-02 
2353	-1.39436608370746E-02 
2354	-2.37923326250821E-02 
2355	-1.47952986455571E-02 
2356	 1.05738261921059E-04 
2357	 1.38617256124073E-02 
2358	 0.031330033010327 
2359	 2.23394172861094E-02 
2360	 4.99373071507625E-03 
2361	-1.60176035919596E-03 
2362	-8.25473671903707E-03 
2363	-0.016783616121763 
2364	-1.66087615872318E-02 
2365	-2.67485030191322E-04 
2366	-2.87328704659558E-03 
2367	-1.21109082871675E-02 
2368	 8.95455565264426E-03 
2369	 1.17954815885191E-02 
2370	-1.05970365476435E-02 
2371	 3.20054423456195E-02 
2372	 5.58307728621232E-02 
2373	 2.07458589065975E-02 
2374	 2.57551142644229E-02 
2375	 1.04167661967327E-02 
2376	-1.07289930501658E-02 
2377	-3.54709154674022E-03 
2378	-1.24529144230657E-02 
2379	-7.37725100796838E-04 
2380	 3.10172326952534E-03 
2381	-1.90025253287099E-03 
2382	 6.05991108089606E-02 
2383	 8.10534775095677E-02 
2384	 7.47984638396596E-02 
2385	 0.111186817674138 
2386	 3.26697414562993E-02 
2387	-7.39862579333006E-06 
2388	-9.44732083378538E-03 
2389	-0.14423516121801 
2390	-0.176917094939354 
2391	-0.105215763485752 
2392	-7.56402143095914E-02 
2393	-4.59324104689227E-02 
2394	-3.94042457655795E-03 
2395	-2.72443785630118E-02 
2396	-8.95613723704338E-02 
2397	-9.11989463948785E-02 
2398	-0.1017556937025 
2399	-0.10420311777503 
2400	-7.07156078848422E-02 
2401	-7.50883096510467E-02 
2402	-3.81524857623014E-02 
2403	-7.79145880756648E-02 
2404	-0.225973860197776 
2405	-0.257005711631057 
2406	-0.202444631318704 
2407	-0.125142614840197 
2408	 5.55857167542259E-03 
2409	 4.35250546354566E-02 
2410	 6.06034375943329E-02 
2411	 0.179063896772473 
2412	 0.223161435729536 
2413	 0.377287316778726 
2414	 0.37060382964123 
2415	-0.408571203636399 
2416	-0.734104347899791 
2417	-0.681726885623209 
2418	-0.686066406315841 
2419	-0.456064359463254 
2420	-0.128580264275057 
2421	 0.269847639433463 
2422	 0.516625019728891 
2423	 0.401330609232137 
2424	 0.150964343288747 
2425	 0.199632432305777 
2426	 0.212664457702923 
2427	 0.152520683625544 
2428	 0.189905921331127 
2429	 0.156095975039437 
2430	 5.42924614682114E-02 
2431	 1.05702413214253E-02 
2432	 3.44524109700551E-02 
2433	-0.146163199200632 
2434	-0.31625206530966 
2435	-0.307390762230207 
2436	-5.50207920695592 
2437	 1.28039502068003 
2438	 0.999441524923135 
2439	 2.37237311573882 
2440	 26.7098450826348 
2441	-6.18517161223136 
2442	-5.74586613671994 
2443	-1.33262141628688 
2444	 0.196434734324183 
2445	 0.71266379691407 
2446	 0.248793044674133 
2447	 6.26682238795367E-02 
2448	-0.10565947450092 
2449	-0.643368722647811 
2450	-0.796945629610146 
2451	 0.306711073719153 
2452	 1.13981747031264 
2453	 3.84172847096882 
2454	 10.7562285540982 
2455	-33.7084742482669 
2456	-2.03516189509242 
2457	-1.23153752213112 
2458	-0.845350015442992 
2459	-0.679189876564503 
2460	-0.850586803195316 
2461	-3.032414108852 
2462	-1.32708009497068 
2463	 0.724992420349994 
2464	-12.1427060020991 
2465	-1.24927953255173 
2466	-1.16085917677357 
2467	 8.12192043588923 
2468	 2.77702641683698 
2469	 28.4462672947205 
2470	 4.59858868818854 
2471	 2.0572590872875 
2472	 8.42808532208288 
2473	 0.990141750760075 
2474	 8.36903340936623E-02 
2475	-1.71125065038746 
2476	 23.0311530300717 
2477	 21.3386792587927 
2478	 0.108178700358808 
2479	 0.805769429964992 
2480	 0.440114209956833 
2481	 0.261499043955147 
2482	-0.805463512924903 
2483	-2.04714561710498 
2484	-4.06025171777382 
2485	-6.92515991058538 
2486	 5.55985641233918 
2487	 27.6647584095341 
2488	 116.456263190499 
2489	-1.0630566426335 
2490	-1.45511876032039 
2491	 2.38092527257454 
2492	 1.62943287685893 
2493	 1.43531633308307 
2494	-1.66757283932157 
2495	 1.00061696060516 
2496	 0.36927063260106 
2497	 0.960565755000263 
2498	 1.56245923479403 
2499	 1.6991592358837 
2500	 1.09809045638735 
