Wavelength	rt0805close00001.asd
350	 6.21621310973464E-02 
351	 6.13923773774101E-02 
352	 6.14608886912337E-02 
353	 6.19735086830524E-02 
354	 6.22724793536228E-02 
355	 6.22680811784608E-02 
356	 6.16622878165402E-02 
357	 6.12804820858212E-02 
358	 6.17554321416183E-02 
359	 6.13535936413314E-02 
360	 6.14887739135108E-02 
361	 6.20143186327741E-02 
362	 6.17744589124655E-02 
363	 6.14265191425259E-02 
364	 6.10935164740959E-02 
365	 6.08547640056602E-02 
366	 6.07961142445157E-02 
367	 6.16100615906355E-02 
368	 6.21153080838166E-02 
369	 6.14748914782996E-02 
370	 6.18037440034253E-02 
371	 6.20291851868247E-02 
372	 0.062030806906658 
373	 6.22208702677833E-02 
374	 0.062347524543074 
375	 6.24108353340126E-02 
376	 6.25584734931677E-02 
377	 6.30841564008975E-02 
378	 6.30137965580558E-02 
379	 6.29233898534618E-02 
380	 6.33574665455052E-02 
381	 6.36368658691319E-02 
382	 6.32263105934679E-02 
383	 0.062919886431907 
384	 6.37631333925835E-02 
385	 0.063676929698717 
386	 6.35351049107614E-02 
387	 6.37899574193716E-02 
388	 6.41382761989248E-02 
389	 6.43889887109438E-02 
390	 6.43984602520868E-02 
391	 0.064258007200831 
392	 6.45583353806303E-02 
393	 6.46335945394864E-02 
394	 6.47883478572826E-02 
395	 6.53941890192049E-02 
396	 6.51748985051469E-02 
397	 6.53246752689771E-02 
398	 6.59213710447098E-02 
399	 0.066018497108937 
400	 6.57184044873592E-02 
401	 6.56898870076572E-02 
402	 6.61433840755047E-02 
403	 6.61138394810125E-02 
404	 6.61615616195505E-02 
405	 6.64341602638623E-02 
406	 6.68182963194803E-02 
407	 6.66375786007703E-02 
408	 6.64807409958068E-02 
409	 6.65623866318635E-02 
410	 6.66565491473966E-02 
411	 6.69601174936497E-02 
412	 6.71524300040914E-02 
413	 0.067098895039594 
414	 0.067304467384591 
415	 6.75125329605704E-02 
416	 6.77050141415561E-02 
417	 6.79284333378904E-02 
418	 6.80072662682022E-02 
419	 6.82855236059145E-02 
420	 6.87094450477252E-02 
421	 6.87881793050923E-02 
422	 6.88834569354376E-02 
423	 0.069107076231957 
424	 6.94496873432326E-02 
425	 6.97394907878829E-02 
426	 6.99173888362526E-02 
427	 0.070060334540832 
428	 7.03148813303389E-02 
429	 7.07514026359878E-02 
430	 7.12231118828788E-02 
431	 7.16038450288298E-02 
432	 7.18262030792708E-02 
433	 7.21766394226185E-02 
434	 7.25218881043113E-02 
435	 7.27469347878597E-02 
436	 7.30682744242012E-02 
437	 0.073522575328418 
438	 7.39578814203917E-02 
439	 7.41763744810167E-02 
440	 7.45801338398366E-02 
441	 7.49367664422863E-02 
442	 7.51583083025647E-02 
443	 7.54647529298412E-02 
444	 7.58546726641985E-02 
445	 7.62131885216381E-02 
446	 7.64561604563149E-02 
447	 7.67613172589572E-02 
448	 7.70364878756925E-02 
449	 7.72911995219287E-02 
450	 7.75912987440961E-02 
451	 7.76581455760403E-02 
452	 7.77128423008004E-02 
453	 7.79020365044215E-02 
454	 7.80753973799742E-02 
455	 0.078245740657676 
456	 7.83605323538274E-02 
457	 7.84058699758334E-02 
458	 7.86727936938965E-02 
459	 7.88226700654894E-02 
460	 7.88387784788278E-02 
461	 7.90373476323493E-02 
462	 7.90216894655555E-02 
463	 7.90035544867718E-02 
464	 7.91523833551519E-02 
465	 7.91793980169333E-02 
466	 7.92731132535664E-02 
467	 7.94288233326984E-02 
468	 7.95549493824767E-02 
469	 7.96538147483596E-02 
470	 0.079841109695418 
471	 8.00795031219201E-02 
472	 8.01183021637826E-02 
473	 8.01817216632629E-02 
474	 8.03547107641164E-02 
475	 8.06234131368248E-02 
476	 8.07732103172941E-02 
477	 0.08094035873329 
478	 8.10954280154417E-02 
479	 8.11307013228184E-02 
480	 0.081419315850823 
481	 8.16783482395414E-02 
482	 8.17554943703807E-02 
483	 0.081924856035629 
484	 8.22567179269827E-02 
485	 0.082664316665766 
486	 8.30066564181243E-02 
487	 8.32904809899863E-02 
488	 0.083548127118189 
489	 8.38183060140652E-02 
490	 8.41419491747621E-02 
491	 8.45698239951239E-02 
492	 8.49935118128813E-02 
493	 8.53609499815826E-02 
494	 8.58786494317953E-02 
495	 8.63096036976046E-02 
496	 8.66823699925394E-02 
497	 8.71483114583691E-02 
498	 8.76329218563181E-02 
499	 8.81022169774497E-02 
500	 8.86113512820819E-02 
501	 8.93525657290554E-02 
502	 8.98871664271223E-02 
503	 0.090330466921601 
504	 9.09018554703845E-02 
505	 9.15307632398921E-02 
506	 9.20083172372052E-02 
507	 9.24536124811509E-02 
508	 9.32015378331119E-02 
509	 9.37246328911949E-02 
510	 9.41950559138136E-02 
511	 9.47909426589642E-02 
512	 9.54499819476472E-02 
513	 9.60958716404937E-02 
514	 9.66879988047972E-02 
515	 9.72425888268996E-02 
516	 9.80284924309389E-02 
517	 9.88678017141113E-02 
518	 9.96177535449557E-02 
519	 0.100242256892248 
520	 0.100852728751029 
521	 0.101558516099883 
522	 0.102384500964312 
523	 0.103071770318842 
524	 0.103823548122315 
525	 0.104623133936687 
526	 0.105318982948802 
527	 0.106103665838103 
528	 0.106924725419289 
529	 0.107741765106741 
530	 0.108629517835983 
531	 0.109395023520719 
532	 0.110147095718559 
533	 0.111064510459212 
534	 0.11202403780801 
535	 0.112927500560508 
536	 0.113765088546164 
537	 0.11461606534466 
538	 0.115518648048732 
539	 0.116435418010004 
540	 0.117352069945415 
541	 0.118428748252387 
542	 0.119348962266495 
543	 0.120168292794195 
544	 0.121156317995719 
545	 0.122135849480014 
546	 0.123109053994283 
547	 0.124056393201483 
548	 0.124866849584725 
549	 0.125733048351905 
550	 0.126663155233029 
551	 0.127601989195004 
552	 0.128558353703119 
553	 0.129429501383152 
554	 0.130243823684314 
555	 0.131173498110974 
556	 0.132051017006891 
557	 0.132928003890519 
558	 0.133832641516636 
559	 0.134561122894327 
560	 0.135385425458026 
561	 0.13626005011525 
562	 0.13697549968547 
563	 0.137810932150434 
564	 0.138601199404312 
565	 0.139258639761727 
566	 0.139956540711948 
567	 0.140605050561698 
568	 0.141270150439553 
569	 0.142001059864126 
570	 0.142449463798482 
571	 0.142951898905657 
572	 0.14357488763003 
573	 0.144054354183915 
574	 0.14454431005825 
575	 0.145040388794094 
576	 0.145521660415398 
577	 0.146061619784766 
578	 0.14638155517294 
579	 0.146600618072371 
580	 0.147044814316391 
581	 0.147432494030789 
582	 0.147797634121547 
583	 0.148160494573778 
584	 0.148431444372021 
585	 0.148831118635254 
586	 0.149278183231787 
587	 0.149632399028342 
588	 0.150172404075244 
589	 0.1504813721867 
590	 0.150460737282694 
591	 0.150435248379426 
592	 0.150585649860708 
593	 0.150671087134269 
594	 0.150508979508712 
595	 0.150400448709125 
596	 0.150166031042234 
597	 0.149849766446973 
598	 0.14960310935356 
599	 0.149318778972148 
600	 0.149106807391557 
601	 0.148999668611341 
602	 0.148857608107265 
603	 0.148787999438884 
604	 0.148769657369892 
605	 0.148766940922722 
606	 0.148893273527586 
607	 0.148965025298291 
608	 0.148952715453528 
609	 0.14899716099105 
610	 0.149060651423953 
611	 0.149069219909783 
612	 0.148986049426337 
613	 0.148886854520181 
614	 0.148925975071581 
615	 0.149015782439261 
616	 0.148959673249653 
617	 0.148997959688198 
618	 0.148973367495769 
619	 0.148845746046076 
620	 0.148826570217316 
621	 0.148854073791928 
622	 0.148916191139972 
623	 0.148993874209642 
624	 0.148991524973561 
625	 0.149008769980891 
626	 0.149071245592871 
627	 0.149122959823155 
628	 0.149111071450465 
629	 0.14905638560626 
630	 0.149005239393628 
631	 0.149033026489988 
632	 0.149013633565595 
633	 0.148908300143501 
634	 0.148744938430125 
635	 0.148668117725361 
636	 0.148727010469742 
637	 0.148867379744258 
638	 0.148917440137524 
639	 0.14874100504763 
640	 0.148557045053574 
641	 0.148595482524844 
642	 0.148629007438535 
643	 0.148770342210307 
644	 0.148983207744262 
645	 0.149108787373796 
646	 0.149243702515053 
647	 0.149261311891016 
648	 0.149098130945474 
649	 0.148887460456968 
650	 0.1488704926052 
651	 0.148882261450196 
652	 0.148658919028238 
653	 0.148465370369304 
654	 0.148175850158002 
655	 0.147806046155566 
656	 0.147637782629605 
657	 0.147175136814399 
658	 0.146734189271685 
659	 0.146563006488313 
660	 0.146297013816664 
661	 0.145920227789272 
662	 0.145559781225556 
663	 0.145405374734424 
664	 0.145168827799623 
665	 0.144904791560893 
666	 0.144654502656497 
667	 0.144347175323376 
668	 0.144243885411576 
669	 0.144253146751299 
670	 0.144205708832339 
671	 0.14421490702856 
672	 0.144126435913965 
673	 0.144044509717994 
674	 0.1442904130815 
675	 0.144392712115056 
676	 0.144463412832693 
677	 0.144645409214684 
678	 0.144867934886106 
679	 0.145124253772191 
680	 0.145458682915059 
681	 0.145923088289817 
682	 0.146446943323019 
683	 0.1469274641508 
684	 0.147409474755373 
685	 0.148204828588794 
686	 0.149240544012609 
687	 0.150093865081016 
688	 0.150442759623381 
689	 0.150747284579542 
690	 0.151353687139698 
691	 0.152178924146898 
692	 0.152859030572938 
693	 0.153339742537743 
694	 0.153458099820484 
695	 0.153280888627705 
696	 0.153099989371329 
697	 0.153401122912465 
698	 0.153900944964697 
699	 0.154091416041387 
700	 0.154100977471699 
701	 0.153877933755577 
702	 0.153497161588152 
703	 0.153109134043544 
704	 0.152889263439868 
705	 0.152651679699964 
706	 0.152262657317364 
707	 0.151802045629132 
708	 0.151214723362003 
709	 0.150581825231538 
710	 0.149997195882406 
711	 0.149297872091202 
712	 0.148627498963848 
713	 0.148065074377199 
714	 0.147603615198869 
715	 0.147709203569956 
716	 0.148030174070436 
717	 0.147843054141431 
718	 0.146861778243213 
719	 0.144851314836278 
720	 0.142878317328733 
721	 0.141459958557258 
722	 0.140745793269143 
723	 0.140129525584708 
724	 0.139134600967515 
725	 0.137313769564245 
726	 0.135475332985467 
727	 0.133669500998175 
728	 0.1317321768847 
729	 0.129466674672829 
730	 0.126856901773701 
731	 0.124091667070296 
732	 0.121301590901774 
733	 0.119245069972233 
734	 0.117682201833561 
735	 0.116399804110704 
736	 0.115201033381094 
737	 0.114160554409181 
738	 0.113251309838089 
739	 0.112508281507846 
740	 0.112138011072322 
741	 0.111966197850635 
742	 0.111805786749331 
743	 0.111529073508611 
744	 0.111510591760049 
745	 0.111517172101817 
746	 0.111448606356303 
747	 0.111460137458472 
748	 0.111516014668308 
749	 0.111577914929828 
750	 0.111628329572964 
751	 0.1117359524743 
752	 0.111816314201266 
753	 0.11182462898466 
754	 0.111768476494477 
755	 0.111839352342875 
756	 0.111963121025802 
757	 0.112202011498536 
758	 0.11305720799359 
759	 0.114396215822165 
760	 0.115576734716804 
761	 0.115430076895938 
762	 0.115443296308833 
763	 0.115182890204823 
764	 0.114618315994773 
765	 0.113925632461933 
766	 0.113474172445108 
767	 0.11342425654015 
768	 0.113629821918745 
769	 0.113682669238423 
770	 0.113689165489253 
771	 0.113799262714226 
772	 0.114065145843986 
773	 0.114233558593437 
774	 0.114540944889419 
775	 0.11485301094557 
776	 0.114973563786995 
777	 0.11534898905717 
778	 0.115681376152593 
779	 0.11589226902947 
780	 0.11617729585645 
781	 0.116543089624823 
782	 0.117023317674765 
783	 0.11755021848696 
784	 0.117810299639677 
785	 0.118256783827996 
786	 0.118825285394879 
787	 0.119318755570973 
788	 0.120031984974761 
789	 0.120360382089558 
790	 0.120426004716561 
791	 0.120900930623643 
792	 0.121161606216165 
793	 0.121485930276253 
794	 0.122000766344125 
795	 0.122377260625723 
796	 0.122773643608969 
797	 0.1230859057691 
798	 0.123261444462207 
799	 0.123563222330702 
800	 0.123990170903779 
801	 0.124325760278621 
802	 0.124301978489991 
803	 0.124180098661948 
804	 0.124158019198574 
805	 0.124165659135262 
806	 0.123885533874883 
807	 0.123802980201938 
808	 0.124050734701163 
809	 0.124465192344639 
810	 0.124258205148419 
811	 0.124324674151265 
812	 0.124701654563437 
813	 0.124966801840821 
814	 0.124636980150855 
815	 0.124166766539883 
816	 0.123729011017758 
817	 0.12307360673065 
818	 0.121393210454112 
819	 0.120144776578183 
820	 0.119521350487284 
821	 0.118209853898521 
822	 0.116961910492004 
823	 0.11562955894444 
824	 0.113958734108835 
825	 0.111638430739243 
826	 0.109751269336903 
827	 0.108098884908925 
828	 0.106084252025962 
829	 0.103354860986746 
830	 0.1010268366777 
831	 9.93167167720005E-02 
832	 9.77884940698684E-02 
833	 9.63800818253941E-02 
834	 9.49159067986321E-02 
835	 9.35391246581891E-02 
836	 9.27827837702155E-02 
837	 9.21193023306536E-02 
838	 9.12846534631885E-02 
839	 9.03546916187243E-02 
840	 9.01181687873904E-02 
841	 8.96502674791103E-02 
842	 8.90646303109753E-02 
843	 8.86959204578316E-02 
844	 8.79780166812807E-02 
845	 0.087553028156526 
846	 8.73068094734654E-02 
847	 8.66569805016484E-02 
848	 0.086008615081759 
849	 8.55287746236134E-02 
850	 8.52233522423423E-02 
851	 8.49223138973976E-02 
852	 8.46794939424986E-02 
853	 8.42503338238762E-02 
854	 8.36597928797778E-02 
855	 8.35958692386235E-02 
856	 8.29495780628876E-02 
857	 8.22789185691195E-02 
858	 8.21905221977854E-02 
859	 0.081773416259253 
860	 8.13964905620448E-02 
861	 8.11777295806796E-02 
862	 8.10514966513308E-02 
863	 8.07373586330174E-02 
864	 0.080356559726757 
865	 8.00321204287413E-02 
866	 7.97965791064389E-02 
867	 7.90108935632468E-02 
868	 7.84730427583065E-02 
869	 7.83109279806931E-02 
870	 7.75808491752788E-02 
871	 7.68286729336675E-02 
872	 7.65035475342309E-02 
873	 7.65497357166252E-02 
874	 7.58446349355416E-02 
875	 7.53558330753898E-02 
876	 7.49564336772002E-02 
877	 7.43678755490855E-02 
878	 7.40623467142146E-02 
879	 7.36570196073637E-02 
880	 7.30727969088611E-02 
881	 7.24298165256147E-02 
882	 7.19971511742592E-02 
883	 7.13379299297525E-02 
884	 7.05671232221666E-02 
885	 7.01553415201034E-02 
886	 6.95518674102161E-02 
887	 6.91128408619428E-02 
888	 0.068901800709775 
889	 6.85715207548653E-02 
890	 6.85085747035114E-02 
891	 6.81213687462631E-02 
892	 6.74114614888359E-02 
893	 6.79107046289638E-02 
894	 6.80196616475698E-02 
895	 6.78811906683812E-02 
896	 6.79861827167189E-02 
897	 6.79939116777579E-02 
898	 6.79012990154373E-02 
899	 6.69725968881391E-02 
900	 6.52543277046323E-02 
901	 6.57231016344704E-02 
902	 6.57874775342745E-02 
903	 6.50296391905905E-02 
904	 6.39211445059348E-02 
905	 6.26248765597601E-02 
906	 6.22200335736449E-02 
907	 6.27581145066688E-02 
908	 6.31254541782939E-02 
909	 6.08005955493127E-02 
910	 0.060261950501102 
911	 0.061204220343647 
912	 5.89794233997308E-02 
913	 5.81778851536546E-02 
914	 5.71320321491502E-02 
915	 5.53185562635581E-02 
916	 5.42939792968653E-02 
917	 5.39539293209357E-02 
918	 5.25828479849494E-02 
919	 5.04288940847474E-02 
920	 5.02298200787081E-02 
921	 5.03068581333684E-02 
922	 4.94087211360441E-02 
923	 4.76537534519212E-02 
924	 4.80064768687542E-02 
925	 4.63848212577231E-02 
926	 4.55022954238761E-02 
927	 4.78008206118122E-02 
928	 4.39517097297004E-02 
929	 4.31267430650708E-02 
930	 4.46466012432672E-02 
931	 4.22892052628957E-02 
932	 4.76623546307149E-02 
933	 4.28222053450145E-02 
934	 3.44009581253542E-02 
935	 3.98032653400318E-02 
936	 4.54941571594512E-02 
937	 4.52419976056783E-02 
938	 4.21498509289658E-02 
939	 4.03807405343439E-02 
940	 3.68440593788377E-02 
941	 3.75823083867479E-02 
942	 3.78515924058734E-02 
943	 3.07512897208165E-02 
944	 3.36463428902214E-02 
945	 3.90311672569442E-02 
946	 3.86997837390085E-02 
947	 3.00567796149564E-02 
948	 3.21893438269069E-02 
949	 3.19991721248422E-02 
950	 3.04564137107591E-02 
951	 3.55394269611247E-02 
952	 3.67570697190774E-02 
953	 3.49290192289529E-02 
954	 3.28015277305188E-02 
955	 3.26371226832658E-02 
956	 0.029602000375567 
957	 2.70406961265938E-02 
958	 2.57023425410887E-02 
959	 2.47224590029775E-02 
960	 2.88326308568287E-02 
961	 3.01543316635511E-02 
962	 2.75732461574264E-02 
963	 2.49199385269783E-02 
964	 2.16735486423104E-02 
965	 2.25858362695922E-02 
966	 2.67672697964381E-02 
967	 2.95056162411873E-02 
968	 0.02644074158733 
969	 0.023041058021459 
970	 2.23290055686852E-02 
971	 2.39862379312378E-02 
972	 2.46503675976127E-02 
973	 2.56887593444522E-02 
974	 2.67469957413833E-02 
975	 2.57761676905335E-02 
976	 2.51675664548129E-02 
977	 2.38884339853997E-02 
978	 2.31412403727547E-02 
979	 2.50356848774706E-02 
980	 2.26058903688975E-02 
981	 0.023284712812948 
982	 2.54389747631907E-02 
983	 2.15969600166967E-02 
984	 2.16792519350226E-02 
985	 2.20657461382329E-02 
986	 2.16206550744241E-02 
987	 2.19710237541948E-02 
988	 2.30076094845497E-02 
989	 2.28973619860042E-02 
990	 2.26600353097567E-02 
991	 2.43970211024611E-02 
992	 2.21342452295197E-02 
993	 2.19644239411557E-02 
994	 2.34265754202419E-02 
995	 2.20726112815154E-02 
996	 2.29207117348249E-02 
997	 2.31380896993868E-02 
998	 2.21987702230081E-02 
999	 2.14280721810917E-02 
1000	 2.16108094450609E-02 
1001	 2.25953157510728E-02 
1002	 2.27007128384116E-02 
1003	 2.27601978789257E-02 
1004	 2.30743410445385E-02 
1005	 2.30920870306445E-02 
1006	 2.27589280894783E-02 
1007	 2.27220112296277E-02 
1008	 2.23291726139216E-02 
1009	 0.0221065373335 
1010	 2.19117074724961E-02 
1011	 2.14731040637188E-02 
1012	 0.021625341818154 
1013	 2.18238070148026E-02 
1014	 2.20115118941628E-02 
1015	 2.24976724623508E-02 
1016	 0.022719923534428 
1017	 2.28463024310704E-02 
1018	 2.28042025174522E-02 
1019	 0.022584449296502 
1020	 0.022382094326777 
1021	 2.16744581159787E-02 
1022	 2.18340705413209E-02 
1023	 0.021503054848698 
1024	 2.15731100715345E-02 
1025	 2.29600947375902E-02 
1026	 2.32443538918915E-02 
1027	 2.37788737888519E-02 
1028	 2.50128456173164E-02 
1029	 2.51456470426855E-02 
1030	 0.02439005189515 
1031	 2.42447164212482E-02 
1032	 2.37730997881186E-02 
1033	 2.38405759438519E-02 
1034	 2.42621348744182E-02 
1035	 2.45767352357769E-02 
1036	 2.54225774790392E-02 
1037	 0.025622219661634 
1038	 2.52918483643129E-02 
1039	 2.52806203988341E-02 
1040	 2.51781355624317E-02 
1041	 2.54062640012862E-02 
1042	 2.58251853983993E-02 
1043	 0.026903730006275 
1044	 2.73801272001309E-02 
1045	 2.76726462356999E-02 
1046	 2.80530275846724E-02 
1047	 2.85040789455448E-02 
1048	 2.86067112918986E-02 
1049	 2.82026753319062E-02 
1050	 2.84473104844028E-02 
1051	 2.90365862922328E-02 
1052	 2.91953397170539E-02 
1053	 2.93907536380955E-02 
1054	 2.98307252373828E-02 
1055	 3.01683216654431E-02 
1056	 3.02645105808081E-02 
1057	 3.03795036964433E-02 
1058	 3.09373593430501E-02 
1059	 3.10604122860979E-02 
1060	 0.030527258683988 
1061	 3.05998975470446E-02 
1062	 3.09748833641975E-02 
1063	 3.13119624166558E-02 
1064	 3.17144792392221E-02 
1065	 3.21755550462773E-02 
1066	 3.29768514695711E-02 
1067	 3.33569873144219E-02 
1068	 3.37015237172239E-02 
1069	 3.37806391304103E-02 
1070	 3.33175600462426E-02 
1071	 3.31093911886207E-02 
1072	 3.29544782845879E-02 
1073	 0.032693960201804 
1074	 3.24091924914239E-02 
1075	 3.21362878298988E-02 
1076	 3.20170560170034E-02 
1077	 3.18349665200679E-02 
1078	 3.17184134276169E-02 
1079	 3.19374746954775E-02 
1080	 0.031740491614166 
1081	 3.11725944296461E-02 
1082	 3.09521911519542E-02 
1083	 3.06014951969667E-02 
1084	 3.05364115080355E-02 
1085	 0.031268440793915 
1086	 0.031131707498723 
1087	 3.02678822169258E-02 
1088	 3.00219786076866E-02 
1089	 2.95509306682568E-02 
1090	 2.91084404393486E-02 
1091	 2.92430094595643E-02 
1092	 3.05139074337261E-02 
1093	 3.06152733007135E-02 
1094	 3.04528654304778E-02 
1095	 2.99149518988942E-02 
1096	 2.84895468367212E-02 
1097	 2.78804195192591E-02 
1098	 2.72048876486426E-02 
1099	 2.68911778706318E-02 
1100	 2.70302621321254E-02 
1101	 2.73177185271729E-02 
1102	 2.86428925166798E-02 
1103	 2.87904462098591E-02 
1104	 2.86622837411724E-02 
1105	 2.81945051947628E-02 
1106	 2.64867010342152E-02 
1107	 2.56379319141318E-02 
1108	 2.64447532981359E-02 
1109	 2.73238272852178E-02 
1110	 2.78536190439834E-02 
1111	 2.86015555542807E-02 
1112	 2.91917188676329E-02 
1113	 2.98175606067321E-02 
1114	 2.95743107698691E-02 
1115	 2.77543315011864E-02 
1116	 2.81543085828941E-02 
1117	 0.029575652163919 
1118	 2.90013083060102E-02 
1119	 3.01171676792695E-02 
1120	 3.13812811284206E-02 
1121	 2.56944659496373E-02 
1122	 2.50670778612842E-02 
1123	 3.29913864328117E-02 
1124	 4.07363344926879E-02 
1125	 5.23654393358126E-02 
1126	 5.25108271645529E-02 
1127	 5.02873910280406E-02 
1128	 0.049789885114787 
1129	 4.38358588176204E-02 
1130	 3.13443728854324E-02 
1131	 0.02839933664195 
1132	 0.024455528938672 
1133	 2.44235942149059E-02 
1134	 2.98454742558495E-02 
1135	 3.13543118763073E-02 
1136	 3.52022532791584E-02 
1137	 0.03554619928319 
1138	 3.34476901191497E-02 
1139	 2.94909212038725E-02 
1140	 0.030288390529237 
1141	 2.86377833088212E-02 
1142	 2.70098109613156E-02 
1143	 2.99660428306696E-02 
1144	 2.95526617586145E-02 
1145	 2.86503669875913E-02 
1146	 3.33641833207344E-02 
1147	 3.31948055979655E-02 
1148	 2.77662629719468E-02 
1149	 2.77836740170018E-02 
1150	 2.67992142840192E-02 
1151	 2.34809727000218E-02 
1152	 2.39965029127067E-02 
1153	 2.78583401250361E-02 
1154	 2.70871603085905E-02 
1155	 2.45974854682784E-02 
1156	 2.55487848696143E-02 
1157	 2.67108270297985E-02 
1158	 2.59802541125335E-02 
1159	 2.62559403675541E-02 
1160	 0.026753609571179 
1161	 2.48918573601213E-02 
1162	 2.34919438348886E-02 
1163	 2.45471731900766E-02 
1164	 2.50468404523379E-02 
1165	 2.47218868579212E-02 
1166	 2.46869501130671E-02 
1167	 2.31647798880386E-02 
1168	 2.16445954052745E-02 
1169	 2.16300853854485E-02 
1170	 2.21040020130765E-02 
1171	 2.23884205396261E-02 
1172	 2.36551593155095E-02 
1173	 2.37187592247921E-02 
1174	 2.29517902004531E-02 
1175	 2.25081956197774E-02 
1176	 2.25489844848135E-02 
1177	 2.27633817550075E-02 
1178	 2.27788501235843E-02 
1179	 2.24774737981452E-02 
1180	 2.22422133140606E-02 
1181	 2.23535456336219E-02 
1182	 0.02303960789743 
1183	 2.34604737160181E-02 
1184	 2.31345377725261E-02 
1185	 2.27398020494068E-02 
1186	 2.27681702177806E-02 
1187	 2.32548420140266E-02 
1188	 2.35410132576917E-02 
1189	 2.30803668912347E-02 
1190	 2.20579574627125E-02 
1191	 2.13501353841177E-02 
1192	 2.12747189126166E-02 
1193	 2.17546834921374E-02 
1194	 2.25260827887071E-02 
1195	 2.29317667679991E-02 
1196	 2.28131640016359E-02 
1197	 2.22607468120675E-02 
1198	 2.19555850619513E-02 
1199	 2.23626632708402E-02 
1200	 2.26140302018344E-02 
1201	 2.21090797908652E-02 
1202	 2.14788556149804E-02 
1203	 2.12008327004701E-02 
1204	 2.12498672057254E-02 
1205	 0.021424204869923 
1206	 2.14904784298428E-02 
1207	 2.16496084205914E-02 
1208	 2.17213778249987E-02 
1209	 0.02144034828207 
1210	 2.13524921619178E-02 
1211	 2.16381451988552E-02 
1212	 2.14492116183367E-02 
1213	 2.08948447491399E-02 
1214	 2.09180339695576E-02 
1215	 2.15101876637055E-02 
1216	 2.15213236681404E-02 
1217	 0.020923129043341 
1218	 2.11338169226406E-02 
1219	 2.12313376826238E-02 
1220	 2.09569068302861E-02 
1221	 2.12162702670522E-02 
1222	 0.021379265057989 
1223	 2.10445173709683E-02 
1224	 2.05885739914705E-02 
1225	 0.020292104021609 
1226	 2.03074794490782E-02 
1227	 2.02678777298749E-02 
1228	 1.99982072896143E-02 
1229	 1.98878900300571E-02 
1230	 1.99289043513165E-02 
1231	 2.00446850719493E-02 
1232	 2.01683808633109E-02 
1233	 2.01189240296994E-02 
1234	 2.01487240456749E-02 
1235	 2.01120318392426E-02 
1236	 1.99303036278234E-02 
1237	 1.99089725701505E-02 
1238	 2.00020128071601E-02 
1239	 2.00573950443146E-02 
1240	 1.99037625371417E-02 
1241	 1.99055077252985E-02 
1242	 1.98917619337065E-02 
1243	 1.97160480346803E-02 
1244	 1.99389479251476E-02 
1245	 2.00975657024611E-02 
1246	 1.98402778334161E-02 
1247	 0.019740382014145 
1248	 1.97085423041329E-02 
1249	 1.96146883016105E-02 
1250	 1.96192787450355E-02 
1251	 1.97475094553644E-02 
1252	 2.00463616002492E-02 
1253	 2.01362558680708E-02 
1254	 1.99707675651916E-02 
1255	 2.00283158728794E-02 
1256	 2.01123712273661E-02 
1257	 1.98121916187254E-02 
1258	 1.97494437613958E-02 
1259	 2.01195168415143E-02 
1260	 2.03941205492808E-02 
1261	 2.04447615350776E-02 
1262	 2.03562964234237E-02 
1263	 2.03619535420562E-02 
1264	 2.06794338673824E-02 
1265	 2.01325725654658E-02 
1266	 2.01327420742978E-02 
1267	 2.07329736294926E-02 
1268	 2.03726372272275E-02 
1269	 1.99648472161348E-02 
1270	 2.01820735063483E-02 
1271	 2.03382096565445E-02 
1272	 2.00436983232595E-02 
1273	 1.97369607719128E-02 
1274	 1.99032718767664E-02 
1275	 2.02667011659235E-02 
1276	 2.05235073555291E-02 
1277	 2.02981495649553E-02 
1278	 1.99264460634174E-02 
1279	 1.99028250116417E-02 
1280	 1.97488790009679E-02 
1281	 1.95940742919568E-02 
1282	 2.00953459338819E-02 
1283	 2.01949458412248E-02 
1284	 1.94897161464431E-02 
1285	 1.92849461521861E-02 
1286	 0.01946484334377 
1287	 1.95681035266666E-02 
1288	 1.97832456993539E-02 
1289	 2.01189393532723E-02 
1290	 2.07948348867696E-02 
1291	 2.10156700306645E-02 
1292	 2.12119897633259E-02 
1293	 2.13665432796109E-02 
1294	 2.11706397462357E-02 
1295	 2.08136064160085E-02 
1296	 2.03022970581711E-02 
1297	 1.99166415811271E-02 
1298	 2.06320757090539E-02 
1299	 2.11507033855067E-02 
1300	 0.020366526709768 
1301	 1.96511471899568E-02 
1302	 1.98821583410383E-02 
1303	 2.04571426302342E-02 
1304	 2.12085518986539E-02 
1305	 2.17101955431362E-02 
1306	 2.22674957110364E-02 
1307	 2.18522640077028E-02 
1308	 2.14116790689084E-02 
1309	 2.12399357869985E-02 
1310	 2.16396250383018E-02 
1311	 2.13492042100662E-02 
1312	 2.10796998046355E-02 
1313	 2.23893044900185E-02 
1314	 2.26254572077982E-02 
1315	 2.07688998063546E-02 
1316	 2.05952746597611E-02 
1317	 2.20067158063756E-02 
1318	 2.22864158692148E-02 
1319	 2.25171526575207E-02 
1320	 2.27072626085485E-02 
1321	 2.21156850708545E-02 
1322	 2.14875582069575E-02 
1323	 2.29636508961992E-02 
1324	 2.39115256013985E-02 
1325	 2.33516988274851E-02 
1326	 2.36319515167967E-02 
1327	 2.46170355419904E-02 
1328	 2.52151482010737E-02 
1329	 2.49994240178197E-02 
1330	 2.44299089386814E-02 
1331	 2.29406578170969E-02 
1332	 2.26498681806525E-02 
1333	 2.46389498526832E-02 
1334	 2.50723689507844E-02 
1335	 2.63501375012773E-02 
1336	 2.68988759707671E-02 
1337	 2.70983669543634E-02 
1338	 2.86016990328728E-02 
1339	 2.90262516729144E-02 
1340	 2.65225798550471E-02 
1341	 2.53509785541135E-02 
1342	 2.42738207676022E-02 
1343	 2.45459386234164E-02 
1344	 2.81124247115979E-02 
1345	 2.81914547192887E-02 
1346	 2.32666972390793E-02 
1347	 2.50711790962954E-02 
1348	 3.61772302530958E-02 
1349	 3.84581836879469E-02 
1350	 3.72265721903863E-02 
1351	 4.94025014690179E-02 
1352	 4.89308225186202E-02 
1353	 4.16640541581209E-02 
1354	 7.22827868672287E-02 
1355	 0.148750480348147 
1356	-6.94274959751078E-03 
1357	-0.148413821219193 
1358	-0.170738775348619 
1359	-0.26612394964014 
1360	-0.223758466843604 
1361	-0.152874566353576 
1362	-0.213350451558538 
1363	-1.88222316327828E-02 
1364	-4.97679299401052E-03 
1365	-0.131289588506629 
1366	 6.36017267158454E-02 
1367	 3.39070792578387E-02 
1368	-0.136814615896864 
1369	-0.611241928629402 
1370	-0.460273235379534 
1371	-0.214199049848166 
1372	-0.289805943985093 
1373	-0.10639386741381 
1374	 8.00853418253436E-02 
1375	-0.123024233099725 
1376	-0.260442265986181 
1377	-0.110664204593777 
1378	 2.5400781360002E-03 
1379	-0.239990191347807 
1380	-0.231585950922414 
1381	 1.80389432070547 
1382	 2.00497495981493 
1383	-0.560011542210897 
1384	-0.78731910670444 
1385	-0.741248198038526 
1386	-0.893604915746734 
1387	-0.394435234650841 
1388	-0.239252495743642 
1389	-0.829790172830731 
1390	-1.14593857830751 
1391	-0.66258550228698 
1392	-0.409562845926114 
1393	 4.76733618409914E-02 
1394	-7.18826519657285E-02 
1395	-0.541552078015527 
1396	-0.67276936718411 
1397	-0.240029964097367 
1398	-0.315836964364413 
1399	-0.166974322116803 
1400	 0.130777241169088 
1401	 7.12605791672988E-02 
1402	-0.144420119798908 
1403	-0.187923220700879 
1404	 0.168633719629618 
1405	 0.449766254681729 
1406	 0.952428218895221 
1407	 0.194005059297663 
1408	-0.298549874447339 
1409	-0.30139918322972 
1410	-0.290239760641158 
1411	-0.42769814264979 
1412	-0.579449691351496 
1413	-0.498420221678941 
1414	-0.732882440979242 
1415	-0.70356159579606 
1416	-5.56115106266752E-02 
1417	 0.215473365006285 
1418	-4.38920149570136E-03 
1419	-9.11556044029284E-02 
1420	-8.44226069527301E-02 
1421	-4.99851536348245E-02 
1422	-0.102062072402594 
1423	-0.111655302781088 
1424	-5.94749931686285E-02 
1425	-0.036507407445329 
1426	-6.55934223322266E-02 
1427	-5.05713491135916E-02 
1428	 2.22827689089387E-02 
1429	 8.17232392259491E-02 
1430	 0.165304856090515 
1431	 0.1767885054024 
1432	 0.137575790743911 
1433	 0.118955458836032 
1434	 5.89885623151609E-02 
1435	 0.017015805462755 
1436	-3.90897639513312E-02 
1437	-1.14476595780323E-02 
1438	 2.58880251905599E-02 
1439	 0.041634525012583 
1440	 0.047630306769967 
1441	 0.035965033935282 
1442	 3.58184827512721E-02 
1443	 2.12998005025905E-02 
1444	-1.66170020451401E-02 
1445	-1.60860168275126E-02 
1446	 8.44956581208057E-03 
1447	 1.87559884421898E-02 
1448	 4.12268377963442E-02 
1449	 6.63414864604924E-02 
1450	 5.84749304635111E-02 
1451	 4.20519270244354E-02 
1452	 3.72020337456801E-02 
1453	 3.93689859355979E-02 
1454	 3.95682497056169E-02 
1455	 3.70096091081611E-02 
1456	 3.61377807296341E-02 
1457	 4.08352149686505E-02 
1458	 3.72945264612487E-02 
1459	 2.82003859295484E-02 
1460	 2.54692741210535E-02 
1461	 2.04133048434558E-02 
1462	 1.95884776794321E-02 
1463	 0.025695334383934 
1464	 2.65036089085837E-02 
1465	 2.59866344714425E-02 
1466	 2.57027629181196E-02 
1467	 2.17085299602068E-02 
1468	 2.17845740960703E-02 
1469	 2.58850004840318E-02 
1470	 2.78600121402421E-02 
1471	 2.95737537038376E-02 
1472	 2.97583047591817E-02 
1473	 0.02877034519315 
1474	 2.98173401541719E-02 
1475	 3.39871674373947E-02 
1476	 3.18001708884126E-02 
1477	 2.28724578752238E-02 
1478	 0.024099782938141 
1479	 2.74732506043136E-02 
1480	 2.89452445572129E-02 
1481	 3.67806318972319E-02 
1482	 3.81026669581178E-02 
1483	 3.40152737309336E-02 
1484	 3.25841004752764E-02 
1485	 3.24903281530902E-02 
1486	 3.08138892975208E-02 
1487	 2.83109478050454E-02 
1488	 2.67254746632619E-02 
1489	 2.43787620730899E-02 
1490	 2.35886494027441E-02 
1491	 0.023712459811806 
1492	 2.40150208123955E-02 
1493	 2.55610665221978E-02 
1494	 2.53345872571306E-02 
1495	 2.39005338968624E-02 
1496	 2.37119600404142E-02 
1497	 2.41354007276012E-02 
1498	 0.023410791064724 
1499	 2.18881584334607E-02 
1500	 2.18664702198759E-02 
1501	 2.21525344396458E-02 
1502	 2.17117633432002E-02 
1503	 2.19341082488606E-02 
1504	 2.22719330076565E-02 
1505	 2.21527372168867E-02 
1506	 2.13467907022443E-02 
1507	 2.11625192809228E-02 
1508	 2.15903682782529E-02 
1509	 2.17127920597289E-02 
1510	 2.14850302471985E-02 
1511	 2.15134454802659E-02 
1512	 2.18469435959037E-02 
1513	 2.12276831457371E-02 
1514	 2.05022400292997E-02 
1515	 2.10348477484183E-02 
1516	 2.13464129438258E-02 
1517	 2.12865947978143E-02 
1518	 2.13613389220064E-02 
1519	 2.06941926177062E-02 
1520	 2.01191081845454E-02 
1521	 2.00127128740721E-02 
1522	 1.98860604651645E-02 
1523	 2.00279426847798E-02 
1524	 1.99154923676897E-02 
1525	 1.95772703521509E-02 
1526	 1.96025232630795E-02 
1527	 1.97309220348803E-02 
1528	 1.97205287050369E-02 
1529	 1.98303190875269E-02 
1530	 2.00920311155156E-02 
1531	 2.02229044881779E-02 
1532	 2.00300288321884E-02 
1533	 1.95916025476717E-02 
1534	 1.94092798972667E-02 
1535	 0.019459384339327 
1536	 1.93244171272503E-02 
1537	 1.95158300066136E-02 
1538	 1.99350313022567E-02 
1539	 1.97157266492562E-02 
1540	 1.95092530378137E-02 
1541	 1.96586881065767E-02 
1542	 1.91138993882945E-02 
1543	 1.83661704121577E-02 
1544	 1.86381524072327E-02 
1545	 1.89214598455397E-02 
1546	 1.89041579002792E-02 
1547	 1.93966720627723E-02 
1548	 1.93419114336746E-02 
1549	 1.91232670798764E-02 
1550	 1.96614282960167E-02 
1551	 0.019451122524746 
1552	 1.91703703134786E-02 
1553	 1.94105816822058E-02 
1554	 1.87497767927835E-02 
1555	 0.018479736124346 
1556	 1.89672294405981E-02 
1557	 1.90891795716139E-02 
1558	 1.92007379236949E-02 
1559	 1.89858552125269E-02 
1560	 0.018613196864556 
1561	 1.86056347097269E-02 
1562	 1.85032478013774E-02 
1563	 1.85512861929092E-02 
1564	 1.89163983950457E-02 
1565	 1.90752637701732E-02 
1566	 1.90679038932544E-02 
1567	 1.94669494411916E-02 
1568	 0.019643760206691 
1569	 1.90893689195823E-02 
1570	 1.89627194738616E-02 
1571	 1.89498084372018E-02 
1572	 1.86234961566623E-02 
1573	 1.86722754666581E-02 
1574	 1.86428603257755E-02 
1575	 1.85522346818158E-02 
1576	 0.018489905845234 
1577	 1.83323722267986E-02 
1578	 1.86927741674394E-02 
1579	 1.91277875248626E-02 
1580	 0.0193206885472 
1581	 1.95904275048551E-02 
1582	 1.95796762036981E-02 
1583	 1.90015097377877E-02 
1584	 1.86891960278113E-02 
1585	 1.88045091092227E-02 
1586	 1.83983109192407E-02 
1587	 1.83999405862349E-02 
1588	 1.87808132619072E-02 
1589	 0.018685534028459 
1590	 1.90015300096325E-02 
1591	 1.93970034325162E-02 
1592	 0.019133264679682 
1593	 1.87273829112216E-02 
1594	 1.86355325899128E-02 
1595	 1.85878065847333E-02 
1596	 1.87767984533411E-02 
1597	 0.019503132614927 
1598	 1.97701381706752E-02 
1599	 1.92551785023625E-02 
1600	 1.89578930767024E-02 
1601	 1.89828067799822E-02 
1602	 1.88187287940307E-02 
1603	 1.87042781365985E-02 
1604	 1.88552486148854E-02 
1605	 1.88111250118738E-02 
1606	 1.88528941590322E-02 
1607	 1.93569551909667E-02 
1608	 1.93872726122602E-02 
1609	 1.88540208725224E-02 
1610	 1.85880405986395E-02 
1611	 0.018310358783697 
1612	 1.79165912977214E-02 
1613	 1.80486122637824E-02 
1614	 1.82701759243703E-02 
1615	 0.018248455482951 
1616	 0.018545651848861 
1617	 1.89116288471403E-02 
1618	 1.88698861815993E-02 
1619	 1.87329135383911E-02 
1620	 1.88164855300226E-02 
1621	 1.88692248129476E-02 
1622	 0.01877600361392 
1623	 1.88122935026269E-02 
1624	 0.018913978533759 
1625	 1.90030059108331E-02 
1626	 1.87434415738009E-02 
1627	 1.84026716888989E-02 
1628	 1.85673303086663E-02 
1629	 1.85478469730558E-02 
1630	 1.85356491968405E-02 
1631	 1.87527879981825E-02 
1632	 1.85992703807678E-02 
1633	 1.84248104432362E-02 
1634	 1.83972934909315E-02 
1635	 1.85777412071454E-02 
1636	 1.88279780343156E-02 
1637	 1.89670614238226E-02 
1638	 1.93768600291867E-02 
1639	 1.93883089485447E-02 
1640	 1.93171013744422E-02 
1641	 1.94592944824356E-02 
1642	 0.018821059916124 
1643	 1.85771474944835E-02 
1644	 1.89223703734313E-02 
1645	 1.86708161269558E-02 
1646	 1.88641082607204E-02 
1647	 1.94262721886208E-02 
1648	 1.88690577215439E-02 
1649	 1.82173369565977E-02 
1650	 1.86166185231753E-02 
1651	 1.90727422690627E-02 
1652	 1.92094909358848E-02 
1653	 1.91221463665954E-02 
1654	 1.90875842362083E-02 
1655	 1.84987447689289E-02 
1656	 1.82301887391163E-02 
1657	 1.83655134167611E-02 
1658	 1.85923822430142E-02 
1659	 1.90126523559717E-02 
1660	 0.01882536165389 
1661	 1.86090655984457E-02 
1662	 1.85066797175293E-02 
1663	 1.74194343928729E-02 
1664	 1.75400786308039E-02 
1665	 1.90746107929446E-02 
1666	 1.92600275003503E-02 
1667	 1.92054453253348E-02 
1668	 1.92678027086509E-02 
1669	 0.018628127854603 
1670	 1.87757269911456E-02 
1671	 0.018988401469561 
1672	 1.83133848426964E-02 
1673	 1.79856676508761E-02 
1674	 1.87063684339645E-02 
1675	 1.94626364844546E-02 
1676	 1.98204455525663E-02 
1677	 1.97784728368146E-02 
1678	 1.92339555879513E-02 
1679	 1.88921033193978E-02 
1680	 1.92394301637559E-02 
1681	 1.96040784033155E-02 
1682	 1.95259051447925E-02 
1683	 1.92482925667947E-02 
1684	 1.89536826633411E-02 
1685	 1.89155448079223E-02 
1686	 1.92102087497666E-02 
1687	 1.94993342081617E-02 
1688	 1.90496144704551E-02 
1689	 1.88190043764924E-02 
1690	 1.98044171883732E-02 
1691	 2.00808237751875E-02 
1692	 1.96096845644463E-02 
1693	 2.00071834375292E-02 
1694	 1.97156566818479E-02 
1695	 1.86011784050227E-02 
1696	 1.90775503932423E-02 
1697	 1.98859145136521E-02 
1698	 1.96352156806414E-02 
1699	 1.90915113536845E-02 
1700	 1.88446901732444E-02 
1701	 1.89152826486625E-02 
1702	 1.84856107482511E-02 
1703	 1.85732870265987E-02 
1704	 1.94013963123557E-02 
1705	 1.92802778557216E-02 
1706	 1.88012137368923E-02 
1707	 1.89706598607781E-02 
1708	 1.92257992248579E-02 
1709	 1.89660325170553E-02 
1710	 0.018650871652391 
1711	 1.89419346826467E-02 
1712	 0.019114506474801 
1713	 1.98688800600545E-02 
1714	 1.98163014810619E-02 
1715	 1.93301794674698E-02 
1716	 1.86802376839897E-02 
1717	 1.80570149655218E-02 
1718	 1.82885121928411E-02 
1719	 1.91834912331139E-02 
1720	 1.99492291259886E-02 
1721	 2.04531198086378E-02 
1722	 2.08733156219193E-02 
1723	 2.09330329791191E-02 
1724	 2.05062786304428E-02 
1725	 2.04013649617882E-02 
1726	 1.98957817852151E-02 
1727	 1.95534964675863E-02 
1728	 2.03689715029103E-02 
1729	 2.05936756789579E-02 
1730	 2.00547252326897E-02 
1731	 2.02028020764381E-02 
1732	 2.02341768944911E-02 
1733	 1.89788680029273E-02 
1734	 1.94369778742889E-02 
1735	 2.09599244080252E-02 
1736	 2.01533637180245E-02 
1737	 2.02047691023187E-02 
1738	 2.01549811392112E-02 
1739	 1.83644432260777E-02 
1740	 1.97356095610021E-02 
1741	 2.14848281087981E-02 
1742	 2.04486580729847E-02 
1743	 2.14911809416628E-02 
1744	 2.24023324849871E-02 
1745	 2.02615400654345E-02 
1746	 2.19160236766555E-02 
1747	 2.27181810692865E-02 
1748	 2.18684109755912E-02 
1749	 2.14624621992113E-02 
1750	 2.15241832457501E-02 
1751	 2.14580111234095E-02 
1752	 2.09282898279171E-02 
1753	 2.06270436286487E-02 
1754	 2.09234685353002E-02 
1755	 2.08116807518018E-02 
1756	 1.97369169117979E-02 
1757	 0.019909682198164 
1758	 2.09612846516019E-02 
1759	 2.15655954364829E-02 
1760	 2.11446421590696E-02 
1761	 0.020805616457965 
1762	 2.04367471670392E-02 
1763	 1.99300221418908E-02 
1764	 2.03096994375868E-02 
1765	 2.14010883144256E-02 
1766	 2.12933936239218E-02 
1767	 2.09882375656428E-02 
1768	 0.021692186131343 
1769	 2.24082699022958E-02 
1770	 2.40574602309194E-02 
1771	 2.46583330290289E-02 
1772	 2.46217912255936E-02 
1773	 0.024972766408462 
1774	 2.31432198354936E-02 
1775	 2.34303926043477E-02 
1776	 2.32741346335405E-02 
1777	 2.27269777168391E-02 
1778	 2.38302053486639E-02 
1779	 0.026195502169403 
1780	 2.58576098938013E-02 
1781	 2.50638674340996E-02 
1782	 2.51158464416218E-02 
1783	 2.36023762747774E-02 
1784	 2.21188523234159E-02 
1785	 2.06852946276899E-02 
1786	 2.04989609665225E-02 
1787	 2.06677422819964E-02 
1788	 2.10901159640101E-02 
1789	 2.45373579020045E-02 
1790	 2.52330290503906E-02 
1791	 2.04901732437742E-02 
1792	 0.015767542212833 
1793	 1.91928187797894E-02 
1794	 2.17888926414343E-02 
1795	 2.05909102135134E-02 
1796	 0.021115222781787 
1797	 0.033499092475244 
1798	 5.03468983434124E-02 
1799	 4.95332040762897E-02 
1800	 1.3018258294916E-03 
1801	-1.63665861503038E-02 
1802	-0.036097163459868 
1803	-3.88003951854024E-02 
1804	 0.104514635126982 
1805	 0.130638963014185 
1806	 9.26601195001508E-03 
1807	-8.89166776659498E-02 
1808	-0.461556464486225 
1809	-0.491266645451078 
1810	 0.149886567761729 
1811	 0.350952104893116 
1812	 1.46286179061863 
1813	 2.79725604968199 
1814	-9.98390304624002 
1815	-6.707592512605 
1816	-0.85680625832874 
1817	-0.888887765597722 
1818	-0.310124365607654 
1819	-0.596553888558953 
1820	-0.839135167199553 
1821	-0.366164282473912 
1822	-0.252986241727025 
1823	 0.035448451970204 
1824	 0.143320302778936 
1825	-0.853206393334966 
1826	-1.1530470651641 
1827	-0.590118678200484 
1828	-0.540301166006157 
1829	-0.361249258312238 
1830	-0.238533943850967 
1831	 1.14395207657474 
1832	 0.72766150684486 
1833	-0.120328295369048 
1834	-0.461545735996502 
1835	-2.04503190417542 
1836	-2.85521468650832 
1837	 3.47847717852569 
1838	 0.511247427227446 
1839	-0.767026285745794 
1840	 143.675358066576 
1841	-7.92847668452341 
1842	-2.44947273419901 
1843	-3.05621938101005 
1844	-2.386127462935 
1845	-2.89174990343159 
1846	 2.68113894614461 
1847	 1.30174047446622 
1848	 0.425071792050236 
1849	-0.293303675439098 
1850	-0.950587014184682 
1851	-1.46257836644624 
1852	-1.31111441527539 
1853	-0.178873221781846 
1854	-0.122198972950099 
1855	-0.438450012438281 
1856	-0.203530146231201 
1857	-0.402713981348971 
1858	-0.195036148109668 
1859	-0.654737290007066 
1860	 7.19266124593656 
1861	-0.660159199589096 
1862	 0.731671786556634 
1863	-13.2904934130034 
1864	-6.99909197847663 
1865	 44.3173332980212 
1866	-25.3019714616037 
1867	-1.77588729120744 
1868	-1.6200830682772 
1869	-1.51407132006561 
1870	-0.662833355105974 
1871	-0.230132502473447 
1872	-1.93055547912445E-02 
1873	 0.171063678781325 
1874	-4.01316038340362E-02 
1875	-0.227000931463924 
1876	-0.321693165434502 
1877	-0.70074148132849 
1878	-0.898129793794882 
1879	-0.585024211157354 
1880	-0.70948431137801 
1881	-1.23072251667155 
1882	-0.954734461573972 
1883	-2.30063371360638 
1884	 6.98089045467377 
1885	-8.18935695701346 
1886	-7.88234822817901 
1887	 2.43146853125554 
1888	 0.11583025698456 
1889	 0.254488685540324 
1890	 3.35758569996245E-02 
1891	-0.187258715535631 
1892	-0.336455886872469 
1893	-0.273327707368047 
1894	-0.984230779272143 
1895	-0.645947265785141 
1896	 0.266099127039903 
1897	 0.115526351852922 
1898	-0.172182622798619 
1899	-0.358496688382688 
1900	-0.552218469953885 
1901	-1.48477039140934 
1902	-1.67635418995581 
1903	 2.47338988977705E-02 
1904	 0.772448577436925 
1905	 0.505939342379062 
1906	 20.7822804852282 
1907	 3.36038929745109 
1908	-5.7012012173483 
1909	 14.7982631945056 
1910	 2.25405873659293 
1911	-4.77276127324498 
1912	 2.37544124091339 
1913	-3.15865387562152E-04 
1914	-0.901448606091397 
1915	-2.02470028338915 
1916	-0.198094908984191 
1917	-1.66010641084778 
1918	-2.69028163463503E-02 
1919	-0.65480811742047 
1920	-1.32388815023907 
1921	-2.26687500440602 
1922	-3.35040174272175 
1923	-6.07547193971498 
1924	-24.9230919784559 
1925	-12.2035364754069 
1926	-12.5024048312509 
1927	 3.26736929796328 
1928	-13.8907183454575 
1929	-0.756401000850862 
1930	-0.608392164854396 
1931	-0.524711349550025 
1932	 0.24991542007537 
1933	 0.227743560954232 
1934	-6.19338359497155E-02 
1935	 6.48568819837948E-02 
1936	-0.523724422784765 
1937	-0.615661843455314 
1938	-0.470810107957684 
1939	-0.265882140368148 
1940	-1.37410102967434E-02 
1941	 9.49012620213518E-02 
1942	 0.119358460999322 
1943	 0.273969512702893 
1944	 0.316643838003292 
1945	 7.62097893953372E-03 
1946	-0.438671354223922 
1947	-0.611000879356212 
1948	-0.67813974528558 
1949	-0.654742705050081 
1950	-0.650111706255326 
1951	-0.781242009941681 
1952	-0.719658687457248 
1953	-0.721093755796293 
1954	-0.512108413388024 
1955	-0.268606119649127 
1956	-7.43858668378508E-02 
1957	-7.68194976869792E-02 
1958	-8.19292810582879E-02 
1959	-4.00770475392734E-02 
1960	-2.68289724258927E-02 
1961	-8.27382136174332E-03 
1962	-6.00290927597724E-03 
1963	-1.30183606049815E-02 
1964	-1.66505593140403E-02 
1965	-0.013742535256191 
1966	-3.89067393542394E-03 
1967	 1.08461842602272E-02 
1968	 2.33688399912838E-02 
1969	 3.19866305926259E-02 
1970	 3.33056352974857E-02 
1971	 0.030475382627759 
1972	 3.27964986085616E-02 
1973	 0.033756649527408 
1974	 3.17992255416098E-02 
1975	 3.28468841686358E-02 
1976	 2.69343761258167E-02 
1977	 0.021644172355953 
1978	 2.50677181335727E-02 
1979	 0.023248034417283 
1980	 0.020531894837754 
1981	 1.68390130754537E-02 
1982	 1.44095111790359E-02 
1983	 9.65903152096165E-03 
1984	 0.011967874158316 
1985	 1.69239091854161E-02 
1986	 1.71452010764095E-02 
1987	 1.92223984719877E-02 
1988	 1.83978421415803E-02 
1989	 1.49541066961313E-02 
1990	 1.78170603394089E-02 
1991	 2.17533301791839E-02 
1992	 2.16260692276265E-02 
1993	 2.02728241627054E-02 
1994	 2.05859169173059E-02 
1995	 1.97149976811585E-02 
1996	 1.71597056088094E-02 
1997	 1.74002477179831E-02 
1998	 2.35733000330085E-02 
1999	 2.86457414966099E-02 
2000	 3.29267785648104E-02 
2001	 3.78812195690777E-02 
2002	 3.69867418151772E-02 
2003	 3.17933985364674E-02 
2004	 1.78405731975151E-02 
2005	 4.23058740635205E-03 
2006	 9.16132728085192E-03 
2007	 1.43262392469905E-02 
2008	 1.79483280797637E-02 
2009	 2.22080927401748E-02 
2010	 2.72468528966734E-02 
2011	 2.93181234830709E-02 
2012	 3.01499108594896E-02 
2013	 3.09022543263929E-02 
2014	 3.01265458444322E-02 
2015	 3.55232918580886E-02 
2016	 3.75785699765904E-02 
2017	 4.02592760736501E-02 
2018	 3.83899242777603E-02 
2019	 3.48764269363142E-02 
2020	 3.27517027017318E-02 
2021	 0.024404725875149 
2022	 2.28557236897718E-02 
2023	 2.49582096183862E-02 
2024	 2.43226645247005E-02 
2025	 2.31437946950146E-02 
2026	 2.28315210004077E-02 
2027	 2.28299457173445E-02 
2028	 2.14682953421932E-02 
2029	 2.00928720693116E-02 
2030	 0.020038925602526 
2031	 2.08931486218486E-02 
2032	 2.18024142839808E-02 
2033	 2.32333637091346E-02 
2034	 0.025176453524384 
2035	 0.025448896564482 
2036	 2.41816667468823E-02 
2037	 2.17121957518981E-02 
2038	 2.02229668739867E-02 
2039	 1.96241341971911E-02 
2040	 1.94237165092232E-02 
2041	 1.97447276964483E-02 
2042	 2.16704285704588E-02 
2043	 2.26402920397112E-02 
2044	 2.41887802405311E-02 
2045	 2.43373336410576E-02 
2046	 2.32907470956676E-02 
2047	 2.33477303302082E-02 
2048	 2.16505691297414E-02 
2049	 2.06363938993598E-02 
2050	 2.01450218635584E-02 
2051	 1.90457107754658E-02 
2052	 0.019399967589131 
2053	 0.017732822119473 
2054	 1.53943069552656E-02 
2055	 1.45630614293541E-02 
2056	 1.38606374294808E-02 
2057	 1.22693481986271E-02 
2058	 1.29438810953861E-02 
2059	 1.50806810438746E-02 
2060	 1.72790502842714E-02 
2061	 2.10185119386413E-02 
2062	 0.023544217300398 
2063	 2.26886023841646E-02 
2064	 2.50125082235997E-02 
2065	 2.34714113599071E-02 
2066	 2.06712880147634E-02 
2067	 2.37967125698372E-02 
2068	 2.42449066417598E-02 
2069	 2.35534342457376E-02 
2070	 0.025501430003448 
2071	 2.41671096737359E-02 
2072	 1.95527609025815E-02 
2073	 1.89489841766246E-02 
2074	 1.97820302666915E-02 
2075	 2.03744623502613E-02 
2076	 2.30676586388313E-02 
2077	 2.47041639158054E-02 
2078	 2.57097546026663E-02 
2079	 2.60732657500914E-02 
2080	 2.66531234713671E-02 
2081	 2.61575667300985E-02 
2082	 2.42176891915508E-02 
2083	 2.23563906092346E-02 
2084	 0.022761753676627 
2085	 2.37470991142129E-02 
2086	 2.41233529292087E-02 
2087	 2.53314003933167E-02 
2088	 2.44084367778036E-02 
2089	 2.26668170855729E-02 
2090	 2.30520616538662E-02 
2091	 2.19164798127214E-02 
2092	 2.09339649007153E-02 
2093	 1.92177365724097E-02 
2094	 1.85011953808926E-02 
2095	 1.83105117421594E-02 
2096	 1.85050809184911E-02 
2097	 1.89082473945834E-02 
2098	 1.94329727937271E-02 
2099	 0.020940309084153 
2100	 2.08861156991181E-02 
2101	 2.03691671053399E-02 
2102	 2.11270952904884E-02 
2103	 2.13711733757809E-02 
2104	 2.10264106848615E-02 
2105	 2.07321364286806E-02 
2106	 2.01267639480191E-02 
2107	 1.89397609590864E-02 
2108	 1.74728932620374E-02 
2109	 1.82349516407044E-02 
2110	 2.06572624192627E-02 
2111	 2.10548648228466E-02 
2112	 2.14470964390968E-02 
2113	 2.19579181601661E-02 
2114	 0.02075695036909 
2115	 2.00047827462278E-02 
2116	 2.06270489538008E-02 
2117	 2.07394324801572E-02 
2118	 1.99910361605281E-02 
2119	 1.95823759580011E-02 
2120	 0.019761226197969 
2121	 1.91894336370625E-02 
2122	 1.85791952240185E-02 
2123	 1.70148536552236E-02 
2124	 1.65765829207906E-02 
2125	 1.77416041953904E-02 
2126	 1.83095133980385E-02 
2127	 0.018554439515727 
2128	 1.84037859673067E-02 
2129	 1.79944835284645E-02 
2130	 1.77458566482208E-02 
2131	 1.86542761018541E-02 
2132	 1.90288549912027E-02 
2133	 1.82928067760914E-02 
2134	 1.86025699955037E-02 
2135	 1.87598942776419E-02 
2136	 1.93223502746183E-02 
2137	 2.13288946560616E-02 
2138	 0.021922277873974 
2139	 2.14213564802723E-02 
2140	 2.14078337735031E-02 
2141	 2.17627105861817E-02 
2142	 2.11771725602172E-02 
2143	 1.99062306731455E-02 
2144	 1.92446711437756E-02 
2145	 1.79969328917099E-02 
2146	 1.66390033124829E-02 
2147	 0.016501998710417 
2148	 1.63153157369354E-02 
2149	 1.72164363178247E-02 
2150	 1.90892003733647E-02 
2151	 1.98702029825495E-02 
2152	 2.07254331889121E-02 
2153	 0.019421413499601 
2154	 1.64607230602891E-02 
2155	 1.66448729589944E-02 
2156	 1.78373942764656E-02 
2157	 0.018115744449548 
2158	 1.93595204949804E-02 
2159	 2.11843125985772E-02 
2160	 0.023429548245903 
2161	 2.27819215693872E-02 
2162	 2.10705042978653E-02 
2163	 2.00184294698269E-02 
2164	 1.63618291309789E-02 
2165	 1.46962508722527E-02 
2166	 1.53636578153942E-02 
2167	 1.59079074596184E-02 
2168	 0.016550190383804 
2169	 1.66482774704699E-02 
2170	 1.65076113414103E-02 
2171	 1.82106375645037E-02 
2172	 2.04511944905576E-02 
2173	 2.05377288949185E-02 
2174	 1.95453525602013E-02 
2175	 1.87413963132792E-02 
2176	 1.78291161975185E-02 
2177	 1.63490972921734E-02 
2178	 1.82501493693587E-02 
2179	 2.28125236739989E-02 
2180	 2.43000064780397E-02 
2181	 0.02451514395366 
2182	 2.46160680990991E-02 
2183	 2.32124870987389E-02 
2184	 2.19322839460658E-02 
2185	 0.020593170529974 
2186	 2.00711372584445E-02 
2187	 0.020737079870177 
2188	 2.01777097070995E-02 
2189	 1.95374734270045E-02 
2190	 1.92270423341944E-02 
2191	 1.84093807620346E-02 
2192	 1.66284928047296E-02 
2193	 1.45085864759613E-02 
2194	 0.013595658085954 
2195	 1.16760825317867E-02 
2196	 1.12341204258579E-02 
2197	 1.27665765714741E-02 
2198	 1.36590877528691E-02 
2199	 1.54673620306113E-02 
2200	 1.57198578390095E-02 
2201	 1.40114879684096E-02 
2202	 1.38187928694074E-02 
2203	 1.65908914943981E-02 
2204	 2.16515794936947E-02 
2205	 2.45123026479479E-02 
2206	 2.55835543197801E-02 
2207	 2.38650654158126E-02 
2208	 2.04013923701286E-02 
2209	 2.05383936717703E-02 
2210	 0.022435046550353 
2211	 2.02657396360642E-02 
2212	 1.75077419208939E-02 
2213	 1.84453084218805E-02 
2214	 1.69090451782533E-02 
2215	 0.016865679895125 
2216	 0.02031230780481 
2217	 2.02698163459646E-02 
2218	 1.68763619916469E-02 
2219	 1.77293064704447E-02 
2220	 2.03563949182024E-02 
2221	 2.02161862142886E-02 
2222	 2.19064829069766E-02 
2223	 2.16887824728938E-02 
2224	 1.46752144301091E-02 
2225	 1.35392892827539E-02 
2226	 0.016990929379889 
2227	 1.78686712501663E-02 
2228	 2.25006881930469E-02 
2229	 0.024434951988853 
2230	 2.18140260549525E-02 
2231	 2.07238160804541E-02 
2232	 1.83940483417679E-02 
2233	 1.77397341551644E-02 
2234	 1.83258201333416E-02 
2235	 2.07372345316633E-02 
2236	 2.01362676930221E-02 
2237	 0.01744558655069 
2238	 1.38205065975587E-02 
2239	 8.61838882501626E-03 
2240	 9.83242319595834E-03 
2241	 1.39596614222865E-02 
2242	 1.58731671353612E-02 
2243	 1.62927624948021E-02 
2244	 1.08473469509162E-02 
2245	 6.95992745351766E-03 
2246	 7.05233958468408E-03 
2247	 9.69004539250212E-03 
2248	 1.62933403730581E-02 
2249	 1.92978061342362E-02 
2250	 1.62620847675421E-02 
2251	 1.51316944473833E-02 
2252	 1.69621944750381E-02 
2253	 1.61055209256197E-02 
2254	 0.01850542201332 
2255	 2.16909488379581E-02 
2256	 2.05639371792268E-02 
2257	 2.22012530910078E-02 
2258	 2.35068859530209E-02 
2259	 2.16914003437374E-02 
2260	 0.018750609823145 
2261	 9.56037726138166E-03 
2262	 9.40148961401735E-03 
2263	 0.015458824494961 
2264	 1.63711417909165E-02 
2265	 1.95166190565476E-02 
2266	 1.89713288025617E-02 
2267	 1.02167133554818E-02 
2268	 9.88862243271003E-03 
2269	 1.79500089494808E-02 
2270	 2.08211196805147E-02 
2271	 2.25164650618301E-02 
2272	 2.34898125769229E-02 
2273	 2.10277456823982E-02 
2274	 1.83765420484738E-02 
2275	 1.80947566135806E-02 
2276	 1.55239396963817E-02 
2277	 9.5230506556459E-03 
2278	 5.86864334354493E-03 
2279	-3.81231869144586E-04 
2280	-1.24580583102286E-03 
2281	 1.81969759052316E-03 
2282	 3.46376524664315E-03 
2283	 8.57481658983958E-03 
2284	 1.38244346303116E-02 
2285	 1.68387495026382E-02 
2286	 2.29960126060442E-02 
2287	 2.47681249741696E-02 
2288	 2.36789152988518E-02 
2289	 2.23384618808604E-02 
2290	 1.71433632420774E-02 
2291	 1.28882281261936E-02 
2292	 1.35562633732646E-02 
2293	 1.43856912712982E-02 
2294	 1.13157176553567E-02 
2295	 1.32494291781102E-02 
2296	 1.66275598363454E-02 
2297	 1.34819937962721E-02 
2298	 1.50494761320742E-02 
2299	 0.018944649810772 
2300	 1.79875306793818E-02 
2301	 1.73203176133457E-02 
2302	 1.27587250203515E-02 
2303	 6.09075863130365E-03 
2304	 8.98513114753363E-03 
2305	 1.41779365073893E-02 
2306	 1.39455868218245E-02 
2307	 1.30024016312859E-02 
2308	 1.07092491781048E-02 
2309	 8.98372733639741E-03 
2310	 0.011242625607203 
2311	 1.20077302863571E-02 
2312	 7.10377945725394E-03 
2313	 1.14379277097351E-03 
2314	-9.07780396251472E-04 
2315	-1.54952239132962E-03 
2316	 7.91557175179693E-03 
2317	 2.50498463480937E-02 
2318	 2.82809244727761E-02 
2319	 2.15321192859139E-02 
2320	 7.90330533218347E-03 
2321	-1.90078190288994E-02 
2322	-3.36422544333841E-02 
2323	-2.10680539657819E-02 
2324	-6.37631417186865E-03 
2325	 9.17766799710987E-03 
2326	 2.50154806896465E-02 
2327	 1.93048389856495E-02 
2328	 1.13394979206222E-02 
2329	 2.13676586117067E-03 
2330	-1.07865687773613E-02 
2331	-6.62465750661921E-03 
2332	 5.83222605575107E-04 
2333	 1.01678676777465E-02 
2334	 2.27980638185718E-02 
2335	 2.71258677369074E-02 
2336	 3.73646921921049E-02 
2337	 3.92453879195035E-02 
2338	 4.00323668371718E-02 
2339	 4.38552764391258E-02 
2340	 2.55591469059157E-02 
2341	 1.17716835810536E-02 
2342	 2.00662153841717E-02 
2343	 2.71900712525282E-02 
2344	 2.19635502955273E-02 
2345	 2.54594218234464E-02 
2346	 1.62705752374151E-02 
2347	-4.04627135840863E-03 
2348	-6.83768570766944E-03 
2349	-1.00333107783472E-02 
2350	-2.82803744290352E-03 
2351	 2.11793053523085E-03 
2352	 6.75024920442818E-03 
2353	 1.49518674272427E-02 
2354	 2.18566394394107E-03 
2355	-6.84191702546319E-03 
2356	-1.83012926173071E-03 
2357	-1.9215120126763E-03 
2358	-8.46998139826322E-03 
2359	-2.84739008278638E-02 
2360	-6.13313635651758E-02 
2361	-7.11805370150658E-02 
2362	-3.89771183192574E-02 
2363	-1.04562095559489E-02 
2364	 1.55543090212619E-03 
2365	 1.02234583750461E-02 
2366	-4.67521134917989E-02 
2367	-0.118291150717919 
2368	-0.138436293698056 
2369	-0.145952068162093 
2370	-0.126538785796098 
2371	-7.54685218319443E-02 
2372	-4.69088539598551E-02 
2373	-5.43871902074031E-02 
2374	-7.92973960380505E-02 
2375	-8.67466895059457E-02 
2376	-3.47358968009805E-02 
2377	 1.62082197037342E-02 
2378	 1.43525237103833E-02 
2379	 9.52400921537004E-04 
2380	-6.30969425833847E-02 
2381	-9.97687454419224E-02 
2382	-0.111425095082425 
2383	-0.161862903445561 
2384	-0.167809868319602 
2385	-0.154935876433092 
2386	-0.132890720941334 
2387	-7.69656953521858E-02 
2388	-3.28595107560816E-03 
2389	 8.80436183216126E-03 
2390	 6.63629306062499E-03 
2391	-2.15505175420613E-02 
2392	-0.055438682076125 
2393	-5.71744022330582E-02 
2394	-0.104459638512841 
2395	-8.82459447186555E-02 
2396	-0.109230639742052 
2397	-0.202658709746159 
2398	-0.140397622042571 
2399	-3.63670977500946E-02 
2400	-2.49336033735912E-02 
2401	-2.94717848369272E-02 
2402	-5.89519788368883E-02 
2403	-0.121114439621201 
2404	-0.109293276147252 
2405	-3.71526422082614E-02 
2406	-0.136605370336183 
2407	-0.179006774565054 
2408	-3.04550559029037E-03 
2409	 4.88625203313374E-02 
2410	 0.210539016560449 
2411	 0.327047117174978 
2412	-4.53515026780358E-02 
2413	-0.424794496198976 
2414	-0.57038703000023 
2415	-0.619881761465191 
2416	-0.441360817097955 
2417	-0.388487163972226 
2418	-0.495073859105423 
2419	-0.777261363678727 
2420	-1.02411461824769 
2421	-0.961057666226957 
2422	-0.764174937479293 
2423	-0.465248717001206 
2424	 6.90073227028655E-04 
2425	 3.75558734247545E-02 
2426	-0.192741867822338 
2427	-0.216253182607685 
2428	-6.12664400585503E-02 
2429	-0.103507328672956 
2430	-4.09548169841537E-02 
2431	-2.25149196290854E-02 
2432	-0.322458429545806 
2433	-0.522137744596768 
2434	-0.788558288008498 
2435	-1.48593963263297 
2436	-13.1551173684269 
2437	 1.62283688505495 
2438	 0.740682964196508 
2439	 1.20130207979775 
2440	 22.258716209382 
2441	-8.30189072827363 
2442	-9.8115404403239 
2443	-2.58885105744961 
2444	-1.30942503186871 
2445	-0.996098964666008 
2446	-0.740182624204403 
2447	-0.609582281231751 
2448	-0.257831901940638 
2449	 0.967257951016883 
2450	 2.25246512011481 
2451	 1.40781675080593 
2452	 3.23338828312313 
2453	 36.145210284665 
2454	-20.8405534322356 
2455	 42.1855879676845 
2456	-0.391407257227485 
2457	-1.14530111924582 
2458	-0.914483240093115 
2459	-0.952059518825364 
2460	-0.971835810992192 
2461	-0.785793147428404 
2462	-4.8857564081099 
2463	-1.03565882801221 
2464	 0.393568539425976 
2465	 2.44800613889572 
2466	 0.708619338905947 
2467	-10.3057904124058 
2468	 0.165213237908489 
2469	 3.79316061901757 
2470	 0.963573864181352 
2471	 0.82329237483289 
2472	 0.412152456113841 
2473	 4.74865077030308 
2474	 2.01457570005897 
2475	 0.470463081633105 
2476	-0.015671736840315 
2477	 2.62231195664616 
2478	 2.45016891413167 
2479	-8.74990824961643E-02 
2480	 0.182282662948418 
2481	 0.581552119030781 
2482	 0.581780670316003 
2483	-6.9505316084699E-03 
2484	-1.12968347568295 
2485	-3.81643181376738 
2486	 4.36171331020309 
2487	 16.4312804418012 
2488	 140.40249889079 
2489	-1.59655352959994 
2490	-2.33034824427022 
2491	 4.82474243508596 
2492	 2.46799725582167 
2493	 2.37177732990979 
2494	-6.92459916680323 
2495	 2.34371173344469 
2496	 1.93972699510226 
2497	 2.67042719114898 
2498	 1.57577132412973 
2499	 2.54579802695674 
2500	 3.53071899025509 
