Wavelength	rt0805far00009.asd
350	 6.97302322272253E-02 
351	 6.85286182366573E-02 
352	 6.96788920789284E-02 
353	 7.04799477569562E-02 
354	 6.94160242253164E-02 
355	 6.96981694997296E-02 
356	 6.93180647877092E-02 
357	 6.89763780381805E-02 
358	 6.95803057215978E-02 
359	 6.93393727983939E-02 
360	 6.94797251916104E-02 
361	 6.98787566769008E-02 
362	 6.95929059303596E-02 
363	 6.98396768986544E-02 
364	 7.00031234147918E-02 
365	 6.97698178207858E-02 
366	 0.069600204661607 
367	 6.97499494230389E-02 
368	 7.00865336208883E-02 
369	 7.03635793993916E-02 
370	 7.03807825988868E-02 
371	 7.05462773824659E-02 
372	 7.05773657867122E-02 
373	 7.00125820094296E-02 
374	 7.05919175415684E-02 
375	 7.07605784413012E-02 
376	 7.02387914806637E-02 
377	 7.08948359263953E-02 
378	 7.12600057594403E-02 
379	 7.13583190375232E-02 
380	 7.15114425920129E-02 
381	 7.18742820173005E-02 
382	 7.16927107254333E-02 
383	 7.14362885185356E-02 
384	 7.19748290621404E-02 
385	 0.072419366289692 
386	 7.29759118511045E-02 
387	 7.32906479447082E-02 
388	 7.24304488492867E-02 
389	 7.29488843605752E-02 
390	 7.39730604586893E-02 
391	 0.074288406866955 
392	 7.35082192867425E-02 
393	 7.31241583615386E-02 
394	 7.35832554240896E-02 
395	 7.45581212444838E-02 
396	 7.44432115395682E-02 
397	 0.074326241706149 
398	 7.46057321038557E-02 
399	 0.074921742955204 
400	 7.45849780430923E-02 
401	 7.44708179329327E-02 
402	 7.49797742798005E-02 
403	 7.49374255918445E-02 
404	 7.50341234551456E-02 
405	 0.075303020823474 
406	 7.55138610436122E-02 
407	 7.53840887919443E-02 
408	 7.52325390998453E-02 
409	 7.52269569174257E-02 
410	 7.53406332427715E-02 
411	 7.55743080670317E-02 
412	 7.57444254715716E-02 
413	 7.57909699408585E-02 
414	 7.60164187901663E-02 
415	 0.076187341717089 
416	 7.63115068538993E-02 
417	 7.64837762528438E-02 
418	 7.66878197641883E-02 
419	 7.69145373299981E-02 
420	 7.71310940779821E-02 
421	 0.077286278322352 
422	 7.75335061599267E-02 
423	 7.77329914997352E-02 
424	 7.77951996387612E-02 
425	 7.79494984127794E-02 
426	 0.077969942164331 
427	 7.80338052986334E-02 
428	 7.84342973384805E-02 
429	 7.88253616348244E-02 
430	 7.91452910862802E-02 
431	 0.079398692519054 
432	 7.96353129908902E-02 
433	 7.98843155061957E-02 
434	 8.01402031359483E-02 
435	 8.04035153441859E-02 
436	 8.07174864368631E-02 
437	 8.11262003225532E-02 
438	 8.14880527045444E-02 
439	 8.16270685271853E-02 
440	 8.20090102291626E-02 
441	 8.24342207558364E-02 
442	 8.27343932338585E-02 
443	 8.28858357694472E-02 
444	 8.33237358973842E-02 
445	 8.38533060494776E-02 
446	 8.41750573539205E-02 
447	 8.43017907214557E-02 
448	 8.46430374148395E-02 
449	 0.085140805045358 
450	 8.54041980894109E-02 
451	 8.55466497225791E-02 
452	 8.56822139516256E-02 
453	 8.58793804753289E-02 
454	 8.61078539243273E-02 
455	 8.63805613962369E-02 
456	 8.66312965557634E-02 
457	 8.68027274553605E-02 
458	 8.70543503344053E-02 
459	 8.71715195437728E-02 
460	 8.72087277536942E-02 
461	 8.74851392219062E-02 
462	 8.76425919506901E-02 
463	 8.77218708623166E-02 
464	 8.78345812763161E-02 
465	 8.80592911848407E-02 
466	 8.83081881413615E-02 
467	 8.85136999928722E-02 
468	 8.86502265417057E-02 
469	 8.89064775456349E-02 
470	 8.91300992829036E-02 
471	 8.92898326828492E-02 
472	 8.95557357575539E-02 
473	 8.97136364147223E-02 
474	 8.98767735308346E-02 
475	 9.01777504250187E-02 
476	 9.05072030586233E-02 
477	 9.08541072568004E-02 
478	 9.10983435866843E-02 
479	 9.11070730918006E-02 
480	 9.14091805263231E-02 
481	 9.18340480535614E-02 
482	 9.21403321502346E-02 
483	 9.21105410985882E-02 
484	 9.23382358817846E-02 
485	 9.27494927880215E-02 
486	 0.093076798583441 
487	 9.35427631225645E-02 
488	 9.39672314996424E-02 
489	 9.42935101335163E-02 
490	 9.46073096151051E-02 
491	 9.50042757445471E-02 
492	 9.54287493210669E-02 
493	 9.58650018964445E-02 
494	 9.65420777190249E-02 
495	 9.69796968287204E-02 
496	 9.73160998668106E-02 
497	 9.79583332085916E-02 
498	 9.86326422532193E-02 
499	 9.92028514062708E-02 
500	 9.96938937722856E-02 
501	 0.100353792856874 
502	 0.100988019973905 
503	 0.101569256268298 
504	 0.102158443664831 
505	 0.102981518171472 
506	 0.103618097721151 
507	 0.104100133266139 
508	 0.10479990715539 
509	 0.105388715651453 
510	 0.105997412502269 
511	 0.106724061708503 
512	 0.107442501046482 
513	 0.10810446618362 
514	 0.108723091193283 
515	 0.109357272877446 
516	 0.110137341250945 
517	 0.110966460351545 
518	 0.111740922662557 
519	 0.112385596483037 
520	 0.113216577196518 
521	 0.114052425023407 
522	 0.114707560587164 
523	 0.115361927924912 
524	 0.116135447103557 
525	 0.116983192541134 
526	 0.117752526743816 
527	 0.118483449691657 
528	 0.119267059830937 
529	 0.120130059790632 
530	 0.120980974239445 
531	 0.121693085350098 
532	 0.122420462711396 
533	 0.123358925524104 
534	 0.12425510026875 
535	 0.125160645205972 
536	 0.126049886738987 
537	 0.126784743140465 
538	 0.127607032255192 
539	 0.128522186274243 
540	 0.12946375482665 
541	 0.13035464565188 
542	 0.131185812561965 
543	 0.132037342026784 
544	 0.133018705564702 
545	 0.133893397339977 
546	 0.134767339158804 
547	 0.135677507037488 
548	 0.136431121373149 
549	 0.137316251447074 
550	 0.138266489135771 
551	 0.139128018397975 
552	 0.140027358930289 
553	 0.140942843977074 
554	 0.141795933655853 
555	 0.142457192911085 
556	 0.143303736720395 
557	 0.144212722743245 
558	 0.145010184072659 
559	 0.145824172430172 
560	 0.146578430046439 
561	 0.147276974328296 
562	 0.147977598421374 
563	 0.14869372346784 
564	 0.149314616399321 
565	 0.149835183961719 
566	 0.150497165993575 
567	 0.150996665364143 
568	 0.151476026902767 
569	 0.152138892138726 
570	 0.152552684582857 
571	 0.152886480817359 
572	 0.153245949978993 
573	 0.153622592933724 
574	 0.1539184745613 
575	 0.154155259607084 
576	 0.154370747565702 
577	 0.154571087713337 
578	 0.154643123715389 
579	 0.154627804301433 
580	 0.154647402365781 
581	 0.154586395132781 
582	 0.154501006629397 
583	 0.154402922720968 
584	 0.154173556756305 
585	 0.154037927036073 
586	 0.153998657304468 
587	 0.153961542431248 
588	 0.153832772286637 
589	 0.153545255521756 
590	 0.153160595197416 
591	 0.152826951561928 
592	 0.152336975525889 
593	 0.15177738496788 
594	 0.151210824151318 
595	 0.150417442308917 
596	 0.149441147083998 
597	 0.148385402975632 
598	 0.147376286403974 
599	 0.146305779514888 
600	 0.145331822183856 
601	 0.144548835250754 
602	 0.143886337144706 
603	 0.14347127307459 
604	 0.143206687062305 
605	 0.142966958518156 
606	 0.142883035576807 
607	 0.142746302466124 
608	 0.142581605859057 
609	 0.142648583751603 
610	 0.142450112019863 
611	 0.142190536751382 
612	 0.142095277510042 
613	 0.142002320193156 
614	 0.141882011281431 
615	 0.14172665046879 
616	 0.141564334802276 
617	 0.141562689371964 
618	 0.141399745972994 
619	 0.14101991676179 
620	 0.140869876931683 
621	 0.140862368010394 
622	 0.140861336783077 
623	 0.140747162741177 
624	 0.140640466970609 
625	 0.140518468514097 
626	 0.140421546239651 
627	 0.140438510287361 
628	 0.140249493963062 
629	 0.13998956715819 
630	 0.139819794395072 
631	 0.139747407471524 
632	 0.139581147005016 
633	 0.139331803975461 
634	 0.13911678605427 
635	 0.139010519262146 
636	 0.138987410253925 
637	 0.138962279974874 
638	 0.138785043350279 
639	 0.138544192997401 
640	 0.138270963399538 
641	 0.138031299109708 
642	 0.138079090667691 
643	 0.138081989563465 
644	 0.137998328151582 
645	 0.138023831113058 
646	 0.137952026989151 
647	 0.137754593155265 
648	 0.13744849131369 
649	 0.137012959316124 
650	 0.136767102204097 
651	 0.136466091682106 
652	 0.135767666145635 
653	 0.135125606855647 
654	 0.13443671013816 
655	 0.133576929779407 
656	 0.132569072183836 
657	 0.131549728639816 
658	 0.130591354442963 
659	 0.129707053731772 
660	 0.128922263580433 
661	 0.128074395046577 
662	 0.127253587858907 
663	 0.126677699264783 
664	 0.12594048714701 
665	 0.125231537455548 
666	 0.12468019340566 
667	 0.124198574175917 
668	 0.123646850503921 
669	 0.123241570342583 
670	 0.123191960666226 
671	 0.123046732771551 
672	 0.122752397491768 
673	 0.122509379667826 
674	 0.122701508291378 
675	 0.12288171759995 
676	 0.122986861285746 
677	 0.123093866222227 
678	 0.123436337564423 
679	 0.123803701898165 
680	 0.124281655765608 
681	 0.12501686034885 
682	 0.12559583522379 
683	 0.126203416753992 
684	 0.126950317576392 
685	 0.127865625325809 
686	 0.129009374386945 
687	 0.129919740843334 
688	 0.130236144667357 
689	 0.130532527659168 
690	 0.130933977210369 
691	 0.131425943808708 
692	 0.131867475785857 
693	 0.131987432837581 
694	 0.131536259789603 
695	 0.130752437708802 
696	 0.130361546356623 
697	 0.129922322324882 
698	 0.129441246815749 
699	 0.129001655075917 
700	 0.128212057958173 
701	 0.12718138872479 
702	 0.126006040093786 
703	 0.124703017289429 
704	 0.123671913781553 
705	 0.122541456495303 
706	 0.121126278624907 
707	 0.119774859669577 
708	 0.118308551018164 
709	 0.116618533293583 
710	 0.114716151727976 
711	 0.1130749052935 
712	 0.111235648129302 
713	 0.109216837303405 
714	 0.107547258305755 
715	 0.106332290037294 
716	 0.104998096499087 
717	 0.103010840231857 
718	 0.100884201117528 
719	 9.78925322265162E-02 
720	 9.51510602021194E-02 
721	 9.31310063916797E-02 
722	 9.15062966446778E-02 
723	 8.97083138290501E-02 
724	 8.76267461609047E-02 
725	 0.085088790214897 
726	 8.28056269756123E-02 
727	 0.08052440424525 
728	 7.79710595277184E-02 
729	 7.54629874815387E-02 
730	 7.26120522336857E-02 
731	 6.98698146449984E-02 
732	 6.76206461521667E-02 
733	 6.56136787323516E-02 
734	 6.42473455967251E-02 
735	 6.34171380001519E-02 
736	 6.22346633496799E-02 
737	 6.13287828663333E-02 
738	 6.06441059296279E-02 
739	 6.00743811883835E-02 
740	 5.97847363414555E-02 
741	 5.95560754553065E-02 
742	 5.93168694284381E-02 
743	 0.059093546484482 
744	 5.90303573470095E-02 
745	 5.89860148477777E-02 
746	 5.88977523384098E-02 
747	 5.88440532949029E-02 
748	 0.058868702438515 
749	 0.058854148186117 
750	 5.87319269627499E-02 
751	 5.87367304991312E-02 
752	 5.86984241717289E-02 
753	 5.86383580074329E-02 
754	 0.058666842778411 
755	 5.86808250114411E-02 
756	 5.87464538145433E-02 
757	 0.058919770596697 
758	 5.93112139651941E-02 
759	 5.98984526135222E-02 
760	 0.060521730263188 
761	 6.06485307118266E-02 
762	 6.05965240709395E-02 
763	 6.04370820971911E-02 
764	 6.01682408225191E-02 
765	 5.98090831767834E-02 
766	 5.95872556495533E-02 
767	 5.94401131821994E-02 
768	 0.05938774827514 
769	 0.059534182518779 
770	 5.95243179481019E-02 
771	 5.95109425801351E-02 
772	 5.96499857746266E-02 
773	 5.98046541660577E-02 
774	 6.01368924778977E-02 
775	 6.04123973508254E-02 
776	 6.03675904419478E-02 
777	 6.06337510806296E-02 
778	 6.09094821946796E-02 
779	 6.11216292627633E-02 
780	 6.14782955901759E-02 
781	 6.17346021091488E-02 
782	 6.20760247197897E-02 
783	 6.25598586748273E-02 
784	 6.27650754369708E-02 
785	 6.30907113199188E-02 
786	 6.35422318445729E-02 
787	 6.40017146636915E-02 
788	 6.45859476256321E-02 
789	 6.48262135369846E-02 
790	 6.49366391552235E-02 
791	 6.55919110146159E-02 
792	 6.58926225215638E-02 
793	 6.60961011748447E-02 
794	 6.64529815803493E-02 
795	 6.69341394196454E-02 
796	 0.067457631428625 
797	 6.78319850618333E-02 
798	 6.79968322824532E-02 
799	 6.82862961152862E-02 
800	 6.87350789296693E-02 
801	 6.91907791386486E-02 
802	 6.93980746188517E-02 
803	 6.92155553564891E-02 
804	 6.92330042212749E-02 
805	 6.94491786597482E-02 
806	 6.92143673844606E-02 
807	 0.069162838708615 
808	 6.94161209651102E-02 
809	 6.97739860138196E-02 
810	 0.069406974428216 
811	 6.93977841332415E-02 
812	 6.96825979292787E-02 
813	 6.96720746467017E-02 
814	 6.92546183210035E-02 
815	 6.89905563669365E-02 
816	 6.87698673868999E-02 
817	 6.79697323234955E-02 
818	 6.70518541881287E-02 
819	 6.61521478247776E-02 
820	 6.52616190766804E-02 
821	 6.43484276159623E-02 
822	 6.34286913222359E-02 
823	 6.25601416102089E-02 
824	 0.061610240887783 
825	 5.98440078883282E-02 
826	 5.84449639114594E-02 
827	 5.74313797283036E-02 
828	 5.63710182050874E-02 
829	 5.46524960494217E-02 
830	 5.34612331812607E-02 
831	 5.28342841272392E-02 
832	 5.19942864249457E-02 
833	 5.10773344267065E-02 
834	 0.050494058537895 
835	 5.02575930556728E-02 
836	 4.98831603427171E-02 
837	 4.94131794271502E-02 
838	 0.04911358981552 
839	 4.90851163895429E-02 
840	 4.89174347038486E-02 
841	 4.85507252156027E-02 
842	 0.048361268296222 
843	 4.85723833917457E-02 
844	 0.047907225613079 
845	 4.75266387454131E-02 
846	 4.75871105222855E-02 
847	 4.75165026880704E-02 
848	 4.73649408301359E-02 
849	 4.71739714330764E-02 
850	 4.69851699617511E-02 
851	 4.68252230791356E-02 
852	 4.67309255158489E-02 
853	 4.65490110437091E-02 
854	 4.63569384218891E-02 
855	 4.68034094089409E-02 
856	 4.65130977406173E-02 
857	 4.60321836005339E-02 
858	 4.60906397624744E-02 
859	 0.046079957180525 
860	 4.59312678208409E-02 
861	 4.57732932226043E-02 
862	 4.57677800318432E-02 
863	 4.55468266867859E-02 
864	 4.55496879912011E-02 
865	 4.57196804646814E-02 
866	 0.0455519630273 
867	 4.53303784476616E-02 
868	 4.51642952136363E-02 
869	 4.51236544051756E-02 
870	 4.52380738318726E-02 
871	 4.47135050012479E-02 
872	 0.044258581561196 
873	 0.044415749194484 
874	 4.46223030267194E-02 
875	 4.44965474260133E-02 
876	 4.41891576158167E-02 
877	 4.39892341109903E-02 
878	 4.38971876133733E-02 
879	 4.39273811097224E-02 
880	 4.39747535106395E-02 
881	 4.38914085234077E-02 
882	 4.36355292922908E-02 
883	 4.33988239268894E-02 
884	 4.33632099763668E-02 
885	 4.36225308034913E-02 
886	 4.38438964316459E-02 
887	 4.37515543125078E-02 
888	 4.33409722879029E-02 
889	 0.042938749782451 
890	 4.34618248170946E-02 
891	 4.36764985186657E-02 
892	 4.31111102033491E-02 
893	 4.36495033511573E-02 
894	 4.36909946062208E-02 
895	 4.35736564207593E-02 
896	 0.043979571595475 
897	 4.44954837695696E-02 
898	 0.045244384753601 
899	 4.49635913438161E-02 
900	 4.33018234885513E-02 
901	 4.39088037416254E-02 
902	 4.41275110481701E-02 
903	 4.37472949245298E-02 
904	 4.33762840365874E-02 
905	 4.25481503788661E-02 
906	 4.25143710621746E-02 
907	 4.33463934724406E-02 
908	 0.043959209647348 
909	 4.28866972694834E-02 
910	 0.043244610711197 
911	 4.41326019724065E-02 
912	 0.041567065793134 
913	 4.28756981549001E-02 
914	 4.34810382855932E-02 
915	 4.21044172353602E-02 
916	 4.26344864389155E-02 
917	 4.29908827044457E-02 
918	 4.25181580572236E-02 
919	 4.17517507594507E-02 
920	 4.23021819529264E-02 
921	 4.29576636952856E-02 
922	 4.29531239274889E-02 
923	 4.22730707725649E-02 
924	 4.23404506672027E-02 
925	 4.25185784891952E-02 
926	 4.27146440659856E-02 
927	 4.31039981341175E-02 
928	 4.44370173539574E-02 
929	 4.41224049254908E-02 
930	 0.040672943318414 
931	 3.56138819528521E-02 
932	 4.26475877713343E-02 
933	 3.99398512274826E-02 
934	 3.33944698087707E-02 
935	 0.040751452631304 
936	 4.10252563414027E-02 
937	 4.31148464606708E-02 
938	 4.76544209049281E-02 
939	 5.10468171670359E-02 
940	 0.043708592458849 
941	 4.21829348457073E-02 
942	 4.34248532251525E-02 
943	 3.75852587754177E-02 
944	 0.042398554421158 
945	 4.51012525372603E-02 
946	 4.36362401988721E-02 
947	 4.32621850246601E-02 
948	 4.24759245238599E-02 
949	 3.89490099068696E-02 
950	 3.83080853170206E-02 
951	 4.70200278426259E-02 
952	 0.048994738246207 
953	 4.69021944985998E-02 
954	 4.43070189707297E-02 
955	 4.29914659369025E-02 
956	 3.51752775819183E-02 
957	 3.94469356670131E-02 
958	 4.65331021466508E-02 
959	 3.58050449787315E-02 
960	 3.88546019271144E-02 
961	 0.042345989578641 
962	 4.17023565486546E-02 
963	 4.10386449401662E-02 
964	 4.15027642770017E-02 
965	 4.20771247866491E-02 
966	 4.21220064650392E-02 
967	 4.15688094010034E-02 
968	 4.12672997102302E-02 
969	 4.11070940263261E-02 
970	 4.16457307101708E-02 
971	 4.36250029432074E-02 
972	 4.42315250926339E-02 
973	 4.31622364782835E-02 
974	 4.13779844024593E-02 
975	 4.07174301298948E-02 
976	 4.21373125686107E-02 
977	 4.29200676594655E-02 
978	 4.23028906397995E-02 
979	 4.15097266208597E-02 
980	 3.93814545284211E-02 
981	 4.08313276152299E-02 
982	 4.37673914355043E-02 
983	 4.18523298691192E-02 
984	 4.06963796831884E-02 
985	 3.92423586684227E-02 
986	 3.84817254261042E-02 
987	 4.05679635991533E-02 
988	 4.19221242855108E-02 
989	 4.08365550894019E-02 
990	 3.90027109128354E-02 
991	 0.039705795859365 
992	 0.040290757351223 
993	 4.06966709809803E-02 
994	 3.98567427584339E-02 
995	 3.72210428442996E-02 
996	 3.96871141477157E-02 
997	 3.98098034743688E-02 
998	 3.76371118984168E-02 
999	 3.78246082825831E-02 
1000	 3.86929438141373E-02 
1001	 4.01384280045179E-02 
1002	 3.88735015796332E-02 
1003	 3.83559286937583E-02 
1004	 3.81472493148938E-02 
1005	 3.79620888916115E-02 
1006	 3.81299613014124E-02 
1007	 0.038391727358819 
1008	 3.82821916924705E-02 
1009	 3.84907264496664E-02 
1010	 3.84092329340094E-02 
1011	 3.86030453145164E-02 
1012	 3.91306015308466E-02 
1013	 3.89754111698846E-02 
1014	 3.91909113900505E-02 
1015	 3.96734343890889E-02 
1016	 4.00334570229339E-02 
1017	 4.05035938192827E-02 
1018	 4.07581504407825E-02 
1019	 4.12370273223779E-02 
1020	 4.12090827323654E-02 
1021	 4.06675274343831E-02 
1022	 3.99674107702318E-02 
1023	 0.040106116587683 
1024	 3.99501373146584E-02 
1025	 3.92602723988876E-02 
1026	 3.92130527784948E-02 
1027	 3.91919986054857E-02 
1028	 3.87718864146909E-02 
1029	 3.85923104984744E-02 
1030	 3.90114989261046E-02 
1031	 3.92425433908105E-02 
1032	 3.91906733559509E-02 
1033	 3.93357105240333E-02 
1034	 4.01906435667542E-02 
1035	 4.01711763396901E-02 
1036	 3.93746494596595E-02 
1037	 3.89510065321727E-02 
1038	 3.79143697849717E-02 
1039	 3.76076222878304E-02 
1040	 3.83889813172942E-02 
1041	 3.93712985363703E-02 
1042	 3.98257395413704E-02 
1043	 4.09630073603018E-02 
1044	 4.08172883205311E-02 
1045	 3.93526393672431E-02 
1046	 3.89566745539369E-02 
1047	 3.83241776910292E-02 
1048	 3.82960121965941E-02 
1049	 3.91472961971651E-02 
1050	 3.93845277967606E-02 
1051	 3.97434211559276E-02 
1052	 0.039849490576495 
1053	 3.91925525136564E-02 
1054	 3.92499261208052E-02 
1055	 3.99627555946595E-02 
1056	 4.01187535082328E-02 
1057	 4.02014256135454E-02 
1058	 4.06908770565391E-02 
1059	 4.03732097055533E-02 
1060	 3.90364180202191E-02 
1061	 3.86968057784928E-02 
1062	 3.84774339831055E-02 
1063	 3.84038522021811E-02 
1064	 0.038943144555045 
1065	 3.90262450883956E-02 
1066	 3.87079120473476E-02 
1067	 3.88283337014473E-02 
1068	 3.90985072368954E-02 
1069	 3.93321059491001E-02 
1070	 4.00728345453819E-02 
1071	 4.03788859342427E-02 
1072	 4.04977971827837E-02 
1073	 4.02901502379762E-02 
1074	 4.02175628946288E-02 
1075	 3.98328469367928E-02 
1076	 3.98794940461692E-02 
1077	 0.040254812418046 
1078	 4.02722203558192E-02 
1079	 4.04408910641083E-02 
1080	 4.03050872392395E-02 
1081	 0.039453111405696 
1082	 3.93582470355227E-02 
1083	 3.97456467858506E-02 
1084	 3.97189439921552E-02 
1085	 4.00793725105398E-02 
1086	 4.00947474121854E-02 
1087	 3.89331715699541E-02 
1088	 3.88229588295893E-02 
1089	 3.95957936727023E-02 
1090	 3.98506510442747E-02 
1091	 4.02779743244957E-02 
1092	 4.17749034799392E-02 
1093	 4.16730306452731E-02 
1094	 3.99362949467673E-02 
1095	 3.99999254873835E-02 
1096	 4.03228513644906E-02 
1097	 4.03653534691879E-02 
1098	 4.17034111634713E-02 
1099	 4.20708868363936E-02 
1100	 4.10914811051002E-02 
1101	 4.10170440456056E-02 
1102	 4.14512317273747E-02 
1103	 4.16060103189023E-02 
1104	 4.23280833813989E-02 
1105	 4.18333188322523E-02 
1106	 4.09428353699706E-02 
1107	 4.02511909313251E-02 
1108	 3.98841818248628E-02 
1109	 4.03627360002421E-02 
1110	 4.05744440479451E-02 
1111	 4.21681670981528E-02 
1112	 4.24562365445541E-02 
1113	 4.08813923143372E-02 
1114	 0.0405994907954 
1115	 4.09017113976089E-02 
1116	 4.13192026386898E-02 
1117	 4.32651904859555E-02 
1118	 4.42917129199534E-02 
1119	 4.50046227838303E-02 
1120	 4.52226026661298E-02 
1121	 4.16974294718031E-02 
1122	 4.24289390992262E-02 
1123	 4.99926830932632E-02 
1124	 3.83750324068114E-02 
1125	 2.00545776115188E-02 
1126	 2.53037672414394E-02 
1127	 3.61690208559528E-02 
1128	 4.33101553703434E-02 
1129	 4.69736358860872E-02 
1130	 5.67034955234556E-02 
1131	 5.41115007732231E-02 
1132	 4.02039778287584E-02 
1133	 3.92129779069416E-02 
1134	 4.34931081099116E-02 
1135	 4.30582372113886E-02 
1136	 4.05998364920967E-02 
1137	 4.01419355667453E-02 
1138	 3.69571527446687E-02 
1139	 4.18663756782225E-02 
1140	 4.28430184522443E-02 
1141	 4.03728203434743E-02 
1142	 4.59333133110832E-02 
1143	 4.39750639671717E-02 
1144	 0.039297700497718 
1145	 0.046568676670239 
1146	 4.52244297988515E-02 
1147	 3.40288686469773E-02 
1148	 3.54250000258852E-02 
1149	 4.26441824694746E-02 
1150	 4.28338662123909E-02 
1151	 0.042157214517198 
1152	 4.35210176115237E-02 
1153	 4.24349034176004E-02 
1154	 4.16542699592101E-02 
1155	 4.18657780107357E-02 
1156	 4.39103543008452E-02 
1157	 0.043216839292045 
1158	 0.041163489355397 
1159	 4.07374744857917E-02 
1160	 4.13661751882902E-02 
1161	 4.18639260688809E-02 
1162	 4.15867578217469E-02 
1163	 4.09177402786786E-02 
1164	 4.08244516143925E-02 
1165	 0.040952441571308 
1166	 4.13018619192781E-02 
1167	 4.20979243213196E-02 
1168	 4.23123660093958E-02 
1169	 4.16374778469442E-02 
1170	 4.14258578792419E-02 
1171	 4.13018725796712E-02 
1172	 4.10402710660987E-02 
1173	 4.07776122560942E-02 
1174	 4.05828257398881E-02 
1175	 4.08527202171341E-02 
1176	 4.11049960937889E-02 
1177	 4.09982802239453E-02 
1178	 4.08748852664805E-02 
1179	 4.07738872575672E-02 
1180	 4.03041396374486E-02 
1181	 4.03852518295363E-02 
1182	 4.07136000609696E-02 
1183	 4.03521305761835E-02 
1184	 4.01390908734801E-02 
1185	 0.040016093394036 
1186	 4.01443944210276E-02 
1187	 4.04356763609969E-02 
1188	 0.040032765695924 
1189	 3.97791556560937E-02 
1190	 3.99211147193528E-02 
1191	 0.039829858294282 
1192	 3.98663752884892E-02 
1193	 4.02349545965887E-02 
1194	 4.03741987839693E-02 
1195	 3.96536354088376E-02 
1196	 3.93827865119765E-02 
1197	 3.99264746989119E-02 
1198	 4.01728066644206E-02 
1199	 4.02533680485816E-02 
1200	 4.05247621089445E-02 
1201	 4.02590552652469E-02 
1202	 0.040129268204507 
1203	 4.05842372376328E-02 
1204	 4.04047455361374E-02 
1205	 4.00452505683008E-02 
1206	 3.96401349910057E-02 
1207	 0.038720964456602 
1208	 3.86833917307961E-02 
1209	 3.91885508991193E-02 
1210	 3.92245943569437E-02 
1211	 0.039350851939447 
1212	 3.95136350530964E-02 
1213	 3.98692320368387E-02 
1214	 0.03990959559479 
1215	 3.98769548488348E-02 
1216	 3.93985461707361E-02 
1217	 3.91899625907161E-02 
1218	 3.90681931532209E-02 
1219	 3.85992431157582E-02 
1220	 3.86273664829946E-02 
1221	 3.88120577603037E-02 
1222	 3.84242558875871E-02 
1223	 0.038269317868702 
1224	 3.85328484388002E-02 
1225	 3.86487525738502E-02 
1226	 3.86470681206396E-02 
1227	 3.86065971506501E-02 
1228	 3.87328151562477E-02 
1229	 3.91826408220902E-02 
1230	 3.88573473471159E-02 
1231	 3.81502070358366E-02 
1232	 3.81661647007402E-02 
1233	 3.78455936777815E-02 
1234	 3.75086134161785E-02 
1235	 3.75120025737617E-02 
1236	 3.78739113657481E-02 
1237	 3.79012576444824E-02 
1238	 3.78145051648394E-02 
1239	 3.82616824817392E-02 
1240	 3.82639360598942E-02 
1241	 3.79437017090139E-02 
1242	 3.79239135841043E-02 
1243	 3.77890585840138E-02 
1244	 3.75524516531399E-02 
1245	 3.77679217050525E-02 
1246	 3.79924182999517E-02 
1247	 3.78585770848326E-02 
1248	 3.78580203565487E-02 
1249	 3.78788925355618E-02 
1250	 3.76327302890204E-02 
1251	 3.76210381780513E-02 
1252	 3.78946473329865E-02 
1253	 3.78354767600064E-02 
1254	 3.77954759213051E-02 
1255	 0.037894433395574 
1256	 3.79300393819046E-02 
1257	 3.78983239115113E-02 
1258	 3.80457722653575E-02 
1259	 3.83545051468244E-02 
1260	 3.84105103082054E-02 
1261	 0.038501797553885 
1262	 3.85312165825297E-02 
1263	 3.84388511249652E-02 
1264	 3.80193796528729E-02 
1265	 3.82218160315579E-02 
1266	 0.038444578014935 
1267	 3.82222096065121E-02 
1268	 3.82716387701128E-02 
1269	 3.84000423629293E-02 
1270	 3.84610659688375E-02 
1271	 3.85195688025826E-02 
1272	 3.87677431852893E-02 
1273	 3.89797835949017E-02 
1274	 3.84518805514393E-02 
1275	 3.82105459695182E-02 
1276	 3.83358231761581E-02 
1277	 3.82189031419954E-02 
1278	 3.82164230807353E-02 
1279	 3.79548910556262E-02 
1280	 3.77870840359249E-02 
1281	 3.76550587260102E-02 
1282	 3.72501733934989E-02 
1283	 3.72505604797348E-02 
1284	 3.77726470720596E-02 
1285	 3.77972330229184E-02 
1286	 0.037631863045104 
1287	 3.77680214720189E-02 
1288	 0.038014311070528 
1289	 3.78779939512654E-02 
1290	 3.75372597548368E-02 
1291	 3.75826229802503E-02 
1292	 3.81850271527967E-02 
1293	 3.85619275514121E-02 
1294	 3.87704436848107E-02 
1295	 3.90329545357046E-02 
1296	 3.86152860106097E-02 
1297	 3.78516372737168E-02 
1298	 3.79156284286471E-02 
1299	 0.038660455939289 
1300	 3.87357099105426E-02 
1301	 3.83359494117363E-02 
1302	 3.82380889675545E-02 
1303	 3.80221040455982E-02 
1304	 3.82096884738078E-02 
1305	 3.87294785539264E-02 
1306	 3.88112580477318E-02 
1307	 3.88267789065864E-02 
1308	 0.039207269870637 
1309	 0.039503114507373 
1310	 3.94887881964979E-02 
1311	 0.039735949195178 
1312	 3.98188825986474E-02 
1313	 3.93319621449577E-02 
1314	 3.92583915217831E-02 
1315	 3.92852137621821E-02 
1316	 3.96040837509625E-02 
1317	 4.05630072843308E-02 
1318	 4.06389640532987E-02 
1319	 4.03744941033978E-02 
1320	 4.05237113770928E-02 
1321	 4.05316076909993E-02 
1322	 3.95773907568029E-02 
1323	 0.039356318755571 
1324	 0.041509028413198 
1325	 4.29179157032677E-02 
1326	 4.25516085298731E-02 
1327	 4.24539386626404E-02 
1328	 4.25882430754485E-02 
1329	 4.28602759309793E-02 
1330	 0.042171086896486 
1331	 3.93701432500939E-02 
1332	 3.69933614477132E-02 
1333	 3.71615545502007E-02 
1334	 3.89034060315061E-02 
1335	 0.039466695151346 
1336	 4.27263605354528E-02 
1337	 4.37333088072528E-02 
1338	 0.04139071942112 
1339	 4.12016068951969E-02 
1340	 4.40317693935155E-02 
1341	 4.42185202299551E-02 
1342	 3.97269083916107E-02 
1343	 3.87501355781095E-02 
1344	 4.15185751487861E-02 
1345	 3.97328149356408E-02 
1346	 3.47978730284505E-02 
1347	 3.75756021996553E-02 
1348	 4.86924070368841E-02 
1349	 4.33880429780519E-02 
1350	 2.37838131585052E-02 
1351	 1.39777574625597E-02 
1352	-4.31340190678332E-02 
1353	-9.89991086617959E-02 
1354	-8.57536231238297E-02 
1355	 5.00037331852903E-02 
1356	-9.10706328492828E-04 
1357	-0.108331858430615 
1358	-0.036727988533091 
1359	-6.66185407310886E-02 
1360	-0.116118193543327 
1361	 2.41643616900926E-02 
1362	-0.101691070373738 
1363	-0.188854650363913 
1364	-0.153472988270325 
1365	-0.181337329087734 
1366	 0.160038525639804 
1367	 0.197951039843317 
1368	 0.111369473972356 
1369	-0.176236272500249 
1370	-0.235967297278108 
1371	-0.303248476126274 
1372	-0.412934547518049 
1373	-0.428651042401791 
1374	-0.335239070673595 
1375	-0.406691081213205 
1376	-0.45592258187403 
1377	-0.209137380479546 
1378	-0.109116640535428 
1379	 3.07430417119779E-02 
1380	-0.329023299380175 
1381	-2.22352827253506 
1382	-2.40257236748676 
1383	-0.569847249567464 
1384	-0.559166031324405 
1385	-0.276383434978762 
1386	 0.253933657415109 
1387	-0.108261156312165 
1388	-0.371094182715422 
1389	-1.10713658427242 
1390	-0.130954835487966 
1391	-0.160485878518917 
1392	-0.407638161639612 
1393	-0.288032665063892 
1394	-2.93418128174366E-02 
1395	-0.084235960070688 
1396	-0.534833420524012 
1397	-0.646489726777378 
1398	-0.464107744393166 
1399	-0.597784539087397 
1400	-0.528984467090692 
1401	-0.269571268203301 
1402	-0.242667286604117 
1403	-5.39648748965523E-02 
1404	 4.55638808720773E-02 
1405	-4.47896221511145E-02 
1406	-0.518998235486483 
1407	-0.201740047992339 
1408	-8.67285367509122E-02 
1409	-0.128497853525765 
1410	 7.49354196865248E-02 
1411	 0.156375619140871 
1412	-9.17993284460282E-03 
1413	-4.70035830132281E-02 
1414	 0.375298642528567 
1415	 0.376906296647282 
1416	 0.210755582589109 
1417	 4.41538151660105E-02 
1418	-0.11376894287905 
1419	-0.133450602992399 
1420	-0.266188216866138 
1421	-0.21713200413302 
1422	 2.56961094358928E-02 
1423	 2.27728804455843E-02 
1424	-9.29386603933313E-02 
1425	-5.61054469704621E-02 
1426	 6.57547558287852E-02 
1427	 0.052874563196359 
1428	-8.82678928618883E-03 
1429	 1.72466176381095E-02 
1430	 0.03293908712745 
1431	-7.18102952697981E-03 
1432	-4.89669092584292E-02 
1433	-2.8689254574051E-03 
1434	 6.86949947208703E-02 
1435	 4.22939194593113E-02 
1436	 1.14859527985939E-02 
1437	 7.17145646247132E-02 
1438	 2.27647952073995E-02 
1439	-6.39067674975553E-02 
1440	-3.65110377590188E-02 
1441	 5.42177348422107E-03 
1442	 2.58682310436439E-02 
1443	 4.55116699290814E-02 
1444	 5.03951804561964E-02 
1445	 4.01026143904904E-02 
1446	 1.43991143052093E-02 
1447	 4.60919106661348E-04 
1448	 1.97719833304196E-02 
1449	 4.39590637323689E-02 
1450	 4.54210957234819E-02 
1451	 4.14521920776998E-02 
1452	 4.34480600802545E-02 
1453	 4.90782523963633E-02 
1454	 4.75807206347923E-02 
1455	 4.83905442507417E-02 
1456	 5.02995468654305E-02 
1457	 4.83885612170718E-02 
1458	 4.35922672513643E-02 
1459	 4.22744721061465E-02 
1460	 4.40269582505698E-02 
1461	 0.040558157966156 
1462	 3.70551219178167E-02 
1463	 3.81700019472535E-02 
1464	 0.042202721298798 
1465	 4.54059554366289E-02 
1466	 4.27823545824849E-02 
1467	 4.46089753900732E-02 
1468	 4.47339198858508E-02 
1469	 3.21114470437431E-02 
1470	 0.026226237495478 
1471	 2.67523288075442E-02 
1472	 3.32920638477727E-02 
1473	 0.044511561801789 
1474	 4.31692734599225E-02 
1475	 4.28132956383969E-02 
1476	 4.59036876704527E-02 
1477	 4.05567078737221E-02 
1478	 3.74204169436055E-02 
1479	 4.36247462445152E-02 
1480	 4.34478092187043E-02 
1481	 3.36920257862986E-02 
1482	 3.23409962458891E-02 
1483	 3.63377103826104E-02 
1484	 3.75765402847624E-02 
1485	 3.86862023225098E-02 
1486	 3.88957803164578E-02 
1487	 3.91189019483695E-02 
1488	 3.91398951616275E-02 
1489	 3.72701379421565E-02 
1490	 3.78689815994859E-02 
1491	 4.12442409800195E-02 
1492	 4.11229864123107E-02 
1493	 3.93011353717662E-02 
1494	 3.93794126598294E-02 
1495	 3.90746892970824E-02 
1496	 0.038538687449404 
1497	 3.91608765093941E-02 
1498	 3.94628531585439E-02 
1499	 3.87936914072002E-02 
1500	 3.85588505029347E-02 
1501	 3.89976777050923E-02 
1502	 3.92211498233073E-02 
1503	 3.93230590444935E-02 
1504	 3.91566696945611E-02 
1505	 3.92014171736941E-02 
1506	 3.84436935853928E-02 
1507	 3.76777798803092E-02 
1508	 3.79966291153032E-02 
1509	 3.77880945375935E-02 
1510	 3.75810979661348E-02 
1511	 3.79798089763349E-02 
1512	 3.77288578989884E-02 
1513	 3.73409735402051E-02 
1514	 3.76179277010313E-02 
1515	 3.80291760079185E-02 
1516	 3.78602366988592E-02 
1517	 3.72608101998183E-02 
1518	 3.72077467995122E-02 
1519	 3.77071088842508E-02 
1520	 3.76906228259222E-02 
1521	 3.74677044800264E-02 
1522	 3.76894275507866E-02 
1523	 0.037858465022509 
1524	 3.78639416598195E-02 
1525	 3.77886954373664E-02 
1526	 3.77619651787769E-02 
1527	 3.77433309311963E-02 
1528	 3.75232027242471E-02 
1529	 3.74638670799556E-02 
1530	 3.75375593171801E-02 
1531	 0.037446827436802 
1532	 3.71038305632034E-02 
1533	 3.67340124974398E-02 
1534	 3.69501083117168E-02 
1535	 3.70739398390117E-02 
1536	 3.67225426273899E-02 
1537	 3.67504940128148E-02 
1538	 3.69889849182631E-02 
1539	 3.71335276847851E-02 
1540	 3.71295849975225E-02 
1541	 3.71178202503578E-02 
1542	 0.037349145760628 
1543	 3.71636378405727E-02 
1544	 3.65708331088437E-02 
1545	 3.64360971232028E-02 
1546	 3.64880374010765E-02 
1547	 3.65577011365512E-02 
1548	 3.68374408539403E-02 
1549	 3.67434558469556E-02 
1550	 3.63531566698766E-02 
1551	 3.62008486021674E-02 
1552	 3.62755420851965E-02 
1553	 3.63185619635701E-02 
1554	 3.62154516620133E-02 
1555	 3.64526808086777E-02 
1556	 3.65454321454125E-02 
1557	 3.60516913651238E-02 
1558	 3.64291203232324E-02 
1559	 3.67611362340134E-02 
1560	 3.60607404217045E-02 
1561	 3.61732866608454E-02 
1562	 3.66937802793435E-02 
1563	 3.65750304511699E-02 
1564	 3.64840103314761E-02 
1565	 3.65667760339644E-02 
1566	 3.65039128175474E-02 
1567	 3.63491910220628E-02 
1568	 3.63834406721716E-02 
1569	 3.65615650493445E-02 
1570	 3.65129718251358E-02 
1571	 3.63659496019541E-02 
1572	 0.036493796712116 
1573	 3.66709437533385E-02 
1574	 3.66837081360255E-02 
1575	 3.66742516464948E-02 
1576	 3.65504765495189E-02 
1577	 0.036459098048213 
1578	 3.63895190065164E-02 
1579	 3.59403102657068E-02 
1580	 3.57887329922252E-02 
1581	 3.63384519586939E-02 
1582	 0.036636972964068 
1583	 3.62937416300799E-02 
1584	 3.61607757724921E-02 
1585	 3.62116265380474E-02 
1586	 3.57677598748373E-02 
1587	 3.56707783268549E-02 
1588	 3.60859045696738E-02 
1589	 3.59917529939988E-02 
1590	 3.56907282456995E-02 
1591	 3.61119724925214E-02 
1592	 3.64945058478026E-02 
1593	 3.60047457794236E-02 
1594	 3.57189739930836E-02 
1595	 3.57576537067785E-02 
1596	 3.56159683889784E-02 
1597	 3.59024640807251E-02 
1598	 3.62575878163207E-02 
1599	 3.61525566001764E-02 
1600	 3.62272009261705E-02 
1601	 3.65919408232348E-02 
1602	 3.66396909786327E-02 
1603	 3.65765719801641E-02 
1604	 3.68751788283579E-02 
1605	 3.67577946963724E-02 
1606	 3.62057524818548E-02 
1607	 3.59653831494144E-02 
1608	 3.59042538385659E-02 
1609	 3.62276424079557E-02 
1610	 3.68436980735102E-02 
1611	 3.71861692814208E-02 
1612	 3.68388054791902E-02 
1613	 3.60313096701372E-02 
1614	 3.57945393481097E-02 
1615	 3.58576090546142E-02 
1616	 0.035588454692238 
1617	 3.55963629908426E-02 
1618	 3.58718418494377E-02 
1619	 3.54021531552156E-02 
1620	 3.47470792573392E-02 
1621	 3.49576304432841E-02 
1622	 3.50099694210504E-02 
1623	 3.50189789142643E-02 
1624	 3.57376867483906E-02 
1625	 3.59984636666201E-02 
1626	 3.56891029976396E-02 
1627	 3.59267550465383E-02 
1628	 3.59856277939946E-02 
1629	 3.53921055334316E-02 
1630	 3.52456973250381E-02 
1631	 3.51422108714758E-02 
1632	 3.53618577197925E-02 
1633	 3.62018882265205E-02 
1634	 3.60894876171013E-02 
1635	 3.60685387927255E-02 
1636	 3.62519435093827E-02 
1637	 3.53782814673549E-02 
1638	 3.50894435598524E-02 
1639	 3.48587782297124E-02 
1640	 3.43924379731532E-02 
1641	 3.51565673915552E-02 
1642	 3.58512436150778E-02 
1643	 3.61510446486007E-02 
1644	 3.67738401587942E-02 
1645	 3.69784065457151E-02 
1646	 3.66384129076744E-02 
1647	 3.64646813055896E-02 
1648	 3.65236056069505E-02 
1649	 3.61654893708614E-02 
1650	 3.58482530056189E-02 
1651	 3.63644524116984E-02 
1652	 3.64002772446425E-02 
1653	 3.62259378733384E-02 
1654	 3.62962950514974E-02 
1655	 3.60170198456545E-02 
1656	 3.57646899546713E-02 
1657	 3.55341689794589E-02 
1658	 3.56547147908309E-02 
1659	 3.60262329606252E-02 
1660	 3.58888259081798E-02 
1661	 3.58734422669992E-02 
1662	 3.60325080962707E-02 
1663	 3.57322681481776E-02 
1664	 3.55592386434863E-02 
1665	 3.56126920346142E-02 
1666	 3.57782326337152E-02 
1667	 3.62483744651293E-02 
1668	 3.64744490055105E-02 
1669	 3.61355726244067E-02 
1670	 3.56491623889124E-02 
1671	 3.53963665264021E-02 
1672	 3.53299201993576E-02 
1673	 3.56539659207145E-02 
1674	 3.63288520283692E-02 
1675	 3.60929209123337E-02 
1676	 0.035315883914216 
1677	 3.53421406187593E-02 
1678	 3.56575242314931E-02 
1679	 3.59547922002803E-02 
1680	 3.62079249151173E-02 
1681	 3.61648308441167E-02 
1682	 3.63972642951145E-02 
1683	 3.61641574364548E-02 
1684	 3.54575374147752E-02 
1685	 3.55320040616742E-02 
1686	 3.55640329688475E-02 
1687	 3.55532624795787E-02 
1688	 3.62652280975414E-02 
1689	 3.63568495623334E-02 
1690	 3.56007402340557E-02 
1691	 3.55130216390502E-02 
1692	 3.58069654599694E-02 
1693	 3.56914497693484E-02 
1694	 3.54650651283504E-02 
1695	 3.53457341687006E-02 
1696	 3.54748777060676E-02 
1697	 3.61986876908095E-02 
1698	 3.69751545681271E-02 
1699	 3.64120211145513E-02 
1700	 3.57770154094067E-02 
1701	 0.036397398245683 
1702	 3.68289891076203E-02 
1703	 3.70184734862341E-02 
1704	 3.69031523815279E-02 
1705	 3.58927373526432E-02 
1706	 3.53373601186097E-02 
1707	 3.55379606695899E-02 
1708	 3.59766543028657E-02 
1709	 3.64451600447959E-02 
1710	 3.62334862025097E-02 
1711	 3.61119269510306E-02 
1712	 0.036609094119681 
1713	 3.74961621349892E-02 
1714	 3.74507360545642E-02 
1715	 3.67368715590222E-02 
1716	 3.64555200782833E-02 
1717	 3.63041759173849E-02 
1718	 3.64805223116102E-02 
1719	 3.65045747852972E-02 
1720	 3.61638545055197E-02 
1721	 3.58640874387584E-02 
1722	 3.59520709298823E-02 
1723	 3.66748792142923E-02 
1724	 0.036962906190885 
1725	 3.64943840700488E-02 
1726	 3.58737644197212E-02 
1727	 3.61185482818243E-02 
1728	 3.66243385317961E-02 
1729	 3.65379160431659E-02 
1730	 0.03652848268299 
1731	 3.64193724949338E-02 
1732	 3.66730186306986E-02 
1733	 3.76331326465394E-02 
1734	 3.79776770432644E-02 
1735	 3.71518574528496E-02 
1736	 3.66661131989627E-02 
1737	 3.65809583592872E-02 
1738	 3.65887626620794E-02 
1739	 3.78611239897683E-02 
1740	 3.88927386769796E-02 
1741	 3.80391097005711E-02 
1742	 0.037260799964831 
1743	 3.74907154766263E-02 
1744	 3.76856330452967E-02 
1745	 3.81231423967368E-02 
1746	 0.03747757851882 
1747	 3.74129426476012E-02 
1748	 3.69826911069308E-02 
1749	 3.65278778180999E-02 
1750	 3.68790813836667E-02 
1751	 3.69746870658212E-02 
1752	 3.60794789706984E-02 
1753	 3.59267171596499E-02 
1754	 3.68317382826572E-02 
1755	 3.72429294009191E-02 
1756	 3.69230596025967E-02 
1757	 3.75459896817655E-02 
1758	 3.95474032892979E-02 
1759	 3.99438783888229E-02 
1760	 3.91455095306494E-02 
1761	 3.85420456119711E-02 
1762	 3.80504123263861E-02 
1763	 3.92311708486859E-02 
1764	 4.01229163110906E-02 
1765	 3.78107427600601E-02 
1766	 3.60961465323598E-02 
1767	 3.61237503418341E-02 
1768	 3.64660260617011E-02 
1769	 4.07393799021095E-02 
1770	 0.042687548366663 
1771	 3.83662134446922E-02 
1772	 3.85715037823897E-02 
1773	 4.06014249402584E-02 
1774	 3.97652863786714E-02 
1775	 4.18272625520311E-02 
1776	 4.17210175123415E-02 
1777	 3.62440988199535E-02 
1778	 3.65173419017278E-02 
1779	 4.28701627725798E-02 
1780	 4.33443825996973E-02 
1781	 4.34635295742601E-02 
1782	 4.22473744582769E-02 
1783	 0.032024780375283 
1784	 3.25345761560023E-02 
1785	 4.20971991669301E-02 
1786	 4.47506618345927E-02 
1787	 0.05295274084422 
1788	 5.09436363590971E-02 
1789	 3.32267160456755E-02 
1790	 3.79920881381391E-02 
1791	 3.27219125589082E-02 
1792	 3.89001571550257E-02 
1793	 6.12760892867771E-02 
1794	 4.99612250215053E-02 
1795	 4.14117531750682E-02 
1796	 3.63147477321008E-02 
1797	-4.46920339276334E-03 
1798	-8.07207814187712E-03 
1799	 1.98465281429285E-02 
1800	 0.104839179012965 
1801	 0.112582729873853 
1802	-4.35343353698417E-02 
1803	-0.113332732210614 
1804	-0.254898628152021 
1805	-0.331456342724477 
1806	-2.65396792151568E-02 
1807	 0.128144445465698 
1808	 0.181903304711178 
1809	 0.207738356865523 
1810	 3.00552468332111E-02 
1811	-0.121265029084399 
1812	-1.05459177794644 
1813	-2.42114886754844 
1814	-2.88151839718214 
1815	-0.185246780265675 
1816	 0.712991886343165 
1817	 0.678158389147624 
1818	 4.76004320999473E-02 
1819	-0.153049152850195 
1820	-0.623701983528725 
1821	-0.494328033364441 
1822	-0.326024224221108 
1823	 0.545367677024024 
1824	 0.798554327551695 
1825	 0.279254027266286 
1826	-0.293298994890847 
1827	-1.92745548014129 
1828	-1.51252177706439 
1829	-4.85176791091934E-02 
1830	 9.34244059397218E-02 
1831	 0.970756235111148 
1832	 0.862637549623121 
1833	 0.694837269264294 
1834	 0.775689670424652 
1835	 0.520202482984316 
1836	 0.798313219146622 
1837	-5.83183633522375 
1838	-2.58430749445711 
1839	-2.59427579859989 
1840	 164.879686233572 
1841	-9.74990287623423 
1842	-2.18846088115979 
1843	-1.16287635958949 
1844	 0.285852500069311 
1845	 0.763748347694025 
1846	 1.39383696500979E-02 
1847	 0.179831691083746 
1848	 0.634675389754698 
1849	 0.720478590095877 
1850	 0.674873429341271 
1851	 0.740424309745103 
1852	 0.158341308588789 
1853	 0.237078169196207 
1854	 0.571681138297081 
1855	 1.45411012955395 
1856	 1.96871104606388 
1857	-2.79454939518978 
1858	-1.84053561798039 
1859	-3.93097716266639 
1860	 9.54933871191423 
1861	-2.10555906403428 
1862	-2.37276580736157 
1863	 16.0654452545975 
1864	 2.44597059764662 
1865	-0.224065897483637 
1866	-3.94525920792951 
1867	-0.104988745210368 
1868	 0.722850398313351 
1869	 0.87934659393511 
1870	 0.18848553368421 
1871	 0.450917724318036 
1872	 1.2194897338777 
1873	 1.81698713692789 
1874	 1.99002912908224 
1875	 1.75373815050819 
1876	 1.56645211779711 
1877	 0.926709312151066 
1878	 0.898841309107746 
1879	 1.33016109629641 
1880	 1.09592557906004 
1881	 0.394145329412559 
1882	 0.677711189571959 
1883	 1.01964753693974 
1884	 0.303374342935332 
1885	 2.6793640217106 
1886	 10.395932458899 
1887	-2.74008760281795 
1888	 0.145297848253295 
1889	-5.81569701039554E-02 
1890	-0.49772659572652 
1891	-0.4448577206074 
1892	-0.101339035015228 
1893	 0.150366288385653 
1894	 1.25362552104184 
1895	 1.2482198643603 
1896	 0.531207618288244 
1897	 0.56290911083739 
1898	 0.586015216361052 
1899	 0.542411526243605 
1900	 0.470448844585545 
1901	 0.253724651650006 
1902	-0.128901319105781 
1903	-0.447717967373016 
1904	 0.222546041486325 
1905	-0.264783293382532 
1906	-4.9092570934422 
1907	-6.60979313794772 
1908	 4.095998847175 
1909	-10.8634054732319 
1910	-4.67312390138266 
1911	 14.8112809920389 
1912	-15.2389746859224 
1913	-3.83298819640891 
1914	-2.07512399374991 
1915	-3.21911776265052 
1916	-1.10183922693769 
1917	-4.66748643866319 
1918	 0.500597173514587 
1919	 0.695971519816838 
1920	 0.313245235470746 
1921	 0.606975222987629 
1922	 1.85925182866779 
1923	 2.53588720152923 
1924	 11.9191073804225 
1925	 9.91076202548834 
1926	 13.5521410799105 
1927	-2.35720369000075 
1928	 19.1416694658475 
1929	 1.64928713022259 
1930	 0.825102275319001 
1931	 0.72141731197325 
1932	 4.33238627797234E-02 
1933	 0.168719897934585 
1934	 0.502535398902422 
1935	 0.364473248888248 
1936	 1.7361989921646 
1937	 1.94161224230137 
1938	 1.46716802495229 
1939	 1.07858460836244 
1940	 0.680001486347868 
1941	 0.277867263917194 
1942	 0.173592855706189 
1943	 0.415436923313403 
1944	 0.581151263689364 
1945	 0.635852288372592 
1946	 0.578366383707327 
1947	 0.1372890132101 
1948	-3.30175513933481E-02 
1949	 4.09791770192523E-02 
1950	 0.111174833949294 
1951	 0.223639486658986 
1952	 0.294325479094 
1953	 0.43580289096061 
1954	 0.384205353103074 
1955	 0.316797436098558 
1956	 0.25395427759848 
1957	 0.166491146393841 
1958	 7.22100012366433E-02 
1959	 3.15028574042043E-02 
1960	 1.12626835656413E-02 
1961	 2.05084746051976E-03 
1962	 1.32526450863204E-02 
1963	 1.42350731776594E-02 
1964	 2.11313300316797E-02 
1965	 2.75224940369098E-02 
1966	 3.20583031865776E-02 
1967	 3.71090057374879E-02 
1968	 4.25924450202579E-02 
1969	 0.039730057915447 
1970	 4.33458683288872E-02 
1971	 0.054081767544019 
1972	 5.72000466724023E-02 
1973	 5.93397108591798E-02 
1974	 6.29534234534853E-02 
1975	 5.48591655108385E-02 
1976	 4.78887008811559E-02 
1977	 4.91004896930865E-02 
1978	 4.80949967592337E-02 
1979	 4.63636453200748E-02 
1980	 4.59635069217878E-02 
1981	 4.51037588165447E-02 
1982	 4.10066385886082E-02 
1983	 3.92909561438284E-02 
1984	 3.96760293516393E-02 
1985	 3.98830364531227E-02 
1986	 4.01267547079362E-02 
1987	 3.78801784747504E-02 
1988	 3.67824403870956E-02 
1989	 3.69810476285574E-02 
1990	 3.74439702359157E-02 
1991	 0.040898269685552 
1992	 4.48980472957967E-02 
1993	 4.74124796982051E-02 
1994	 5.01064456447183E-02 
1995	 5.40715683605956E-02 
1996	 5.82543401761817E-02 
1997	 5.67231649239799E-02 
1998	 5.36018106909367E-02 
1999	 5.28597706927693E-02 
2000	 4.73271363650406E-02 
2001	 4.02846041026992E-02 
2002	 4.46650365054646E-02 
2003	 0.055308514726327 
2004	 5.94942945687304E-02 
2005	 6.45469793538596E-02 
2006	 6.48553860938467E-02 
2007	 5.57453326275666E-02 
2008	 5.18877231179841E-02 
2009	 5.09611295726129E-02 
2010	 5.92624171324695E-02 
2011	 5.90205447610526E-02 
2012	 5.68567489760503E-02 
2013	 5.15469992903899E-02 
2014	 4.63449081394837E-02 
2015	 4.80687038841984E-02 
2016	 5.79379639002497E-02 
2017	 5.81420491675617E-02 
2018	 5.42475848034697E-02 
2019	 4.91944293266862E-02 
2020	 4.50202726989979E-02 
2021	 4.53558703928804E-02 
2022	 4.53358189222475E-02 
2023	 4.40174705186462E-02 
2024	 4.35036703057621E-02 
2025	 4.19080592188931E-02 
2026	 4.10537233959578E-02 
2027	 0.040933140992029 
2028	 4.13427754689844E-02 
2029	 4.05991286640756E-02 
2030	 3.77127585310288E-02 
2031	 4.01603473655267E-02 
2032	 4.25492840105087E-02 
2033	 4.27301039257458E-02 
2034	 4.39564983862743E-02 
2035	 4.28518450921452E-02 
2036	 0.040841629112021 
2037	 4.16231440471809E-02 
2038	 4.25518691393228E-02 
2039	 4.25990363203487E-02 
2040	 0.041861047786146 
2041	 4.22003127060723E-02 
2042	 4.27915809402529E-02 
2043	 4.38457041162765E-02 
2044	 4.59709086087735E-02 
2045	 4.77061435381586E-02 
2046	 4.88386561811364E-02 
2047	 4.67274243517342E-02 
2048	 4.50314680099507E-02 
2049	 0.046255014893001 
2050	 4.83652192882217E-02 
2051	 5.11442088761974E-02 
2052	 5.24013427912282E-02 
2053	 4.93488042031451E-02 
2054	 0.046235987259427 
2055	 4.47422117891824E-02 
2056	 4.33446933138473E-02 
2057	 4.35801952263938E-02 
2058	 4.34717038759881E-02 
2059	 4.31212689892794E-02 
2060	 0.043324343325592 
2061	 4.45749708096433E-02 
2062	 4.45720111420197E-02 
2063	 4.19117479755381E-02 
2064	 3.95593866483362E-02 
2065	 4.04729427892848E-02 
2066	 4.01209638266393E-02 
2067	 3.96516520790155E-02 
2068	 3.97905294211755E-02 
2069	 3.69510279687772E-02 
2070	 3.50501698515116E-02 
2071	 3.76534964241451E-02 
2072	 4.04287286597338E-02 
2073	 4.29074317399627E-02 
2074	 4.68568685411603E-02 
2075	 4.73184634461632E-02 
2076	 4.64294200088311E-02 
2077	 4.61339225390131E-02 
2078	 0.042094388672253 
2079	 0.041903176844564 
2080	 4.43252757711746E-02 
2081	 4.64702054327766E-02 
2082	 0.046868563932682 
2083	 4.89898419333917E-02 
2084	 5.10095653908571E-02 
2085	 4.97949940800778E-02 
2086	 4.83472897609295E-02 
2087	 4.67730574751835E-02 
2088	 4.43003051580691E-02 
2089	 4.34476399302428E-02 
2090	 4.43957736187361E-02 
2091	 4.54861036840297E-02 
2092	 4.52423969774009E-02 
2093	 4.37722058329162E-02 
2094	 4.35501252060662E-02 
2095	 4.30550319361118E-02 
2096	 4.23302166056377E-02 
2097	 0.042355812679951 
2098	 0.041817143824188 
2099	 3.98045125639909E-02 
2100	 3.97320612372332E-02 
2101	 4.16075073813863E-02 
2102	 4.07279000755965E-02 
2103	 4.14567229502908E-02 
2104	 0.044343547192382 
2105	 4.45557040361965E-02 
2106	 4.56459771512368E-02 
2107	 4.48994758936968E-02 
2108	 4.25997322957001E-02 
2109	 4.19837723002831E-02 
2110	 4.05094028751921E-02 
2111	 3.98786584244322E-02 
2112	 3.96531943958971E-02 
2113	 3.93113577206958E-02 
2114	 3.88820572352028E-02 
2115	 3.81008118386998E-02 
2116	 3.74493394249711E-02 
2117	 3.74204594364475E-02 
2118	 3.58731873108273E-02 
2119	 3.64947235766552E-02 
2120	 4.01913053814037E-02 
2121	 4.06728063697324E-02 
2122	 4.12746740442507E-02 
2123	 4.43044454618607E-02 
2124	 4.29872752351477E-02 
2125	 4.10119949034361E-02 
2126	 4.17430122781829E-02 
2127	 4.03989149708099E-02 
2128	 3.99825348190523E-02 
2129	 4.26801843403514E-02 
2130	 0.042164973609561 
2131	 4.17317960567532E-02 
2132	 0.04209195124676 
2133	 3.93782250474552E-02 
2134	 3.83630570937379E-02 
2135	 3.71818971562334E-02 
2136	 3.67537372770329E-02 
2137	 3.80327827186931E-02 
2138	 3.79057501634964E-02 
2139	 3.68156915412785E-02 
2140	 3.62785027379094E-02 
2141	 3.48937162608966E-02 
2142	 3.52152247933399E-02 
2143	 3.70408393628019E-02 
2144	 3.84021280731359E-02 
2145	 0.040296347026011 
2146	 3.89147181685766E-02 
2147	 3.75480339495835E-02 
2148	 0.039714767627201 
2149	 0.04053364358516 
2150	 4.05146608450396E-02 
2151	 4.13223229522291E-02 
2152	 4.05142169108108E-02 
2153	 4.07522325802192E-02 
2154	 4.20420130374526E-02 
2155	 4.08761895973766E-02 
2156	 4.08093367028091E-02 
2157	 4.06548844973114E-02 
2158	 4.04504095982012E-02 
2159	 0.03961057497939 
2160	 3.81853095476451E-02 
2161	 3.72891542580034E-02 
2162	 3.56622026880039E-02 
2163	 3.46445082484449E-02 
2164	 3.39896025699713E-02 
2165	 3.53751012238463E-02 
2166	 3.85559254709206E-02 
2167	 4.02858215751226E-02 
2168	 4.39066038471743E-02 
2169	 4.57589041257147E-02 
2170	 4.58291294644314E-02 
2171	 4.47598235834654E-02 
2172	 4.37140645863121E-02 
2173	 4.26949132629367E-02 
2174	 4.07283901866157E-02 
2175	 4.06011571680969E-02 
2176	 4.15303253514506E-02 
2177	 4.13004739739059E-02 
2178	 4.29458985812217E-02 
2179	 4.18480996437108E-02 
2180	 4.06357032261332E-02 
2181	 4.13934212586787E-02 
2182	 3.78442744856594E-02 
2183	 3.66530664595075E-02 
2184	 3.79329168716289E-02 
2185	 3.68403845189541E-02 
2186	 3.72692852251158E-02 
2187	 4.05076839184452E-02 
2188	 4.08867279843735E-02 
2189	 3.90556904799971E-02 
2190	 4.02384464523745E-02 
2191	 4.41078459680183E-02 
2192	 4.35836558631238E-02 
2193	 4.07346445087523E-02 
2194	 4.00711262318095E-02 
2195	 3.67268826291169E-02 
2196	 3.54704036606111E-02 
2197	 3.80858720671289E-02 
2198	 0.039222291686078 
2199	 0.039061975116013 
2200	 4.07569268965474E-02 
2201	 4.07159684458197E-02 
2202	 4.01818106437867E-02 
2203	 3.99037589555951E-02 
2204	 3.51374195599057E-02 
2205	 3.20782372399886E-02 
2206	 3.34346828933179E-02 
2207	 3.43676582263883E-02 
2208	 3.65573879183743E-02 
2209	 3.77883754894373E-02 
2210	 3.74763974716279E-02 
2211	 3.83756113488859E-02 
2212	 3.94654178928612E-02 
2213	 3.84330447688953E-02 
2214	 0.036240273864024 
2215	 3.63153135989331E-02 
2216	 3.41519217547558E-02 
2217	 3.41829315676835E-02 
2218	 3.90591847138596E-02 
2219	 4.13778543800108E-02 
2220	 4.27325470324799E-02 
2221	 4.16833623174487E-02 
2222	 3.79717133643286E-02 
2223	 3.75593037639419E-02 
2224	 3.67226584043051E-02 
2225	 3.71574872933184E-02 
2226	 4.31827570962625E-02 
2227	 4.28942604085333E-02 
2228	 3.59163927233533E-02 
2229	 3.42687085229476E-02 
2230	 3.25381068200567E-02 
2231	 0.031876862140877 
2232	 3.69568488469157E-02 
2233	 3.86779252207186E-02 
2234	 3.79609663190344E-02 
2235	 3.82561081259322E-02 
2236	 4.07162467768654E-02 
2237	 3.61928869047654E-02 
2238	 3.19042203429819E-02 
2239	 3.08138833383458E-02 
2240	 3.04828627775473E-02 
2241	 3.31625370746177E-02 
2242	 3.85411114149298E-02 
2243	 4.38130863554786E-02 
2244	 4.45914620283499E-02 
2245	 4.54288304091627E-02 
2246	 4.41552164161671E-02 
2247	 3.95870999478979E-02 
2248	 3.99307586187908E-02 
2249	 3.98394643419456E-02 
2250	 3.87934117328898E-02 
2251	 4.01788770455717E-02 
2252	 3.94195662141761E-02 
2253	 0.036473227186708 
2254	 3.80285841948141E-02 
2255	 4.35421181817385E-02 
2256	 4.23618939900925E-02 
2257	 4.22210487491122E-02 
2258	 4.53667912201604E-02 
2259	 4.04419892648915E-02 
2260	 3.94823090163695E-02 
2261	 4.35168057589624E-02 
2262	 4.36771125479224E-02 
2263	 4.05054215195522E-02 
2264	 4.02298446942308E-02 
2265	 3.98854291219256E-02 
2266	 0.039276173481363 
2267	 4.04720143666103E-02 
2268	 4.10326608729245E-02 
2269	 0.039607058500835 
2270	 4.02831190931379E-02 
2271	 4.32508559540498E-02 
2272	 4.42370469322387E-02 
2273	 4.79281817317464E-02 
2274	 4.79674695683313E-02 
2275	 4.00860499026287E-02 
2276	 0.039533026410991 
2277	 4.26614134996555E-02 
2278	 4.09394457403041E-02 
2279	 4.31145483413225E-02 
2280	 4.30233859344123E-02 
2281	 3.75556222034154E-02 
2282	 3.23972563084339E-02 
2283	 0.031860062158328 
2284	 2.88272486619467E-02 
2285	 0.028088083186038 
2286	 3.59386982441946E-02 
2287	 4.64512865451506E-02 
2288	 0.052955246598106 
2289	 5.22590932088697E-02 
2290	 4.76155102652325E-02 
2291	 4.15541723536007E-02 
2292	 3.53838174772872E-02 
2293	 3.78342844599382E-02 
2294	 3.65649365309252E-02 
2295	 2.93501115935044E-02 
2296	 0.034807959827083 
2297	 3.86406378017828E-02 
2298	 3.98111559775481E-02 
2299	 3.79798095049112E-02 
2300	 3.17480273142473E-02 
2301	 3.30173563259465E-02 
2302	 3.07510180384625E-02 
2303	 4.06513814026002E-02 
2304	 5.46983914895046E-02 
2305	 5.13248486364341E-02 
2306	 5.06454753204455E-02 
2307	 5.19060562343064E-02 
2308	 0.04695016876595 
2309	 4.15137993821497E-02 
2310	 4.30402982459738E-02 
2311	 4.79683057268147E-02 
2312	 4.77377616557963E-02 
2313	 5.23857278819807E-02 
2314	 6.12991942215047E-02 
2315	 5.75073986042961E-02 
2316	 5.50488607106627E-02 
2317	 6.40331844884997E-02 
2318	 6.19495923866611E-02 
2319	 5.97838219725565E-02 
2320	 6.26091473910528E-02 
2321	 4.72314771722463E-02 
2322	 3.72783159244134E-02 
2323	 4.06594663605232E-02 
2324	 3.56984744149422E-02 
2325	 3.24689385158682E-02 
2326	 3.19252124677914E-02 
2327	 0.035902445103128 
2328	 4.74276615747452E-02 
2329	 5.92990685442626E-02 
2330	 7.03468130751165E-02 
2331	 6.79804547379078E-02 
2332	 5.32921358490884E-02 
2333	 4.55104558644881E-02 
2334	 3.83575388823806E-02 
2335	 3.05375653426656E-02 
2336	 3.65329289598347E-02 
2337	 0.045464781696246 
2338	 0.047657012453454 
2339	 4.74897490312196E-02 
2340	 3.99802480231449E-02 
2341	 2.76169539137614E-02 
2342	 3.31765155343338E-02 
2343	 5.97066538186375E-02 
2344	 7.43846014308643E-02 
2345	 7.89283226153571E-02 
2346	 8.58502540966587E-02 
2347	 5.96637720443497E-02 
2348	 0.039386636623432 
2349	 0.043270850756739 
2350	 3.11130491076737E-02 
2351	 4.80318072150083E-02 
2352	 5.44009404708843E-02 
2353	 4.04554524399731E-02 
2354	 6.26687193339139E-02 
2355	 7.64209384723139E-02 
2356	 7.32637382816615E-02 
2357	 7.64069857064026E-02 
2358	 6.43607856367372E-02 
2359	 3.35817886896475E-02 
2360	 9.88988171855063E-03 
2361	-9.29707042616611E-03 
2362	-3.15707615854675E-02 
2363	-3.60498737011485E-02 
2364	-4.5278697815059E-03 
2365	 4.01887601121339E-02 
2366	 0.079326477687972 
2367	 0.118065087158704 
2368	 0.13716572001459 
2369	 0.124946853605871 
2370	 0.120034221750691 
2371	 0.144533023232906 
2372	 0.13613731212001 
2373	 7.51579892278814E-02 
2374	 2.17147335853876E-02 
2375	-1.60887435290622E-02 
2376	-2.55194096261203E-02 
2377	 1.93471098549769E-02 
2378	 5.97567098147813E-02 
2379	 5.18141228875128E-02 
2380	 2.98044844883824E-02 
2381	 5.95201933870907E-02 
2382	 0.152605191486604 
2383	 0.183808319901384 
2384	 0.12997277536268 
2385	 2.37199374029098E-02 
2386	-0.134473912394784 
2387	-0.204556481035762 
2388	-0.159840143880926 
2389	-4.27303703554454E-02 
2390	 0.026064272775859 
2391	 8.65695550054542E-02 
2392	 0.142373015415513 
2393	 7.95418508232076E-02 
2394	 4.11311364879961E-03 
2395	 1.36318443194672E-02 
2396	-4.94520451514711E-02 
2397	-0.074659413541711 
2398	 1.89464291742688E-02 
2399	 5.87022251740858E-02 
2400	 0.165634733164497 
2401	 0.266559193426033 
2402	 0.231266694954744 
2403	 0.206908987046344 
2404	 0.157394921483972 
2405	 0.017562680550516 
2406	-6.62904954710292E-02 
2407	-7.91820779920911E-02 
2408	-0.149938875482331 
2409	-8.25845373136642E-02 
2410	 1.40399731645315E-02 
2411	-0.102588463395483 
2412	-0.107141811776711 
2413	-0.168412601622897 
2414	-0.556944638328968 
2415	-0.621923086872793 
2416	-0.255262664860249 
2417	 4.05216828990446E-02 
2418	 8.71399494469109E-02 
2419	 5.00443453451836E-02 
2420	-0.07793705819686 
2421	-0.1704977228934 
2422	 0.163501401375529 
2423	 0.23411243281145 
2424	 0.234276473666509 
2425	 0.19772893763767 
2426	-1.34578677497334E-03 
2427	 7.82582850873334E-02 
2428	 0.263940152326372 
2429	 0.245407071329817 
2430	 0.161421382646775 
2431	-2.37114159758654E-02 
2432	-0.230712967804939 
2433	-0.171597159786148 
2434	-8.95625160283514E-02 
2435	 0.364528789568184 
2436	 9.62605447702675 
2437	-1.07919100108482 
2438	-0.70303995679036 
2439	-1.24079868334606 
2440	-3.08927288082293 
2441	 1.85303166882042 
2442	 5.9195225724754 
2443	 1.6321660905186 
2444	 1.1687498084864 
2445	 0.735309747176945 
2446	 0.118420461992428 
2447	 0.188251812896773 
2448	 0.177248417878474 
2449	 0.869436610555319 
2450	 1.37127240718271 
2451	 0.286742905157908 
2452	-0.185985945925849 
2453	-4.01954085736891 
2454	-6.53017272142269 
2455	 18.8020107444911 
2456	 1.44128864447769 
2457	 0.259955702739846 
2458	-0.298657235614724 
2459	-0.235177579673654 
2460	-1.18918317147158 
2461	-2.63427551995451 
2462	 4.58404066801241 
2463	 1.57430559054399 
2464	-33.8114777996005 
2465	-5.88873649935827 
2466	 1.07774983096218 
2467	-4.69488863385155 
2468	-1.44238842872234 
2469	-6.54858569509876 
2470	-1.27611924584805 
2471	-0.278021906433757 
2472	 6.561008455352 
2473	-5.84097449076383 
2474	-2.20987933361365 
2475	-3.75003815935546 
2476	 17.4779175296815 
2477	-0.66748789682842 
2478	-4.00228154335385 
2479	 1.53326148971078 
2480	 0.916988810082995 
2481	 1.4098063968305 
2482	 0.819812785916721 
2483	 1.16456578273068 
2484	 1.52428893361897 
2485	 0.161011578311565 
2486	 1.75102277188925 
2487	 7.22136563500622 
2488	 74.9081113833351 
2489	-0.37659817514792 
2490	-0.318377885125314 
2491	 1.67143743146924 
2492	 0.349666714399129 
2493	-0.603190768892383 
2494	 3.5169967008728 
2495	-1.24135149520639 
2496	-0.464164024241847 
2497	-0.273571126506141 
2498	-1.30369906972639 
2499	-2.29538221410185 
2500	-2.03938355680665 
