Wavelength	rt0805close00008.asd
350	 0.059259744592511 
351	 5.84996854568465E-02 
352	 0.058530719410147 
353	 5.88111013830459E-02 
354	 5.88130677011454E-02 
355	 5.90369232847718E-02 
356	 0.058859770806512 
357	 5.84514280438237E-02 
358	 0.058253793333661 
359	 5.87354588730013E-02 
360	 5.87647205906967E-02 
361	 5.86820283817405E-02 
362	 5.95769977275302E-02 
363	 5.90203589113606E-02 
364	 5.85210904462969E-02 
365	 5.87292449266887E-02 
366	 0.058249000329981 
367	 5.88957775829528E-02 
368	 5.93042354234082E-02 
369	 5.83029885415186E-02 
370	 5.83072518536156E-02 
371	 5.87849955163155E-02 
372	 0.059233983789006 
373	 0.059285648222685 
374	 5.96759773730616E-02 
375	 5.95652942813896E-02 
376	 5.91063633352295E-02 
377	 5.99445696043013E-02 
378	 5.99638572606114E-02 
379	 5.99833573240541E-02 
380	 6.07208224129334E-02 
381	 6.03937535283101E-02 
382	 5.97053155791361E-02 
383	 5.95483447033169E-02 
384	 6.04838060825407E-02 
385	 6.02288518482934E-02 
386	 6.02673317460346E-02 
387	 0.060904006155973 
388	 6.08588776947083E-02 
389	 6.13357344646673E-02 
390	 6.19504916524933E-02 
391	 0.062172374465366 
392	 6.18577027575319E-02 
393	 0.061330150290831 
394	 6.13092723299791E-02 
395	 6.21800945184886E-02 
396	 6.21451058188059E-02 
397	 6.20810474781355E-02 
398	 6.22970262724709E-02 
399	 6.24733918885794E-02 
400	 6.24739667121809E-02 
401	 6.26773637196158E-02 
402	 6.30995564616334E-02 
403	 6.27310159357913E-02 
404	 6.26404727026744E-02 
405	 6.29378572617971E-02 
406	 6.32950211822025E-02 
407	 6.31618791209245E-02 
408	 0.06306076219305 
409	 6.31269926459832E-02 
410	 6.30667487635958E-02 
411	 6.32363482402268E-02 
412	 6.35327579034225E-02 
413	 6.37893233792695E-02 
414	 6.38854653310534E-02 
415	 0.06398442752502 
416	 6.41442840192593E-02 
417	 6.43546026639941E-02 
418	 6.44828257309725E-02 
419	 0.064660179867542 
420	 6.49134473671322E-02 
421	 6.51391775027496E-02 
422	 6.52124341148234E-02 
423	 6.53900817323903E-02 
424	 0.065794122039487 
425	 6.59486428040933E-02 
426	 6.61489964885799E-02 
427	 0.066402385901935 
428	 6.66111218361241E-02 
429	 0.06698460478514 
430	 6.73352139422184E-02 
431	 6.76151529973369E-02 
432	 6.79814361651778E-02 
433	 6.81703972656273E-02 
434	 6.84524130519885E-02 
435	 6.89863490313637E-02 
436	 6.92587544855009E-02 
437	 6.95665916035602E-02 
438	 6.98846670348938E-02 
439	 7.00694331010091E-02 
440	 7.05963307858636E-02 
441	 7.10475491305134E-02 
442	 7.12513282841863E-02 
443	 7.15301621716122E-02 
444	 7.19046564950466E-02 
445	 7.22744798173353E-02 
446	 7.25297919007728E-02 
447	 7.26713714769259E-02 
448	 0.07296351651893 
449	 7.33495645755453E-02 
450	 7.35509692903735E-02 
451	 7.37146401712353E-02 
452	 7.38157950747653E-02 
453	 0.073881989673398 
454	 7.40951647969484E-02 
455	 7.43094464424672E-02 
456	 7.44592026538675E-02 
457	 7.45462667695898E-02 
458	 0.074771877399511 
459	 7.49147804922241E-02 
460	 7.49623358735648E-02 
461	 7.51172420673444E-02 
462	 7.50877096460837E-02 
463	 7.50675559831886E-02 
464	 7.52322443221235E-02 
465	 7.54538678607217E-02 
466	 7.56331087380265E-02 
467	 7.57518405168423E-02 
468	 0.075839602448782 
469	 7.58629794675563E-02 
470	 7.59906323730904E-02 
471	 7.62302267591822E-02 
472	 7.63568367240637E-02 
473	 7.64912574039206E-02 
474	 7.66806090395961E-02 
475	 7.69076192948937E-02 
476	 7.69842934965039E-02 
477	 0.07713324538749 
478	 7.73080217146865E-02 
479	 7.73276187718232E-02 
480	 7.77391406591455E-02 
481	 7.81145846694336E-02 
482	 7.81986460224128E-02 
483	 7.83296883836793E-02 
484	 7.85829238571573E-02 
485	 7.88768323455838E-02 
486	 7.91210715148778E-02 
487	 7.96124159997897E-02 
488	 8.00144421540264E-02 
489	 8.02466768113989E-02 
490	 8.05084963433553E-02 
491	 8.08743523845924E-02 
492	 8.13014638176477E-02 
493	 8.17390143778213E-02 
494	 8.22124673874491E-02 
495	 8.26217235987216E-02 
496	 8.30284220162233E-02 
497	 8.35455756945779E-02 
498	 8.39306940383534E-02 
499	 8.43830073276577E-02 
500	 8.49750405255388E-02 
501	 8.55164245533163E-02 
502	 8.60617324901903E-02 
503	 8.66760669631539E-02 
504	 8.73719644139215E-02 
505	 8.79376623764791E-02 
506	 8.84307418892848E-02 
507	 8.89338744054836E-02 
508	 8.95304452477962E-02 
509	 9.01137527264349E-02 
510	 9.06590366207035E-02 
511	 9.11955296360787E-02 
512	 9.18542487436811E-02 
513	 9.25055641198589E-02 
514	 9.31250425879398E-02 
515	 9.37466915923333E-02 
516	 9.44997198247369E-02 
517	 9.52607418373179E-02 
518	 9.59600391599574E-02 
519	 9.66284993811079E-02 
520	 9.72913839851857E-02 
521	 9.80080528545403E-02 
522	 9.88077955611191E-02 
523	 9.96018430802864E-02 
524	 0.10030673980596 
525	 0.100973722895076 
526	 0.101745423354146 
527	 0.102579285915249 
528	 0.103379718033837 
529	 0.104120538613311 
530	 0.104932125346057 
531	 0.105708888461586 
532	 0.106480944422336 
533	 0.107320765066026 
534	 0.108261359457949 
535	 0.109178487170543 
536	 0.110036210686748 
537	 0.110902015133205 
538	 0.111802047935494 
539	 0.112685909187886 
540	 0.11355017450706 
541	 0.114646572524647 
542	 0.115500725570238 
543	 0.11625813346202 
544	 0.117388046491835 
545	 0.118326939581992 
546	 0.119187239784059 
547	 0.120092747214314 
548	 0.121023762315075 
549	 0.121947745079743 
550	 0.122853980691322 
551	 0.123737447477008 
552	 0.124546257421484 
553	 0.125452117868573 
554	 0.126425821334369 
555	 0.127201999844688 
556	 0.128004965975873 
557	 0.128900469218698 
558	 0.12985366210477 
559	 0.13066207042995 
560	 0.131540231775811 
561	 0.132385002945208 
562	 0.132959834057117 
563	 0.133799395456001 
564	 0.134614866223123 
565	 0.135234111523934 
566	 0.135923117452764 
567	 0.136572100925078 
568	 0.137222138346671 
569	 0.137914388480231 
570	 0.138414519653297 
571	 0.138926237372126 
572	 0.139513218031291 
573	 0.140057458949489 
574	 0.140505400823686 
575	 0.140907220138071 
576	 0.141334643903631 
577	 0.141866887767366 
578	 0.142194207121522 
579	 0.142416302422745 
580	 0.142850042794635 
581	 0.143240881046074 
582	 0.143492570910926 
583	 0.143633984341954 
584	 0.143872445649061 
585	 0.144234601566009 
586	 0.144672603307817 
587	 0.145112911672835 
588	 0.14560530900473 
589	 0.145809963841679 
590	 0.145703142392507 
591	 0.145634362310332 
592	 0.1456273239868 
593	 0.145586311125419 
594	 0.145420310838845 
595	 0.145143396016786 
596	 0.144893144623669 
597	 0.144640407759207 
598	 0.144265345925249 
599	 0.143739500060619 
600	 0.143305682274997 
601	 0.143087247874177 
602	 0.142962592331562 
603	 0.142818914989695 
604	 0.142753047990529 
605	 0.142864362577293 
606	 0.142877415148779 
607	 0.142819338137512 
608	 0.142794187385985 
609	 0.142952705885764 
610	 0.14290104355564 
611	 0.142851526299776 
612	 0.142959584451649 
613	 0.142809744293741 
614	 0.142711506238432 
615	 0.142720047268663 
616	 0.142737090691381 
617	 0.142680078729652 
618	 0.142592255132463 
619	 0.142527880623499 
620	 0.142539028317642 
621	 0.142498162626175 
622	 0.142464438730186 
623	 0.142513745334139 
624	 0.142474499743096 
625	 0.142520207818903 
626	 0.142671729072689 
627	 0.142783186891231 
628	 0.142654044675265 
629	 0.142558201804428 
630	 0.142659367911161 
631	 0.142602749803275 
632	 0.142432678616825 
633	 0.142291175211435 
634	 0.142327114415484 
635	 0.142298992963936 
636	 0.142211746868703 
637	 0.142142133824894 
638	 0.142237950341397 
639	 0.142119211515316 
640	 0.141943107295826 
641	 0.14193210558708 
642	 0.141847917597239 
643	 0.141903011930271 
644	 0.142116071785342 
645	 0.142336592927078 
646	 0.142539357517464 
647	 0.142463311005192 
648	 0.142078484027654 
649	 0.141914039551156 
650	 0.141906796259212 
651	 0.141815659037608 
652	 0.141410061723897 
653	 0.141051905131789 
654	 0.140810373356226 
655	 0.140561391421666 
656	 0.13998987993673 
657	 0.139583940690082 
658	 0.139185459314594 
659	 0.138620270708882 
660	 0.138098820277771 
661	 0.137667502968502 
662	 0.137304882889098 
663	 0.136954078927051 
664	 0.136631524246269 
665	 0.136251586075952 
666	 0.135844646717357 
667	 0.135688545425452 
668	 0.135355546119983 
669	 0.135104073343938 
670	 0.135247555038406 
671	 0.135186926047253 
672	 0.135030533676785 
673	 0.134951431788259 
674	 0.135130713638253 
675	 0.135303645444051 
676	 0.135339598168353 
677	 0.135310762320721 
678	 0.135739348135974 
679	 0.136102137727113 
680	 0.136412023457845 
681	 0.1368934989742 
682	 0.137386371314524 
683	 0.137954153033574 
684	 0.138665173745614 
685	 0.139662470398334 
686	 0.14076428149503 
687	 0.141698387793439 
688	 0.142262007124661 
689	 0.142610185430453 
690	 0.143136589050852 
691	 0.143932991337648 
692	 0.144853542417668 
693	 0.14535180470788 
694	 0.145377815496824 
695	 0.145147673289577 
696	 0.1449757094755 
697	 0.145157913338838 
698	 0.145529564189499 
699	 0.145723381923286 
700	 0.145495277514954 
701	 0.145091447135748 
702	 0.144657476076971 
703	 0.144190388619716 
704	 0.143656135845105 
705	 0.143224234923563 
706	 0.142888574765319 
707	 0.142154588881074 
708	 0.141328715776086 
709	 0.140506598375847 
710	 0.139692542799463 
711	 0.138756073553003 
712	 0.137795416627213 
713	 0.13692327237697 
714	 0.136243262716958 
715	 0.136108270207748 
716	 0.136004732663411 
717	 0.135216559007379 
718	 0.134191010837881 
719	 0.131925562148131 
720	 0.129474171513057 
721	 0.127586720128299 
722	 0.126642195489753 
723	 0.125676902742933 
724	 0.124248405117139 
725	 0.122423443927903 
726	 0.120251425186084 
727	 0.117906437385961 
728	 0.115491136605894 
729	 0.112929140225633 
730	 0.109722551240008 
731	 0.106324268641983 
732	 0.103266444870816 
733	 0.101018918966 
734	 9.92701060691234E-02 
735	 9.77688896876437E-02 
736	 9.63006286327642E-02 
737	 9.52245668081602E-02 
738	 9.42754095808609E-02 
739	 9.33087936287361E-02 
740	 9.28864280429402E-02 
741	 9.25910732944802E-02 
742	 9.23470260764549E-02 
743	 9.22335365421694E-02 
744	 0.092095976342786 
745	 9.19757377125559E-02 
746	 9.19290769947211E-02 
747	 0.092001944741826 
748	 9.21326250141304E-02 
749	 9.21798230899908E-02 
750	 9.20886673459124E-02 
751	 9.21339006178327E-02 
752	 9.22062519288899E-02 
753	 9.22176116641802E-02 
754	 9.21377797120899E-02 
755	 9.22693518640016E-02 
756	 9.25152663694777E-02 
757	 9.28426780099027E-02 
758	 9.35080792824299E-02 
759	 9.46757738203076E-02 
760	 9.59947902023037E-02 
761	 9.61831461449549E-02 
762	 9.61564995901761E-02 
763	 9.57493683938785E-02 
764	 9.51739225258243E-02 
765	 9.46492956870919E-02 
766	 9.40526813610035E-02 
767	 0.093843822734998 
768	 0.093998650254407 
769	 9.40827951416018E-02 
770	 9.42803163812743E-02 
771	 9.44491931413016E-02 
772	 9.45306303982992E-02 
773	 9.48457739128786E-02 
774	 9.51864125398009E-02 
775	 9.55057790208293E-02 
776	 9.58356382815489E-02 
777	 9.62212857708892E-02 
778	 9.65665892321645E-02 
779	 9.68586704011464E-02 
780	 9.71820301205379E-02 
781	 9.75650862564436E-02 
782	 9.80807050449317E-02 
783	 9.86915744051623E-02 
784	 9.91002715597722E-02 
785	 9.95595225702589E-02 
786	 0.100105249010273 
787	 0.100703795143511 
788	 0.101445069942394 
789	 0.101953559003945 
790	 0.102287741871062 
791	 0.102827365642036 
792	 0.103008926954056 
793	 0.103252284798216 
794	 0.103801378430815 
795	 0.104395329014297 
796	 0.104908923575652 
797	 0.105306511351358 
798	 0.105643498583441 
799	 0.106022168604383 
800	 0.106521812595346 
801	 0.106887846678651 
802	 0.106802034523264 
803	 0.106880345031656 
804	 0.106940629212448 
805	 0.106834801272383 
806	 0.106546330879565 
807	 0.106625892143764 
808	 0.106914394286281 
809	 0.107125652657349 
810	 0.107035511907345 
811	 0.107148049114509 
812	 0.107419476316992 
813	 0.107539702390644 
814	 0.107477863316158 
815	 0.106977415860689 
816	 0.106195324395136 
817	 0.105491130921325 
818	 0.103879961583558 
819	 0.10255383249408 
820	 0.101775322802079 
821	 0.100701433277815 
822	 9.90862202674609E-02 
823	 9.74079806305752E-02 
824	 9.58886863168411E-02 
825	 9.33754382380876E-02 
826	 9.12554693056295E-02 
827	 8.93014052443478E-02 
828	 8.69055908369081E-02 
829	 8.42273333689101E-02 
830	 8.21079743105558E-02 
831	 0.080393361027738 
832	 7.83621961819694E-02 
833	 7.65731353296993E-02 
834	 7.53157728584374E-02 
835	 7.44718252920385E-02 
836	 7.35261263630707E-02 
837	 7.27300013360882E-02 
838	 7.20062064396128E-02 
839	 7.13024461852741E-02 
840	 7.08048433367653E-02 
841	 7.02098400052564E-02 
842	 6.96417369865974E-02 
843	 6.92731636034617E-02 
844	 6.87248430435489E-02 
845	 6.81195112793504E-02 
846	 6.76525201852334E-02 
847	 6.74816496201319E-02 
848	 0.067161421617102 
849	 6.65421267397098E-02 
850	 6.59118759955766E-02 
851	 6.59699412769067E-02 
852	 6.54543557949039E-02 
853	 6.49059793964929E-02 
854	 6.47598363721234E-02 
855	 6.44035559578295E-02 
856	 6.37851349136363E-02 
857	 0.063334123497724 
858	 6.33272614930303E-02 
859	 6.30296734709807E-02 
860	 6.27468154450538E-02 
861	 6.24623832584146E-02 
862	 6.20711577271309E-02 
863	 6.20047749115658E-02 
864	 6.17441654015988E-02 
865	 0.061289827221122 
866	 6.10997534401524E-02 
867	 6.05581465072057E-02 
868	 5.99710725498441E-02 
869	 5.95838672367015E-02 
870	 5.93761199053932E-02 
871	 0.058444283245575 
872	 5.78019780291014E-02 
873	 0.058025239342524 
874	 5.78052699254867E-02 
875	 5.70536432167181E-02 
876	 5.63921832019121E-02 
877	 5.62810087696028E-02 
878	 5.56462225884437E-02 
879	 5.51493040850203E-02 
880	 5.46643189642305E-02 
881	 5.38653651833007E-02 
882	 5.35760762393207E-02 
883	 0.053080586634704 
884	 0.052384197933982 
885	 5.20659519415074E-02 
886	 5.21299132214142E-02 
887	 5.18412135041131E-02 
888	 5.11137083729466E-02 
889	 5.06819122784945E-02 
890	 5.06515062043305E-02 
891	 5.06080039294025E-02 
892	 0.050401101786998 
893	 5.06332363374808E-02 
894	 5.01765291454761E-02 
895	 4.99309430854692E-02 
896	 5.07050145266432E-02 
897	 5.05983422628123E-02 
898	 5.03574931380826E-02 
899	 4.97084879265896E-02 
900	 4.86482378729565E-02 
901	 4.90751366953007E-02 
902	 4.87130740815309E-02 
903	 4.74457883132517E-02 
904	 4.61280920435755E-02 
905	 4.59092205396252E-02 
906	 4.57806146487086E-02 
907	 4.55790970427851E-02 
908	 4.56022704500675E-02 
909	 4.39856843160509E-02 
910	 4.44692335652295E-02 
911	 4.60436990374537E-02 
912	 4.38066061406156E-02 
913	 4.37146483714675E-02 
914	 4.31413769974701E-02 
915	 4.12479010087397E-02 
916	 0.040315958602006 
917	 3.98214825168114E-02 
918	 0.038288451726712 
919	 3.64536061687345E-02 
920	 3.76471858696027E-02 
921	 3.69619169963857E-02 
922	 3.59546216876469E-02 
923	 3.60361279656273E-02 
924	 3.56144141939563E-02 
925	 3.49187250987886E-02 
926	 3.42201357160785E-02 
927	 3.40890645384583E-02 
928	 3.59732343717061E-02 
929	 3.72199936787544E-02 
930	 3.62447789886102E-02 
931	 3.37690356323311E-02 
932	 4.04144118928204E-02 
933	 4.31837532276019E-02 
934	 3.95331027246347E-02 
935	 3.61974528501602E-02 
936	 3.10841589588783E-02 
937	 3.76647281019057E-02 
938	 4.44419910747881E-02 
939	 3.91854108425166E-02 
940	 3.05702093158177E-02 
941	 3.15826639700232E-02 
942	 0.036613790789157 
943	 3.30309694799881E-02 
944	 3.11691152658007E-02 
945	 3.67606900683543E-02 
946	 4.07685906974839E-02 
947	 3.19473138984002E-02 
948	 3.37905990639597E-02 
949	 3.20783436183036E-02 
950	 2.98471645249745E-02 
951	 3.78287226253992E-02 
952	 4.06095449922095E-02 
953	 3.75153224587494E-02 
954	 3.29522624362736E-02 
955	 3.24494231062978E-02 
956	 3.21391336551785E-02 
957	 3.25349628310045E-02 
958	 3.23008387449195E-02 
959	 2.95977348233544E-02 
960	 2.77389645667329E-02 
961	 2.69158950411011E-02 
962	 2.64229062782777E-02 
963	 2.55245919085109E-02 
964	 2.52086269425164E-02 
965	 2.63427594496299E-02 
966	 2.72964689731023E-02 
967	 2.57261849227576E-02 
968	 2.54787013097766E-02 
969	 2.46862206520809E-02 
970	 0.023104567697459 
971	 2.24713126113133E-02 
972	 2.64357750507478E-02 
973	 2.71752145904985E-02 
974	 2.40157304121944E-02 
975	 0.024020148188815 
976	 2.63199394723581E-02 
977	 2.48618302537576E-02 
978	 2.16258373208866E-02 
979	 2.37739820814876E-02 
980	 2.21643184663293E-02 
981	 2.32246769837913E-02 
982	 2.52164824019361E-02 
983	 2.11391728817347E-02 
984	 2.07285862200034E-02 
985	 1.99442019463748E-02 
986	 1.86007361955744E-02 
987	 1.99364264133197E-02 
988	 2.28093467438756E-02 
989	 0.022452764855635 
990	 2.03538960965082E-02 
991	 2.16303034286605E-02 
992	 2.14618122958537E-02 
993	 2.16191449753683E-02 
994	 2.24799441352602E-02 
995	 2.29457027906198E-02 
996	 2.15220980729358E-02 
997	 2.01693652339796E-02 
998	 2.04341029958149E-02 
999	 2.25020690001583E-02 
1000	 2.27927031251957E-02 
1001	 1.94468360212187E-02 
1002	 0.020137088134138 
1003	 2.00714473184714E-02 
1004	 1.93686192674443E-02 
1005	 1.90355156371678E-02 
1006	 1.82010410585936E-02 
1007	 1.82856280041764E-02 
1008	 1.84127813016389E-02 
1009	 1.91346521457359E-02 
1010	 2.00282869925584E-02 
1011	 2.00058632052646E-02 
1012	 0.020060227657197 
1013	 2.04613444887662E-02 
1014	 2.02926484520175E-02 
1015	 1.92166571129819E-02 
1016	 1.91387336608744E-02 
1017	 1.93823153157782E-02 
1018	 1.95047634088897E-02 
1019	 2.02127569537127E-02 
1020	 2.05878338773797E-02 
1021	 2.08563096370834E-02 
1022	 2.07070713223655E-02 
1023	 2.04653660653484E-02 
1024	 2.06050642885192E-02 
1025	 2.05197193235349E-02 
1026	 0.020524366889368 
1027	 2.05515105138788E-02 
1028	 2.07342403465414E-02 
1029	 2.08551060534277E-02 
1030	 2.11091680414637E-02 
1031	 2.08529232277979E-02 
1032	 2.02404000189404E-02 
1033	 1.99325809609494E-02 
1034	 1.90797144510706E-02 
1035	 1.90486889060375E-02 
1036	 1.97150975117972E-02 
1037	 2.02909279851249E-02 
1038	 2.15299237137761E-02 
1039	 2.21926402673381E-02 
1040	 2.20696694183668E-02 
1041	 0.022235686949895 
1042	 2.20725563761858E-02 
1043	 2.10046141790079E-02 
1044	 2.10728076129656E-02 
1045	 2.18087609767545E-02 
1046	 2.20465877461271E-02 
1047	 2.26517179068032E-02 
1048	 2.27892325166534E-02 
1049	 2.22220797067518E-02 
1050	 2.22370810733591E-02 
1051	 2.24841812567945E-02 
1052	 2.26201737610167E-02 
1053	 2.30449667573574E-02 
1054	 2.32424202770521E-02 
1055	 2.31161049624978E-02 
1056	 2.31736242300878E-02 
1057	 2.32691317948945E-02 
1058	 2.33542436006802E-02 
1059	 2.35544622169624E-02 
1060	 2.40671344735638E-02 
1061	 2.40183978675489E-02 
1062	 2.36847604015737E-02 
1063	 2.35698463445732E-02 
1064	 2.29279572725337E-02 
1065	 2.30043434955448E-02 
1066	 2.40067492854374E-02 
1067	 2.42113011701574E-02 
1068	 2.43597499785739E-02 
1069	 2.43573869531945E-02 
1070	 2.32470474530605E-02 
1071	 2.31692882207759E-02 
1072	 2.36541014565907E-02 
1073	 0.024656896839387 
1074	 0.02459824047079 
1075	 2.46062423422323E-02 
1076	 2.43456047472023E-02 
1077	 2.28690086544254E-02 
1078	 2.26295721356741E-02 
1079	 2.34561836341398E-02 
1080	 2.34813557781859E-02 
1081	 2.31739923849079E-02 
1082	 2.32172229643848E-02 
1083	 2.32165637785965E-02 
1084	 0.023201961968654 
1085	 2.36762264399413E-02 
1086	 2.38465406873655E-02 
1087	 2.35081894525484E-02 
1088	 2.33222369887577E-02 
1089	 2.30528087592041E-02 
1090	 2.31869491471949E-02 
1091	 2.29058382043867E-02 
1092	 2.24527815924588E-02 
1093	 0.022440989483341 
1094	 2.23854939267942E-02 
1095	 2.23633184971184E-02 
1096	 2.27455883782257E-02 
1097	 2.29766115395539E-02 
1098	 2.31811145819131E-02 
1099	 2.31111534658557E-02 
1100	 2.28285179778371E-02 
1101	 2.29453481968927E-02 
1102	 2.27303759310138E-02 
1103	 2.29560999542046E-02 
1104	 2.45100987614769E-02 
1105	 2.51960202115945E-02 
1106	 2.40259562286905E-02 
1107	 2.33210845321721E-02 
1108	 0.022650849641966 
1109	 2.09857368906824E-02 
1110	 2.09522606881063E-02 
1111	 2.37365938010957E-02 
1112	 2.43954266535182E-02 
1113	 2.49595285254311E-02 
1114	 2.46521013753003E-02 
1115	 2.09108491266345E-02 
1116	 2.01724596162058E-02 
1117	 2.11487908427661E-02 
1118	 2.16608032423239E-02 
1119	 0.027290764878305 
1120	 2.99317357045465E-02 
1121	 2.54815678924337E-02 
1122	 2.79443343095387E-02 
1123	 0.027350078524314 
1124	 1.88606402210689E-02 
1125	 3.03524143317282E-02 
1126	 0.04399740153554 
1127	 3.44179343188395E-02 
1128	 3.41985285280322E-02 
1129	 3.42970042208964E-02 
1130	 2.02994278195717E-02 
1131	 1.79795737921443E-02 
1132	 3.31683515877065E-02 
1133	 3.20040739466576E-02 
1134	 1.69608209164099E-02 
1135	 1.65183493656117E-02 
1136	 2.18655373987842E-02 
1137	 2.16255448370403E-02 
1138	 2.15960295149381E-02 
1139	 2.82715982310674E-02 
1140	 2.76786087738236E-02 
1141	 2.08939675937447E-02 
1142	 2.22022092219785E-02 
1143	 2.69673071213399E-02 
1144	 2.73121426842022E-02 
1145	 2.96388194124456E-02 
1146	 3.04830195024923E-02 
1147	 0.023131997268132 
1148	 1.95528028559254E-02 
1149	 2.41001212730274E-02 
1150	 2.41766454894758E-02 
1151	 2.40688190672862E-02 
1152	 2.44138743839331E-02 
1153	 2.27628018250654E-02 
1154	 2.21566609886651E-02 
1155	 2.14722342573731E-02 
1156	 2.52576587409885E-02 
1157	 2.48780129689895E-02 
1158	 2.26360617645511E-02 
1159	 2.25951122833197E-02 
1160	 2.28957086404726E-02 
1161	 2.28776569070545E-02 
1162	 2.41882410512436E-02 
1163	 0.024765188268116 
1164	 2.25007207892475E-02 
1165	 2.15113468379597E-02 
1166	 2.18954186199413E-02 
1167	 2.13078697990018E-02 
1168	 2.16675455782159E-02 
1169	 2.21062191865458E-02 
1170	 2.13870978910003E-02 
1171	 2.10262276583261E-02 
1172	 2.08019416942303E-02 
1173	 2.07723187372392E-02 
1174	 2.06905959752209E-02 
1175	 2.06197042910164E-02 
1176	 2.09474375203731E-02 
1177	 2.09783099025577E-02 
1178	 2.08799001084615E-02 
1179	 0.021065381513508 
1180	 2.11094423588597E-02 
1181	 2.08309579244915E-02 
1182	 2.03589146457306E-02 
1183	 2.06521588386993E-02 
1184	 2.09320160435751E-02 
1185	 2.08049198361143E-02 
1186	 2.11117145602136E-02 
1187	 2.08706441481616E-02 
1188	 0.020161049460464 
1189	 2.02391914311224E-02 
1190	 2.07061561532912E-02 
1191	 2.05643740109201E-02 
1192	 2.04918145736442E-02 
1193	 2.06406818656699E-02 
1194	 2.07167935546418E-02 
1195	 2.01808892243886E-02 
1196	 2.02039977569963E-02 
1197	 2.05562989796289E-02 
1198	 2.04472317458963E-02 
1199	 2.00935515005049E-02 
1200	 2.03003512703635E-02 
1201	 0.020473365716867 
1202	 1.97901371382035E-02 
1203	 2.00550990685918E-02 
1204	 2.05104998677284E-02 
1205	 1.96083291826567E-02 
1206	 0.019547121951759 
1207	 2.03123731963237E-02 
1208	 1.99888710244361E-02 
1209	 1.97065531957505E-02 
1210	 2.02171306810989E-02 
1211	 2.01835466377921E-02 
1212	 1.99113301296775E-02 
1213	 2.01117035119146E-02 
1214	 2.01260230134224E-02 
1215	 2.00644707982366E-02 
1216	 1.95869548728263E-02 
1217	 0.019420855664934 
1218	 1.96904462121964E-02 
1219	 1.96427220104815E-02 
1220	 1.92822046041963E-02 
1221	 1.92164984944906E-02 
1222	 1.92948701155346E-02 
1223	 1.90233652907619E-02 
1224	 1.91323893429087E-02 
1225	 0.019480342354682 
1226	 1.90031365401323E-02 
1227	 1.88683407726999E-02 
1228	 1.93220534165209E-02 
1229	 1.92171087741848E-02 
1230	 1.89511304667203E-02 
1231	 1.89366511339716E-02 
1232	 1.88339944733602E-02 
1233	 1.87859426118006E-02 
1234	 1.86939888946333E-02 
1235	 1.86241664362423E-02 
1236	 1.84983773907981E-02 
1237	 0.018565103308158 
1238	 1.87737025885222E-02 
1239	 1.86509053227266E-02 
1240	 1.88068632115332E-02 
1241	 1.89074224563006E-02 
1242	 1.85809518907433E-02 
1243	 1.86453354548411E-02 
1244	 0.019060298954329 
1245	 1.88111989330147E-02 
1246	 1.85051423588832E-02 
1247	 1.86916460304411E-02 
1248	 1.82737342004699E-02 
1249	 1.77437852133227E-02 
1250	 1.81979219836974E-02 
1251	 1.88298151752212E-02 
1252	 1.90208438012927E-02 
1253	 1.88668641515419E-02 
1254	 1.85230483447925E-02 
1255	 0.018374230219434 
1256	 1.82241583094701E-02 
1257	 1.83648004995403E-02 
1258	 1.86847845385911E-02 
1259	 1.92980014347472E-02 
1260	 0.019168270603171 
1261	 1.88443192623595E-02 
1262	 1.89740581657933E-02 
1263	 1.89688375100862E-02 
1264	 1.83410634114456E-02 
1265	 1.86218055202633E-02 
1266	 0.019214918022312 
1267	 1.90651554246102E-02 
1268	 1.89127073603354E-02 
1269	 1.90554520435327E-02 
1270	 1.89480837124927E-02 
1271	 1.88727931119258E-02 
1272	 0.019126943783249 
1273	 1.93229999120383E-02 
1274	 1.95810355794633E-02 
1275	 0.019314771687403 
1276	 1.87189818081162E-02 
1277	 1.87628371089568E-02 
1278	 1.86688184259041E-02 
1279	 1.85332664081634E-02 
1280	 1.88138400774916E-02 
1281	 1.89530497675099E-02 
1282	 1.86815118326331E-02 
1283	 1.86654596809381E-02 
1284	 1.90356818710892E-02 
1285	 1.91976716197612E-02 
1286	 1.92824296047129E-02 
1287	 1.92255566842068E-02 
1288	 1.89105046818493E-02 
1289	 1.89599884715477E-02 
1290	 1.90469921785641E-02 
1291	 1.91663163545858E-02 
1292	 1.92963566378292E-02 
1293	 0.019493591173331 
1294	 1.95546116517704E-02 
1295	 1.95020418883675E-02 
1296	 1.90603229199959E-02 
1297	 1.83919704316189E-02 
1298	 1.86589637860028E-02 
1299	 1.88071899910562E-02 
1300	 1.87706452783406E-02 
1301	 1.96435389808916E-02 
1302	 2.00978856865447E-02 
1303	 1.99963337817312E-02 
1304	 1.94740338499629E-02 
1305	 1.91831404158186E-02 
1306	 1.94626305539705E-02 
1307	 1.93860568453322E-02 
1308	 1.92160325679082E-02 
1309	 2.00863449434007E-02 
1310	 2.06775124181917E-02 
1311	 0.020601617756259 
1312	 2.02860596338267E-02 
1313	 0.019981810426349 
1314	 0.020449504730336 
1315	 2.08308371658653E-02 
1316	 2.06066501445436E-02 
1317	 2.12883038175247E-02 
1318	 0.021744754122345 
1319	 2.05031831791526E-02 
1320	 2.02189790344055E-02 
1321	 2.13029876353474E-02 
1322	 2.18571429888851E-02 
1323	 2.14736920124444E-02 
1324	 2.15141082560921E-02 
1325	 2.19669950321879E-02 
1326	 2.23178716028956E-02 
1327	 0.022593685647814 
1328	 2.34416240844909E-02 
1329	 2.40618375423893E-02 
1330	 2.44222702470275E-02 
1331	 2.44132517482768E-02 
1332	 2.28662823180496E-02 
1333	 2.19971565027795E-02 
1334	 2.29671285808769E-02 
1335	 2.24681681729683E-02 
1336	 2.13288700532264E-02 
1337	 2.20670922177345E-02 
1338	 2.44155775086841E-02 
1339	 2.40958300989232E-02 
1340	 2.21665725206731E-02 
1341	 2.36116584360567E-02 
1342	 2.66624788322937E-02 
1343	 2.57968044295532E-02 
1344	 0.02625397544134 
1345	 0.028975942676685 
1346	 2.74626975034066E-02 
1347	 2.16597777624863E-02 
1348	 1.31097638771695E-02 
1349	 1.20752644075283E-02 
1350	 7.63755732472671E-03 
1351	-6.89203422571339E-03 
1352	 8.50051357728507E-03 
1353	 2.56943956474171E-02 
1354	 3.19073348922941E-02 
1355	-6.98194392021659E-02 
1356	-0.058865122011437 
1357	 6.00612864589643E-02 
1358	 5.57787892552039E-03 
1359	-0.22585963098809 
1360	-0.389262160456429 
1361	-0.377633828963213 
1362	-0.169780370538312 
1363	-0.168795377440118 
1364	-0.337055106407496 
1365	-0.568915927576192 
1366	-0.8808503262408 
1367	-0.703471275704441 
1368	-0.583348778927324 
1369	-0.142917983601702 
1370	 2.11406494064891E-02 
1371	 7.42142308273036E-02 
1372	 5.29051003356863E-02 
1373	-0.39599657789386 
1374	-0.441658496320283 
1375	-0.313671613252159 
1376	-0.370201456209103 
1377	-0.233720977956957 
1378	-0.265610564690389 
1379	-1.13428635670803 
1380	-1.62627258168832 
1381	-0.953876945548367 
1382	-0.833646212234751 
1383	 0.08363215312059 
1384	 0.108003420538915 
1385	-1.23026911090581 
1386	-1.23515157381848 
1387	-0.368567066705905 
1388	-0.495132983975279 
1389	-4.51071616164965 
1390	-3.22456535760781 
1391	-0.814989923080172 
1392	-1.52029616005875 
1393	-1.58232274144707 
1394	-0.56589664409133 
1395	-0.564735376857927 
1396	-0.6984388683194 
1397	-0.567114478061958 
1398	-0.692648434956119 
1399	-0.655557098678343 
1400	-0.512892625234829 
1401	-0.359096957760446 
1402	-0.16869910716431 
1403	-0.162577294969855 
1404	-0.434362877810844 
1405	-0.510381352825562 
1406	-0.157532522242294 
1407	-0.120672270439492 
1408	-0.316674272552886 
1409	-0.267663042396667 
1410	-7.38455846958452E-02 
1411	-0.107003343090973 
1412	-9.89930420019148E-02 
1413	-0.186849344127229 
1414	-0.925182893517529 
1415	-0.851392033788532 
1416	-0.299379803216664 
1417	-0.257797977254623 
1418	-0.356510853097608 
1419	-0.21860298509433 
1420	-9.60295755407782E-02 
1421	-7.02355252567953E-02 
1422	 6.83032533702305E-02 
1423	 7.43886829646479E-02 
1424	-7.16636352372266E-02 
1425	-9.59026330139912E-02 
1426	-0.022794248219497 
1427	-4.00319165231214E-02 
1428	-0.161715115449437 
1429	-0.145445837047174 
1430	-3.71874122788796E-02 
1431	-5.10748033317722E-02 
1432	-0.108533320736844 
1433	-7.15899117131611E-02 
1434	 7.17940849686448E-03 
1435	-1.88195813890768E-02 
1436	-6.73798164207728E-02 
1437	-0.044481645467537 
1438	-2.87262258298276E-02 
1439	-7.77142131858811E-02 
1440	-7.15507757573813E-02 
1441	 1.63716520816462E-02 
1442	 3.27235677253624E-02 
1443	-2.85789457654144E-03 
1444	 3.3329423217828E-03 
1445	 1.61630796325637E-02 
1446	 1.20595654618415E-02 
1447	 1.06099016500487E-02 
1448	 1.62677957732141E-02 
1449	 2.04415382398046E-02 
1450	 2.27586324176421E-02 
1451	 2.10140914024126E-02 
1452	 1.52427248446546E-02 
1453	 1.47374038068683E-02 
1454	 1.96393266042545E-02 
1455	 2.74548822352575E-02 
1456	 2.77568888104371E-02 
1457	 2.84317836706291E-02 
1458	 3.04809646875557E-02 
1459	 3.19804977016798E-02 
1460	 2.65972357469354E-02 
1461	 1.75699610586302E-02 
1462	 1.98181490575381E-02 
1463	 2.19091143022343E-02 
1464	 0.018410465608527 
1465	 2.19591494811409E-02 
1466	 2.53410368872974E-02 
1467	 1.98621634163144E-02 
1468	 1.50159171398524E-02 
1469	 1.70788854393259E-02 
1470	 2.13601823839988E-02 
1471	 1.96020826741078E-02 
1472	 1.73587242906274E-02 
1473	 2.40222723601992E-02 
1474	 2.62217811521844E-02 
1475	 1.81469011172925E-02 
1476	 1.79888692913731E-02 
1477	 2.66307316603417E-02 
1478	 2.74013370722652E-02 
1479	 0.024224846054216 
1480	 2.29439049968791E-02 
1481	 0.019255911444105 
1482	 1.96452425633541E-02 
1483	 2.44470626688611E-02 
1484	 2.43674863249686E-02 
1485	 2.16669934487616E-02 
1486	 2.22892292832459E-02 
1487	 2.36244561332501E-02 
1488	 2.28011734378393E-02 
1489	 2.27519661370468E-02 
1490	 2.29075913097008E-02 
1491	 0.021334623549059 
1492	 2.09110433843519E-02 
1493	 2.18231330968803E-02 
1494	 2.19471495889942E-02 
1495	 2.17056625932856E-02 
1496	 2.14233037304492E-02 
1497	 0.020987114959568 
1498	 2.10697682262312E-02 
1499	 2.14917172156581E-02 
1500	 2.14042886468522E-02 
1501	 2.10485152550138E-02 
1502	 2.08905266187764E-02 
1503	 2.06069444503879E-02 
1504	 2.05312935297641E-02 
1505	 2.07168024411501E-02 
1506	 0.021090990914332 
1507	 2.09640038065839E-02 
1508	 0.020289186371407 
1509	 2.02675995704749E-02 
1510	 2.06285876895987E-02 
1511	 2.06053598478227E-02 
1512	 2.02891513464784E-02 
1513	 0.020069649212466 
1514	 1.96150127005099E-02 
1515	 1.95167082205559E-02 
1516	 1.98394480225878E-02 
1517	 1.94589239762813E-02 
1518	 1.91265776533998E-02 
1519	 1.92431348386539E-02 
1520	 1.92475380717599E-02 
1521	 1.91530175527639E-02 
1522	 1.91111986561177E-02 
1523	 1.93410451235199E-02 
1524	 1.93107924365025E-02 
1525	 1.91334180253396E-02 
1526	 1.92084413813914E-02 
1527	 1.89938824463817E-02 
1528	 1.84999465807636E-02 
1529	 1.84379643051252E-02 
1530	 1.86301289153321E-02 
1531	 1.84254092504617E-02 
1532	 1.85428980821973E-02 
1533	 1.84591090534301E-02 
1534	 1.79408692248384E-02 
1535	 1.83380980134531E-02 
1536	 1.85016627517167E-02 
1537	 1.80354964875928E-02 
1538	 1.81281570812965E-02 
1539	 1.84985642479884E-02 
1540	 1.83816730164853E-02 
1541	 0.018055721365886 
1542	 1.81819600835556E-02 
1543	 1.82771173914138E-02 
1544	 1.80052576713942E-02 
1545	 1.75121890552084E-02 
1546	 0.017367018663858 
1547	 1.77269486622948E-02 
1548	 1.77751469197319E-02 
1549	 1.78852880297572E-02 
1550	 0.01804759200545 
1551	 1.74216521306141E-02 
1552	 1.67674336765705E-02 
1553	 1.67932204498403E-02 
1554	 1.71928408316112E-02 
1555	 1.75217835340453E-02 
1556	 1.78181178057059E-02 
1557	 1.82040586626216E-02 
1558	 0.018285114839258 
1559	 1.80115579846287E-02 
1560	 1.76123329333316E-02 
1561	 1.74616921025457E-02 
1562	 1.75403528393004E-02 
1563	 1.77761377780886E-02 
1564	 1.79558344590092E-02 
1565	 1.78407204369745E-02 
1566	 1.80843801979646E-02 
1567	 1.82427132466261E-02 
1568	 1.80050353881823E-02 
1569	 1.79108657316029E-02 
1570	 1.75207844448327E-02 
1571	 1.72645372252144E-02 
1572	 1.74394073866675E-02 
1573	 1.75950218052289E-02 
1574	 1.77635844904947E-02 
1575	 1.76531690906514E-02 
1576	 1.76666542720164E-02 
1577	 1.75585813228691E-02 
1578	 1.71068485245176E-02 
1579	 1.73821449440654E-02 
1580	 1.74144056890565E-02 
1581	 1.69398922914197E-02 
1582	 1.72780670012268E-02 
1583	 1.74801990141548E-02 
1584	 1.72717575470072E-02 
1585	 1.73837241410106E-02 
1586	 1.73528142388906E-02 
1587	 1.76021687021396E-02 
1588	 1.77484805773293E-02 
1589	 1.72955013085387E-02 
1590	 0.017500538399677 
1591	 1.75406892634344E-02 
1592	 0.016949227752928 
1593	 1.72770258559435E-02 
1594	 1.77614198776148E-02 
1595	 1.76309203028909E-02 
1596	 1.77393988752005E-02 
1597	 1.78861984203673E-02 
1598	 1.78880633105127E-02 
1599	 1.80054463190432E-02 
1600	 1.79902485098848E-02 
1601	 1.74729491284308E-02 
1602	 0.016973694237615 
1603	 1.72520774220506E-02 
1604	 1.75671542024193E-02 
1605	 1.79034814240925E-02 
1606	 0.018402580412083 
1607	 1.75744530071303E-02 
1608	 1.65768263009688E-02 
1609	 1.69610140678634E-02 
1610	 1.71321200673714E-02 
1611	 1.71300678431983E-02 
1612	 1.75955379764622E-02 
1613	 1.77297047003968E-02 
1614	 1.76117468428096E-02 
1615	 1.73033526190458E-02 
1616	 1.71160966026149E-02 
1617	 0.017310336520764 
1618	 1.68577868022139E-02 
1619	 1.63458257769743E-02 
1620	 0.017033107863777 
1621	 1.74767789610816E-02 
1622	 1.71504193879791E-02 
1623	 1.73209598830367E-02 
1624	 1.73863382862171E-02 
1625	 1.67073463303504E-02 
1626	 1.65011805721447E-02 
1627	 1.67791488867825E-02 
1628	 1.65494468018312E-02 
1629	 1.64863991187174E-02 
1630	 1.68404165033502E-02 
1631	 1.68239884986915E-02 
1632	 1.66264203638673E-02 
1633	 1.66338656720409E-02 
1634	 1.64855151372928E-02 
1635	 1.65153966119449E-02 
1636	 1.67452265103458E-02 
1637	 1.65956259317958E-02 
1638	 1.67323612459904E-02 
1639	 1.72842725941752E-02 
1640	 1.77535997501209E-02 
1641	 1.80929215398615E-02 
1642	 0.017903114006625 
1643	 1.74818487410378E-02 
1644	 1.78015498176883E-02 
1645	 1.80749929325046E-02 
1646	 1.77673492123231E-02 
1647	 1.75584389432774E-02 
1648	 1.73922857421883E-02 
1649	 1.73211211384315E-02 
1650	 1.75251501090815E-02 
1651	 1.80681976395198E-02 
1652	 1.81000149538637E-02 
1653	 1.77241468218637E-02 
1654	 0.017753442970831 
1655	 1.76538561047077E-02 
1656	 1.76366223118564E-02 
1657	 1.79146986158234E-02 
1658	 1.77236255865002E-02 
1659	 1.71158631831622E-02 
1660	 1.73064324340456E-02 
1661	 1.78646823874315E-02 
1662	 0.017964201952461 
1663	 1.83783167903754E-02 
1664	 0.018492876372747 
1665	 1.79715775347575E-02 
1666	 1.77840288160287E-02 
1667	 1.78741386754538E-02 
1668	 1.75498055793445E-02 
1669	 1.73923763245358E-02 
1670	 1.75268873334995E-02 
1671	 1.75554036913678E-02 
1672	 0.017315021968802 
1673	 1.69709215690188E-02 
1674	 0.016790990388321 
1675	 1.65918017863375E-02 
1676	 0.016897840588507 
1677	 1.80027455504567E-02 
1678	 1.78224152067608E-02 
1679	 1.68680348519573E-02 
1680	 1.67825485725413E-02 
1681	 1.65212731126002E-02 
1682	 1.60672926398406E-02 
1683	 0.016360882880716 
1684	 1.70164118418527E-02 
1685	 1.69958876418092E-02 
1686	 1.70526114035146E-02 
1687	 1.77882706479913E-02 
1688	 1.77620541207265E-02 
1689	 1.72039803497958E-02 
1690	 1.71381417800979E-02 
1691	 1.75565778507014E-02 
1692	 0.01807096726651 
1693	 1.79307731276479E-02 
1694	 1.75750613331572E-02 
1695	 1.76737651270251E-02 
1696	 1.72594061860236E-02 
1697	 1.69451707941082E-02 
1698	 0.017900810049557 
1699	 1.80831112212565E-02 
1700	 1.75659844526541E-02 
1701	 1.79669238087463E-02 
1702	 0.01787162879438 
1703	 1.80032256252973E-02 
1704	 1.89272761482778E-02 
1705	 1.83881369844775E-02 
1706	 1.78731542806525E-02 
1707	 1.81896834779807E-02 
1708	 1.73788975492606E-02 
1709	 1.69461067446367E-02 
1710	 1.74304471257757E-02 
1711	 1.67606162702135E-02 
1712	 0.016021339360582 
1713	 1.67831812192462E-02 
1714	 1.71722793096644E-02 
1715	 1.80523447049714E-02 
1716	 1.81151702645689E-02 
1717	 1.68295085849234E-02 
1718	 1.58430646937199E-02 
1719	 1.65153129384917E-02 
1720	 1.74179630585738E-02 
1721	 0.018227480406723 
1722	 0.018897079170323 
1723	 1.82121014130064E-02 
1724	 1.73273194946894E-02 
1725	 1.73965108538892E-02 
1726	 1.79514046748292E-02 
1727	 1.78959262449993E-02 
1728	 0.017156299912497 
1729	 1.74173320914792E-02 
1730	 1.87240772237535E-02 
1731	 1.92767610460142E-02 
1732	 1.86080681159645E-02 
1733	 0.017511760267712 
1734	 1.59231264294243E-02 
1735	 1.51335675676448E-02 
1736	 0.016396687664022 
1737	 1.85411671671459E-02 
1738	 2.03669357350733E-02 
1739	 2.03206467776676E-02 
1740	 1.86876798989745E-02 
1741	 1.78121981686589E-02 
1742	 1.69021912515661E-02 
1743	 0.015262106529564 
1744	 1.59333415334664E-02 
1745	 1.76231174670189E-02 
1746	 1.89638850391412E-02 
1747	 1.94286075226038E-02 
1748	 1.90211517478604E-02 
1749	 1.88180863592548E-02 
1750	 1.73297773214801E-02 
1751	 1.72118175959216E-02 
1752	 1.94839662208124E-02 
1753	 0.019956043308358 
1754	 1.89244218430681E-02 
1755	 0.018919918532604 
1756	 1.90939815966834E-02 
1757	 1.88250294385351E-02 
1758	 1.92238554471684E-02 
1759	 1.95094899195579E-02 
1760	 1.89057959052372E-02 
1761	 1.80374500961656E-02 
1762	 1.83829951799193E-02 
1763	 2.00302331757593E-02 
1764	 0.018826843249642 
1765	 1.75442051486322E-02 
1766	 1.91105899131728E-02 
1767	 1.84655683133846E-02 
1768	 1.82237668828292E-02 
1769	 2.04398041728013E-02 
1770	 1.99493748625448E-02 
1771	 1.96697281101211E-02 
1772	 2.10475323373575E-02 
1773	 2.07775441366495E-02 
1774	 2.15933924019398E-02 
1775	 0.022208420014604 
1776	 2.15367666549419E-02 
1777	 1.89006409316023E-02 
1778	 0.017484383957995 
1779	 1.64996089931653E-02 
1780	 1.58972124011833E-02 
1781	 0.016560721624624 
1782	 1.71196065954373E-02 
1783	 1.53758451555583E-02 
1784	 1.61549098243448E-02 
1785	 2.11989878819545E-02 
1786	 2.47299969020784E-02 
1787	 3.24186898180035E-02 
1788	 3.26936337541192E-02 
1789	 0.024181199846593 
1790	 2.05493647501704E-02 
1791	 1.34030445053079E-02 
1792	 8.55955647222322E-03 
1793	 1.56501698234954E-02 
1794	 1.39396656557376E-02 
1795	 3.2331761399635E-03 
1796	 1.07482437650456E-02 
1797	 0.012771452717005 
1798	 1.18063837924102E-02 
1799	 0.030554367664821 
1800	 1.37176927666905E-02 
1801	 6.85285645308872E-03 
1802	 0.018156532744702 
1803	 1.10752908640014E-02 
1804	-0.0173516729682 
1805	-4.84064076514171E-02 
1806	-0.120760145474342 
1807	-0.182138602288012 
1808	-0.19263465883772 
1809	-0.263118603995341 
1810	-0.428298464720763 
1811	-0.397272325228174 
1812	 1.44158985097621E-02 
1813	 0.650568630825595 
1814	 8.61394463617709 
1815	 3.09658555583084 
1816	-1.00276262671324 
1817	-0.741998464955527 
1818	-1.18746045437122 
1819	-0.676243638455077 
1820	-3.40187487730727E-02 
1821	-0.142900980193312 
1822	-0.208632585835136 
1823	-0.824174363610251 
1824	-1.30124628723861 
1825	-2.44895241013741 
1826	-2.40053997479028 
1827	-0.793020269321965 
1828	-0.330514351890153 
1829	-4.79345419244456E-02 
1830	-1.87551284278371E-02 
1831	-0.312408814527525 
1832	-0.232182892338263 
1833	 0.249809047547103 
1834	 0.126461033364977 
1835	-0.868145551977571 
1836	-1.30623628655322 
1837	 3.16634979525563 
1838	 1.33569963534277 
1839	 0.785285870067255 
1840	 14.4059876284046 
1841	-0.569200936091879 
1842	 2.00455764806539 
1843	 2.62426517131578 
1844	 0.753562091881323 
1845	 0.965259968497767 
1846	-0.326073402272136 
1847	-6.15835323856854E-02 
1848	-3.15351344417486E-02 
1849	-0.456108775228594 
1850	-0.805922719311852 
1851	-0.640130301470877 
1852	-0.2831918419753 
1853	 0.19708460997722 
1854	 0.163545986531736 
1855	-0.245945483937789 
1856	-0.309561451307523 
1857	 1.18451953875954 
1858	 0.796693266034879 
1859	-9.20321431148615E-02 
1860	 0.929980885988146 
1861	-1.59856141561117E-02 
1862	-0.107666495164035 
1863	-10.8795432134878 
1864	-2.85593093629581 
1865	 0.785907303523983 
1866	 22.1988543825558 
1867	 1.40373274983553 
1868	 0.925648711859412 
1869	 0.67551380604707 
1870	-0.341623966136848 
1871	-0.52286967097794 
1872	-0.887354871350679 
1873	-0.686973704281898 
1874	-0.425915840286427 
1875	-0.38067572517531 
1876	-0.352726092203334 
1877	-0.64430624012831 
1878	-0.416197187531461 
1879	 0.634809263342728 
1880	 0.829158462135853 
1881	 0.931888352365632 
1882	 0.340723235593232 
1883	 0.588524505682913 
1884	 0.452446027277424 
1885	-0.9094439362585 
1886	 3.78110804330965 
1887	 2.90494783845996 
1888	-0.953842796739388 
1889	-0.677401282057172 
1890	-0.588473021261199 
1891	-0.503790331054076 
1892	 2.22886022525659E-02 
1893	 0.135315063274675 
1894	-0.286237742950309 
1895	-0.793844776415994 
1896	-0.524310379454555 
1897	-0.234342749237958 
1898	-6.83973740870951E-02 
1899	 0.698975297875313 
1900	 1.28089256094577 
1901	 2.30780485688062 
1902	 2.84690657126599 
1903	 1.07729562546726 
1904	 0.409397779451233 
1905	 0.304817171355431 
1906	-11.3548996844625 
1907	-2.41088039122615 
1908	 3.09107130544306 
1909	-7.61497607870581 
1910	-2.64507196789049 
1911	 9.26976325892924 
1912	-12.7924456861526 
1913	-4.46515870352421 
1914	-5.15448735746893 
1915	-6.77627971010234 
1916	-0.86449400651633 
1917	-5.36604089747024 
1918	 0.590923131273478 
1919	 0.177188722560515 
1920	 0.267372412846801 
1921	 0.717169620010027 
1922	 0.671345108201319 
1923	 0.302187430031111 
1924	 7.25370587930966 
1925	 7.60006918625881 
1926	 7.6784534600451 
1927	-0.096251913477415 
1928	 4.44738592741966 
1929	 0.644542747857773 
1930	 0.230654799216093 
1931	 0.186119184947618 
1932	 0.340524619530752 
1933	 0.454905701629284 
1934	 0.348558223706506 
1935	 0.614188032621982 
1936	 1.22532646746084 
1937	 0.211091748988749 
1938	-8.81224571341027E-02 
1939	-8.14087571750303E-02 
1940	 2.88860653584222E-02 
1941	 1.56850372413225E-02 
1942	-3.3732088668092E-03 
1943	 1.40602400359459E-02 
1944	-2.62197508759785E-02 
1945	-0.128808677412751 
1946	-0.133643864836412 
1947	-0.155022423207405 
1948	-7.71600683862244E-02 
1949	 4.16015109104393E-02 
1950	 0.132799657912896 
1951	 0.194214713582752 
1952	 0.177792602762422 
1953	 4.42704545337937E-02 
1954	-2.78996450202019E-02 
1955	-7.46977625459306E-03 
1956	 3.55780423163009E-02 
1957	 0.109253044934637 
1958	 0.147804879571238 
1959	 0.127701631265572 
1960	 8.62153816038464E-02 
1961	 6.20926110377824E-02 
1962	 3.90078461291453E-02 
1963	-5.33124115387308E-03 
1964	-7.02937004377011E-03 
1965	 1.15343417817805E-02 
1966	 0.016619629171901 
1967	 0.018991733530018 
1968	 3.39444367566099E-02 
1969	 3.76555673239203E-02 
1970	 3.47282936149906E-02 
1971	 3.47169519068303E-02 
1972	 3.15021882504142E-02 
1973	 2.81262514716927E-02 
1974	 2.40490163051507E-02 
1975	 2.50728574516425E-02 
1976	 2.92635028195291E-02 
1977	 3.42605326168925E-02 
1978	 3.40882343626223E-02 
1979	 3.44167392611531E-02 
1980	 3.22481244495816E-02 
1981	 0.032609348087259 
1982	 3.16133589371989E-02 
1983	 3.37284687757311E-02 
1984	 3.50143401555196E-02 
1985	 3.27735534445255E-02 
1986	 0.031846845968838 
1987	 3.12263975233358E-02 
1988	 2.90210941644473E-02 
1989	 2.80724570449085E-02 
1990	 0.029042619800015 
1991	 2.59670444828247E-02 
1992	 2.44587195842465E-02 
1993	 2.68888733200921E-02 
1994	 2.69448746780357E-02 
1995	 2.47353316230297E-02 
1996	 2.63008656944059E-02 
1997	 2.94663563952368E-02 
1998	 2.76591939665271E-02 
1999	 3.09633296916598E-02 
2000	 3.93470093659214E-02 
2001	 3.79875856490887E-02 
2002	 3.80049882406164E-02 
2003	 3.59054261122983E-02 
2004	 2.14193477980433E-02 
2005	 1.65786488506294E-02 
2006	 2.19215343254287E-02 
2007	 2.82250497397715E-02 
2008	 3.56636422513327E-02 
2009	 3.85735155913023E-02 
2010	 3.55024182589083E-02 
2011	 3.90777085549951E-02 
2012	 4.40589949054759E-02 
2013	 4.81376492831602E-02 
2014	 4.95617516645535E-02 
2015	 4.14022904840411E-02 
2016	 0.024714603565092 
2017	 1.88652062713304E-02 
2018	 1.77060725239427E-02 
2019	 2.01542511396302E-02 
2020	 2.34031656482862E-02 
2021	 0.021438062138606 
2022	 1.99572511813904E-02 
2023	 2.22913825975738E-02 
2024	 2.23589063631098E-02 
2025	 2.19471168371694E-02 
2026	 2.09902293031331E-02 
2027	 1.97629735502427E-02 
2028	 1.74853309839693E-02 
2029	 1.58607900477801E-02 
2030	 1.65780621020367E-02 
2031	 1.68434287199859E-02 
2032	 1.76843727917954E-02 
2033	 1.93981336394978E-02 
2034	 0.020497031863661 
2035	 2.12551035549583E-02 
2036	 2.09820394151358E-02 
2037	 2.21825230262024E-02 
2038	 2.41072193911149E-02 
2039	 0.024086467212827 
2040	 2.37215317482182E-02 
2041	 2.36978373008634E-02 
2042	 2.14846350765355E-02 
2043	 2.03714114055637E-02 
2044	 2.03135172325543E-02 
2045	 0.020597454490506 
2046	 1.96962981359911E-02 
2047	 2.03804550026697E-02 
2048	 2.09604273626528E-02 
2049	 2.11469132055645E-02 
2050	 2.38820392200786E-02 
2051	 2.44316939382675E-02 
2052	 2.30926080972727E-02 
2053	 2.39602908653205E-02 
2054	 2.28561745631145E-02 
2055	 2.07584440169825E-02 
2056	 0.019728196050035 
2057	 1.91448410956098E-02 
2058	 1.93371420722421E-02 
2059	 0.019945668070308 
2060	 2.15215762172021E-02 
2061	 2.45411628481305E-02 
2062	 2.78851968395517E-02 
2063	 3.07113051255198E-02 
2064	 3.07707042049303E-02 
2065	 2.67503016018152E-02 
2066	 2.34481508869462E-02 
2067	 2.24931075139971E-02 
2068	 2.18341264428267E-02 
2069	 2.09898232304966E-02 
2070	 1.97154398341648E-02 
2071	 1.61174536731034E-02 
2072	 1.33308131101795E-02 
2073	 1.33590541668905E-02 
2074	 1.70023978982261E-02 
2075	 1.78867963349421E-02 
2076	 1.93433827601745E-02 
2077	 2.04163829984035E-02 
2078	 1.99487569780001E-02 
2079	 0.020304040161711 
2080	 0.022022701922571 
2081	 2.18872709868481E-02 
2082	 2.08025512027053E-02 
2083	 2.14318473590548E-02 
2084	 2.27447975575123E-02 
2085	 2.28744743754908E-02 
2086	 2.18894918332539E-02 
2087	 2.14064000667411E-02 
2088	 2.01404448605086E-02 
2089	 1.92624571451362E-02 
2090	 2.02413029155367E-02 
2091	 2.27443357056027E-02 
2092	 2.43897570500533E-02 
2093	 2.68868407539717E-02 
2094	 0.02692102549928 
2095	 0.024924185110674 
2096	 2.46800930268521E-02 
2097	 0.024237970306111 
2098	 0.02446212985195 
2099	 2.66203934345088E-02 
2100	 2.67889780817954E-02 
2101	 2.55562916260191E-02 
2102	 2.30129130966142E-02 
2103	 2.01684333319776E-02 
2104	 1.89635076502615E-02 
2105	 1.85344780166568E-02 
2106	 1.86913165732319E-02 
2107	 1.90000401412515E-02 
2108	 1.70679587932779E-02 
2109	 1.43802470840594E-02 
2110	 1.33556674028453E-02 
2111	 0.014298662966427 
2112	 1.83156417731173E-02 
2113	 2.12345077427388E-02 
2114	 0.026907889607067 
2115	 2.79700360859818E-02 
2116	 2.57921984096562E-02 
2117	 2.51833025063994E-02 
2118	 0.022993408881461 
2119	 2.26200862970419E-02 
2120	 2.34599006286699E-02 
2121	 2.46717310197951E-02 
2122	 2.59903593241426E-02 
2123	 2.54565393419087E-02 
2124	 2.46676283354722E-02 
2125	 2.29218155848926E-02 
2126	 2.05842869249997E-02 
2127	 1.86518545163972E-02 
2128	 1.93173333660911E-02 
2129	 2.11882555150985E-02 
2130	 2.24257439747648E-02 
2131	 2.32316374768809E-02 
2132	 2.17968597623805E-02 
2133	 2.09461904005624E-02 
2134	 1.99123304353046E-02 
2135	 0.017824297953167 
2136	 1.70928238895979E-02 
2137	 1.65768499800755E-02 
2138	 1.67223718905294E-02 
2139	 1.84910592445691E-02 
2140	 1.94258539927737E-02 
2141	 2.08314140337859E-02 
2142	 2.19877266597037E-02 
2143	 2.30911131432174E-02 
2144	 2.24371592451407E-02 
2145	 2.32092895559647E-02 
2146	 2.28153604679356E-02 
2147	 2.14627360856393E-02 
2148	 2.21994444622649E-02 
2149	 2.18113785058546E-02 
2150	 2.04835098248047E-02 
2151	 2.02236364977022E-02 
2152	 1.94151193019755E-02 
2153	 1.92077428255068E-02 
2154	 2.04999648667887E-02 
2155	 2.06185424415335E-02 
2156	 2.02510340914709E-02 
2157	 1.88387852787875E-02 
2158	 0.015634736216598 
2159	 1.35601598942594E-02 
2160	 9.66627603034782E-03 
2161	 9.96360973113743E-03 
2162	 1.37860353074156E-02 
2163	 1.59199031477296E-02 
2164	 2.08334941987804E-02 
2165	 2.24310614360221E-02 
2166	 2.05863414123058E-02 
2167	 2.13832999447387E-02 
2168	 2.34831353015452E-02 
2169	 2.33270887065007E-02 
2170	 2.30972996684226E-02 
2171	 2.17532471687431E-02 
2172	 1.95559336733252E-02 
2173	 1.73704811239274E-02 
2174	 1.70500878020286E-02 
2175	 1.76322926550025E-02 
2176	 1.75120641727675E-02 
2177	 1.71047278986459E-02 
2178	 1.95066537512738E-02 
2179	 2.13558084481292E-02 
2180	 2.28778053411778E-02 
2181	 2.45459158017216E-02 
2182	 2.16637246884751E-02 
2183	 2.00466504053781E-02 
2184	 2.02747049706927E-02 
2185	 2.04952867480547E-02 
2186	 2.07039344085373E-02 
2187	 2.31972539037136E-02 
2188	 2.34787858039941E-02 
2189	 2.17332314320903E-02 
2190	 2.09237112188188E-02 
2191	 2.06628360310192E-02 
2192	 1.84840831614334E-02 
2193	 1.32891669370063E-02 
2194	 1.16666173230658E-02 
2195	 1.14385234802997E-02 
2196	 1.16205206321605E-02 
2197	 0.014724429727084 
2198	 0.017211487753534 
2199	 1.96354224460056E-02 
2200	 2.10650063296175E-02 
2201	 2.13750778269235E-02 
2202	 2.01055040307736E-02 
2203	 1.92685264352071E-02 
2204	 1.91587971306038E-02 
2205	 0.023618397217449 
2206	 2.63895351318701E-02 
2207	 0.025861447906173 
2208	 2.70076120385187E-02 
2209	 2.72744738377521E-02 
2210	 2.78779497321695E-02 
2211	 2.72246358357602E-02 
2212	 2.44796396790927E-02 
2213	 2.11076172153683E-02 
2214	 1.63002100220865E-02 
2215	 1.59927606388826E-02 
2216	 1.69248255794852E-02 
2217	 1.64633716349033E-02 
2218	 1.59238881567933E-02 
2219	 1.57014525640113E-02 
2220	 1.40464877635233E-02 
2221	 1.48276023457176E-02 
2222	 1.77559332309784E-02 
2223	 1.82050514347763E-02 
2224	 1.98711249819081E-02 
2225	 2.01178953820394E-02 
2226	 1.60375496629689E-02 
2227	 1.52599067260635E-02 
2228	 1.65626734916441E-02 
2229	 1.70940099105862E-02 
2230	 1.80658912710753E-02 
2231	 0.019846448194481 
2232	 2.35828404698533E-02 
2233	 2.40164558349565E-02 
2234	 2.25257241176785E-02 
2235	 2.26937962866347E-02 
2236	 2.12435477584489E-02 
2237	 1.88920159915168E-02 
2238	 1.72651464798515E-02 
2239	 1.75499810712111E-02 
2240	 0.019247869338494 
2241	 1.99861375791771E-02 
2242	 2.06605459044177E-02 
2243	 2.16367690562301E-02 
2244	 2.17792520081458E-02 
2245	 0.020451108895351 
2246	 2.37433832785606E-02 
2247	 2.54726179758496E-02 
2248	 2.34548296109923E-02 
2249	 2.42265502908935E-02 
2250	 1.69091613417336E-02 
2251	 1.17261285885984E-02 
2252	 1.74665050439671E-02 
2253	 1.89404295237556E-02 
2254	 2.08928974442731E-02 
2255	 2.60705976681029E-02 
2256	 2.53701539410401E-02 
2257	 2.02969216552472E-02 
2258	 1.56761944750416E-02 
2259	 1.35452318782705E-02 
2260	 1.35830992705792E-02 
2261	 1.45004645952445E-02 
2262	 1.47455167220938E-02 
2263	 1.88230842414576E-02 
2264	 1.99628965350036E-02 
2265	 1.68812072508917E-02 
2266	 1.84352180657457E-02 
2267	 2.33063596738215E-02 
2268	 2.62670298477542E-02 
2269	 0.031383148323125 
2270	 3.12994649645901E-02 
2271	 2.59128203514499E-02 
2272	 2.45215488758347E-02 
2273	 2.25812226935785E-02 
2274	 2.11177136617646E-02 
2275	 2.37647954580239E-02 
2276	 2.33080658834921E-02 
2277	 1.79374746716751E-02 
2278	 1.71866318610254E-02 
2279	 1.82160790130803E-02 
2280	 1.86325727708461E-02 
2281	 0.022085770205215 
2282	 2.37137111845236E-02 
2283	 1.81117131721349E-02 
2284	 1.83125627782075E-02 
2285	 2.23619724104851E-02 
2286	 2.19321518776743E-02 
2287	 2.28523734107236E-02 
2288	 2.23385104728904E-02 
2289	 1.96144672552857E-02 
2290	 2.11767520103436E-02 
2291	 1.58880239602666E-02 
2292	 1.53022782408257E-02 
2293	 2.35133023924318E-02 
2294	 0.020102748423388 
2295	 2.23267185972569E-02 
2296	 2.61728271679177E-02 
2297	 1.65803783642764E-02 
2298	 1.14622480651963E-02 
2299	 1.32924339690142E-02 
2300	 1.83039296847926E-02 
2301	 1.96020765950545E-02 
2302	 1.59976895575959E-02 
2303	 1.87754655252743E-02 
2304	 2.24120986647946E-02 
2305	 2.60389925522118E-02 
2306	 0.030730030283057 
2307	 2.95175461675087E-02 
2308	 2.49914377432612E-02 
2309	 2.32671589980021E-02 
2310	 2.57242304761789E-02 
2311	 0.032621884061381 
2312	 3.41080408841694E-02 
2313	 2.87653211949732E-02 
2314	 0.02805325714724 
2315	 1.77686385259339E-02 
2316	 9.54191735541617E-03 
2317	 0.012887103629966 
2318	 5.50678649997754E-03 
2319	 5.32790844194986E-03 
2320	 1.17294249749769E-02 
2321	 1.74657703539518E-02 
2322	 2.84094224586394E-02 
2323	 3.16735713024749E-02 
2324	 2.56772556984819E-02 
2325	 2.10807298506953E-02 
2326	 2.11768317927736E-02 
2327	 1.73888139272196E-02 
2328	 1.57600366965058E-02 
2329	 1.91433529345557E-02 
2330	 1.32707842842607E-02 
2331	 4.16216627797599E-03 
2332	 1.31519332622422E-02 
2333	 2.27622737194586E-02 
2334	 2.68100055671609E-02 
2335	 4.39210569901553E-02 
2336	 4.94759015926791E-02 
2337	 3.87313325938372E-02 
2338	 2.96281879225668E-02 
2339	 1.96021294121616E-02 
2340	 1.29190807941038E-02 
2341	 2.85987820272221E-02 
2342	 4.41024390833404E-02 
2343	 2.70854020272161E-02 
2344	 1.90309881986404E-02 
2345	 2.04406368366241E-02 
2346	 1.9984315030676E-03 
2347	-0.007843827601673 
2348	-2.93371508299367E-03 
2349	 3.19481853585689E-03 
2350	 1.91824260654971E-03 
2351	 2.02491819525264E-02 
2352	 4.38687873949341E-02 
2353	 4.05750692463502E-02 
2354	 4.22149323766964E-02 
2355	 3.16444354642188E-02 
2356	 0.017786284098454 
2357	 1.76179244086473E-02 
2358	 1.59406706552957E-02 
2359	 2.27581487742583E-02 
2360	 0.035022713745548 
2361	 3.92220143439613E-02 
2362	 3.81165859453177E-02 
2363	 4.75114142114578E-02 
2364	 5.48146547393585E-02 
2365	 3.23068762566587E-02 
2366	-8.66704959295741E-03 
2367	-2.56658691233617E-02 
2368	-1.37260118277692E-02 
2369	 4.9151373895246E-03 
2370	 2.21385216715029E-02 
2371	 6.34262239565397E-02 
2372	 0.107937940449876 
2373	 0.125481192929282 
2374	 0.151408651521215 
2375	 0.162525831072209 
2376	 0.116337968166446 
2377	 9.48387987748964E-02 
2378	 0.151887925923202 
2379	 0.161167344402972 
2380	 0.141353359936404 
2381	 0.138726110605172 
2382	 6.84318946654223E-02 
2383	 6.81569573986614E-02 
2384	 5.16713505513834E-02 
2385	 2.46355213782347E-02 
2386	 0.121512170194107 
2387	 6.43396632692026E-02 
2388	 0.027073548453443 
2389	 2.22608719316305E-02 
2390	-2.53631110295994E-02 
2391	-3.96429467522569E-02 
2392	 1.10035684486909E-02 
2393	 0.100964848977325 
2394	 0.114651999737737 
2395	 0.129786497224873 
2396	 0.131553922070486 
2397	 0.193704481773629 
2398	 0.238499929216159 
2399	 0.138790005923937 
2400	 0.111492552580827 
2401	 6.74373287847257E-02 
2402	-3.48810311465394E-03 
2403	-3.67657805679819E-03 
2404	 3.36569612515464E-02 
2405	 8.52054548790906E-02 
2406	 3.54101633037762E-02 
2407	 1.00981730879532E-03 
2408	 1.91647595641774E-02 
2409	-0.189540039750096 
2410	-0.420656212283023 
2411	-0.33221259599275 
2412	-0.193845370829338 
2413	-6.14503705047393E-02 
2414	 0.423509377024846 
2415	 0.670922284842374 
2416	 0.285420662608119 
2417	-0.179933396351805 
2418	-0.295678697365712 
2419	-0.335880150474303 
2420	-0.759073732650258 
2421	-0.967984465765336 
2422	-0.706259600780859 
2423	-0.712800738185822 
2424	-0.305785275311106 
2425	 2.26021421702178E-02 
2426	 1.32013357586711E-03 
2427	-0.197887920914163 
2428	-0.151702397101656 
2429	-6.65264682229791E-02 
2430	-0.286854575301807 
2431	-0.330169667284548 
2432	-0.304048540663665 
2433	-0.28012616681984 
2434	-0.195740774043099 
2435	-0.218736813018088 
2436	-0.251660176715125 
2437	 0.23206340605155 
2438	 0.44433778201288 
2439	-0.232369147267313 
2440	-8.94392279840832 
2441	 2.67081238494858 
2442	 4.41378388312669 
2443	 0.852213384196233 
2444	-0.321609911458935 
2445	-0.703281850892072 
2446	-0.434467996079121 
2447	-0.442082929740728 
2448	-0.49890465116029 
2449	-0.703107184856605 
2450	-0.86571251059284 
2451	-0.818815034340712 
2452	-0.601272601193083 
2453	-4.06439515305825 
2454	 2.45039999204349 
2455	 24.0718092885268 
2456	 1.31287185302053 
2457	 0.610818089600558 
2458	 0.540760173360933 
2459	 0.149808749864389 
2460	-0.110227941977391 
2461	 1.16747195056596 
2462	 2.33212725137837 
2463	-0.125084610100083 
2464	 12.8538745049341 
2465	 7.60864725921195 
2466	-8.08148111672443 
2467	 15.0373783307222 
2468	 1.06374112731735 
2469	 4.28595516542089 
2470	 0.900845947429727 
2471	 2.19651379969686 
2472	 23.833490817599 
2473	-11.5164679463259 
2474	-2.28235219817878 
2475	-0.663653472114664 
2476	-5.43935717512043 
2477	-3.03393170825564 
2478	-0.600080753972651 
2479	 1.68869427209333E-02 
2480	-8.26850943898433E-02 
2481	-8.16388129278114E-02 
2482	-0.338236374692205 
2483	-0.292556656938511 
2484	 0.463167363978784 
2485	 0.101616700770114 
2486	 0.417242707458109 
2487	-3.72432109697417 
2488	-76.8167427072467 
2489	 1.6581101035765 
2490	 2.06876373609239 
2491	-1.40699613789483 
2492	 1.19010994426109 
2493	 1.10093309182715 
2494	 0.770195628025149 
2495	-0.539134453329269 
2496	-0.526148236085206 
2497	-0.141627694880946 
2498	 0.112762817741897 
2499	-7.77296654454249E-03 
2500	 0.312010254682252 
