Wavelength	rt0805far00004.asd
350	 6.72576538061828E-02 
351	 6.61697994061406E-02 
352	 6.64688580046577E-02 
353	 6.74451595726672E-02 
354	 6.80516457115888E-02 
355	 6.79007770773146E-02 
356	 6.70731082279541E-02 
357	 6.65365690511426E-02 
358	 6.70554569156833E-02 
359	 6.74494562938038E-02 
360	 6.74928707700403E-02 
361	 6.74340097183909E-02 
362	 6.77214898001751E-02 
363	 6.75277284854952E-02 
364	 6.74095397422756E-02 
365	 6.75236266245872E-02 
366	 6.71528721393905E-02 
367	 6.76799118058011E-02 
368	 6.81159128248849E-02 
369	 6.75653799062572E-02 
370	 6.76736069655944E-02 
371	 6.81640932991128E-02 
372	 6.85626296524628E-02 
373	 6.84037702692438E-02 
374	 6.83852164987541E-02 
375	 6.84146283916277E-02 
376	 6.84330438556839E-02 
377	 6.85395508145956E-02 
378	 6.87914273599108E-02 
379	 6.91024657921598E-02 
380	 6.94380075402191E-02 
381	 7.00991032707383E-02 
382	 7.03352603095693E-02 
383	 7.00911688460238E-02 
384	 6.97354217703655E-02 
385	 6.96971006505826E-02 
386	 7.01466592523126E-02 
387	 7.07393925801322E-02 
388	 7.06732447221816E-02 
389	 7.06796858093591E-02 
390	 0.071042772983823 
391	 0.071627528956414 
392	 7.15933048301888E-02 
393	 0.071209912850156 
394	 7.11406790052635E-02 
395	 7.18121034921658E-02 
396	 7.17725581978516E-02 
397	 7.17921668063447E-02 
398	 7.21636128058531E-02 
399	 7.26249145915184E-02 
400	 7.22815771298675E-02 
401	 7.20578058901869E-02 
402	 0.072416703792567 
403	 7.21527490969422E-02 
404	 7.21994763363484E-02 
405	 7.25702114361646E-02 
406	 7.29238730420015E-02 
407	 7.30475780939976E-02 
408	 7.29214471780178E-02 
409	 0.072733366207596 
410	 7.28287288307561E-02 
411	 7.30804291782296E-02 
412	 7.32950026674157E-02 
413	 7.33938528061026E-02 
414	 7.36041320289682E-02 
415	 7.36709173506716E-02 
416	 0.073800825591586 
417	 7.42348705516919E-02 
418	 7.42217037572859E-02 
419	 7.42571546753873E-02 
420	 7.45055640597351E-02 
421	 7.46882690331104E-02 
422	 7.49071559453786E-02 
423	 7.52144268056066E-02 
424	 7.55231265321192E-02 
425	 7.53368806988978E-02 
426	 0.075441083564502 
427	 7.58032771413178E-02 
428	 7.60267228137642E-02 
429	 7.63088901759294E-02 
430	 7.65826782761698E-02 
431	 7.68089027845511E-02 
432	 7.70066989365039E-02 
433	 7.73498085730784E-02 
434	 7.76873583432462E-02 
435	 7.79043119536356E-02 
436	 7.82029346769827E-02 
437	 7.85969738106899E-02 
438	 0.07893745780121 
439	 7.90583095475568E-02 
440	 7.94756291194479E-02 
441	 7.99557818838289E-02 
442	 8.03345387621012E-02 
443	 8.06730901851717E-02 
444	 8.10107584216385E-02 
445	 8.13449734082308E-02 
446	 8.16594577535612E-02 
447	 0.081928764461019 
448	 8.23195293548627E-02 
449	 8.27201127274694E-02 
450	 8.28530570865099E-02 
451	 8.30923552667622E-02 
452	 8.33087025240937E-02 
453	 0.083428176636432 
454	 8.36403043654066E-02 
455	 8.38318016993267E-02 
456	 8.40158463716809E-02 
457	 8.42489489669554E-02 
458	 8.46074448612938E-02 
459	 8.47271498233551E-02 
460	 8.46901772563213E-02 
461	 8.50094060381764E-02 
462	 8.50363922205505E-02 
463	 8.50314290572705E-02 
464	 8.52567444442043E-02 
465	 8.54773123653656E-02 
466	 8.57356716903955E-02 
467	 8.59581388306798E-02 
468	 8.60599320701233E-02 
469	 8.62371061205495E-02 
470	 8.65819173748905E-02 
471	 8.69857374568361E-02 
472	 8.70972282267041E-02 
473	 8.71260959077671E-02 
474	 8.72633602692434E-02 
475	 0.087592473700968 
476	 8.78503279309075E-02 
477	 8.80635001644693E-02 
478	 8.82537692627734E-02 
479	 8.84497885186407E-02 
480	 8.87735479297611E-02 
481	 8.90749693569294E-02 
482	 8.92562430848201E-02 
483	 0.089375758448482 
484	 8.97107670459142E-02 
485	 9.01006823080562E-02 
486	 0.090315983553329 
487	 9.07549250100014E-02 
488	 9.11987692337227E-02 
489	 9.15316541927235E-02 
490	 9.17850121714876E-02 
491	 0.092298579124802 
492	 9.28247365287195E-02 
493	 9.31857912430829E-02 
494	 9.37337714067018E-02 
495	 9.42773754011664E-02 
496	 9.47682830197339E-02 
497	 9.52475218699528E-02 
498	 9.58655709132234E-02 
499	 0.096413259430465 
500	 9.68934594911984E-02 
501	 9.76943680601595E-02 
502	 9.83421276513972E-02 
503	 9.89105234910539E-02 
504	 9.95821701171463E-02 
505	 0.100285369028785 
506	 0.100944139869746 
507	 0.101539410860372 
508	 0.102103404738684 
509	 0.10272561313116 
510	 0.103353087430696 
511	 0.103963472527901 
512	 0.104678955864699 
513	 0.105361761141317 
514	 0.105974152444424 
515	 0.106559509885831 
516	 0.107410553830646 
517	 0.108242959800909 
518	 0.108951381756489 
519	 0.109719513269147 
520	 0.110413933481269 
521	 0.111149146604362 
522	 0.112006065635116 
523	 0.112739120798058 
524	 0.113526546964727 
525	 0.114354273677665 
526	 0.115086878796852 
527	 0.115837226416067 
528	 0.116628275560083 
529	 0.117439835311304 
530	 0.118190346060172 
531	 0.119023167803607 
532	 0.119886703658058 
533	 0.120697143821006 
534	 0.121686364208121 
535	 0.122599352054036 
536	 0.123372161317716 
537	 0.124180931883021 
538	 0.125028352623777 
539	 0.125921339381682 
540	 0.126862488944627 
541	 0.127885405788303 
542	 0.128745284840185 
543	 0.129554927861359 
544	 0.130607832872444 
545	 0.13152029864898 
546	 0.132402523259365 
547	 0.133312349056915 
548	 0.134074490217956 
549	 0.134925688836254 
550	 0.135842954920388 
551	 0.136726266915221 
552	 0.137602006213415 
553	 0.138532590417499 
554	 0.139470752064338 
555	 0.140245223682429 
556	 0.141067048219334 
557	 0.14196683538918 
558	 0.1428787590148 
559	 0.143606795196007 
560	 0.144380273705344 
561	 0.145141306981754 
562	 0.14570178412573 
563	 0.146493070673502 
564	 0.14721223295238 
565	 0.147714454553279 
566	 0.148350568857302 
567	 0.148920938718122 
568	 0.149474448360331 
569	 0.150083301257622 
570	 0.150453110164574 
571	 0.150858836546779 
572	 0.151339422007739 
573	 0.151648001712593 
574	 0.151955824558619 
575	 0.152239348840054 
576	 0.152457324222799 
577	 0.15266402881521 
578	 0.15279699910686 
579	 0.152826491151825 
580	 0.152768282162421 
581	 0.152848332865809 
582	 0.152841916237372 
583	 0.152659539537072 
584	 0.152551730169783 
585	 0.152531723947141 
586	 0.152497599068168 
587	 0.152355287061641 
588	 0.152468876773262 
589	 0.152278755288489 
590	 0.151740869342924 
591	 0.151393961233897 
592	 0.151088907755188 
593	 0.150640571731561 
594	 0.149959258224786 
595	 0.149267368993308 
596	 0.148341603558851 
597	 0.147287343702721 
598	 0.146354732910128 
599	 0.145217137111045 
600	 0.144197616007636 
601	 0.143491354440081 
602	 0.142952483256445 
603	 0.14260051490252 
604	 0.142377933873098 
605	 0.142210886761446 
606	 0.14205362389086 
607	 0.141894945850206 
608	 0.141762025717214 
609	 0.141714818302406 
610	 0.141686815934456 
611	 0.141548686996881 
612	 0.141276617773483 
613	 0.14117734287088 
614	 0.141118348813351 
615	 0.141028895054093 
616	 0.14088378722094 
617	 0.14076477428147 
618	 0.140650351709801 
619	 0.140486505160417 
620	 0.140174453259319 
621	 0.140060863398633 
622	 0.140086949553035 
623	 0.140066172344438 
624	 0.139929443764124 
625	 0.139857520040845 
626	 0.139860083479911 
627	 0.139774629711713 
628	 0.139585435055529 
629	 0.139456158564283 
630	 0.139436781033616 
631	 0.139198447824633 
632	 0.13894439228878 
633	 0.13873186796625 
634	 0.138549650926075 
635	 0.13840902339142 
636	 0.138368857946557 
637	 0.138391235464103 
638	 0.138304142713337 
639	 0.137992918680479 
640	 0.137690756215053 
641	 0.137620777917551 
642	 0.137472524262602 
643	 0.137457583098674 
644	 0.137546083484354 
645	 0.137514881613528 
646	 0.137588447366015 
647	 0.137481363104764 
648	 0.137040395748828 
649	 0.136575675008514 
650	 0.136296636468249 
651	 0.136030887292051 
652	 0.135511874571722 
653	 0.134909390552112 
654	 0.134169672030294 
655	 0.133259556057355 
656	 0.132321436128846 
657	 0.131320993134954 
658	 0.130358253485142 
659	 0.12949659409572 
660	 0.128746008056389 
661	 0.127996950424747 
662	 0.127239753696378 
663	 0.126539174282009 
664	 0.125850025193957 
665	 0.125238127424193 
666	 0.124702356552596 
667	 0.124109416324364 
668	 0.123665931810432 
669	 0.123331017695945 
670	 0.123016293998344 
671	 0.122834921404836 
672	 0.122672209081293 
673	 0.122557788927337 
674	 0.122656250993337 
675	 0.122879662048664 
676	 0.123043340130052 
677	 0.123114839032948 
678	 0.123490877190951 
679	 0.123844718518191 
680	 0.124270341403143 
681	 0.124978831130147 
682	 0.125585635700845 
683	 0.126224517759125 
684	 0.126980778056951 
685	 0.127902846586394 
686	 0.129025847682721 
687	 0.129948727735848 
688	 0.130348185490875 
689	 0.130693957988622 
690	 0.131068930663884 
691	 0.131530146452597 
692	 0.132063921812776 
693	 0.132185825293757 
694	 0.131783676125607 
695	 0.131095699140226 
696	 0.130565645775983 
697	 0.130136849306189 
698	 0.129770591627559 
699	 0.129386279924434 
700	 0.128572961405264 
701	 0.127579379234288 
702	 0.12651766445069 
703	 0.125308051258848 
704	 0.124122373065489 
705	 0.122972408784249 
706	 0.121803235488195 
707	 0.120332143665979 
708	 0.118911459337263 
709	 0.117382601667037 
710	 0.11551181501446 
711	 0.113667695049841 
712	 0.111790470631943 
713	 0.109982660599898 
714	 0.108498068617635 
715	 0.107298269840211 
716	 0.105927463053692 
717	 0.104029288351802 
718	 0.102012575043539 
719	 9.90324045063316E-02 
720	 9.62283996827041E-02 
721	 9.41547670055002E-02 
722	 9.26233578182219E-02 
723	 9.08573040260374E-02 
724	 8.87516689067711E-02 
725	 8.65063989027597E-02 
726	 8.39855785285599E-02 
727	 8.13387415656983E-02 
728	 7.87292362847296E-02 
729	 7.62355353561114E-02 
730	 7.32355766319776E-02 
731	 7.01662871499272E-02 
732	 0.067565963811491 
733	 6.56962174655881E-02 
734	 6.42895045392687E-02 
735	 6.31281866892805E-02 
736	 0.061999106250842 
737	 6.11111437290496E-02 
738	 6.03299266768397E-02 
739	 5.96089129060448E-02 
740	 5.93368009018236E-02 
741	 5.91291104518278E-02 
742	 0.058895407676892 
743	 5.87027184349378E-02 
744	 5.85632228377101E-02 
745	 5.84442918987846E-02 
746	 5.83650460400365E-02 
747	 5.84170958344573E-02 
748	 5.84359860968504E-02 
749	 5.83303053185198E-02 
750	 5.81441952026198E-02 
751	 5.82771953762879E-02 
752	 5.83946657962245E-02 
753	 5.83498263812877E-02 
754	 5.81536210944758E-02 
755	 5.80730176563976E-02 
756	 5.82801534940819E-02 
757	 5.86978454149169E-02 
758	 5.89473345755257E-02 
759	 0.059701211867427 
760	 6.08580443271383E-02 
761	 6.10967152369139E-02 
762	 6.09401283953038E-02 
763	 6.05545090076354E-02 
764	 6.00756892488527E-02 
765	 5.95827556024332E-02 
766	 0.05915053245245 
767	 5.90224448102941E-02 
768	 5.91428037657291E-02 
769	 5.92009301423755E-02 
770	 5.92151226839077E-02 
771	 5.92513888758743E-02 
772	 5.93797359580967E-02 
773	 5.96495500371544E-02 
774	 5.98936552739931E-02 
775	 6.01107549402917E-02 
776	 6.03544613426435E-02 
777	 6.04752592538435E-02 
778	 6.07371497278165E-02 
779	 6.11459375872516E-02 
780	 6.14300306050493E-02 
781	 6.16342874824778E-02 
782	 6.20101566858132E-02 
783	 6.25765706965336E-02 
784	 6.27177672966601E-02 
785	 6.30797797086289E-02 
786	 6.36525208235907E-02 
787	 6.42003262765749E-02 
788	 6.47629601332033E-02 
789	 6.50213711821269E-02 
790	 6.51766116265632E-02 
791	 6.57771292427057E-02 
792	 6.62156152111595E-02 
793	 6.64158583649758E-02 
794	 0.066619097012237 
795	 0.0674579545198 
796	 6.79890109899724E-02 
797	 0.068192693250064 
798	 6.83521143922686E-02 
799	 6.86361789821181E-02 
800	 6.91880582351453E-02 
801	 6.97275963098752E-02 
802	 6.98173801868699E-02 
803	 6.97712589223992E-02 
804	 6.98935295309292E-02 
805	 7.00644737761462E-02 
806	 6.97667885691011E-02 
807	 0.069850827399337 
808	 7.00802811711714E-02 
809	 0.070154249869879 
810	 7.02264977003447E-02 
811	 7.01530101800793E-02 
812	 7.00877103452984E-02 
813	 7.02309772439361E-02 
814	 7.00624369040729E-02 
815	 6.98450951564285E-02 
816	 6.95491373956494E-02 
817	 6.88561389552673E-02 
818	 6.74192230687179E-02 
819	 6.63445892085014E-02 
820	 6.57917862285011E-02 
821	 6.48566901535231E-02 
822	 6.38650620824852E-02 
823	 0.062733377289043 
824	 6.14132783219293E-02 
825	 5.98789840135328E-02 
826	 0.058623740575103 
827	 5.73854970141935E-02 
828	 5.57843717050068E-02 
829	 5.40875735199906E-02 
830	 5.28886679956885E-02 
831	 5.21354736505092E-02 
832	 5.13533664781765E-02 
833	 5.04989703981457E-02 
834	 4.96383899801201E-02 
835	 4.89604180240998E-02 
836	 4.87710123210098E-02 
837	 4.84042946372024E-02 
838	 4.79602303104907E-02 
839	 4.76570832416833E-02 
840	 0.047597809997232 
841	 4.73354588040082E-02 
842	 4.70381684447773E-02 
843	 4.69524573121873E-02 
844	 4.65196131121754E-02 
845	 4.63232455075723E-02 
846	 4.63703455740192E-02 
847	 4.62508362332626E-02 
848	 4.58429195907801E-02 
849	 4.55554366584094E-02 
850	 4.55387992899144E-02 
851	 4.55255221015753E-02 
852	 4.55182859128373E-02 
853	 4.53845777830627E-02 
854	 4.51318105322369E-02 
855	 4.50890279002469E-02 
856	 4.48382152269628E-02 
857	 4.46153253982099E-02 
858	 4.46511726382861E-02 
859	 4.45144911783871E-02 
860	 4.43538673909441E-02 
861	 4.42066627472157E-02 
862	 4.40906711978779E-02 
863	 4.43027906836795E-02 
864	 4.41936550770155E-02 
865	 0.043838465554111 
866	 4.39276645285838E-02 
867	 0.043674288198808 
868	 4.34236829531337E-02 
869	 4.33445528780539E-02 
870	 4.31815623115566E-02 
871	 4.27886167185554E-02 
872	 4.27055221622625E-02 
873	 4.30896184619458E-02 
874	 4.29428174602193E-02 
875	 4.25625516898527E-02 
876	 4.22771827303832E-02 
877	 4.22667191668192E-02 
878	 4.20775589142532E-02 
879	 4.21129803855919E-02 
880	 4.22390164146663E-02 
881	 0.04213181836424 
882	 4.20296842994391E-02 
883	 4.16512630813041E-02 
884	 0.041327954208818 
885	 4.17121103817216E-02 
886	 4.20245014411487E-02 
887	 0.041878672117327 
888	 4.14738096554163E-02 
889	 4.15537259089294E-02 
890	 4.15502287262508E-02 
891	 4.13922344045908E-02 
892	 4.12596296756713E-02 
893	 4.16598259484306E-02 
894	 4.20514281930169E-02 
895	 4.22252229881895E-02 
896	 4.23033688232176E-02 
897	 4.31186695432076E-02 
898	 4.35864501432733E-02 
899	 4.28588474756649E-02 
900	 4.12544350636144E-02 
901	 4.17830353644724E-02 
902	 4.18400244366212E-02 
903	 4.14973516863802E-02 
904	 4.15553889195864E-02 
905	 4.08704425767332E-02 
906	 4.10346359581075E-02 
907	 4.20225003185419E-02 
908	 4.24134586712797E-02 
909	 4.13635678478304E-02 
910	 4.24772190496461E-02 
911	 4.44447866800781E-02 
912	 4.21203702111307E-02 
913	 4.21154144197824E-02 
914	 4.20248655857938E-02 
915	 4.11756072234813E-02 
916	 4.18231013768951E-02 
917	 4.13551550670066E-02 
918	 4.04965461470787E-02 
919	 4.02225837117236E-02 
920	 4.11335469731363E-02 
921	 4.15933884944658E-02 
922	 4.15151115536758E-02 
923	 4.13043821512276E-02 
924	 4.17551195739392E-02 
925	 4.20478051201233E-02 
926	 4.24188917726525E-02 
927	 0.043060803030968 
928	 4.24746045495452E-02 
929	 4.14187000673516E-02 
930	 3.93734669519059E-02 
931	 3.66887761286987E-02 
932	 4.44785711530835E-02 
933	 4.28223331011251E-02 
934	 3.77164796914928E-02 
935	 4.55900539146448E-02 
936	 4.53294161489507E-02 
937	 4.41480584529052E-02 
938	 4.55097787290076E-02 
939	 4.91123073247585E-02 
940	 4.70918482043198E-02 
941	 0.047945154567392 
942	 4.76693002532953E-02 
943	 3.98109972744312E-02 
944	 4.54642996437506E-02 
945	 5.37038964901764E-02 
946	 5.30910323100984E-02 
947	 3.97407431352657E-02 
948	 3.63930126948233E-02 
949	 3.71252816387619E-02 
950	 4.14868041453972E-02 
951	 5.06548686467295E-02 
952	 4.87723931486403E-02 
953	 4.67000547641167E-02 
954	 4.71660540129989E-02 
955	 4.59112625772212E-02 
956	 3.91709745733353E-02 
957	 3.95053971008369E-02 
958	 4.44657249748506E-02 
959	 4.33985631458997E-02 
960	 4.36778825413173E-02 
961	 0.040833002391026 
962	 3.89085030973787E-02 
963	 4.42875610805755E-02 
964	 4.13090496287084E-02 
965	 3.97472018982794E-02 
966	 4.17371352965734E-02 
967	 4.30596285821046E-02 
968	 4.14455158942494E-02 
969	 4.05573306123191E-02 
970	 4.12017870023051E-02 
971	 4.14735672629474E-02 
972	 4.15954222992053E-02 
973	 4.13568022594775E-02 
974	 4.12179211743127E-02 
975	 4.19160451148439E-02 
976	 4.10615873438326E-02 
977	 3.91038766499907E-02 
978	 3.84137064766315E-02 
979	 4.10522504116649E-02 
980	 3.90075717082146E-02 
981	 0.038541579686813 
982	 3.97054522129796E-02 
983	 3.78188639309752E-02 
984	 3.80537372550112E-02 
985	 3.82048137189258E-02 
986	 3.77174849456586E-02 
987	 3.80006361006787E-02 
988	 0.04137855125302 
989	 4.13616269426451E-02 
990	 0.038736117370953 
991	 3.91662978040212E-02 
992	 3.87070920673563E-02 
993	 3.83631398133395E-02 
994	 3.78824075894744E-02 
995	 3.66288065358129E-02 
996	 3.85220834544874E-02 
997	 3.86802048876498E-02 
998	 3.74940502328364E-02 
999	 3.80942976058703E-02 
1000	 3.69478767396204E-02 
1001	 3.74204014593037E-02 
1002	 3.75612532755498E-02 
1003	 3.76216751108115E-02 
1004	 3.75928204122155E-02 
1005	 3.78074156540993E-02 
1006	 3.82386810561112E-02 
1007	 3.86222094663026E-02 
1008	 3.93088289662026E-02 
1009	 3.95826006726738E-02 
1010	 3.93417986659071E-02 
1011	 3.89088196028302E-02 
1012	 3.79783187570086E-02 
1013	 3.73509884036742E-02 
1014	 3.70745321961259E-02 
1015	 3.72259232770254E-02 
1016	 0.0372063673783 
1017	 0.037342680337664 
1018	 3.75043938062314E-02 
1019	 3.77821588500933E-02 
1020	 3.77490415856604E-02 
1021	 3.74498608208612E-02 
1022	 3.76738528143588E-02 
1023	 0.037235230225187 
1024	 3.75468422449281E-02 
1025	 3.82816000033767E-02 
1026	 3.80880479322475E-02 
1027	 0.038170209859999 
1028	 3.81635273301129E-02 
1029	 3.82001096753571E-02 
1030	 3.84364647015751E-02 
1031	 3.82287310739468E-02 
1032	 3.77364605954709E-02 
1033	 3.73640381486797E-02 
1034	 3.61472311349563E-02 
1035	 3.61759543445369E-02 
1036	 3.73891660536172E-02 
1037	 3.77738225354704E-02 
1038	 0.038462817892442 
1039	 3.90133368386808E-02 
1040	 3.87116210191158E-02 
1041	 3.80851078097526E-02 
1042	 0.037760634262589 
1043	 3.74370571283655E-02 
1044	 3.72806259330516E-02 
1045	 3.70670918774276E-02 
1046	 0.037212183803469 
1047	 3.79153685266401E-02 
1048	 3.79988484190685E-02 
1049	 3.80412635516565E-02 
1050	 3.79204965508198E-02 
1051	 3.71336564630922E-02 
1052	 3.68975467407415E-02 
1053	 3.68761736799489E-02 
1054	 3.69125612123922E-02 
1055	 3.74767604576348E-02 
1056	 3.76139101819595E-02 
1057	 3.76007748354627E-02 
1058	 3.74115941252128E-02 
1059	 3.73856037249465E-02 
1060	 3.70754072783733E-02 
1061	 3.71386600639475E-02 
1062	 3.74984691371809E-02 
1063	 3.77844478200146E-02 
1064	 3.84749678949268E-02 
1065	 3.84604121525833E-02 
1066	 3.79025015112247E-02 
1067	 3.78042552788469E-02 
1068	 3.72061049620709E-02 
1069	 3.71877277616805E-02 
1070	 3.84393096779465E-02 
1071	 3.86649799762347E-02 
1072	 3.82705752352378E-02 
1073	 3.80418370960236E-02 
1074	 3.81229610008879E-02 
1075	 3.78924015143053E-02 
1076	 0.037907818331363 
1077	 3.85469823654159E-02 
1078	 3.88347025713605E-02 
1079	 3.90346008871461E-02 
1080	 3.88236642353196E-02 
1081	 3.82364879248763E-02 
1082	 3.81233690499365E-02 
1083	 3.76743091789455E-02 
1084	 3.74967717836735E-02 
1085	 3.81006745292965E-02 
1086	 3.84254982639581E-02 
1087	 3.84378650984526E-02 
1088	 0.038549431663982 
1089	 3.89454951135373E-02 
1090	 0.039139745199689 
1091	 3.90167574622767E-02 
1092	 3.83848156555714E-02 
1093	 3.84386775931828E-02 
1094	 3.84352458907532E-02 
1095	 3.88189535074576E-02 
1096	 4.05645034593167E-02 
1097	 4.07602856379059E-02 
1098	 0.039539961422179 
1099	 3.94666793594176E-02 
1100	 3.90193001517849E-02 
1101	 3.90580700519342E-02 
1102	 4.10797602089916E-02 
1103	 4.18528730464628E-02 
1104	 4.20938161380331E-02 
1105	 4.14294025985816E-02 
1106	 4.10012500054544E-02 
1107	 4.04354322883453E-02 
1108	 4.03628906145289E-02 
1109	 4.13498035783933E-02 
1110	 4.16329532913604E-02 
1111	 4.18305568073327E-02 
1112	 4.19786688339586E-02 
1113	 4.14810137054533E-02 
1114	 4.14520078666522E-02 
1115	 4.23239643470826E-02 
1116	 4.28253237388335E-02 
1117	 4.42466314073553E-02 
1118	 4.40974886603842E-02 
1119	 4.04457788938072E-02 
1120	 3.74854904965448E-02 
1121	 3.09816887407694E-02 
1122	 2.62959792816075E-02 
1123	 3.04537085626723E-02 
1124	 3.94006017639615E-02 
1125	 5.18648832451284E-02 
1126	 5.47962948156307E-02 
1127	 4.55098226012518E-02 
1128	 0.044498827931346 
1129	 0.040244639975861 
1130	 2.96636050475546E-02 
1131	 3.31042971684561E-02 
1132	 4.34543887553061E-02 
1133	 4.38667545629494E-02 
1134	 4.77918612082029E-02 
1135	 4.68002848799239E-02 
1136	 3.73165058799414E-02 
1137	 3.60733503388005E-02 
1138	 0.037883796085597 
1139	 3.84366669512165E-02 
1140	 4.28071608379868E-02 
1141	 4.19424997841439E-02 
1142	 3.58741698190666E-02 
1143	 3.80468050905311E-02 
1144	 0.043556059585231 
1145	 4.66162208612871E-02 
1146	 0.048163634725654 
1147	 4.44273759784735E-02 
1148	 0.038449298013108 
1149	 3.81728502948003E-02 
1150	 3.82042122958379E-02 
1151	 4.18363762920161E-02 
1152	 4.33574108720146E-02 
1153	 0.044943843226905 
1154	 4.38599489369575E-02 
1155	 4.15652287225994E-02 
1156	 4.17116911842854E-02 
1157	 4.14162216952324E-02 
1158	 4.03352357996845E-02 
1159	 4.08934266166954E-02 
1160	 4.17555559920864E-02 
1161	 4.12210866360503E-02 
1162	 4.04228805629828E-02 
1163	 4.06438603682568E-02 
1164	 4.03375975879672E-02 
1165	 3.94969955994054E-02 
1166	 3.97830247079941E-02 
1167	 3.97957930677953E-02 
1168	 3.94390813263693E-02 
1169	 3.98940252205663E-02 
1170	 4.00376950875366E-02 
1171	 3.99534116387574E-02 
1172	 3.96192133301964E-02 
1173	 3.96851107482632E-02 
1174	 3.97996001439156E-02 
1175	 3.96844641683482E-02 
1176	 3.96494134616799E-02 
1177	 3.94561235252189E-02 
1178	 3.94177052492581E-02 
1179	 0.039041249236527 
1180	 3.89801049904258E-02 
1181	 3.94043124389832E-02 
1182	 3.89692916623114E-02 
1183	 3.88067323549281E-02 
1184	 0.039611341230275 
1185	 3.97916741970197E-02 
1186	 3.93649780715925E-02 
1187	 3.92126880072029E-02 
1188	 3.88431882054082E-02 
1189	 3.87098536180425E-02 
1190	 3.89720399399365E-02 
1191	 3.88719686190489E-02 
1192	 3.88714171739368E-02 
1193	 3.87595004777863E-02 
1194	 3.86030212260307E-02 
1195	 3.85711184739992E-02 
1196	 3.85217072683097E-02 
1197	 3.87221987982218E-02 
1198	 3.91942192768439E-02 
1199	 3.90022972176857E-02 
1200	 3.90032753823317E-02 
1201	 0.039298300655985 
1202	 3.89886117189815E-02 
1203	 3.84476552311557E-02 
1204	 3.82398509123688E-02 
1205	 3.80907402483611E-02 
1206	 3.73160200048209E-02 
1207	 0.036986572461612 
1208	 3.77872344183787E-02 
1209	 3.81814218731134E-02 
1210	 3.77429452911884E-02 
1211	 3.76935859814757E-02 
1212	 3.79543740449992E-02 
1213	 3.79053061132971E-02 
1214	 3.77330977991643E-02 
1215	 3.79307539658142E-02 
1216	 3.79466149445745E-02 
1217	 3.72719150442964E-02 
1218	 3.67360345969443E-02 
1219	 3.70106710446813E-02 
1220	 3.73816737973938E-02 
1221	 3.71250648887189E-02 
1222	 0.0367198735118 
1223	 3.66353531252282E-02 
1224	 0.036732685893488 
1225	 3.69400533440725E-02 
1226	 3.70882499744075E-02 
1227	 3.68442531502695E-02 
1228	 3.63054441735019E-02 
1229	 0.036210089387087 
1230	 3.65588244337161E-02 
1231	 3.67504868195279E-02 
1232	 3.69877856584573E-02 
1233	 3.69215452118297E-02 
1234	 3.64501931337322E-02 
1235	 3.63173328583518E-02 
1236	 3.64564315252623E-02 
1237	 3.63225684099615E-02 
1238	 3.60275127836879E-02 
1239	 3.61654797195053E-02 
1240	 3.63436277293381E-02 
1241	 3.60584968866742E-02 
1242	 3.59677132439444E-02 
1243	 3.59380814447366E-02 
1244	 3.55644727558646E-02 
1245	 3.53406570021811E-02 
1246	 3.53754253337961E-02 
1247	 3.55272228343686E-02 
1248	 3.58006901990859E-02 
1249	 3.59205708673163E-02 
1250	 3.60203615496816E-02 
1251	 3.62299627641197E-02 
1252	 3.63189144574862E-02 
1253	 3.63453142291977E-02 
1254	 3.62183349644242E-02 
1255	 3.60862719874148E-02 
1256	 3.62044292458564E-02 
1257	 0.036485635060496 
1258	 3.65476144926299E-02 
1259	 3.67366398385543E-02 
1260	 0.036906819770428 
1261	 3.69870874626028E-02 
1262	 3.68983497476221E-02 
1263	 3.68002510476335E-02 
1264	 3.66625746175635E-02 
1265	 3.68280259838658E-02 
1266	 3.67513848175379E-02 
1267	 3.68100609180353E-02 
1268	 3.74377690588992E-02 
1269	 3.74455219082018E-02 
1270	 3.67902116621555E-02 
1271	 3.67880952092764E-02 
1272	 3.73043907506737E-02 
1273	 3.69929856134857E-02 
1274	 3.63109778337853E-02 
1275	 3.64086094999673E-02 
1276	 3.63446679129019E-02 
1277	 3.62264620138393E-02 
1278	 3.66889568360101E-02 
1279	 3.66288192443506E-02 
1280	 3.62153960415861E-02 
1281	 3.61132707382386E-02 
1282	 3.62182963721202E-02 
1283	 3.61964616553516E-02 
1284	 3.61819141638912E-02 
1285	 3.61633881875851E-02 
1286	 0.036050292494488 
1287	 3.60249443633358E-02 
1288	 3.61034192032514E-02 
1289	 3.63067799640084E-02 
1290	 3.67289442903355E-02 
1291	 3.66838451309604E-02 
1292	 3.65756983766065E-02 
1293	 3.65640319450983E-02 
1294	 3.63232681454713E-02 
1295	 3.64004622752071E-02 
1296	 3.68210047293441E-02 
1297	 3.70899677128075E-02 
1298	 3.69238879774336E-02 
1299	 3.69799787763531E-02 
1300	 0.037412819688991 
1301	 3.74734751812007E-02 
1302	 3.74032639434844E-02 
1303	 3.75796670809311E-02 
1304	 3.76120896718126E-02 
1305	 3.72121467952762E-02 
1306	 3.72675498899436E-02 
1307	 3.76613714478352E-02 
1308	 0.037965310786445 
1309	 3.87237534926141E-02 
1310	 3.88492157745827E-02 
1311	 3.80871339528658E-02 
1312	 0.038285128250702 
1313	 0.038971335437013 
1314	 3.91898635362199E-02 
1315	 0.039868838279403 
1316	 4.05053149488115E-02 
1317	 4.07934509823476E-02 
1318	 4.04533238881839E-02 
1319	 3.93216969520652E-02 
1320	 3.93637244809245E-02 
1321	 3.93455396176474E-02 
1322	 3.98843331762078E-02 
1323	 3.96045508623968E-02 
1324	 4.01496613434016E-02 
1325	 4.10607261488199E-02 
1326	 4.03569963349786E-02 
1327	 4.13105449091318E-02 
1328	 4.28548793237722E-02 
1329	 4.13679605595178E-02 
1330	 4.23013326973971E-02 
1331	 0.044325340126092 
1332	 4.26985936106637E-02 
1333	 4.30519485513534E-02 
1334	 4.30299548901869E-02 
1335	 0.042364891920314 
1336	 0.041570223814738 
1337	 0.042026645716136 
1338	 4.25885810790706E-02 
1339	 4.20738523461153E-02 
1340	 4.15079181274797E-02 
1341	 4.14712575300844E-02 
1342	 0.040105091315424 
1343	 3.91405717398877E-02 
1344	 4.03472242072686E-02 
1345	 4.18579204252441E-02 
1346	 4.24533431600779E-02 
1347	 4.41986491139641E-02 
1348	 0.054974012836611 
1349	 5.56700219437237E-02 
1350	 3.06550470782408E-02 
1351	 0.027531333303192 
1352	 4.56815391430468E-02 
1353	 3.18497746885516E-02 
1354	 6.30694565854537E-03 
1355	 6.28386680507256E-02 
1356	 2.52001599190271E-02 
1357	-3.81311229921745E-03 
1358	-6.62939633920297E-03 
1359	-6.84835707351017E-02 
1360	 0.049443502317902 
1361	 3.00669994731632E-02 
1362	-0.224169942982754 
1363	-0.14307085041114 
1364	 3.02882794929936E-02 
1365	-4.44056824362756E-02 
1366	-0.199753423625913 
1367	-0.196156317549737 
1368	-5.50173373909257E-02 
1369	-0.349962884021436 
1370	-0.492423792696631 
1371	 0.185351831222445 
1372	 0.377318199471052 
1373	 2.09376275183279E-02 
1374	-6.34314507567799E-03 
1375	 0.426767921249319 
1376	 0.439481298385844 
1377	 1.78342527416566E-02 
1378	-4.28918914316808E-02 
1379	 1.06642396427607E-02 
1380	 0.144048653230693 
1381	 1.09063496581168 
1382	 1.0000713907189 
1383	-0.530234786593795 
1384	-0.596546151216969 
1385	-0.284782643010629 
1386	-0.343919721308449 
1387	-0.177111336903768 
1388	 2.03487058225759E-02 
1389	 0.980446317180866 
1390	 0.204985399470188 
1391	-0.064932762625008 
1392	 0.187431981669767 
1393	 5.72061745572397E-02 
1394	 0.251170426679708 
1395	 0.232415051238519 
1396	 0.367510502380048 
1397	 0.672573231500202 
1398	 0.267964810331164 
1399	-0.428880771990488 
1400	-0.501812114967972 
1401	 1.88618237178579E-02 
1402	-1.95871890739396E-02 
1403	-0.171820211735827 
1404	-0.130875015409897 
1405	-9.41086639184606E-03 
1406	-0.847768723696585 
1407	-0.945240118978002 
1408	-0.445369035153051 
1409	-0.262918811555705 
1410	-0.349074556136765 
1411	-0.295275302997887 
1412	 0.442730246103657 
1413	 0.851879410346741 
1414	 0.204248348722589 
1415	-4.36507202355787E-02 
1416	-0.258242122517206 
1417	-0.199690717816028 
1418	 2.54215046157323E-02 
1419	-3.33048188501469E-02 
1420	-0.053257421670964 
1421	-3.27153351417463E-02 
1422	-0.173043107025653 
1423	-0.150554373771708 
1424	-1.92401065606771E-03 
1425	 1.93486032794368E-02 
1426	 0.024791061265187 
1427	 2.17183738081173E-02 
1428	-8.95807967471206E-02 
1429	-6.92982757851646E-02 
1430	 9.88310540932029E-02 
1431	 9.46239611958704E-02 
1432	 3.13399727070089E-02 
1433	 3.33969144635512E-02 
1434	-3.56481232752957E-02 
1435	-7.63852867849113E-02 
1436	-5.04489363407218E-02 
1437	-3.41091687592362E-03 
1438	-2.28663678288889E-02 
1439	-2.45064026163594E-02 
1440	 1.14303454205871E-02 
1441	 3.84419534465665E-02 
1442	 2.99343232436989E-02 
1443	 1.28246137460898E-02 
1444	 4.09338996032993E-02 
1445	 5.37101347263596E-02 
1446	 2.89598724868747E-02 
1447	 2.64299820240154E-02 
1448	 4.01036957580293E-02 
1449	 3.03311683832856E-02 
1450	 2.43880981280041E-02 
1451	 3.98606533837522E-02 
1452	 4.36381673300132E-02 
1453	 0.037351948823356 
1454	 3.45458800374389E-02 
1455	 3.58773437053357E-02 
1456	 4.17297667646456E-02 
1457	 4.64827559152232E-02 
1458	 4.58782561385457E-02 
1459	 5.16302116632604E-02 
1460	 5.16432168567611E-02 
1461	 4.08360417703253E-02 
1462	 0.036169568823228 
1463	 0.034708133679684 
1464	 3.50764869415679E-02 
1465	 3.09889693224161E-02 
1466	 3.55457169569637E-02 
1467	 6.10591165176366E-02 
1468	 6.16368632044328E-02 
1469	 4.31747768142371E-02 
1470	 4.36618584518833E-02 
1471	 4.49649861557434E-02 
1472	 3.81955206577008E-02 
1473	 3.63738356526362E-02 
1474	 4.02677171803059E-02 
1475	 3.90086933553408E-02 
1476	 3.57366421329883E-02 
1477	 3.80057238442517E-02 
1478	 4.16101169049737E-02 
1479	 4.26457128133059E-02 
1480	 3.95717535926434E-02 
1481	 3.78412244863275E-02 
1482	 4.05596064489073E-02 
1483	 4.06811359059932E-02 
1484	 3.88273901858843E-02 
1485	 4.22601471908686E-02 
1486	 4.16164562735361E-02 
1487	 3.35160999848421E-02 
1488	 3.30950720637421E-02 
1489	 3.71851624119465E-02 
1490	 3.82568553190415E-02 
1491	 3.96330469593808E-02 
1492	 4.04409498993498E-02 
1493	 4.08183572150632E-02 
1494	 4.02217894919738E-02 
1495	 3.88449400124778E-02 
1496	 0.038820237122883 
1497	 3.82925564212734E-02 
1498	 3.81619552125631E-02 
1499	 4.00373682625779E-02 
1500	 3.99946148775707E-02 
1501	 3.79442108816327E-02 
1502	 3.76805122696591E-02 
1503	 3.81631852713819E-02 
1504	 0.0379536018689 
1505	 3.79683977616312E-02 
1506	 0.038263482081502 
1507	 3.84302311409463E-02 
1508	 3.76448160780238E-02 
1509	 3.64272711169381E-02 
1510	 3.63916231163588E-02 
1511	 3.68904499089007E-02 
1512	 0.036377895213214 
1513	 0.03588839477052 
1514	 3.62316440050781E-02 
1515	 3.64729925986113E-02 
1516	 0.036482801589561 
1517	 3.67285675863208E-02 
1518	 3.69981201171263E-02 
1519	 3.68738141703965E-02 
1520	 3.65955035556432E-02 
1521	 3.66448153102065E-02 
1522	 3.66146409077516E-02 
1523	 3.60966208399711E-02 
1524	 3.55892658820523E-02 
1525	 3.52721196856002E-02 
1526	 3.54079293661144E-02 
1527	 3.57856336970469E-02 
1528	 3.55241590776994E-02 
1529	 3.51556617132976E-02 
1530	 3.52767360251325E-02 
1531	 3.53128442669289E-02 
1532	 3.50972257016855E-02 
1533	 3.54121683602538E-02 
1534	 3.56849233287831E-02 
1535	 0.035077348637406 
1536	 0.034954814754795 
1537	 3.52414871839122E-02 
1538	 0.035193157263359 
1539	 3.54660330388076E-02 
1540	 3.55059934857351E-02 
1541	 3.48667750221574E-02 
1542	 3.44843182463395E-02 
1543	 3.47258079306225E-02 
1544	 3.50219861120407E-02 
1545	 3.49917379191789E-02 
1546	 3.46871755688716E-02 
1547	 3.45282595286756E-02 
1548	 3.42883256970361E-02 
1549	 3.41420383931386E-02 
1550	 3.47250230395845E-02 
1551	 3.49761042793556E-02 
1552	 3.47489647059655E-02 
1553	 3.46587805736493E-02 
1554	 0.034411140778777 
1555	 3.42513238153864E-02 
1556	 0.034303940117718 
1557	 3.43074702019587E-02 
1558	 0.034407245910707 
1559	 3.43300285318785E-02 
1560	 3.40994058002448E-02 
1561	 3.45565849867105E-02 
1562	 3.48529543050698E-02 
1563	 3.43945067619222E-02 
1564	 3.42198283426013E-02 
1565	 3.42188993622717E-02 
1566	 0.034182378210181 
1567	 3.43919013495202E-02 
1568	 3.45104964905765E-02 
1569	 3.47597462078176E-02 
1570	 3.49989252750351E-02 
1571	 3.46769980748388E-02 
1572	 3.45717531981053E-02 
1573	 3.45473949360959E-02 
1574	 3.42218999343451E-02 
1575	 3.44654683950873E-02 
1576	 3.48233451758237E-02 
1577	 3.43745631681031E-02 
1578	 3.38333711435382E-02 
1579	 3.36100748772258E-02 
1580	 3.37895537083641E-02 
1581	 3.45065372508006E-02 
1582	 3.48265921548382E-02 
1583	 3.46271496152222E-02 
1584	 3.45340870803973E-02 
1585	 3.44599974918184E-02 
1586	 3.43148866767181E-02 
1587	 3.41649350433263E-02 
1588	 0.033887662844152 
1589	 3.38651422914686E-02 
1590	 0.034066159143415 
1591	 0.034023858208039 
1592	 3.43837008927042E-02 
1593	 3.46642501474436E-02 
1594	 3.41661948694223E-02 
1595	 3.38461378354357E-02 
1596	 3.37879422480347E-02 
1597	 3.36018872897556E-02 
1598	 3.34692228771056E-02 
1599	 3.38195155816163E-02 
1600	 3.42365883360617E-02 
1601	 3.42411188242058E-02 
1602	 3.42074987383165E-02 
1603	 3.40059800507821E-02 
1604	 3.40197481842061E-02 
1605	 3.43290244596365E-02 
1606	 3.44558939252973E-02 
1607	 3.45800852881645E-02 
1608	 3.44250597811459E-02 
1609	 3.39388999335434E-02 
1610	 3.40325822229866E-02 
1611	 3.43499997737041E-02 
1612	 3.39623772216453E-02 
1613	 3.36955154416894E-02 
1614	 3.38029418424836E-02 
1615	 3.35083065827727E-02 
1616	 3.34561517934916E-02 
1617	 0.033856704804984 
1618	 3.35653009835677E-02 
1619	 3.31863806573847E-02 
1620	 3.35781578868869E-02 
1621	 3.38400274389492E-02 
1622	 3.38965570141565E-02 
1623	 3.38839658228031E-02 
1624	 3.33396920971659E-02 
1625	 3.30352186036784E-02 
1626	 3.32173754354529E-02 
1627	 3.35132976176182E-02 
1628	 3.38362757328555E-02 
1629	 3.36267057630382E-02 
1630	 3.34157876773553E-02 
1631	 3.34387453894566E-02 
1632	 0.033520293513049 
1633	 3.39066471014761E-02 
1634	 3.37385709329673E-02 
1635	 3.32092542905384E-02 
1636	 3.32878182568581E-02 
1637	 3.36573299539495E-02 
1638	 3.37821106903421E-02 
1639	 0.03349063416937 
1640	 3.35755538526012E-02 
1641	 3.38569143866218E-02 
1642	 3.35801941893894E-02 
1643	 3.37321463995146E-02 
1644	 3.37156629352078E-02 
1645	 3.31124468046931E-02 
1646	 3.34055799808272E-02 
1647	 3.40624914821426E-02 
1648	 3.39996566180962E-02 
1649	 3.32331622748674E-02 
1650	 3.26846875737824E-02 
1651	 3.28848412003948E-02 
1652	 3.28773303810371E-02 
1653	 3.42151966562174E-02 
1654	 3.46818917772464E-02 
1655	 3.39003541544955E-02 
1656	 3.38784627822494E-02 
1657	 0.034238392145744 
1658	 3.41409137403844E-02 
1659	 3.39551615062954E-02 
1660	 3.40822348552648E-02 
1661	 3.41316794349537E-02 
1662	 3.40582138713749E-02 
1663	 3.42028210707749E-02 
1664	 3.40031663750382E-02 
1665	 3.35460756136443E-02 
1666	 3.34712718645563E-02 
1667	 3.33950994444378E-02 
1668	 3.39566558567525E-02 
1669	 3.38571104773975E-02 
1670	 0.034087964911796 
1671	 3.42660845648163E-02 
1672	 3.36125181923226E-02 
1673	 3.39089500264327E-02 
1674	 3.48316610933363E-02 
1675	 3.44028317722167E-02 
1676	 3.40075030258159E-02 
1677	 3.41499544197804E-02 
1678	 3.32382000723709E-02 
1679	 3.28480886651038E-02 
1680	 3.34711968331835E-02 
1681	 3.32596356059114E-02 
1682	 3.28901728863833E-02 
1683	 3.31785900377101E-02 
1684	 3.34735342902147E-02 
1685	 3.35714908289502E-02 
1686	 3.41337674018395E-02 
1687	 3.46538063458082E-02 
1688	 0.034166310733978 
1689	 3.41826766270859E-02 
1690	 3.47377058172264E-02 
1691	 3.43385141801123E-02 
1692	 0.033757427921809 
1693	 3.38567554879918E-02 
1694	 3.39297030465315E-02 
1695	 3.38262466240877E-02 
1696	 3.44609477300157E-02 
1697	 0.034838608230036 
1698	 3.43662467588851E-02 
1699	 3.43331661529367E-02 
1700	 3.47593337679065E-02 
1701	 3.46941841842298E-02 
1702	 3.43249674900779E-02 
1703	 3.46203966113763E-02 
1704	 3.44130652529579E-02 
1705	 3.38706963194693E-02 
1706	 0.034243621929466 
1707	 3.41911738648618E-02 
1708	 3.41190215811419E-02 
1709	 3.47820904985129E-02 
1710	 3.47180815444861E-02 
1711	 3.39083275930918E-02 
1712	 3.36664604479922E-02 
1713	 3.36266593524019E-02 
1714	 3.35123825391884E-02 
1715	 3.35765180500636E-02 
1716	 3.39139539630169E-02 
1717	 3.39958856233567E-02 
1718	 3.40073572464759E-02 
1719	 3.42943119109314E-02 
1720	 3.45086489553376E-02 
1721	 3.45821402189838E-02 
1722	 3.46447144834954E-02 
1723	 3.52957047387486E-02 
1724	 3.51409690064605E-02 
1725	 3.43665354542785E-02 
1726	 3.53423636830899E-02 
1727	 3.54771574839302E-02 
1728	 3.46527770868177E-02 
1729	 3.58023207763699E-02 
1730	 3.59603406382391E-02 
1731	 3.42783601823831E-02 
1732	 3.44243896007461E-02 
1733	 3.45710725083939E-02 
1734	 3.37049250625382E-02 
1735	 3.47585585496583E-02 
1736	 3.52991077843055E-02 
1737	 3.45291516562517E-02 
1738	 0.034470099430581 
1739	 3.42054543840766E-02 
1740	 3.40799782639121E-02 
1741	 3.48047771418138E-02 
1742	 3.52571843768247E-02 
1743	 3.50470182323818E-02 
1744	 3.52609590483901E-02 
1745	 3.52504921959054E-02 
1746	 3.50149973022655E-02 
1747	 0.034976820817467 
1748	 3.44650062124599E-02 
1749	 3.44577841927602E-02 
1750	 3.51068382951067E-02 
1751	 3.53177704002436E-02 
1752	 3.60473969787528E-02 
1753	 3.56226834184649E-02 
1754	 3.30562181925495E-02 
1755	 3.33453197852737E-02 
1756	 3.54295616228623E-02 
1757	 3.51567718368871E-02 
1758	 3.58026044759186E-02 
1759	 3.54346309071863E-02 
1760	 3.45281539635359E-02 
1761	 3.58338451790346E-02 
1762	 3.71534839322886E-02 
1763	 3.73155971797984E-02 
1764	 3.65801372108832E-02 
1765	 3.60482067544349E-02 
1766	 3.78402566866214E-02 
1767	 0.038852305570567 
1768	 3.82940171619043E-02 
1769	 3.74950749384511E-02 
1770	 3.43500904621626E-02 
1771	 0.032433139358111 
1772	 3.35922347337786E-02 
1773	 3.50910962352218E-02 
1774	 3.73541317156223E-02 
1775	 3.94335171540996E-02 
1776	 3.96375401279725E-02 
1777	 0.038365519295672 
1778	 0.037654611038657 
1779	 3.40039058328193E-02 
1780	 3.34571349902738E-02 
1781	 3.63805297639329E-02 
1782	 3.71802656668361E-02 
1783	 3.91413889804614E-02 
1784	 4.00502034497957E-02 
1785	 3.84360606795846E-02 
1786	 3.79509397539298E-02 
1787	 0.038797331863125 
1788	 3.77883205265129E-02 
1789	 0.034089787051159 
1790	 3.57883159521606E-02 
1791	 3.57024263959469E-02 
1792	 4.26359421617948E-02 
1793	 5.26312976388676E-02 
1794	 4.60621102383552E-02 
1795	 0.044249800635076 
1796	 3.40222156746391E-02 
1797	 1.07203522240022E-02 
1798	 2.34799407081982E-02 
1799	 4.73182024036235E-02 
1800	 8.23652766943058E-02 
1801	 9.47388052743019E-02 
1802	 3.71711329948665E-02 
1803	 2.77030183934209E-04 
1804	-7.76719165628209E-02 
1805	-0.103600574941071 
1806	 5.19808115519346E-02 
1807	 8.45329954888098E-02 
1808	 6.17259766664789E-02 
1809	 4.07421928740522E-02 
1810	-0.26523001153772 
1811	-0.398740858097276 
1812	-0.281835988633956 
1813	-0.575340321857321 
1814	-1.35959818540191 
1815	-0.579013911856401 
1816	-0.359356390135624 
1817	-0.801531449777613 
1818	-0.623883439097106 
1819	-0.705549734590939 
1820	-0.685912740529376 
1821	 6.41902614532935E-04 
1822	 4.09568931395743E-02 
1823	-0.540853015458701 
1824	-0.687065832139644 
1825	-1.21728970473349 
1826	-1.36948509869479 
1827	 0.012246353947886 
1828	 0.217446399673087 
1829	-9.34166241913566E-02 
1830	-7.90352391098809E-02 
1831	-0.823311516473202 
1832	-0.89134315568769 
1833	-0.767701363291388 
1834	-0.801668573003546 
1835	-0.836321486944451 
1836	-0.520720355987412 
1837	-1.60321666097456 
1838	-1.25673319027214 
1839	-1.91864059067655 
1840	 154.411743550325 
1841	-6.51628717374809 
1842	-1.34902956361632 
1843	-0.502515822247031 
1844	 1.25482997507131 
1845	 3.40593142410343 
1846	-2.53338132072703 
1847	-1.15617732195682 
1848	-0.477508369226914 
1849	-0.169115965878532 
1850	-0.24028177781771 
1851	-0.142773948939562 
1852	 0.444119425234374 
1853	 0.106757982589752 
1854	 0.27387314509565 
1855	 1.51902598850225 
1856	 2.10782209012206 
1857	-1.40311959232478 
1858	-0.717283647702252 
1859	-1.72333056746011 
1860	 5.34240512921886 
1861	-1.50157570472357 
1862	-1.17474764776659 
1863	 5.5109658914348 
1864	 1.5050799111408 
1865	-12.1114667302308 
1866	 36.3742386272218 
1867	 2.38590960861042 
1868	 1.30921346773321 
1869	 0.595776519465766 
1870	-0.603399509843208 
1871	-1.04982250184728 
1872	-1.35034174994305 
1873	-0.930313581275534 
1874	-0.158681086191626 
1875	 0.489552566765232 
1876	 0.989249737232316 
1877	 1.88812416302372 
1878	 1.97954664672351 
1879	 1.80499323121021 
1880	 1.85574022155695 
1881	 1.48345855604224 
1882	-0.048243294326225 
1883	 0.40024324595588 
1884	-1.65693638958025 
1885	 1.7682126948643 
1886	 14.4819056253205 
1887	-3.25244892563371 
1888	 1.70414346624836E-02 
1889	 0.139834725238672 
1890	 0.786348778185838 
1891	 0.832014760747068 
1892	 0.793232204462929 
1893	 0.959387903454887 
1894	 1.25592203388063 
1895	 0.618533047626627 
1896	 0.336492979678511 
1897	 0.773111482087976 
1898	 1.21193576956897 
1899	 1.57983355077779 
1900	 1.67473752009965 
1901	 1.54812679211013 
1902	 1.40748276724037 
1903	 0.131867580470326 
1904	 0.337527957811473 
1905	 0.49993444311684 
1906	-34.714969200036 
1907	-2.24084645312851 
1908	-0.335331871310177 
1909	 0.549327624283577 
1910	 0.056551335162177 
1911	 7.17276652400481 
1912	-4.29320974458181 
1913	-1.60828873663629 
1914	-2.44327142656877 
1915	-3.25995607109449 
1916	-0.178032721562843 
1917	-3.67894458890165 
1918	 0.497361209672924 
1919	 0.464902950198778 
1920	 0.427038244298171 
1921	 0.506635755415067 
1922	 0.959801131356202 
1923	-2.95784539657278E-02 
1924	-6.52106125870132 
1925	-2.89734330935817 
1926	-2.10296980128206 
1927	 0.938010552408365 
1928	 3.36535885572655 
1929	 1.44333729689988 
1930	 1.6031923657722 
1931	 1.1655814255788 
1932	 0.943779037636537 
1933	 0.993887928125733 
1934	 0.671548408663256 
1935	 1.32783355011391 
1936	 2.86565468208508 
1937	 0.871867277305908 
1938	 8.55914680163652E-02 
1939	 6.21320999810938E-03 
1940	 7.60254911651659E-02 
1941	-1.28453057019015E-02 
1942	 0.161952120030216 
1943	 0.554215510668176 
1944	 0.597132325557215 
1945	 0.671366881279236 
1946	 0.77713052411135 
1947	 0.437129204450434 
1948	 0.360950798844704 
1949	 0.399734645952671 
1950	 0.157688528285863 
1951	 4.22769606374979E-02 
1952	 5.02806176254147E-02 
1953	 8.51785387998451E-02 
1954	 0.035741538310005 
1955	 0.111925193010569 
1956	 0.157599676733099 
1957	 0.107350142765901 
1958	 7.91307944838905E-02 
1959	 7.84494164198181E-02 
1960	 8.28916483251714E-02 
1961	 7.07969513358152E-02 
1962	 8.27287550945408E-02 
1963	 0.105029691695964 
1964	 9.94728405543884E-02 
1965	 8.67096657182749E-02 
1966	 8.37524461391079E-02 
1967	 7.98795059215317E-02 
1968	 7.00063022891333E-02 
1969	 6.01125978465496E-02 
1970	 6.25403815854708E-02 
1971	 6.28748074314145E-02 
1972	 5.53732386119801E-02 
1973	 0.056146445144434 
1974	 6.06919370517034E-02 
1975	 6.18996373315176E-02 
1976	 6.21944780129675E-02 
1977	 5.74296484658608E-02 
1978	 5.07545852704367E-02 
1979	 4.88800521354711E-02 
1980	 4.56479922140817E-02 
1981	 4.47795286209453E-02 
1982	 4.70070924926274E-02 
1983	 0.049102009742431 
1984	 4.77077497454226E-02 
1985	 4.39873479399157E-02 
1986	 4.22081421713469E-02 
1987	 4.29165537027108E-02 
1988	 4.16810270320386E-02 
1989	 3.97774520258876E-02 
1990	 3.93694906764978E-02 
1991	 3.92614261726821E-02 
1992	 4.03389760939486E-02 
1993	 4.07700407343279E-02 
1994	 4.05231843503379E-02 
1995	 4.04989552492987E-02 
1996	 3.96246118622004E-02 
1997	 0.034987741849719 
1998	 3.36297202900166E-02 
1999	 3.49245961305641E-02 
2000	 3.17371643650483E-02 
2001	 3.61775843293244E-02 
2002	 4.17809194540211E-02 
2003	 0.039168947248747 
2004	 4.88706454390807E-02 
2005	 5.63438515246816E-02 
2006	 4.78703236883764E-02 
2007	 4.88315205512187E-02 
2008	 4.84002621581562E-02 
2009	 4.67552522060082E-02 
2010	 4.54848907035755E-02 
2011	 4.47405940579735E-02 
2012	 4.24439097501593E-02 
2013	 4.15322397404656E-02 
2014	 4.34367439965248E-02 
2015	 4.29989921527753E-02 
2016	 0.051200714763919 
2017	 5.28135963831376E-02 
2018	 4.59620343467761E-02 
2019	 4.66227868797322E-02 
2020	 4.67090385889871E-02 
2021	 4.43476064983107E-02 
2022	 4.53443178794491E-02 
2023	 4.25468338166983E-02 
2024	 3.98632713244468E-02 
2025	 3.34736823904881E-02 
2026	 3.31028518229079E-02 
2027	 3.43234700492605E-02 
2028	 3.69693993117606E-02 
2029	 3.86098511562204E-02 
2030	 4.15788350452644E-02 
2031	 4.33282201213931E-02 
2032	 4.21136161962419E-02 
2033	 4.26796830133877E-02 
2034	 4.13221192481275E-02 
2035	 3.96584246816741E-02 
2036	 3.91029752465661E-02 
2037	 0.039593458237011 
2038	 4.17875928111127E-02 
2039	 4.24338185346559E-02 
2040	 4.30502705370126E-02 
2041	 4.41407165666203E-02 
2042	 4.43724016432275E-02 
2043	 4.38368099906637E-02 
2044	 4.36106247323574E-02 
2045	 4.28368255444882E-02 
2046	 4.10246918057494E-02 
2047	 4.25513938104722E-02 
2048	 4.42238739670078E-02 
2049	 4.20221125645962E-02 
2050	 3.97804059044384E-02 
2051	 3.91322887957003E-02 
2052	 3.83248168812498E-02 
2053	 3.85305643319632E-02 
2054	 4.09570560339333E-02 
2055	 0.040913501980903 
2056	 3.99790350514746E-02 
2057	 0.03835083603246 
2058	 3.85393590824732E-02 
2059	 3.68795493078448E-02 
2060	 3.65249396426975E-02 
2061	 0.037946523284692 
2062	 3.98363611941368E-02 
2063	 4.03801316283568E-02 
2064	 4.21602536921182E-02 
2065	 4.34201681117784E-02 
2066	 4.35064302509184E-02 
2067	 4.25347380619871E-02 
2068	 4.15402423554839E-02 
2069	 4.01335155160929E-02 
2070	 3.84961309582214E-02 
2071	 3.77717000773358E-02 
2072	 3.63316325322034E-02 
2073	 3.61256629017787E-02 
2074	 0.037356154829878 
2075	 3.81008686135525E-02 
2076	 3.96938665020394E-02 
2077	 3.92563368071499E-02 
2078	 3.76054183131182E-02 
2079	 3.67934706746677E-02 
2080	 3.44245332150458E-02 
2081	 3.40713369974739E-02 
2082	 3.64348955053522E-02 
2083	 3.80179675970487E-02 
2084	 3.95135955791444E-02 
2085	 4.02383307165631E-02 
2086	 3.91578398557187E-02 
2087	 3.88614013630283E-02 
2088	 3.86836024189045E-02 
2089	 3.89278300413001E-02 
2090	 0.039525744280333 
2091	 3.80887694667722E-02 
2092	 3.75180452115481E-02 
2093	 3.65203775389954E-02 
2094	 0.03583012028784 
2095	 3.54178911774501E-02 
2096	 3.59254760809461E-02 
2097	 3.70369947390393E-02 
2098	 3.74804293124569E-02 
2099	 3.86591734490146E-02 
2100	 3.86536894912145E-02 
2101	 3.84568859588721E-02 
2102	 3.81698054545372E-02 
2103	 3.81247380376186E-02 
2104	 0.039306114071455 
2105	 3.96303041846604E-02 
2106	 3.87520129518094E-02 
2107	 3.88772945655726E-02 
2108	 3.91192311378246E-02 
2109	 3.85298784464529E-02 
2110	 3.95391410718581E-02 
2111	 0.040208045401924 
2112	 3.85272474514807E-02 
2113	 3.76409851571255E-02 
2114	 3.57336339904552E-02 
2115	 3.60599928570512E-02 
2116	 3.84318169631362E-02 
2117	 3.91054077369372E-02 
2118	 4.13667787224626E-02 
2119	 4.07500130393045E-02 
2120	 3.67860252030278E-02 
2121	 3.40701898071381E-02 
2122	 3.36612366727888E-02 
2123	 3.46430887169363E-02 
2124	 3.67172872057935E-02 
2125	 3.82041184774767E-02 
2126	 3.83419276423427E-02 
2127	 3.81756205579353E-02 
2128	 3.98938833881961E-02 
2129	 3.94528393782156E-02 
2130	 3.78082347090733E-02 
2131	 3.80494290343298E-02 
2132	 3.79867846077823E-02 
2133	 3.84801547969371E-02 
2134	 3.88855723211268E-02 
2135	 4.10129661613749E-02 
2136	 4.08185195785127E-02 
2137	 3.85690198054286E-02 
2138	 3.77918196475474E-02 
2139	 3.63344371429306E-02 
2140	 3.53689096583401E-02 
2141	 3.55713569697169E-02 
2142	 3.62653026581575E-02 
2143	 3.74811219402878E-02 
2144	 3.84014101637855E-02 
2145	 3.98612506748596E-02 
2146	 3.81469913805949E-02 
2147	 3.58057603517181E-02 
2148	 0.036223147130332 
2149	 3.79928993741864E-02 
2150	 3.94467512675744E-02 
2151	 4.12178135261594E-02 
2152	 4.21312228341782E-02 
2153	 4.26023653715299E-02 
2154	 4.35491573476348E-02 
2155	 4.14133124336956E-02 
2156	 4.03930442756573E-02 
2157	 4.00316405505367E-02 
2158	 3.89283813847221E-02 
2159	 3.72699371562526E-02 
2160	 0.03646908380456 
2161	 3.53368695538765E-02 
2162	 3.21529298545402E-02 
2163	 3.16678408314627E-02 
2164	 3.47218941042368E-02 
2165	 3.54380627413875E-02 
2166	 3.49265128527381E-02 
2167	 3.51648793275604E-02 
2168	 3.56410755918076E-02 
2169	 3.50731399192781E-02 
2170	 3.38995979057392E-02 
2171	 0.033645450640722 
2172	 3.41312092721361E-02 
2173	 3.30125709658246E-02 
2174	 0.032142076051626 
2175	 3.29559031364908E-02 
2176	 3.45656795479877E-02 
2177	 0.034164022859205 
2178	 3.58576459362006E-02 
2179	 3.96788344698957E-02 
2180	 3.84867830375986E-02 
2181	 0.037218459141119 
2182	 0.036217601156244 
2183	 3.19953052835005E-02 
2184	 3.10202807607694E-02 
2185	 3.40477717788071E-02 
2186	 3.47880410393009E-02 
2187	 3.52051602895015E-02 
2188	 3.67919020634137E-02 
2189	 0.038432104705463 
2190	 3.95950626737733E-02 
2191	 4.46743310484165E-02 
2192	 4.49777063289025E-02 
2193	 3.96521813582611E-02 
2194	 0.037715885617478 
2195	 3.34253641891265E-02 
2196	 0.031807076136314 
2197	 3.48741819012084E-02 
2198	 3.59884484769306E-02 
2199	 3.64867695590614E-02 
2200	 0.03892834244975 
2201	 0.03953878299466 
2202	 3.77536245250804E-02 
2203	 3.64728403853914E-02 
2204	 3.48852004228613E-02 
2205	 3.24982533809231E-02 
2206	 3.30045336442676E-02 
2207	 3.33087339190712E-02 
2208	 3.21115720854328E-02 
2209	 3.39519281340889E-02 
2210	 3.54485571052378E-02 
2211	 3.57634389131394E-02 
2212	 3.67989319050941E-02 
2213	 3.30947724432867E-02 
2214	 3.01498251640198E-02 
2215	 3.35876840701236E-02 
2216	 3.54188125204684E-02 
2217	 3.55105701464887E-02 
2218	 3.73275879911011E-02 
2219	 3.69154241751411E-02 
2220	 3.25742573593431E-02 
2221	 3.10962791653699E-02 
2222	 3.12018939178661E-02 
2223	 3.05719113021483E-02 
2224	 2.93112953910286E-02 
2225	 2.72281729814511E-02 
2226	 2.47867621215313E-02 
2227	 2.38098679552871E-02 
2228	 2.19204973225663E-02 
2229	 2.18349521634923E-02 
2230	 2.40706256143986E-02 
2231	 2.64448460885283E-02 
2232	 3.13620553484429E-02 
2233	 3.35024724608924E-02 
2234	 0.034342110961283 
2235	 3.47734652060637E-02 
2236	 3.75043839169297E-02 
2237	 3.72132624436427E-02 
2238	 3.74265045717131E-02 
2239	 3.70306633593279E-02 
2240	 3.47366732280142E-02 
2241	 3.38037736248664E-02 
2242	 3.43222141896797E-02 
2243	 3.66217654228805E-02 
2244	 3.83618389770916E-02 
2245	 3.89797682393631E-02 
2246	 3.91028397594009E-02 
2247	 3.75774100575202E-02 
2248	 3.78109110397739E-02 
2249	 3.46345356966433E-02 
2250	 2.98309747028779E-02 
2251	 0.032590228392831 
2252	 3.38599887143737E-02 
2253	 3.28995545048952E-02 
2254	 3.50166072827318E-02 
2255	 3.65578189260177E-02 
2256	 3.81180773722171E-02 
2257	 3.85220561563253E-02 
2258	 3.77102661445134E-02 
2259	 3.59918425643847E-02 
2260	 3.35171973606983E-02 
2261	 0.026862429724856 
2262	 2.64595417469836E-02 
2263	 2.91340927052113E-02 
2264	 0.028863748612174 
2265	 2.90501208443612E-02 
2266	 3.30177688594249E-02 
2267	 4.04005331443709E-02 
2268	 4.40309623631759E-02 
2269	 4.91009782003067E-02 
2270	 4.95402756903564E-02 
2271	 4.11848378931336E-02 
2272	 3.96499607149071E-02 
2273	 4.22949864338603E-02 
2274	 4.28443945494326E-02 
2275	 4.68367139513073E-02 
2276	 4.56390722161336E-02 
2277	 3.66785534439024E-02 
2278	 3.51666566662599E-02 
2279	 3.66945335448317E-02 
2280	 3.73869260437261E-02 
2281	 4.16184301209251E-02 
2282	 4.54604588415445E-02 
2283	 4.16354080028255E-02 
2284	 3.28967771993077E-02 
2285	 2.79509306264751E-02 
2286	 2.74541488370474E-02 
2287	 3.26810818366978E-02 
2288	 0.034401247780419 
2289	 2.90208275935021E-02 
2290	 0.032362504372371 
2291	 3.20241210035043E-02 
2292	 0.026286961298369 
2293	 3.60521039139966E-02 
2294	 3.92258224871189E-02 
2295	 2.93890965766087E-02 
2296	 3.43450015701757E-02 
2297	 4.30766622248625E-02 
2298	 3.84771182416131E-02 
2299	 4.25158990498931E-02 
2300	 5.13775939423012E-02 
2301	 4.61125642236482E-02 
2302	 4.17678292650896E-02 
2303	 4.56561802932801E-02 
2304	 4.62045532356353E-02 
2305	 4.31770185533602E-02 
2306	 4.03248713446569E-02 
2307	 3.07689037807565E-02 
2308	 2.28270430573061E-02 
2309	 2.50755769168191E-02 
2310	 3.21604656839222E-02 
2311	 4.51198096783758E-02 
2312	 5.38402262743226E-02 
2313	 0.051352978866583 
2314	 4.93550692103274E-02 
2315	 4.93386702200344E-02 
2316	 4.62992107240341E-02 
2317	 0.056026277611892 
2318	 6.53861105024011E-02 
2319	 4.42866377086327E-02 
2320	 2.91088308804179E-02 
2321	 2.69120102608884E-02 
2322	 2.16985827644152E-02 
2323	 3.03414681814076E-02 
2324	 4.05434724917451E-02 
2325	 4.48261654661216E-02 
2326	 3.44509858934408E-02 
2327	 0.027317462877218 
2328	 0.051518749260865 
2329	 5.87018963287302E-02 
2330	 4.95509868339915E-02 
2331	 5.40413448258978E-02 
2332	 4.56955820442153E-02 
2333	 4.13966339868394E-02 
2334	 6.13507028894917E-02 
2335	 7.46278407751383E-02 
2336	 7.72059796575189E-02 
2337	 7.23111886195584E-02 
2338	 5.60766248195891E-02 
2339	 4.80600690543489E-02 
2340	 4.58645952472931E-02 
2341	 5.05415310277951E-02 
2342	 0.058558747465789 
2343	 0.042454535468557 
2344	 3.51197229489638E-02 
2345	 3.39974438233742E-02 
2346	 2.16568411776276E-02 
2347	 0.041649358217989 
2348	 5.92089932061365E-02 
2349	 4.15036311841488E-02 
2350	 4.19168509545367E-02 
2351	 3.16179288817459E-02 
2352	 5.95177134177733E-03 
2353	 4.08020006851113E-03 
2354	 1.32416045605935E-02 
2355	 0.043375752189507 
2356	 6.49595096808799E-02 
2357	 6.04294947569568E-02 
2358	 4.32264935863558E-02 
2359	 2.93605804252358E-02 
2360	 2.70631693063858E-02 
2361	 1.98316573246833E-02 
2362	 0.015379003522709 
2363	-7.53504365999822E-03 
2364	-5.64269624598085E-02 
2365	-9.47975571852555E-02 
2366	-8.92195060837261E-02 
2367	-6.75971039650445E-02 
2368	-6.87092714522227E-02 
2369	-5.87315297343243E-02 
2370	-0.059349937028249 
2371	-3.11334368635594E-02 
2372	 2.98131908622911E-02 
2373	 5.05088985347263E-02 
2374	 6.37320504068908E-02 
2375	 4.31953642349631E-02 
2376	-1.74201040679673E-02 
2377	-3.66551853837464E-02 
2378	-0.030241879352532 
2379	-8.66166073193754E-02 
2380	-8.99672029227226E-02 
2381	-4.38361997804355E-02 
2382	-3.30149323941569E-02 
2383	 9.54294771061018E-03 
2384	 2.48851995932757E-02 
2385	 8.52771494666221E-02 
2386	 0.128928710287513 
2387	 5.67610325798248E-02 
2388	 2.62754430247656E-02 
2389	-3.97974713407521E-02 
2390	-8.32262616369636E-02 
2391	-6.99183811891032E-02 
2392	-7.81161348115445E-02 
2393	-1.92404870389276E-02 
2394	 4.10266027645164E-04 
2395	 5.19682548718368E-02 
2396	 0.213807979788732 
2397	 0.204030757475069 
2398	 0.159169932119317 
2399	 0.198655470301518 
2400	 0.112787971889067 
2401	 7.61451822065168E-02 
2402	 6.78682064688553E-02 
2403	-1.59290712951209E-02 
2404	-2.80885440158302E-02 
2405	-1.71687829368584E-02 
2406	-1.05972334456819E-02 
2407	 0.102882229406806 
2408	 0.187257250620381 
2409	 5.13819926634691E-02 
2410	-0.124406217186126 
2411	-0.229591361007371 
2412	-0.454098158862634 
2413	-0.424805618989401 
2414	-0.209272056687043 
2415	-0.432931325237279 
2416	-0.370468001852612 
2417	-0.331569943609107 
2418	-0.21774405542551 
2419	 5.64447818460207E-02 
2420	 0.246957071157438 
2421	 0.213370250461603 
2422	-0.102760365026029 
2423	-0.515144280399053 
2424	-0.763088204355176 
2425	-0.408263276547808 
2426	-0.167279765869984 
2427	-7.08156968372914E-02 
2428	 0.111484608873825 
2429	 0.118278244102075 
2430	 2.66935667722588E-02 
2431	 5.21350082788392E-02 
2432	 0.113968496980438 
2433	 0.122353603188519 
2434	 0.162069915535103 
2435	-7.83153671954735E-02 
2436	-7.31460186818215 
2437	 1.91152889969967 
2438	 1.89773013873533 
2439	 1.8755722282385 
2440	-0.931182961144722 
2441	 1.82695320785311 
2442	 6.26369034831149 
2443	 1.51505391643097 
2444	 2.47259364719936E-02 
2445	 0.067775934644066 
2446	-3.55498858084334E-02 
2447	 0.122203604040451 
2448	 0.112476246527984 
2449	-0.619892247904219 
2450	-1.33353615994188 
2451	-0.95719461625426 
2452	-1.12024878767388 
2453	-1.36350520874484 
2454	 6.58856216531546E-03 
2455	-22.9637808544741 
2456	-1.72846819164526 
2457	-0.677763144557052 
2458	-0.151476106078451 
2459	 0.501390034230415 
2460	 0.36602437236414 
2461	-0.728914412270087 
2462	-6.32397946199698 
2463	-2.97127016891612 
2464	 12.519957610435 
2465	 0.809722582026084 
2466	-2.98246780626968 
2467	 17.7601661109812 
2468	 3.05001412127064 
2469	 20.4484848433576 
2470	 3.0955222929641 
2471	 0.379997171206706 
2472	 1.36157073824309 
2473	 2.11249994535993 
2474	 2.41277877154014 
2475	 1.61329489553768 
2476	-7.3892397598098 
2477	-0.713443339750026 
2478	 1.0921086971096 
2479	 0.842046671133105 
2480	 1.32358571941956 
2481	 2.45898916513872 
2482	 1.6728988251294 
2483	 2.2343256465307 
2484	 2.66006527045656 
2485	 3.1621645567851 
2486	-2.3112594702591 
2487	-10.4242678496931 
2488	-33.5367709846958 
2489	 0.16493582220768 
2490	 0.635191989851942 
2491	-1.05604641346556 
2492	-0.834452179903983 
2493	 0.430477704697831 
2494	-0.862799720370885 
2495	 1.02289141539828 
2496	 1.48253298486364 
2497	 1.83591958369096 
2498	 0.824383854800248 
2499	 0.672461884802349 
2500	 1.06459110411247 
