Wavelength	rt0802far00001.asd
350	 2.65961200851946E-02 
351	 2.72075871932027E-02 
352	 2.61887766712709E-02 
353	 0.025723403394471 
354	 2.69796507707402E-02 
355	 2.78556002896617E-02 
356	 2.75716974671413E-02 
357	 2.75479735700317E-02 
358	 2.89091351847581E-02 
359	 2.81691983583532E-02 
360	 2.73463893071891E-02 
361	 2.70679151580141E-02 
362	 2.69998751827202E-02 
363	 2.94406748926474E-02 
364	 0.029587467359264 
365	 2.68390559890301E-02 
366	 2.81355788531407E-02 
367	 2.83659314805565E-02 
368	 2.81882083935419E-02 
369	 2.88843841811987E-02 
370	 2.84274782773924E-02 
371	 2.80810363343955E-02 
372	 2.77337979161665E-02 
373	 2.69175215733754E-02 
374	 2.98871494189658E-02 
375	 3.11000015500717E-02 
376	 0.029069347294635 
377	 0.029224947375935 
378	 2.95491544707895E-02 
379	 2.95718144181821E-02 
380	 2.94665735296977E-02 
381	 3.05531577418264E-02 
382	 3.06966526229877E-02 
383	 0.030762928444735 
384	 3.24630368245365E-02 
385	 3.23701233241543E-02 
386	 3.15088166909219E-02 
387	 3.10167298620205E-02 
388	 3.15844635420924E-02 
389	 3.17882087196347E-02 
390	 3.22356940171022E-02 
391	 3.32410477189103E-02 
392	 0.033437141416013 
393	 3.33012981426459E-02 
394	 3.31741081099972E-02 
395	 3.33428442550826E-02 
396	 3.42069105418613E-02 
397	 0.034107749959941 
398	 3.32890658241884E-02 
399	 3.36119003089709E-02 
400	 3.47371540078953E-02 
401	 3.52122390744259E-02 
402	 3.46018155039377E-02 
403	 3.50335908515464E-02 
404	 3.52846308294916E-02 
405	 3.49866909870622E-02 
406	 3.43748201241407E-02 
407	 3.52207900610007E-02 
408	 3.57764391795602E-02 
409	 3.58921575795575E-02 
410	 3.70845221004983E-02 
411	 3.70224344594431E-02 
412	 3.67443499080171E-02 
413	 3.70388276947723E-02 
414	 3.64710744334882E-02 
415	 3.65958517117477E-02 
416	 3.73142936351273E-02 
417	 3.78491077800614E-02 
418	 0.037927701997511 
419	 3.79521459271682E-02 
420	 3.82795936984725E-02 
421	 3.91163653952743E-02 
422	 3.92589835834612E-02 
423	 3.90467390767915E-02 
424	 3.91282975191451E-02 
425	 4.01028197453073E-02 
426	 4.05114011197553E-02 
427	 0.040847822580052 
428	 4.21253006544648E-02 
429	 4.15507604768583E-02 
430	 4.13205226881171E-02 
431	 4.21149467008041E-02 
432	 4.22877526310727E-02 
433	 4.26659595876615E-02 
434	 4.31551275515896E-02 
435	 0.043521679264652 
436	 0.043645139648639 
437	 4.41344988378022E-02 
438	 4.46707041023733E-02 
439	 4.45777561967313E-02 
440	 4.49236599763948E-02 
441	 4.56616531812295E-02 
442	 0.046434959509979 
443	 0.046625851569418 
444	 4.71083727808923E-02 
445	 4.74198937459525E-02 
446	 4.72265064622136E-02 
447	 4.82359284627113E-02 
448	 0.048724195773234 
449	 4.86726461317319E-02 
450	 4.92859470713526E-02 
451	 4.96537089701289E-02 
452	 4.98069603681296E-02 
453	 5.00163397615022E-02 
454	 5.08582510480835E-02 
455	 5.06462290234361E-02 
456	 0.050306160496427 
457	 5.11851248800676E-02 
458	 5.12472540378577E-02 
459	 5.13992383094088E-02 
460	 5.18542690180288E-02 
461	 5.19973292915622E-02 
462	 5.20720998583974E-02 
463	 5.21733546833663E-02 
464	 5.23857034158581E-02 
465	 5.28887118994301E-02 
466	 0.053028858083355 
467	 5.28414673503441E-02 
468	 5.27980982780243E-02 
469	 5.36449596287057E-02 
470	 5.42148100021444E-02 
471	 5.40874261878515E-02 
472	 5.40730866109498E-02 
473	 5.46577602640843E-02 
474	 5.52056419349365E-02 
475	 5.51203086885531E-02 
476	 5.50515841364561E-02 
477	 5.57091769557735E-02 
478	 0.056537264095686 
479	 5.62872737150919E-02 
480	 5.64466489593021E-02 
481	 5.68948993821472E-02 
482	 0.057367217938233 
483	 5.77774380785232E-02 
484	 5.79769664616291E-02 
485	 5.81971737362322E-02 
486	 5.86911123911573E-02 
487	 5.89115771355555E-02 
488	 5.95336809100155E-02 
489	 6.03885543039255E-02 
490	 6.05027621989158E-02 
491	 6.08524880132372E-02 
492	 6.11230796434068E-02 
493	 6.11636506270774E-02 
494	 6.19828480386589E-02 
495	 6.29526650786937E-02 
496	 6.35790346335796E-02 
497	 6.36311944752726E-02 
498	 6.45240165425813E-02 
499	 6.50057159950103E-02 
500	 6.48259713187332E-02 
501	 6.57207904548518E-02 
502	 6.63213424456573E-02 
503	 6.68317392184894E-02 
504	 6.77665646270064E-02 
505	 0.069107585005234 
506	 6.94241660783319E-02 
507	 6.91929972696507E-02 
508	 7.02816964662793E-02 
509	 7.14186297406927E-02 
510	 7.20665153891721E-02 
511	 7.22448890453745E-02 
512	 7.29380953920218E-02 
513	 7.37834325725499E-02 
514	 7.46000807278013E-02 
515	 7.53038679298755E-02 
516	 7.61842759196299E-02 
517	 7.68746650532837E-02 
518	 7.74312288261682E-02 
519	 7.84821948563829E-02 
520	 7.95005889884912E-02 
521	 8.02296836172531E-02 
522	 0.08067392015736 
523	 0.081409753477495 
524	 8.24139191876245E-02 
525	 8.33875282708352E-02 
526	 8.39117183046063E-02 
527	 8.44592049312597E-02 
528	 8.52723727657398E-02 
529	 8.63228934015366E-02 
530	 8.71791447657342E-02 
531	 0.087803896074094 
532	 8.85340356995135E-02 
533	 8.96687805191864E-02 
534	 0.090305208303462 
535	 9.09550730848322E-02 
536	 9.17751607694558E-02 
537	 9.24157180426404E-02 
538	 9.32628762289685E-02 
539	 9.40628661596688E-02 
540	 9.46833454723123E-02 
541	 9.59871798082629E-02 
542	 9.68125042615065E-02 
543	 9.72564304137924E-02 
544	 9.81432097437158E-02 
545	 9.88423233848535E-02 
546	 9.95191020249992E-02 
547	 0.100376233520939 
548	 0.10155586604871 
549	 0.102293052757278 
550	 0.102828721363251 
551	 0.103638315296119 
552	 0.104162555544144 
553	 0.104927925977741 
554	 0.105966946547318 
555	 0.10669553917656 
556	 0.107405379456656 
557	 0.108031750467912 
558	 0.108502805206728 
559	 0.108956969788105 
560	 0.109629216851267 
561	 0.110426686653289 
562	 0.111081001253716 
563	 0.111933561017644 
564	 0.112282973635487 
565	 0.112027210718138 
566	 0.112499127276096 
567	 0.112819933014349 
568	 0.113213883459364 
569	 0.114007484780862 
570	 0.113757595338271 
571	 0.11389905508719 
572	 0.114560290585387 
573	 0.114316659513942 
574	 0.114448131764891 
575	 0.114783707017245 
576	 0.114936465432549 
577	 0.114934159786751 
578	 0.114940337817687 
579	 0.11488931265158 
580	 0.114609462712877 
581	 0.114423694913289 
582	 0.114004315634996 
583	 0.113299752001312 
584	 0.112952174234117 
585	 0.111985112312422 
586	 0.110924997784022 
587	 0.110552825655611 
588	 0.109182476877564 
589	 0.108392361090923 
590	 0.108303437495863 
591	 0.107175929527546 
592	 0.106572267816711 
593	 0.105653562498776 
594	 0.103911045960133 
595	 0.103210173338681 
596	 0.102170018245498 
597	 0.100684402600442 
598	 9.93384959927099E-02 
599	 9.79507944156673E-02 
600	 9.68669109528853E-02 
601	 9.61057994161023E-02 
602	 9.50251293072835E-02 
603	 9.43580626710883E-02 
604	 9.39508522394218E-02 
605	 9.35040016859465E-02 
606	 0.093517282769792 
607	 9.35729530597584E-02 
608	 9.34063213331998E-02 
609	 9.29870407351819E-02 
610	 9.30354511140128E-02 
611	 9.30190928522013E-02 
612	 9.25976131140785E-02 
613	 9.28676921165852E-02 
614	 9.27956081198126E-02 
615	 9.25899650768754E-02 
616	 9.29867258338986E-02 
617	 9.26724149804607E-02 
618	 9.23090744453294E-02 
619	 0.092261654261832 
620	 9.20866856286138E-02 
621	 9.16178479258054E-02 
622	 9.13024645177183E-02 
623	 9.14817674640398E-02 
624	 9.08598711622939E-02 
625	 0.090519447833537 
626	 9.05790771011503E-02 
627	 9.01775740119091E-02 
628	 9.01579904204626E-02 
629	 9.01729197575745E-02 
630	 0.089925885607496 
631	 8.98691046302977E-02 
632	 8.96700434743135E-02 
633	 8.95283142110261E-02 
634	 8.97462137495593E-02 
635	 8.93792768494281E-02 
636	 8.91618793894703E-02 
637	 8.91655982328298E-02 
638	 8.82638204665845E-02 
639	 8.84868014993448E-02 
640	 8.88585469267333E-02 
641	 8.81262689446214E-02 
642	 8.77558873386286E-02 
643	 8.73958323702823E-02 
644	 8.68764066540381E-02 
645	 8.62157480206322E-02 
646	 8.57307058238929E-02 
647	 8.53648710248453E-02 
648	 8.50779409454996E-02 
649	 8.50793427985134E-02 
650	 8.48497498671076E-02 
651	 0.084430619028144 
652	 8.40029809422412E-02 
653	 8.29573001568207E-02 
654	 8.15514406966478E-02 
655	 8.02475917442011E-02 
656	 7.98083671181453E-02 
657	 7.90975155865716E-02 
658	 7.86018069478793E-02 
659	 7.85600849278078E-02 
660	 0.077470393069529 
661	 7.65600234930349E-02 
662	 7.59807015683626E-02 
663	 7.53142568817487E-02 
664	 7.53818818901106E-02 
665	 7.51981989889049E-02 
666	 7.44539419460234E-02 
667	 7.44277382995441E-02 
668	 7.46775245242886E-02 
669	 7.44012000143199E-02 
670	 7.31587454847354E-02 
671	 7.29648549512563E-02 
672	 7.28487677924276E-02 
673	 7.28116157883662E-02 
674	 7.37630399662615E-02 
675	 7.35410893756766E-02 
676	 7.28574614429334E-02 
677	 7.26466900924697E-02 
678	 7.29771126537076E-02 
679	 7.32581918451519E-02 
680	 7.31925591421083E-02 
681	 7.27850684861108E-02 
682	 7.29245937794861E-02 
683	 7.32592357288432E-02 
684	 7.35339602917578E-02 
685	 7.38068548691532E-02 
686	 7.27943343781122E-02 
687	 7.21322647593726E-02 
688	 7.32740177939269E-02 
689	 7.34618487524366E-02 
690	 0.073101240664027 
691	 7.27233443564445E-02 
692	 0.072842487157461 
693	 7.16121222742268E-02 
694	 0.070631633030274 
695	 7.07339570190921E-02 
696	 0.070814986825937 
697	 0.069484197624498 
698	 6.76903418882631E-02 
699	 6.69735677582309E-02 
700	 6.60238899187669E-02 
701	 6.48730618543482E-02 
702	 6.37630570999969E-02 
703	 6.28997078245234E-02 
704	 6.14747917530238E-02 
705	 6.01245322671708E-02 
706	 5.92633581212106E-02 
707	 5.82113566141187E-02 
708	 5.66632271026437E-02 
709	 5.49716576542027E-02 
710	 5.35423653476423E-02 
711	 0.051301829675511 
712	 4.92035822747922E-02 
713	 4.75509860553833E-02 
714	 4.58051788051624E-02 
715	 4.38087055747278E-02 
716	 4.11076753333727E-02 
717	 3.79818835826872E-02 
718	 3.64165835924523E-02 
719	 0.035069372739015 
720	 3.39593894934321E-02 
721	 3.31722463735884E-02 
722	 3.21711477322873E-02 
723	 2.98477445666455E-02 
724	 2.69415648314835E-02 
725	 2.63430370271297E-02 
726	 2.60648496630756E-02 
727	 2.51359535209659E-02 
728	 0.023207419830771 
729	 2.06413421458218E-02 
730	 1.95515958177784E-02 
731	 1.93381230776363E-02 
732	 1.84308980486604E-02 
733	 1.75205498467728E-02 
734	 1.70012124270303E-02 
735	 1.68489286739466E-02 
736	 1.64734670990031E-02 
737	 1.60764247194753E-02 
738	 0.015973474871319 
739	 1.61577588465426E-02 
740	 1.56151652074909E-02 
741	 1.52932020236611E-02 
742	 1.53009204908751E-02 
743	 1.53484951463098E-02 
744	 1.56970993549079E-02 
745	 1.56136252623479E-02 
746	 1.51056480840783E-02 
747	 1.52494811022903E-02 
748	 1.56950488089012E-02 
749	 1.59671670701131E-02 
750	 1.57415724830685E-02 
751	 1.52680841543533E-02 
752	 1.52626371082593E-02 
753	 1.54550961879119E-02 
754	 0.015189243764889 
755	 1.56441100241866E-02 
756	 1.57896131685469E-02 
757	 1.54444570992028E-02 
758	 1.61099794255476E-02 
759	 1.52655478239577E-02 
760	 1.35635371388227E-02 
761	 1.45659385586465E-02 
762	 1.43209908623085E-02 
763	 1.51759685246815E-02 
764	 1.61040056060399E-02 
765	 1.58631709157592E-02 
766	 1.56491320516042E-02 
767	 1.51551890420365E-02 
768	 1.47152635118923E-02 
769	 1.52943644569571E-02 
770	 0.015617383866011 
771	 1.60226577389471E-02 
772	 1.66626871113818E-02 
773	 0.016282221068576 
774	 1.59673428301247E-02 
775	 1.60251715452565E-02 
776	 1.63147598638648E-02 
777	 1.63080490527417E-02 
778	 1.61054284611206E-02 
779	 1.61302056777904E-02 
780	 0.016965082689255 
781	 0.017024508123299 
782	 1.67947627401902E-02 
783	 1.68555927587447E-02 
784	 0.017130350983158 
785	 0.016874262659882 
786	 1.64185250574582E-02 
787	 1.64234964291556E-02 
788	 1.66140543710907E-02 
789	 1.70781064370744E-02 
790	 1.78915609003515E-02 
791	 1.89549817662779E-02 
792	 1.85670749582334E-02 
793	 1.78407628604603E-02 
794	 1.76971595515258E-02 
795	 1.82216602454935E-02 
796	 1.83457423214746E-02 
797	 1.84441432062974E-02 
798	 1.89271582533991E-02 
799	 1.86551014881252E-02 
800	 1.87707658528604E-02 
801	 1.91371337719396E-02 
802	 1.90382229035892E-02 
803	 1.96650435702445E-02 
804	 1.98822339764327E-02 
805	 1.94852591675563E-02 
806	 1.93689107560318E-02 
807	 1.88669135859769E-02 
808	 1.87178302562792E-02 
809	 1.92098794262014E-02 
810	 1.85211373115562E-02 
811	 1.75010360569632E-02 
812	 1.73635074894258E-02 
813	 1.89279075860766E-02 
814	 1.77543780065386E-02 
815	 1.65375092312799E-02 
816	 1.63714592102464E-02 
817	 1.62583781847049E-02 
818	 1.72262158652529E-02 
819	 1.69706082575548E-02 
820	 1.56580391315948E-02 
821	 1.63800809301812E-02 
822	 1.60413190918777E-02 
823	 1.48963763249621E-02 
824	 1.41177502416235E-02 
825	 1.45250194067684E-02 
826	 0.013451163785236 
827	 1.21891604811864E-02 
828	 1.29231247078556E-02 
829	 1.19215100305261E-02 
830	 1.12345398084778E-02 
831	 1.13265044982694E-02 
832	 1.13496796007499E-02 
833	 1.11949268412671E-02 
834	 1.15291016134923E-02 
835	 1.20670270860224E-02 
836	 0.011349753759228 
837	 0.010414495021823 
838	 1.02947555103027E-02 
839	 1.10400236579336E-02 
840	 1.02798175800488E-02 
841	 0.010642472246782 
842	 1.12472990744181E-02 
843	 1.06289525922934E-02 
844	 0.01061453459175 
845	 1.10458751232944E-02 
846	 1.10649925761568E-02 
847	 9.74023201930221E-03 
848	 9.45231701452139E-03 
849	 1.00130672041102E-02 
850	 1.05335037702946E-02 
851	 9.81210740967534E-03 
852	 1.01881336627732E-02 
853	 1.06205588270886E-02 
854	 1.02338719656243E-02 
855	 1.00262598085549E-02 
856	 1.03351714553049E-02 
857	 1.05863529659924E-02 
858	 1.02656998388381E-02 
859	 1.00609868147935E-02 
860	 9.56176110689786E-03 
861	 9.40586535573791E-03 
862	 1.03672487708149E-02 
863	 1.08333503961373E-02 
864	 0.010867283446886 
865	 1.06217928856582E-02 
866	 1.02807527498404E-02 
867	 1.01888322094012E-02 
868	 1.04741501354728E-02 
869	 1.07164360712924E-02 
870	 9.94343788218135E-03 
871	 1.00564173807065E-02 
872	 1.04279860528364E-02 
873	 1.02623370565982E-02 
874	 9.60491392481217E-03 
875	 1.05038920408846E-02 
876	 1.10276578953935E-02 
877	 9.40187686883053E-03 
878	 9.15989344068002E-03 
879	 9.03631050321569E-03 
880	 9.14032153786444E-03 
881	 9.96736235560696E-03 
882	 1.06795488017883E-02 
883	 9.13142109724899E-03 
884	 6.96856439895482E-03 
885	 8.11705755630475E-03 
886	 9.63735272609334E-03 
887	 9.64390824291036E-03 
888	 9.01880648282354E-03 
889	 1.12161024386502E-02 
890	 9.94035703424574E-03 
891	 8.60234381422318E-03 
892	 9.77747114304067E-03 
893	 1.03601765638479E-02 
894	 7.31122869844891E-03 
895	 6.48527784577771E-03 
896	 1.21796920044047E-02 
897	 1.00662513102035E-02 
898	 5.44484927342954E-03 
899	 4.56899988551263E-03 
900	 9.39038702818177E-03 
901	 9.41759080155604E-03 
902	 6.38694617457851E-03 
903	 4.86126956881244E-03 
904	 8.04180669386779E-03 
905	 7.5982401676084E-03 
906	 6.50652377760726E-03 
907	 6.65110611070538E-03 
908	 8.10898505807722E-03 
909	 4.89809492992498E-03 
910	 5.27376213014462E-03 
911	 7.72071652540755E-03 
912	 2.63514448635395E-03 
913	 8.62624750976417E-03 
914	 1.01672821199265E-02 
915	 3.93852519751078E-03 
916	 4.46820485639155E-03 
917	 5.90308084829848E-03 
918	 4.88822053909057E-03 
919	 3.44442567020616E-03 
920	 8.88054560569675E-03 
921	 5.58387109241723E-03 
922	 2.36851004185991E-03 
923	 5.91326736286759E-03 
924	 7.82971123594336E-03 
925	 8.76757123824399E-03 
926	 7.34400116769858E-03 
927	 2.46020839351205E-03 
928	-3.56636412403054E-03 
929	-7.3979863394389E-03 
930	 3.77108013432277E-03 
931	 3.55200914147459E-02 
932	-5.84313098360114E-03 
933	-2.95112010502921E-02 
934	 1.65029709413085E-02 
935	 5.14455547884403E-02 
936	-8.18732093662247E-02 
937	-7.07009705801076E-02 
938	-6.83386148128578E-03 
939	-3.81630707301767E-02 
940	-1.02373951877512E-02 
941	-2.53547284138475E-02 
942	-4.10871107228557E-02 
943	 2.27078590806167E-02 
944	-4.28537459213331E-02 
945	-2.56866609054495E-02 
946	 5.09120976181269E-02 
947	 1.95182055098394E-02 
948	-3.64840710369964E-02 
949	-0.021049025376842 
950	 2.29605618295293E-02 
951	 6.63329793908405E-03 
952	 5.03959744800393E-02 
953	 0.034185331950217 
954	-1.85584784815068E-02 
955	-1.79307453827898E-03 
956	-2.9936239458203E-03 
957	-1.63065689410201E-02 
958	-0.015731611999157 
959	 1.75916486258526E-02 
960	-3.1193059038606E-03 
961	-1.73682762805548E-02 
962	-4.77356675605598E-03 
963	 1.62978438418945E-02 
964	 1.09825709396609E-02 
965	 4.57202069226651E-03 
966	 4.05997722298143E-03 
967	 3.02790503839787E-03 
968	 2.31683053100724E-03 
969	 5.03034029030514E-03 
970	 9.61305521423692E-03 
971	 1.07740865428994E-02 
972	 4.47271051506191E-03 
973	 1.8493183865544E-04 
974	 1.78301018731633E-03 
975	 4.42690219085086E-03 
976	-2.32695581730214E-03 
977	-8.58902348444164E-03 
978	-4.7224535080835E-03 
979	 9.95047933611175E-03 
980	 1.5038202997094E-03 
981	-4.63908422043752E-03 
982	-1.09408048214521E-03 
983	 5.47075217474456E-04 
984	-1.18524785241588E-02 
985	-8.01308917408753E-03 
986	 5.93552712580348E-03 
987	 9.89674146246347E-04 
988	-4.5789757523111E-03 
989	 4.68690520641145E-05 
990	 8.19705409025798E-03 
991	 5.00797240174423E-03 
992	 2.34768870689112E-03 
993	 2.84200631375729E-03 
994	 7.84683497090788E-03 
995	 1.54645199611332E-02 
996	 1.35117268766391E-02 
997	 4.17142202433568E-03 
998	 4.39900883846554E-04 
999	 1.28182150641232E-02 
1000	 1.04551978745158E-02 
1001	 3.2625175529968E-03 
1002	 3.41648725786035E-03 
1003	 3.89850296163694E-03 
1004	 8.63302399953357E-03 
1005	 9.70877423707138E-03 
1006	 0.008808091378206 
1007	 5.81954573248076E-03 
1008	 6.14493852491991E-03 
1009	 7.2078236014234E-03 
1010	 9.77260542753829E-03 
1011	 1.18569457019496E-02 
1012	 1.43470397303978E-02 
1013	 1.26301066312399E-02 
1014	 1.00503863325597E-02 
1015	 4.42003217605529E-03 
1016	 4.32270355040221E-03 
1017	 4.55662040630028E-03 
1018	 5.56174575648018E-03 
1019	 1.28379442178764E-02 
1020	 1.49324795689193E-02 
1021	 0.014926533760386 
1022	 1.16036298329488E-02 
1023	 8.25214503493345E-03 
1024	 6.12417908573386E-03 
1025	 3.60226318339195E-03 
1026	 3.79300297642048E-03 
1027	 5.14090469409153E-03 
1028	 1.04227828300745E-02 
1029	 1.00302609609298E-02 
1030	 7.37232576445518E-03 
1031	 7.00124248449896E-03 
1032	 3.69674358797014E-03 
1033	 4.34495375118792E-03 
1034	 1.08402248936919E-02 
1035	 1.31184663322873E-02 
1036	 1.52170175495499E-02 
1037	 1.51484153212465E-02 
1038	 1.38938559837772E-02 
1039	 8.44512894461086E-03 
1040	 6.16295159381003E-03 
1041	 6.16512324912576E-03 
1042	 6.18794522879106E-03 
1043	 9.77340249139673E-03 
1044	 8.71085803195653E-03 
1045	 3.98928337392173E-03 
1046	 3.87560906094487E-03 
1047	 3.95354100514542E-03 
1048	 4.65000622238446E-03 
1049	 9.94015515295661E-03 
1050	 1.10953063783046E-02 
1051	 8.95093291182962E-03 
1052	 8.57846210180477E-03 
1053	 7.72231608321695E-03 
1054	 7.3420633951273E-03 
1055	 7.3370052787801E-03 
1056	 7.78168679875002E-03 
1057	 8.59180810220838E-03 
1058	 9.42173527879456E-03 
1059	 1.11301643179906E-02 
1060	 1.53568596947247E-02 
1061	 1.54903978783483E-02 
1062	 1.41218007958828E-02 
1063	 1.28853368727557E-02 
1064	 7.71576548903357E-03 
1065	 6.69030225534429E-03 
1066	 8.92908444760308E-03 
1067	 9.15430412266298E-03 
1068	 1.00556323232694E-02 
1069	 1.04607011609576E-02 
1070	 9.60009113718002E-03 
1071	 8.88681814578303E-03 
1072	 6.06672913730455E-03 
1073	 8.1530642711411E-03 
1074	 7.88026335463311E-03 
1075	 6.77161211951928E-03 
1076	 7.41655029695548E-03 
1077	 1.00642645543713E-02 
1078	 9.69261080552759E-03 
1079	 7.02831710356301E-03 
1080	 8.14092056891211E-03 
1081	 1.05350831692492E-02 
1082	 1.12391457402749E-02 
1083	 1.56314552502868E-02 
1084	 1.61562266033508E-02 
1085	 9.90015187154506E-03 
1086	 8.14157252829576E-03 
1087	 8.89535728756318E-03 
1088	 8.51677132979029E-03 
1089	 9.32747497372611E-03 
1090	 9.50613796751717E-03 
1091	 1.00521221157766E-02 
1092	 9.62745599905463E-03 
1093	 8.67152455531897E-03 
1094	 8.15952843847765E-03 
1095	 8.15199416795832E-03 
1096	 8.17238918046593E-03 
1097	 7.28214450856419E-03 
1098	 5.79514731264057E-03 
1099	 3.88826059650001E-03 
1100	-2.95454679779777E-03 
1101	-3.54561092279814E-03 
1102	 4.80160544044114E-03 
1103	 7.98584409347082E-03 
1104	 1.50672478391962E-02 
1105	 1.48216102614998E-02 
1106	 9.90112338843772E-03 
1107	 5.47853437536943E-03 
1108	 5.94303239835371E-04 
1109	 1.37359564365832E-03 
1110	 4.99126468885015E-03 
1111	 1.41418596361673E-02 
1112	 1.93208353526146E-02 
1113	 3.41628314175456E-02 
1114	 3.53945677847606E-02 
1115	 8.69540487092573E-03 
1116	 3.94669968833292E-03 
1117	 1.41499448995122E-02 
1118	 1.84728879612251E-02 
1119	 0.047834767437821 
1120	 6.18802540793233E-02 
1121	 0.05374757310115 
1122	 9.34098050001053E-03 
1123	-0.125229825483579 
1124	-4.68237488768302E-02 
1125	-3.56062386178155E-02 
1126	-0.102628182945581 
1127	 0.134705292549272 
1128	 0.21729601618535 
1129	 0.175653087103098 
1130	 8.57327844384937E-02 
1131	 8.60587578413989E-02 
1132	-0.024031159653584 
1133	-0.054384505822596 
1134	 4.57713576205643E-02 
1135	 4.80327363551836E-02 
1136	-5.37599814523388E-02 
1137	-6.10259098493612E-02 
1138	-4.22855136919033E-02 
1139	 3.25372988471321E-03 
1140	 8.86506989686285E-02 
1141	 0.129829093523027 
1142	 0.093472995401539 
1143	 0.113026798574907 
1144	 9.58120345912512E-02 
1145	 7.06930885043789E-02 
1146	 0.127354071950309 
1147	 0.11252464499449 
1148	 6.12217150557489E-02 
1149	 3.23749588488164E-02 
1150	 2.64109947667331E-02 
1151	 7.92982948394297E-02 
1152	 0.062982623663781 
1153	 2.27069441021665E-02 
1154	 5.83381687635751E-03 
1155	-1.29406395924931E-02 
1156	-3.14398608200547E-02 
1157	-1.68220815594202E-02 
1158	 2.78702919789518E-03 
1159	-6.20390970448036E-04 
1160	-1.00878827341391E-02 
1161	-1.06777432301567E-02 
1162	 4.45693630694401E-04 
1163	 7.35295000809603E-03 
1164	 7.73562875364359E-03 
1165	 8.97582554395408E-03 
1166	 0.005433865104354 
1167	-3.10753584723693E-04 
1168	-1.66472714148468E-03 
1169	-8.5432446676315E-04 
1170	-6.02589992141206E-04 
1171	 1.41461895889086E-04 
1172	 7.08587306185943E-03 
1173	 1.01714278115298E-02 
1174	 1.29531787062943E-02 
1175	 6.66479309059007E-03 
1176	 6.05217180477643E-03 
1177	 1.25791256893998E-02 
1178	 9.42080544579799E-03 
1179	 5.70548297956471E-03 
1180	 0.010646631076217 
1181	 1.20147950603406E-02 
1182	 1.02644976204047E-02 
1183	 1.12929125643449E-02 
1184	 1.06021054357526E-02 
1185	 5.36540159940056E-03 
1186	 4.43515738492604E-03 
1187	 1.22752018491674E-02 
1188	 1.24953982140141E-02 
1189	 3.84282916629157E-03 
1190	 5.35225433339377E-03 
1191	 8.9994036020422E-03 
1192	 8.05923526968426E-03 
1193	 5.98176052167218E-03 
1194	 0.010086242144747 
1195	 9.9690831128256E-03 
1196	 5.09187897133105E-03 
1197	 5.2651581824507E-03 
1198	 6.83822885652178E-03 
1199	 9.86332185138743E-03 
1200	 1.23382606865109E-02 
1201	 1.16590574818807E-02 
1202	 1.28269277863058E-02 
1203	 9.50583861226756E-03 
1204	 2.86165211818971E-03 
1205	 3.28633641122016E-03 
1206	 2.94790730666269E-03 
1207	-1.28180836679497E-03 
1208	-5.55408592643396E-04 
1209	 1.99622306481243E-03 
1210	 2.38436415060988E-03 
1211	 2.42304186132511E-03 
1212	 2.81259017557778E-03 
1213	 2.91869359954978E-03 
1214	 2.92130633430497E-03 
1215	 2.83043455394551E-03 
1216	 6.15570232485966E-03 
1217	 8.23377705537513E-03 
1218	 5.81095105357314E-03 
1219	 5.39026606388946E-03 
1220	 5.86946187863728E-03 
1221	 6.26542717809819E-03 
1222	 7.90829824880742E-03 
1223	 8.64867274172959E-03 
1224	 9.8845522835126E-03 
1225	 9.12119884951461E-03 
1226	 8.57045832401999E-03 
1227	 1.01196070685897E-02 
1228	 9.56564397267365E-03 
1229	 9.25954809276105E-03 
1230	 9.55954640995948E-03 
1231	 8.81734537953272E-03 
1232	 9.80208105782129E-03 
1233	 1.08498565968529E-02 
1234	 8.18822572034144E-03 
1235	 7.89745033673832E-03 
1236	 0.009707912005184 
1237	 1.00743421340058E-02 
1238	 9.70608812560575E-03 
1239	 1.07190154210137E-02 
1240	 1.14723616640299E-02 
1241	 7.03072629361098E-03 
1242	 4.66441710351754E-03 
1243	 7.86540026306249E-03 
1244	 1.06456844984928E-02 
1245	 1.09699478092284E-02 
1246	 1.09397234177972E-02 
1247	 1.11580587586305E-02 
1248	 9.93637778395861E-03 
1249	 9.48831071817001E-03 
1250	 1.04618256354232E-02 
1251	 9.80871640177386E-03 
1252	 7.87564665840004E-03 
1253	 7.04154347555125E-03 
1254	 8.32954757396508E-03 
1255	 0.007953765331029 
1256	 7.79646975150763E-03 
1257	 9.70132657621439E-03 
1258	 9.15977300457754E-03 
1259	 5.11270397590434E-03 
1260	 4.76436806120351E-03 
1261	 5.18142432336325E-03 
1262	 5.22031740879828E-03 
1263	 7.5784026247779E-03 
1264	 8.55772794452873E-03 
1265	 6.17259611038832E-03 
1266	 4.77983743952832E-03 
1267	 3.74094365127342E-03 
1268	 3.19027949375493E-03 
1269	 5.90013344911801E-03 
1270	 9.45196249234672E-03 
1271	 9.59785944870452E-03 
1272	 9.37127707508481E-03 
1273	 9.15694745470783E-03 
1274	 5.20394330054903E-03 
1275	 4.30687502202295E-03 
1276	 8.97844465451367E-03 
1277	 8.77980236261052E-03 
1278	 6.50296158849209E-03 
1279	 7.92077053858784E-03 
1280	 6.01923947643519E-03 
1281	 5.08427462639615E-03 
1282	 6.89939628731166E-03 
1283	 8.20328958100711E-03 
1284	 7.3839988819914E-03 
1285	 6.73666740341203E-03 
1286	 8.35598545566914E-03 
1287	 7.34763018350177E-03 
1288	 1.87492399195283E-03 
1289	 1.8845708622346E-03 
1290	 4.79633882016004E-03 
1291	 6.02836737544815E-03 
1292	 6.97073702811638E-03 
1293	 8.60426025204614E-03 
1294	 1.12634855604116E-02 
1295	 9.75331244875176E-03 
1296	 7.72764607888082E-03 
1297	 8.20950562728208E-03 
1298	 5.31794288964174E-03 
1299	 4.85240841733531E-03 
1300	 5.39683932784008E-03 
1301	 4.70302057657904E-03 
1302	 6.75722382259542E-03 
1303	 6.79378234626964E-03 
1304	 8.64229573583326E-03 
1305	 1.29818076247751E-02 
1306	 1.36665951834616E-02 
1307	 9.23599609634867E-03 
1308	 7.03912216208794E-03 
1309	 4.6864968338924E-03 
1310	 2.9986265586349E-03 
1311	 7.71988534381134E-04 
1312	-5.24216621000662E-04 
1313	-3.89552124486981E-04 
1314	-1.59846577021917E-03 
1315	-0.00348143859764 
1316	-1.81340523790332E-03 
1317	 2.82300930315912E-03 
1318	 4.3044117095007E-03 
1319	 6.48322394035754E-03 
1320	 7.36403188261327E-03 
1321	 3.41840964299358E-03 
1322	 1.21394666271122E-03 
1323	 8.13576129453086E-03 
1324	 2.05374472609965E-02 
1325	 1.30982700106714E-02 
1326	-1.43061760531194E-03 
1327	-2.4992286458251E-03 
1328	-7.77725673455889E-03 
1329	-4.4625974665417E-03 
1330	 7.25957564983253E-03 
1331	 2.47142379158795E-03 
1332	-7.95814565838541E-03 
1333	-1.11653273971757E-02 
1334	 7.3276935611355E-05 
1335	-1.63264937276757E-03 
1336	-1.92144060674198E-02 
1337	-2.99240298075114E-02 
1338	-3.95628378577855E-02 
1339	-4.76961307893706E-02 
1340	-4.76211531229958E-02 
1341	-0.062891815222197 
1342	-0.12666173965418 
1343	-0.125871156135091 
1344	-3.17340210408713E-02 
1345	-4.49885842959876E-02 
1346	-0.10720362302149 
1347	-7.73967159402881E-02 
1348	-0.117916614749696 
1349	-0.205807797577716 
1350	-0.153382316049046 
1351	-6.19063706976924E-02 
1352	 3.48285600217901E-02 
1353	-4.9165524318831E-03 
1354	 8.13084189715167E-02 
1355	 0.30860622506839 
1356	 9.61209328559195E-02 
1357	-0.283929737261936 
1358	-0.331812096352411 
1359	 0.32045199055668 
1360	 1.65852180432995E-02 
1361	-0.503554012936269 
1362	-0.234573567908967 
1363	-0.522545805401115 
1364	-0.74781063996877 
1365	-0.183406977409076 
1366	 0.198966953101141 
1367	 0.276260694537699 
1368	-0.179874246258918 
1369	-1.70592943142945 
1370	-1.80450569247744 
1371	-2.66316897454731 
1372	-1.67688791132781 
1373	 0.16285945359503 
1374	 0.44026268590226 
1375	-0.442471321196333 
1376	-0.774532729750183 
1377	-1.73873127022775 
1378	 0.722215377886326 
1379	 1.34292812911279 
1380	 2.00832288060965 
1381	 58.6746997656646 
1382	-11.4663943113713 
1383	-4.84397038964377 
1384	-4.51135529974176 
1385	 12.3322264240313 
1386	 16.3113306607017 
1387	-0.303385099715766 
1388	 0.32866526379542 
1389	-2.28673530095513 
1390	-5.03391118119906 
1391	-3.13552382328287 
1392	-1.68359272789913 
1393	-2.02057932763708 
1394	-1.93931633446188 
1395	-1.54012428398042 
1396	-0.266060347383325 
1397	-0.205202309466637 
1398	 3.91417833174197 
1399	-0.40414369878475 
1400	 2.19140306893117 
1401	 2.26588806292879 
1402	-8.56117109055793E-02 
1403	-0.901659621284016 
1404	-1.46488165943737 
1405	-2.01207964005769 
1406	 6.38814243824052 
1407	 2.53846854319419 
1408	 2.65022964187678 
1409	 1.59442326401217 
1410	 2.69174304609253 
1411	 2.34842254570265 
1412	 1.23942110274597 
1413	 2.13210854716007 
1414	-6.73138284730994 
1415	-8.63153758325335 
1416	 0.387972338972376 
1417	 1.47852524622226 
1418	-0.561795978475437 
1419	-0.783711462719952 
1420	-1.83274800273363 
1421	-2.28458837896666 
1422	-7.65128077344023 
1423	 4.58747197087097 
1424	 0.487847782516588 
1425	 0.306077803909043 
1426	 3.40346497902795 
1427	 2.59164968022063 
1428	 0.325608819189793 
1429	 0.168515631446962 
1430	 4.55903423471271E-02 
1431	-0.065315633939008 
1432	-1.15641044492423E-02 
1433	-0.126194042482211 
1434	-0.300974429171531 
1435	-0.271927685265528 
1436	-0.329164100502033 
1437	-2.06728221972697E-02 
1438	 0.60805246142126 
1439	 1.0420817346394 
1440	 1.04785253684422 
1441	 1.42225393930202 
1442	-0.39317848229127 
1443	 0.19904583522415 
1444	 0.415741213868989 
1445	 5.58681897047759E-03 
1446	 0.113930444954161 
1447	 0.359253908923719 
1448	 0.468780711828017 
1449	 0.661709903917327 
1450	 0.287754500365361 
1451	 0.113758076697436 
1452	-7.53635632356253E-02 
1453	-0.255749304680377 
1454	-0.183270751801166 
1455	-0.244898013657422 
1456	-0.147407102549494 
1457	 0.125938293896413 
1458	 0.193803342845061 
1459	 0.248427600563555 
1460	 0.275152701860632 
1461	 0.311015531607688 
1462	 0.228014648773592 
1463	 5.37786087587401E-02 
1464	-1.29823528076435E-02 
1465	-0.178779094276016 
1466	-0.17598056408207 
1467	 0.148212557701408 
1468	 9.70127247068998E-02 
1469	-0.148734060726629 
1470	-0.187506630718736 
1471	-0.295419399120242 
1472	-0.353978398820725 
1473	-0.371462057095033 
1474	-0.282361462831869 
1475	-5.43170613315881E-02 
1476	-2.98445449797555E-02 
1477	 0.043602128267905 
1478	 8.68521423838835E-02 
1479	-7.47512437354755E-02 
1480	-8.99369453270087E-02 
1481	 5.10473368518035E-02 
1482	 5.92885476073469E-02 
1483	-3.26168298054646E-02 
1484	-4.78958706016397E-02 
1485	-8.81163766158859E-02 
1486	-6.11830858295235E-02 
1487	 6.46941532017867E-02 
1488	 0.074476979106635 
1489	 5.12004925214771E-02 
1490	 4.16278743329026E-02 
1491	-8.25334963659518E-04 
1492	-9.42044087800364E-03 
1493	 9.04877426345515E-03 
1494	 1.00333324009313E-02 
1495	-5.45280209614765E-03 
1496	 2.85423875017052E-03 
1497	 3.37310036000683E-02 
1498	 3.42625848603636E-02 
1499	 3.01615873785473E-02 
1500	 2.69822538387331E-02 
1501	 2.9385424618272E-03 
1502	-7.30362833706808E-03 
1503	-6.29140964948775E-03 
1504	-5.43289883789761E-03 
1505	-2.85351107622776E-03 
1506	-2.82127931989628E-03 
1507	 2.54150515681203E-03 
1508	 6.74948683916714E-03 
1509	 3.50361306953272E-03 
1510	 1.09011196967423E-02 
1511	 2.27414785706792E-02 
1512	 0.016614832313107 
1513	 3.63418060168927E-03 
1514	-1.28205062370387E-03 
1515	-3.33665415708395E-03 
1516	-9.35845402157432E-03 
1517	-9.49687548253464E-03 
1518	-6.44449353727803E-03 
1519	-1.53500893975699E-02 
1520	-0.015348793705007 
1521	-5.19382725720609E-03 
1522	-1.1211918926178E-03 
1523	 5.39144216685958E-03 
1524	 1.07442161062294E-02 
1525	 1.66262085733422E-02 
1526	 1.61855837618827E-02 
1527	 1.43608540758838E-03 
1528	-2.77842770046978E-03 
1529	 9.94361381378383E-04 
1530	-1.45181483319013E-03 
1531	-7.21780085651279E-04 
1532	 3.35179729260806E-03 
1533	 4.85810128111786E-03 
1534	 2.87433202413532E-03 
1535	 9.44363758455246E-04 
1536	 2.30905407768868E-03 
1537	 2.22152251990488E-03 
1538	 4.95604607823208E-04 
1539	 1.44254763415672E-03 
1540	 4.95663044925914E-03 
1541	 5.73770544163224E-03 
1542	 4.4889919711415E-03 
1543	 8.59116813616768E-03 
1544	 1.19943082644711E-02 
1545	 1.07090933278303E-02 
1546	 1.11373030779128E-02 
1547	 1.08515409266712E-02 
1548	 6.37658127122719E-03 
1549	 0.00577001921617 
1550	 1.03403583589822E-02 
1551	 9.06400765466461E-03 
1552	 4.42978202402769E-03 
1553	 5.4626883505309E-03 
1554	 7.39352373609225E-03 
1555	 7.92940937090413E-03 
1556	 9.41784754916692E-03 
1557	 1.00367265623092E-02 
1558	 8.69972872142199E-03 
1559	 6.27610598481129E-03 
1560	 6.21100951932887E-03 
1561	 8.58642713910146E-03 
1562	 8.82817567983907E-03 
1563	 5.17131752585114E-03 
1564	 5.40050993202412E-03 
1565	 8.66027366388254E-03 
1566	 5.76698541755648E-03 
1567	 3.71554173608033E-03 
1568	 6.33383582290541E-03 
1569	 1.01191153921961E-02 
1570	 1.05699340165784E-02 
1571	 7.50751014232177E-03 
1572	 5.38556745512928E-03 
1573	 3.37453714339339E-04 
1574	-2.99119774576244E-03 
1575	-2.85412436944863E-03 
1576	-5.96037147176106E-04 
1577	 7.80328996826595E-03 
1578	 1.16399116035932E-02 
1579	 8.68109163028897E-03 
1580	 8.72677781223087E-03 
1581	 1.00023797444081E-02 
1582	 6.19178434144228E-03 
1583	 6.54801976563588E-03 
1584	 1.48229688888404E-02 
1585	 1.39884581634939E-02 
1586	 9.35424460665294E-03 
1587	 7.79384564822938E-03 
1588	 4.50383098211725E-03 
1589	 1.41459131965261E-03 
1590	 1.31603911535197E-03 
1591	 6.06021892899332E-03 
1592	 8.83075952655803E-03 
1593	 8.03508638339158E-03 
1594	 7.10990082791066E-03 
1595	 5.78946246787119E-03 
1596	 5.8074294764218E-03 
1597	 8.56041734593825E-03 
1598	 7.44245844815875E-03 
1599	 3.35696923537028E-03 
1600	 5.26380208426335E-03 
1601	 8.97033965645928E-03 
1602	 7.90971201883218E-03 
1603	 7.04161368775033E-03 
1604	 8.99460025622868E-03 
1605	 6.91137926071296E-03 
1606	 6.30415549037259E-03 
1607	 1.12811415657973E-02 
1608	 1.21439373213685E-02 
1609	 9.69909607573661E-03 
1610	 8.89355819990183E-03 
1611	 5.25183069759088E-03 
1612	-1.07210427430511E-04 
1613	-7.00552424617515E-04 
1614	 3.32852864399751E-03 
1615	 8.98194094767898E-03 
1616	 1.19533801057455E-02 
1617	 9.2036860247259E-03 
1618	 7.01606187176468E-03 
1619	 9.96771310053163E-03 
1620	 1.04407555496154E-02 
1621	 5.44799505230082E-03 
1622	 1.28269227147779E-03 
1623	-3.41711584658063E-03 
1624	-0.010382494696031 
1625	-1.04436156039713E-02 
1626	-5.31076768369454E-03 
1627	-1.76980424237161E-03 
1628	 1.03396397187516E-03 
1629	 3.92087339447367E-03 
1630	 6.00539414658271E-03 
1631	 5.32152339943907E-03 
1632	 5.33442796384561E-03 
1633	 4.99979358113998E-03 
1634	 3.30210418440182E-03 
1635	 3.5458694214134E-03 
1636	 1.33067890712138E-03 
1637	 1.09509983475606E-03 
1638	 4.27174957674509E-03 
1639	 1.36878485813812E-03 
1640	-3.76601383460979E-03 
1641	-5.20945351600795E-03 
1642	-4.96000575765895E-03 
1643	-4.39379470708667E-03 
1644	-2.82759141355415E-03 
1645	-3.14159736381638E-03 
1646	-4.67494804407436E-03 
1647	-3.62464398974989E-03 
1648	-3.70798716532336E-03 
1649	-4.39784695810846E-03 
1650	-3.02177074960138E-03 
1651	-1.50868153688278E-03 
1652	 9.67489630931319E-04 
1653	 8.36824072195964E-03 
1654	 1.17767856958897E-02 
1655	 1.43237156345232E-02 
1656	 1.41384647308693E-02 
1657	 1.04719194343228E-02 
1658	 7.86852700420445E-03 
1659	 2.07675051030879E-03 
1660	-1.11312570684011E-03 
1661	-1.85090266508825E-03 
1662	-3.50423355154194E-03 
1663	-5.02457566446972E-03 
1664	-5.27001878453309E-03 
1665	-7.14803791783188E-03 
1666	-6.50971045631506E-03 
1667	-2.88450208373484E-03 
1668	-3.07974930137377E-03 
1669	 2.21864424409826E-03 
1670	 2.3521231757123E-03 
1671	 2.28739389880605E-03 
1672	 4.99787059340053E-03 
1673	 7.25491959133995E-03 
1674	 1.15473919847387E-02 
1675	 8.12810498991609E-03 
1676	 2.55802287764358E-03 
1677	 4.96997771475824E-03 
1678	 6.56475227076138E-03 
1679	 1.00386986382059E-02 
1680	 0.012629012422015 
1681	 4.51529249146206E-03 
1682	-7.83245404092338E-06 
1683	 5.14055677037735E-03 
1684	 1.31558800930982E-02 
1685	 1.31124697431619E-02 
1686	 6.47720564386399E-03 
1687	 4.68821212782479E-03 
1688	 2.65677594704798E-03 
1689	 2.58183189303734E-03 
1690	 7.01895227080661E-03 
1691	 7.42621047537786E-03 
1692	 1.79522863891892E-03 
1693	-4.05429243006214E-03 
1694	-6.49433243778187E-03 
1695	-6.41268834513575E-03 
1696	-3.79450137928109E-03 
1697	-1.80347718686772E-03 
1698	-4.41903022759357E-03 
1699	-1.26276102379225E-02 
1700	-1.73906672104572E-02 
1701	-0.010386392425975 
1702	-3.68978842662429E-04 
1703	 4.56580616959457E-03 
1704	 4.88284259845279E-03 
1705	 6.67309967871397E-03 
1706	 9.39150129058506E-03 
1707	 1.14136098776249E-02 
1708	 1.95354155253164E-02 
1709	 1.71247656518536E-02 
1710	 2.75180277996945E-03 
1711	 9.51992263475669E-04 
1712	 6.81136825113426E-04 
1713	-1.20911322449075E-02 
1714	-1.17134185440924E-02 
1715	-6.71510669390257E-03 
1716	-1.66252398727927E-02 
1717	-4.42306547182786E-03 
1718	 2.36919339975013E-03 
1719	-2.16372405210811E-03 
1720	-6.02971566594595E-03 
1721	-8.01649592411081E-03 
1722	-6.55403292340585E-03 
1723	-0.010174950859806 
1724	-9.19516598841657E-03 
1725	-9.76522211318985E-03 
1726	-1.12048474446223E-02 
1727	 2.72877142711187E-03 
1728	 5.25148614683665E-03 
1729	-1.61723347067787E-03 
1730	 8.56032382311974E-05 
1731	 2.2995246638059E-03 
1732	 6.83493392550043E-03 
1733	 1.64651903966323E-02 
1734	 2.04836482010643E-02 
1735	 1.57674459404579E-02 
1736	 1.41365299672784E-02 
1737	 2.28708406426212E-02 
1738	 2.24478519679136E-02 
1739	 4.90986385892403E-03 
1740	-2.81698541175749E-03 
1741	-4.4759327069624E-03 
1742	-4.65766259539653E-03 
1743	-6.45686409784357E-06 
1744	-2.09273070163497E-03 
1745	-6.62915823053716E-03 
1746	-1.59818469689098E-02 
1747	-1.82865180623041E-02 
1748	-7.71753272426595E-04 
1749	 2.95202395739098E-03 
1750	-9.75471126529407E-03 
1751	-1.19968380710458E-02 
1752	-1.64672306488621E-02 
1753	-1.97396535943268E-02 
1754	-4.76710328824015E-03 
1755	 2.98599165062498E-04 
1756	-6.10806877490755E-03 
1757	-1.54476795317508E-02 
1758	-3.18256488993065E-02 
1759	-4.90580274292591E-02 
1760	-2.87247809419888E-02 
1761	-1.03136391040987E-02 
1762	-2.14638164142361E-02 
1763	-1.74519914065558E-02 
1764	-1.25353978656065E-02 
1765	-1.72998881838281E-02 
1766	 9.05979924334369E-03 
1767	 4.19627508668309E-02 
1768	 0.034083681546782 
1769	 2.84458521865618E-02 
1770	 3.64531439659408E-02 
1771	 1.80455642719415E-02 
1772	-4.84901781455978E-04 
1773	-3.23808871654735E-03 
1774	-6.23255345027977E-03 
1775	-5.55214095222807E-02 
1776	-6.67814440237824E-02 
1777	-7.73595716765728E-02 
1778	-7.32332810626749E-02 
1779	 1.74893715160276E-02 
1780	 4.03099226678579E-02 
1781	 1.94621244025652E-02 
1782	 1.51618908773714E-02 
1783	-6.16211932880125E-02 
1784	-5.59159436669086E-02 
1785	 9.77311851024862E-03 
1786	 3.64955014829676E-02 
1787	 0.116414755322197 
1788	 0.151022715329047 
1789	 0.191403797563506 
1790	 1.76992606193754E-02 
1791	-5.97710584213679E-02 
1792	-0.123031168230996 
1793	-0.253629320239878 
1794	-0.114387778434219 
1795	-7.07563202456268E-02 
1796	-0.263497343133098 
1797	 1.20265181265936 
1798	 1.10380143913884 
1799	 0.419993735919801 
1800	 0.169917654484603 
1801	-4.12462625350278E-02 
1802	-0.413730668425768 
1803	-0.520812504652253 
1804	 2.74671921193816E-02 
1805	 2.39634733180638E-02 
1806	-0.291562473005873 
1807	-0.67846377795507 
1808	-5.84562094513962 
1809	 88.7889249545628 
1810	-0.348488415460298 
1811	-1.70924455034956 
1812	 0.808280826474463 
1813	-0.121846037782823 
1814	-1.15683519068445 
1815	-1.34778190224177 
1816	-1.33866715807158 
1817	-24.3242243046205 
1818	 0.668828068806352 
1819	-1.69721584636477 
1820	 18.5319564088558 
1821	 0.267829892829652 
1822	 0.12554958452156 
1823	-0.347587452690521 
1824	-0.862948924355773 
1825	 0.379707247075255 
1826	 0.315225830410319 
1827	-12.871809847526 
1828	-2.16319783697815 
1829	 0.211337966779702 
1830	 0.131925652697586 
1831	-1.21827658999334 
1832	-1.19688975338298 
1833	-0.358080957414774 
1834	 4.56247297643888E-02 
1835	-0.20422937049759 
1836	-0.022328829497114 
1837	 1.90424940959527 
1838	 2.36376486030314 
1839	 0.989886762690934 
1840	 0.865986941032337 
1841	 1.07769596147325 
1842	 0.781726881199137 
1843	 0.750367715688629 
1844	 2.0316735361582 
1845	 2.65973167236034 
1846	 0.150023867788588 
1847	-0.193070570316831 
1848	-0.040589077218015 
1849	 9.06887009082436E-02 
1850	 0.288813669851821 
1851	 0.966128213508669 
1852	 4.22517787465735 
1853	-6.31230830237275 
1854	-2.25416986941667 
1855	-6.05961802193896 
1856	-7.6301897251124 
1857	-4.70377758491279 
1858	-3.74733677230455 
1859	-2.69326015107975 
1860	-2.69398244816742 
1861	 3.7607667261335 
1862	 0.424265835319471 
1863	 1.00906596315687 
1864	 1.3809206665921 
1865	 1.24677689083347 
1866	 1.61695321668304 
1867	 1.55813096230115 
1868	 0.651461193144792 
1869	 0.445219678887324 
1870	 0.182201404614971 
1871	 0.750059963460208 
1872	 3.76085477524161 
1873	-4.8457399564163 
1874	-9.25739971654492 
1875	-4.323637302439 
1876	-3.21657136395078 
1877	-1.51521994068388 
1878	-1.33105092305036 
1879	-1.53687066193998 
1880	-1.77561421055882 
1881	-2.69052189036954 
1882	 22.3631627619262 
1883	 2.34883599823351 
1884	 1.04588697059883 
1885	 2.36181010464274 
1886	-5.1156422783233 
1887	-2.63397876856812 
1888	 12.7762328694655 
1889	 28.3254953116327 
1890	-3.63214099119968 
1891	-3.74214286591753 
1892	 67.5445466797553 
1893	-1.32880247868327 
1894	-1.59731608817166 
1895	-1.22009666735412 
1896	-0.275560462798627 
1897	-1.11782631219169 
1898	 0.633223206020265 
1899	 0.355860997178807 
1900	 0.12239941437337 
1901	-1.47038230312806E-02 
1902	-0.155428634169397 
1903	-0.427735135673181 
1904	-0.745096987790652 
1905	-0.68243950522689 
1906	-0.296995085615322 
1907	 0.325322566366282 
1908	-0.341397419304113 
1909	-3.28510400443192E-02 
1910	 0.317796592088718 
1911	 0.600118247601148 
1912	-3.67385214420308 
1913	-1.50208436567039 
1914	 1.7198060757915 
1915	 2.31667792066484 
1916	 2.71889019068017 
1917	 7.16829579179362 
1918	 12.7503326731511 
1919	 4.6998889360713 
1920	 6.71568922568533 
1921	 9.83617858590753 
1922	 2.89415155035384 
1923	 1.94834615511054 
1924	 2.40699925436923 
1925	 3.16352224249085 
1926	 3.79380205898244 
1927	 11.4047455198362 
1928	 8372.08310297499 
1929	 9.268235142245 
1930	 4.97732911639831 
1931	-5.66272424757532 
1932	-0.504655172827009 
1933	-0.289757862899515 
1934	-0.624394616798814 
1935	-0.874684648738437 
1936	-1.58127606874169 
1937	-2.18351906492224 
1938	-3.0491926990427 
1939	-36.6972351188914 
1940	 1.6547794495761 
1941	 0.516395202515479 
1942	 0.285460856694906 
1943	 0.207991702196921 
1944	 0.174149771169998 
1945	 9.33093105311791E-02 
1946	 0.149218060015505 
1947	 0.254708887222386 
1948	 0.228571487535309 
1949	 0.234679871782937 
1950	 1.11984173534858 
1951	-13.8546167513383 
1952	-3.24048914177603 
1953	-1.73229416428839 
1954	-1.74166306041516 
1955	-3.11274758152767 
1956	 20.0816442498991 
1957	 3.20114008210869 
1958	 1.75560866231239 
1959	 0.675740219017029 
1960	 0.739066597063888 
1961	 1.74730720079855 
1962	 1.34256344507465 
1963	 2.62057844786987 
1964	 0.568064471445389 
1965	-0.106809268031805 
1966	-0.116803347833746 
1967	-1.78702812250197E-02 
1968	-8.05047249616995E-02 
1969	-0.027023922066124 
1970	 0.117395608239883 
1971	-0.157854239288268 
1972	-0.393696523203394 
1973	-0.494172697994183 
1974	-0.489252263002843 
1975	-0.39602454970526 
1976	-0.389344449872955 
1977	-0.1970674142656 
1978	-5.10026088254164E-02 
1979	-1.44811027144839E-02 
1980	-8.24447312926111E-02 
1981	-0.014217937464183 
1982	 5.82728630967177E-02 
1983	 6.29473390951746E-02 
1984	 0.12575063647165 
1985	 0.187256974917818 
1986	 9.79078914279223E-02 
1987	 7.36488936281978E-03 
1988	-1.18354550992902E-02 
1989	-4.67085536429432E-02 
1990	 3.50590846823463E-02 
1991	 0.146276141924111 
1992	 0.168958705668036 
1993	 0.25188916475918 
1994	 0.301622622213334 
1995	 0.345731138061789 
1996	 0.35468612018946 
1997	 0.159507488729113 
1998	 6.15663392432334E-02 
1999	 0.111420551976077 
2000	 7.56822340399675E-02 
2001	 0.128244902519586 
2002	 0.185884529855735 
2003	 0.110845034375382 
2004	-8.69364884372004E-02 
2005	-9.16294490063966E-02 
2006	-5.95074798050449E-02 
2007	-4.65640182523675E-02 
2008	 0.190957871192029 
2009	 0.291034114573309 
2010	 0.377308462835679 
2011	 0.414101186099127 
2012	 0.495938838315571 
2013	 0.230232494108186 
2014	-8.55202194597305E-02 
2015	-1.10410744869638E-02 
2016	-0.164745630937952 
2017	-8.33194783997947E-02 
2018	 0.242474494218439 
2019	 0.27658053308134 
2020	 0.233255940497136 
2021	 0.177193214582858 
2022	 0.163670939002969 
2023	 0.17937114340902 
2024	 0.178104005055807 
2025	 0.289499259921771 
2026	 0.302523196562631 
2027	 0.228353776814073 
2028	 0.200572932367973 
2029	 0.138835351930441 
2030	 2.90161719604626E-02 
2031	-3.04576118036437E-03 
2032	-8.51653614732112E-02 
2033	-6.86428490431153E-02 
2034	 6.95466379622387E-03 
2035	-6.21499890251274E-03 
2036	 2.39481185399657E-02 
2037	 1.51235050048745E-02 
2038	-0.031283376555719 
2039	-2.73800117847874E-02 
2040	 3.55682993526617E-02 
2041	 4.53768593719126E-02 
2042	 2.19080409869178E-02 
2043	 3.46419494068474E-02 
2044	 0.058673147845126 
2045	 7.42816962735408E-02 
2046	 0.109003296728959 
2047	 0.165384007899805 
2048	 0.177051982478375 
2049	 0.140330256822579 
2050	 0.111029392977491 
2051	 0.103396829060381 
2052	 7.66562463333637E-02 
2053	 7.37440731517567E-02 
2054	 9.97980141078968E-02 
2055	 0.103935582431116 
2056	 9.10051960039189E-02 
2057	 6.68111021191936E-02 
2058	 7.31483770887221E-02 
2059	 0.082993471912843 
2060	 7.88466346394567E-02 
2061	 9.85527655006886E-02 
2062	 0.129404185401358 
2063	 4.90899160377056E-02 
2064	-0.064979615857347 
2065	-0.112504079090258 
2066	-5.98065693203036E-02 
2067	 2.20733834139331E-02 
2068	 5.89322399415093E-02 
2069	 9.07996076232988E-02 
2070	 5.56449118988359E-02 
2071	 2.78656213353871E-02 
2072	 5.40178460542916E-02 
2073	 4.95306474851444E-02 
2074	 4.05214675165759E-02 
2075	 3.75731772041464E-02 
2076	 2.37000354482096E-02 
2077	 2.28087100403161E-02 
2078	 3.71347785979237E-02 
2079	 3.64807684346924E-02 
2080	 3.56778704997713E-02 
2081	 2.09106173015182E-02 
2082	 1.90470581147645E-02 
2083	 3.98578948067386E-02 
2084	 5.68057814058248E-02 
2085	 7.46833384584202E-02 
2086	 8.35801150848401E-02 
2087	 0.10930913344828 
2088	 0.135616511490276 
2089	 0.156747873099045 
2090	 0.146206826856358 
2091	 0.106252557770473 
2092	 9.44524796681208E-02 
2093	 6.25553168057143E-02 
2094	 0.065580265219218 
2095	 0.132130453509055 
2096	 0.143505435144183 
2097	 0.137396323097389 
2098	 0.134275161657141 
2099	 0.112528379131905 
2100	 7.64340219491398E-02 
2101	 5.14387911023512E-02 
2102	 3.14491352338914E-02 
2103	 5.74969573207634E-02 
2104	 4.68210554872944E-02 
2105	 2.24218375976889E-02 
2106	 5.97361543938843E-02 
2107	 4.38482744869547E-02 
2108	 2.10694532647559E-02 
2109	 1.53930153929859E-02 
2110	-2.32214704694063E-02 
2111	-4.58788713958201E-02 
2112	-6.12650644401201E-02 
2113	-6.46146001992119E-02 
2114	-4.50491502517176E-02 
2115	-0.033593705802648 
2116	 2.13864899503233E-03 
2117	 6.3503165923729E-03 
2118	-1.01259729261123E-02 
2119	-1.13896194704649E-02 
2120	-7.03089401858009E-03 
2121	-5.91799680246688E-02 
2122	-8.85506728846774E-02 
2123	-7.24143908828934E-02 
2124	-0.072486695617654 
2125	-5.16636274302947E-02 
2126	-2.97958222189658E-04 
2127	 9.17475918743493E-03 
2128	 1.28933832509139E-03 
2129	 1.22997240610378E-02 
2130	 1.68674933186684E-02 
2131	 4.34797406411469E-02 
2132	 8.69727350302618E-02 
2133	 9.08702703287726E-02 
2134	 8.84300384243967E-02 
2135	 0.054334876027217 
2136	 5.20419864344925E-02 
2137	 6.57586997309153E-02 
2138	 5.94639398631605E-02 
2139	 5.50805329315094E-02 
2140	 5.87508303555363E-02 
2141	 0.032391309020958 
2142	 3.14329808156161E-02 
2143	 5.72452116388255E-02 
2144	 9.50026626480342E-02 
2145	 0.103833076634694 
2146	 6.94141833193345E-02 
2147	 4.68091741859624E-02 
2148	 2.97636637549946E-02 
2149	-3.83484220974145E-03 
2150	 3.20564757392845E-02 
2151	 7.05780810942732E-02 
2152	 4.73677061131908E-02 
2153	 5.50711197933658E-02 
2154	 7.01967203833843E-02 
2155	 7.42158724023672E-02 
2156	 6.98274101314123E-02 
2157	 5.29235988198187E-02 
2158	 6.54451986299353E-03 
2159	-9.18411263236425E-03 
2160	-1.75554457469966E-02 
2161	-1.07000789829942E-02 
2162	 0.017500272708877 
2163	 3.52645139848327E-02 
2164	 6.47247944537446E-02 
2165	 7.51310602368367E-02 
2166	 8.09541147296563E-02 
2167	 8.71334071934616E-02 
2168	 6.24492373773166E-02 
2169	 5.57434622587826E-02 
2170	 6.63207369515613E-02 
2171	 5.94971873003067E-02 
2172	 7.22725536144199E-02 
2173	 9.17408793123591E-02 
2174	 2.65591365504325E-02 
2175	 2.66959430313517E-02 
2176	 1.32530956798731E-02 
2177	-0.06875671248798 
2178	-4.93150834920669E-02 
2179	-3.77253306791267E-02 
2180	-4.86515692328207E-03 
2181	 4.30777836874562E-02 
2182	 5.75030705139037E-02 
2183	 9.76240229201084E-02 
2184	 6.34012505844127E-02 
2185	 3.90549006542517E-02 
2186	 4.03948144058986E-02 
2187	 0.034641097001129 
2188	 5.41391430395636E-02 
2189	 0.12959444295539 
2190	 0.136780678264908 
2191	 0.134449639222986 
2192	 0.121960221440853 
2193	 3.82871772812368E-02 
2194	 2.73864101050727E-02 
2195	 3.73397817806637E-02 
2196	 6.24203462837402E-02 
2197	 0.207750092496042 
2198	 0.224479224812045 
2199	 0.166206209528266 
2200	 0.127503633900643 
2201	 6.03586458910402E-02 
2202	-3.55266979761937E-02 
2203	 3.31578806021666E-03 
2204	 0.079357275774074 
2205	 0.078057536161215 
2206	 4.26174198424049E-02 
2207	 2.47012298568668E-02 
2208	-1.03567256930826E-02 
2209	-4.77156877606875E-02 
2210	-4.82667793524139E-02 
2211	-4.24659720128921E-02 
2212	-7.56703413048357E-03 
2213	 5.70626974128645E-02 
2214	 8.97729948637874E-02 
2215	 0.130670147027144 
2216	 0.157051519696489 
2217	 0.170049415601475 
2218	 0.192128914587044 
2219	 0.214553439183304 
2220	 0.218957068190778 
2221	 0.196335198835227 
2222	 0.148780253288408 
2223	 0.138766134259035 
2224	 0.12108072852643 
2225	 0.114836624371686 
2226	 0.172456131764082 
2227	 0.178990299775677 
2228	 0.132359086240209 
2229	 0.124388627825859 
2230	 0.137550659831524 
2231	 0.120802015590067 
2232	 7.25002399284989E-02 
2233	 7.39962577893072E-02 
2234	 8.62941925744711E-02 
2235	 0.109630982842101 
2236	 0.154670702914539 
2237	 0.187832153092904 
2238	 0.164644771627361 
2239	 0.116367650558004 
2240	 7.48603487562491E-02 
2241	 0.046100747742912 
2242	 4.06891022079427E-02 
2243	-2.96524838956545E-03 
2244	 1.55609947063665E-02 
2245	 8.59473142524901E-02 
2246	 0.102225906998012 
2247	 8.53109378630513E-02 
2248	 0.0629251625077 
2249	 3.69265068836319E-02 
2250	-1.80993844519725E-02 
2251	-5.12938610101224E-02 
2252	-2.38288882395267E-02 
2253	-6.83051436218015E-02 
2254	-5.09431427538554E-02 
2255	 1.80292437756463E-02 
2256	 8.71865707342436E-03 
2257	 1.32738436913224E-02 
2258	-7.01937665993459E-02 
2259	-0.175934326851871 
2260	-0.160911724865265 
2261	-7.09032289985652E-02 
2262	-0.033943605077982 
2263	 7.17441785330349E-02 
2264	 0.146291468106732 
2265	 0.206957978084746 
2266	 0.206456147890891 
2267	 0.180173975032828 
2268	 0.161331598197669 
2269	 3.31293748234241E-02 
2270	-5.24497679340929E-03 
2271	 7.93865075791563E-02 
2272	 7.09868513407551E-02 
2273	 2.99939864250163E-02 
2274	-3.06801864918101E-02 
2275	-0.111136634651102 
2276	-0.101494581938037 
2277	-8.58879933534109E-02 
2278	-8.81923507577574E-02 
2279	-6.77690089731452E-02 
2280	-4.29178852558728E-02 
2281	-5.41856730692504E-02 
2282	 3.91854942884787E-02 
2283	 7.88774486187221E-02 
2284	 0.096689428287247 
2285	 0.103830793781313 
2286	 0.103578670707038 
2287	 0.101889714678823 
2288	 2.64896162080683E-02 
2289	 4.07054775315492E-04 
2290	 5.15926912250304E-02 
2291	 9.96290960269716E-02 
2292	 0.240415093998077 
2293	 0.351227803552864 
2294	 0.315179163085251 
2295	 0.20973925462247 
2296	 8.56210870267352E-02 
2297	-1.38073063750739E-02 
2298	-0.136522780680332 
2299	-0.125426080285613 
2300	 7.49192148289811E-02 
2301	 8.74756739985626E-02 
2302	 4.64212118242275E-02 
2303	 5.37576038963922E-02 
2304	 3.53102129253243E-02 
2305	 0.215256352765911 
2306	 0.367944474794051 
2307	 0.368498806661299 
2308	 0.277276776455087 
2309	 0.186335326692445 
2310	 4.69633565350685E-02 
2311	 9.78229217235256E-03 
2312	 0.305924794588308 
2313	 0.240626092042407 
2314	 0.192427852317847 
2315	 0.450840350525574 
2316	 0.49787628121049 
2317	 0.558505090136368 
2318	 0.569380817659368 
2319	 0.395942228315004 
2320	 7.90953637705267E-02 
2321	-0.242630622111755 
2322	-0.155699416111792 
2323	-0.217362360771573 
2324	-0.354957659685055 
2325	-0.205703840951014 
2326	-0.257755756231708 
2327	-0.300721176114253 
2328	-0.130255789460059 
2329	 3.70668928326647E-02 
2330	 0.108494717387751 
2331	 0.152600713618063 
2332	 0.123217918288005 
2333	 0.173236214932047 
2334	 0.313817206528319 
2335	 0.361765429449633 
2336	 0.533618631084815 
2337	 0.588038382348483 
2338	 0.344344897283952 
2339	 0.470630912801598 
2340	 1.77969311858432 
2341	 0.502208301537698 
2342	 0.747200993246829 
2343	 0.543930614540556 
2344	 0.033909083050038 
2345	-0.221336437537106 
2346	-0.435508555146805 
2347	-0.453017260042103 
2348	-7.54924441049576E-02 
2349	 0.411594778341063 
2350	 0.920109894392652 
2351	 0.117944839303702 
2352	-1.22332500093093 
2353	-1.13983857737866 
2354	 0.531119603847205 
2355	-2.09684168950603 
2356	 4.39494150518355 
2357	 1.3800440563236 
2358	 0.931982219500733 
2359	 0.932972467126857 
2360	 0.977453119445065 
2361	 1.01329337614681 
2362	 0.945017618961144 
2363	 0.730832841432855 
2364	 0.225373644817256 
2365	 0.30008105926085 
2366	 4.28738926398987E-02 
2367	-0.133335640310917 
2368	 7.08797454109619E-03 
2369	-1.50503770868494 
2370	-1.10461717382791 
2371	-0.672904175580871 
2372	-0.45190409391259 
2373	 0.382390271049722 
2374	 1.98156862017676 
2375	-1.40606389580649 
2376	-0.416316871498327 
2377	-3.76851088180413E-02 
2378	 0.412983104292258 
2379	 1.55067151874715 
2380	-5.24015829301167 
2381	-6.09605082780028 
2382	 0.105328237022747 
2383	-13.8364136849179 
2384	 1.34466882585125 
2385	 0.702029749095114 
2386	 0.197876710553232 
2387	-0.119447100722949 
2388	-0.28177511013719 
2389	 7.34849268844003E-02 
2390	 0.12100130624313 
2391	 2.02326959157544 
2392	-3.13900197867917 
2393	-1.1147981531726 
2394	-0.825946671774071 
2395	 0.127544628532304 
2396	 1.81575272274849 
2397	 10.5283511435697 
2398	 9.51247137680582 
2399	-33.4865740471924 
2400	-3.68743994108011 
2401	-2.17618847444247 
2402	-0.644651273973011 
2403	-1.1904197848337 
2404	-5.25400457846946 
2405	 6.10276151322589 
2406	-2.78971329704587 
2407	-0.508947543481408 
2408	-0.560094358868471 
2409	-0.553738128428274 
2410	-0.56333762155933 
2411	-1.17815985496063 
2412	-1.61076334021222 
2413	-2.23014908492289 
2414	-5.98011830901626 
2415	-1.70753943067452 
2416	-0.731459988419925 
2417	-1.00913953672873 
2418	-0.854474422170567 
2419	-0.652672089089862 
2420	-0.455306992513869 
2421	 0.515253517338545 
2422	 1.37563433734343 
2423	 1.78804099864001 
2424	 0.442311714546384 
2425	-6.07528659480692 
2426	 3.85545860677773 
2427	-0.19268822897863 
2428	 6.98294564071932E-02 
2429	 0.870762103201898 
2430	-3.09574426667685E-03 
2431	-0.557318068016313 
2432	-0.336741745652171 
2433	-1.47034931129105 
2434	 9.85396677379714 
2435	 1.62932924108312 
2436	 0.724913550685241 
2437	 0.908441526681318 
2438	 6.06033548054744 
2439	 3.02468903730754 
2440	 2.21061854970479 
2441	 2.23606975800729 
2442	 2.87745103438744 
2443	-34.2051332298999 
2444	-4.34496386381836 
2445	-2.39388228033749 
2446	-0.683343048649915 
2447	 0.147077169546146 
2448	 0.388116440727441 
2449	 16.2380483078804 
2450	-6.90430260629204 
2451	-0.562493030069759 
2452	-0.741767448717447 
2453	 0.215257230237326 
2454	 0.142178474276776 
2455	-0.104006270786451 
2456	-0.417687507597088 
2457	 4.48894741281989 
2458	 1.69845770627002 
2459	 1.2981848720968 
2460	 0.871118220951433 
2461	 1.78484823938213 
2462	 3.87863666756724 
2463	-0.411252164971005 
2464	 1.65973837069775 
2465	 2.03196370069963 
2466	 2.28060792469394 
2467	 7.02399033215824 
2468	-14.1018549494662 
2469	-2.28405263566101 
2470	-0.835227857596625 
2471	-0.436070080689616 
2472	-0.660837425123387 
2473	-8.42397734663608E-02 
2474	 0.358317612809741 
2475	-0.154201472498359 
2476	 8.54576228480186E-02 
2477	 0.185801153624138 
2478	 0.536381378434649 
2479	 35.2685377153216 
2480	-1.83477079421805 
2481	-0.785985340392938 
2482	-0.685067710692173 
2483	 1.60943429849787 
2484	 1.46157451135903 
2485	 1.90463289841111 
2486	-15.8646880063852 
2487	-1.31967070076837 
2488	-0.527272892773436 
2489	-0.558475918447417 
2490	 0.53856865772952 
2491	 5.15603586419865E-02 
2492	 2.65226811432231E-02 
2493	-0.286359843286334 
2494	-5.00781002220944E-02 
2495	 0.119155803782272 
2496	 0.14033534779549 
2497	-0.13155034210115 
2498	-1.13445131587719 
2499	 4.41989414029791 
2500	 2.36420583624727 
