Wavelength	rt0802close00000.asd
350	 1.82057973993881E-02 
351	 1.85979318616654E-02 
352	 1.83400882447774E-02 
353	 1.80620406999291E-02 
354	 1.85255703353311E-02 
355	 2.02633005262611E-02 
356	 0.019620829775051 
357	 1.91587103807544E-02 
358	 2.15552023009637E-02 
359	 2.09486412484744E-02 
360	 2.02729426270271E-02 
361	 2.07467011440523E-02 
362	 2.19216195834473E-02 
363	 2.15702540467678E-02 
364	 2.10268447227093E-02 
365	 0.021196187198182 
366	 2.15922358315548E-02 
367	 2.29071668102242E-02 
368	 2.32763000751964E-02 
369	 2.15685391299612E-02 
370	 2.14930484901111E-02 
371	 2.18813674698753E-02 
372	 2.19823071178144E-02 
373	 2.15529055161789E-02 
374	 2.21617472888807E-02 
375	 2.42323583472615E-02 
376	 2.57785480122392E-02 
377	 2.20004712730932E-02 
378	 2.31620050603337E-02 
379	 2.49331736693326E-02 
380	 2.29417590010457E-02 
381	 2.45535955088075E-02 
382	 2.49938582217892E-02 
383	 2.47610951459998E-02 
384	 2.61797577798842E-02 
385	 2.49071572934025E-02 
386	 2.47761142118921E-02 
387	 2.60814699921754E-02 
388	 2.46950018671736E-02 
389	 2.77823029333609E-02 
390	 2.93147229003053E-02 
391	 0.026008462225702 
392	 2.76207019990307E-02 
393	 2.72442008572185E-02 
394	 2.65023131719692E-02 
395	 0.028810362319152 
396	 2.95236486853465E-02 
397	 2.88793025269796E-02 
398	 2.80083587901194E-02 
399	 2.83834680211131E-02 
400	 0.029184775634383 
401	 2.96694194881386E-02 
402	 2.96402851291008E-02 
403	 3.00256386124489E-02 
404	 3.00541932136337E-02 
405	 0.030097725299818 
406	 3.06899370747616E-02 
407	 3.07342186124634E-02 
408	 3.06516275131854E-02 
409	 3.08497490396238E-02 
410	 3.15648244718512E-02 
411	 3.17999980176489E-02 
412	 3.19906570865112E-02 
413	 3.23840259114659E-02 
414	 3.20044492280137E-02 
415	 3.22291975127878E-02 
416	 3.29876739795128E-02 
417	 3.35059143830212E-02 
418	 3.27383726952868E-02 
419	 3.27078941607852E-02 
420	 3.37499134349998E-02 
421	 0.034176318616042 
422	 3.41415490609005E-02 
423	 3.42023307473803E-02 
424	 3.47632899881515E-02 
425	 3.55654490335898E-02 
426	 3.59496393446515E-02 
427	 3.62073174425249E-02 
428	 3.69528312319313E-02 
429	 3.73664639493617E-02 
430	 3.75052332034388E-02 
431	 3.76279234497348E-02 
432	 3.81130063279148E-02 
433	 3.89718933265196E-02 
434	 3.94027436130124E-02 
435	 3.90661176549978E-02 
436	 3.94629895502133E-02 
437	 3.99385558226886E-02 
438	 4.03943196066506E-02 
439	 0.040982751351656 
440	 4.12275297142979E-02 
441	 4.16717448454781E-02 
442	 4.24035102091499E-02 
443	 4.26820409778436E-02 
444	 4.29974798294253E-02 
445	 4.35073854003337E-02 
446	 4.41623476558932E-02 
447	 4.44915601353276E-02 
448	 4.47520016232736E-02 
449	 4.51280550778791E-02 
450	 4.56868654877291E-02 
451	 4.59076073102177E-02 
452	 4.60174558220391E-02 
453	 4.62534334415626E-02 
454	 4.66413090391123E-02 
455	 4.70433761040229E-02 
456	 4.73402327950739E-02 
457	 0.047459358927048 
458	 4.74692029236887E-02 
459	 4.77304468597219E-02 
460	 4.82330327207586E-02 
461	 4.85817441624208E-02 
462	 4.86527261869347E-02 
463	 0.048778406869262 
464	 4.91904365035144E-02 
465	 4.96286365864734E-02 
466	 4.95399500589904E-02 
467	 4.92823403171174E-02 
468	 4.95919811986774E-02 
469	 5.01289404405075E-02 
470	 5.03312826883074E-02 
471	 5.02285993286425E-02 
472	 5.06549239211193E-02 
473	 5.10964722934704E-02 
474	 5.13254428074905E-02 
475	 5.13414366417805E-02 
476	 5.16503104046263E-02 
477	 5.21084071083736E-02 
478	 5.25973153926259E-02 
479	 5.29903532759574E-02 
480	 5.27315919269905E-02 
481	 0.053073117284727 
482	 5.42331835140699E-02 
483	 5.37697955607378E-02 
484	 5.41624361488621E-02 
485	 5.51532709301038E-02 
486	 5.56003412373413E-02 
487	 5.55147525112209E-02 
488	 5.59061989915369E-02 
489	 5.66761240818609E-02 
490	 5.66818851253758E-02 
491	 5.73178287628341E-02 
492	 5.81857284090966E-02 
493	 5.87395606996213E-02 
494	 5.89641993322077E-02 
495	 5.97004341273849E-02 
496	 6.04499776042136E-02 
497	 6.02859795961741E-02 
498	 6.10621257497714E-02 
499	 6.17816845924577E-02 
500	 6.19820703081713E-02 
501	 6.24794398231739E-02 
502	 6.33535375894474E-02 
503	 6.41486106160629E-02 
504	 6.45132323190579E-02 
505	 6.52650103009437E-02 
506	 6.58568111822935E-02 
507	 6.64013066463933E-02 
508	 6.74891133477569E-02 
509	 6.83891718097508E-02 
510	 6.89238332868997E-02 
511	 6.92742612181121E-02 
512	 7.02577518479365E-02 
513	 7.10196042112809E-02 
514	 7.14599215894526E-02 
515	 7.18851282207183E-02 
516	 0.072957644064108 
517	 7.37739803952483E-02 
518	 7.41769422961175E-02 
519	 0.075090660198985 
520	 7.61640816118121E-02 
521	 7.70790388404199E-02 
522	 7.76620392703984E-02 
523	 7.81218643165817E-02 
524	 7.89228126255519E-02 
525	 8.00302937197763E-02 
526	 8.10217885779201E-02 
527	 8.14113427956942E-02 
528	 8.19486970180603E-02 
529	 8.31072733956803E-02 
530	 8.46096311625418E-02 
531	 8.52749071387485E-02 
532	 8.56583731207589E-02 
533	 8.67658491007249E-02 
534	 8.77893873250992E-02 
535	 8.85052985422296E-02 
536	 8.90878041612803E-02 
537	 9.00984460804665E-02 
538	 9.09864887949595E-02 
539	 9.16107986053749E-02 
540	 9.21371018298888E-02 
541	 9.34096615669914E-02 
542	 9.44864622263347E-02 
543	 9.52364740098838E-02 
544	 9.60542617007743E-02 
545	 9.69403146947983E-02 
546	 9.77970123278112E-02 
547	 9.87007054824017E-02 
548	 0.100176826574126 
549	 0.100993336369125 
550	 0.101345772139638 
551	 0.10194850041902 
552	 0.103164666692458 
553	 0.104202888559928 
554	 0.104855023930552 
555	 0.105639323564083 
556	 0.106487238380578 
557	 0.107316794038041 
558	 0.108039187530275 
559	 0.108589486426752 
560	 0.109364270822935 
561	 0.110292936361381 
562	 0.111041302825408 
563	 0.1119133152032 
564	 0.112513856522333 
565	 0.112743432919999 
566	 0.113256640061876 
567	 0.113536247230149 
568	 0.114076064953402 
569	 0.11532306931825 
570	 0.115251654724027 
571	 0.115575829766638 
572	 0.116475582698835 
573	 0.116280673030237 
574	 0.116566615831624 
575	 0.117029494902562 
576	 0.117227947991489 
577	 0.117751621931851 
578	 0.118009457442963 
579	 0.118112874188004 
580	 0.118507805727947 
581	 0.118303131211567 
582	 0.118175737188328 
583	 0.118395263250275 
584	 0.118138353132107 
585	 0.117711807055998 
586	 0.117340061260536 
587	 0.117157370224151 
588	 0.116721218298639 
589	 0.116171698212314 
590	 0.115785493859334 
591	 0.115800726679024 
592	 0.115486446647403 
593	 0.114799723731262 
594	 0.113944749296427 
595	 0.113368565350996 
596	 0.112601676969848 
597	 0.11179978810948 
598	 0.111384114745533 
599	 0.110742679589028 
600	 0.110150931289434 
601	 0.109707089724126 
602	 0.109012628372105 
603	 0.108638944462122 
604	 0.108512433479971 
605	 0.108402882478793 
606	 0.108424455738267 
607	 0.108603466562911 
608	 0.108768066973647 
609	 0.108573173771152 
610	 0.108603299251286 
611	 0.108606139350469 
612	 0.108352570563282 
613	 0.108171585954455 
614	 0.108389155285702 
615	 0.108757270629229 
616	 0.108750213744355 
617	 0.1087875932126 
618	 0.108679685622355 
619	 0.108410618866751 
620	 0.108342568845022 
621	 0.108289844162114 
622	 0.108349514539852 
623	 0.108534750469936 
624	 0.108031694285847 
625	 0.107757077144566 
626	 0.107854901897695 
627	 0.107680175833356 
628	 0.107858178130598 
629	 0.107789866514872 
630	 0.107281668639117 
631	 0.107854159419499 
632	 0.107796024778209 
633	 0.107572097558629 
634	 0.108363967872657 
635	 0.108269697894177 
636	 0.107948741314474 
637	 0.107748513538895 
638	 0.107194179351421 
639	 0.10727484004188 
640	 0.107524309272289 
641	 0.107278599418473 
642	 0.106997076389921 
643	 0.106572066543862 
644	 0.105980531890861 
645	 0.105292381297463 
646	 0.104820554833961 
647	 0.104846714814947 
648	 0.105101838072122 
649	 0.10401438871949 
650	 0.104500529324985 
651	 0.105159333117785 
652	 0.103665463638154 
653	 0.103441890160146 
654	 0.102592384438727 
655	 0.100884775314502 
656	 0.101002242521862 
657	 0.100605300987536 
658	 0.10006770345266 
659	 9.99228307268885E-02 
660	 9.95823450137581E-02 
661	 9.88499739687693E-02 
662	 9.82126328970837E-02 
663	 9.84337589402776E-02 
664	 9.81633496565584E-02 
665	 9.78057603548768E-02 
666	 9.76543590447599E-02 
667	 9.73922028293627E-02 
668	 9.73836435907879E-02 
669	 9.72917565749022E-02 
670	 9.67439572494448E-02 
671	 9.63471785263738E-02 
672	 0.096265001984542 
673	 9.65334318833224E-02 
674	 9.70357144530938E-02 
675	 9.65827673097424E-02 
676	 9.60958113540221E-02 
677	 9.63076607092551E-02 
678	 9.64568900405861E-02 
679	 9.62942657237352E-02 
680	 9.62017894417063E-02 
681	 0.096661661719698 
682	 9.63529759048624E-02 
683	 9.67866450457494E-02 
684	 9.79513173375286E-02 
685	 9.75097956590593E-02 
686	 9.69414203920259E-02 
687	 9.68327352765909E-02 
688	 0.097247707234176 
689	 9.77763366790638E-02 
690	 9.74110081755723E-02 
691	 9.65111555550661E-02 
692	 9.62150990802642E-02 
693	 9.52285588385593E-02 
694	 9.46307004619737E-02 
695	 0.094811278991483 
696	 9.46938845687992E-02 
697	 9.40107113855036E-02 
698	 9.28732675306412E-02 
699	 9.17113789256226E-02 
700	 9.09749699311896E-02 
701	 9.01910022199927E-02 
702	 8.90920517812422E-02 
703	 8.76336862098262E-02 
704	 8.64810483565994E-02 
705	 8.52925220699477E-02 
706	 8.40179055296879E-02 
707	 8.34775469421841E-02 
708	 8.21259772721591E-02 
709	 8.01889437976923E-02 
710	 7.84331932250416E-02 
711	 7.65068927583208E-02 
712	 7.43586691828124E-02 
713	 7.22969609413454E-02 
714	 7.09218632918832E-02 
715	 6.80937749841388E-02 
716	 6.40476784076394E-02 
717	 6.05757448045413E-02 
718	 5.84501727147818E-02 
719	 5.64141837376271E-02 
720	 5.48623065878643E-02 
721	 5.39091278001242E-02 
722	 5.23910119787806E-02 
723	 4.94116722587114E-02 
724	 4.59881337823046E-02 
725	 4.49315351668246E-02 
726	 4.30366735378009E-02 
727	 4.06076459167803E-02 
728	 3.83083463715362E-02 
729	 3.54965778973492E-02 
730	 3.29537320391216E-02 
731	 3.11075702041282E-02 
732	 2.96889657865211E-02 
733	 2.83790001049953E-02 
734	 2.68951448208861E-02 
735	 2.54102951122676E-02 
736	 2.46638925178915E-02 
737	 2.45091330104352E-02 
738	 0.02414319912382 
739	 2.32366287208326E-02 
740	 2.30861434891843E-02 
741	 2.31297235928347E-02 
742	 2.32363038567772E-02 
743	 2.34188183597671E-02 
744	 2.30918482521101E-02 
745	 2.27763480635504E-02 
746	 2.27863012053578E-02 
747	 2.30141827366763E-02 
748	 2.31331021230586E-02 
749	 2.33128569497253E-02 
750	 2.35713934626615E-02 
751	 2.29175193386067E-02 
752	 2.28174952576351E-02 
753	 2.30720031327811E-02 
754	 2.27362795323385E-02 
755	 2.30529744663263E-02 
756	 2.32513529598025E-02 
757	 0.023100327146309 
758	 2.34985258989858E-02 
759	 2.27106285282533E-02 
760	 2.12586353988351E-02 
761	 2.20024623878932E-02 
762	 2.23273803561985E-02 
763	 2.28961428372044E-02 
764	 2.36269764540554E-02 
765	 2.41834578651189E-02 
766	 2.37673553878529E-02 
767	 2.32551414568855E-02 
768	 2.32095904986051E-02 
769	 2.40053726997663E-02 
770	 2.47790100163752E-02 
771	 2.51757294800834E-02 
772	 2.51300629549165E-02 
773	 2.49558951950471E-02 
774	 2.49802302257641E-02 
775	 2.51264474199847E-02 
776	 0.025199133518801 
777	 2.55846910116734E-02 
778	 2.59637382862733E-02 
779	 2.63466867324415E-02 
780	 2.70702531974278E-02 
781	 0.027195724903422 
782	 2.73967188770498E-02 
783	 2.80169417337543E-02 
784	 2.79366162352954E-02 
785	 2.79117716414982E-02 
786	 2.80312978536887E-02 
787	 2.82250416955807E-02 
788	 2.89007994209448E-02 
789	 2.95444927836345E-02 
790	 0.030258894972911 
791	 0.03149170546415 
792	 3.11674759450179E-02 
793	 3.08711791654948E-02 
794	 3.14476172982303E-02 
795	 3.17962894537277E-02 
796	 3.19212644578665E-02 
797	 3.22479791941936E-02 
798	 3.29970264034576E-02 
799	 3.31227340203413E-02 
800	 3.34727955267887E-02 
801	 3.42121143517772E-02 
802	 3.49231826399063E-02 
803	 3.43908286794013E-02 
804	 3.42191929672287E-02 
805	 3.46218486566312E-02 
806	 0.034192007715374 
807	 3.38727414426573E-02 
808	 3.39479698290038E-02 
809	 0.034261532319529 
810	 3.36984763966603E-02 
811	 3.34086860092231E-02 
812	 3.32088278396224E-02 
813	 3.23522801929386E-02 
814	 3.11497632299481E-02 
815	 0.031072876166113 
816	 3.13773750294248E-02 
817	 0.029947654478097 
818	 3.01688113112844E-02 
819	 2.99360668372558E-02 
820	 2.87637797612222E-02 
821	 2.84412753970104E-02 
822	 2.80059216264871E-02 
823	 2.72824806445944E-02 
824	 2.62204325859547E-02 
825	 2.42321394931463E-02 
826	 2.22014716323044E-02 
827	 2.09985167209508E-02 
828	 2.10055322434831E-02 
829	 1.89565423947348E-02 
830	 1.74868675002372E-02 
831	 1.70357424957571E-02 
832	 0.016401410589537 
833	 1.62717620167044E-02 
834	 1.62428168888107E-02 
835	 1.59239671180097E-02 
836	 1.51034023428687E-02 
837	 1.45938372379086E-02 
838	 1.42966468475838E-02 
839	 1.40670291175147E-02 
840	 1.41772018056321E-02 
841	 1.44996155338234E-02 
842	 1.44587123169075E-02 
843	 1.36444310734043E-02 
844	 1.29815813796209E-02 
845	 1.27658020391778E-02 
846	 1.28672281375635E-02 
847	 1.28987881130455E-02 
848	 1.28285354349731E-02 
849	 1.33553605628471E-02 
850	 0.01393253711024 
851	 1.25508453469564E-02 
852	 1.23458284455684E-02 
853	 1.27574093225915E-02 
854	 1.27735503638744E-02 
855	 1.22092778893435E-02 
856	 1.21964930759218E-02 
857	 1.23817458162101E-02 
858	 1.21457471124052E-02 
859	 1.14600940738773E-02 
860	 1.12828941040779E-02 
861	 1.15868484711256E-02 
862	 1.18020665932941E-02 
863	 1.16973722630101E-02 
864	 1.11585332505956E-02 
865	 1.07817906092453E-02 
866	 1.15734724982464E-02 
867	 1.22380112016483E-02 
868	 1.24217998324927E-02 
869	 1.22104316872979E-02 
870	 1.20242738533352E-02 
871	 1.13315399073036E-02 
872	 1.07939942140545E-02 
873	 1.08928628289726E-02 
874	 1.11347081978036E-02 
875	 1.15398768215212E-02 
876	 0.01118054270795 
877	 9.69256618355371E-03 
878	 9.60529477889763E-03 
879	 9.43668984585956E-03 
880	 9.39987140451021E-03 
881	 1.01899549172509E-02 
882	 1.05109463607066E-02 
883	 9.44101598854493E-03 
884	 8.27352028742368E-03 
885	 9.52112012819348E-03 
886	 1.14542348981448E-02 
887	 1.09189330082747E-02 
888	 8.57720197627815E-03 
889	 9.26205886234218E-03 
890	 9.32658947134959E-03 
891	 8.44604463080935E-03 
892	 7.72407587555696E-03 
893	 1.00784912062829E-02 
894	 8.19283381685069E-03 
895	 6.10467652133538E-03 
896	 8.86608591768609E-03 
897	 8.61281334601433E-03 
898	 7.43327446696369E-03 
899	 6.71388794900757E-03 
900	 7.47920086140725E-03 
901	 1.06868584465745E-02 
902	 9.42910849269084E-03 
903	 6.07781282012286E-03 
904	 5.51072376855045E-03 
905	 7.18158864979629E-03 
906	 9.15866272550653E-03 
907	 9.75459912812844E-03 
908	 8.16372441345172E-03 
909	 8.77122385508036E-03 
910	 8.47599321944996E-03 
911	 4.64976248878746E-03 
912	-2.06530939856647E-03 
913	 7.92451180470167E-03 
914	 1.11163504422237E-02 
915	 3.48201268188051E-03 
916	 7.24814567567448E-03 
917	 0.006832933251318 
918	 3.3650300628165E-03 
919	 0.001882278764333 
920	 8.76341670055199E-03 
921	 7.90592420255296E-03 
922	 2.77057459879965E-03 
923	 4.51568286521299E-04 
924	 8.29247858746826E-03 
925	 9.64776819873389E-03 
926	 6.04900608802895E-03 
927	 5.30210220263779E-03 
928	 1.03677194912512E-02 
929	 1.25250284314946E-02 
930	 1.41849391379517E-02 
931	 2.21081070414568E-02 
932	-6.02252351878709E-03 
933	 2.65694911711618E-02 
934	 7.83683174090907E-02 
935	 3.81208850013569E-02 
936	-3.71070047561921E-02 
937	-1.24643505188878E-02 
938	 3.35728934675213E-02 
939	 1.30814187158934E-02 
940	 0.020391621014171 
941	-0.023055314710723 
942	-0.06251001202212 
943	 4.86642228383263E-03 
944	 4.90202609484713E-02 
945	 4.06967057904094E-02 
946	 2.31412505135004E-02 
947	 5.24204957362262E-02 
948	-0.012173233973757 
949	 2.30840354553788E-02 
950	 9.11580908437614E-02 
951	 0.025184848046165 
952	-3.54515621305627E-03 
953	-4.14468374926109E-02 
954	-5.39161204025147E-02 
955	 1.70438689044085E-02 
956	 1.45353608589983E-02 
957	 1.24595302761143E-02 
958	 1.70564321022066E-02 
959	-5.31836224459277E-03 
960	 1.60550245331483E-02 
961	 6.73683966131442E-04 
962	-2.76588787060548E-02 
963	 2.30051229775505E-03 
964	 1.41504258789525E-02 
965	 1.15587365929066E-02 
966	 6.27563095825772E-03 
967	 7.85235201190616E-03 
968	 1.04340738532353E-03 
969	 3.73932915328081E-03 
970	 1.01566981360348E-02 
971	-1.09536828339631E-03 
972	-8.28401390927548E-04 
973	 2.36136544452195E-03 
974	 2.75476208277376E-03 
975	 1.65363748058446E-03 
976	-2.73735537785283E-03 
977	-4.13885800762855E-03 
978	 7.84140604449122E-04 
979	 9.03920012729692E-03 
980	 1.42068605076051E-03 
981	-4.42920861099879E-03 
982	-4.1172370002284E-03 
983	-5.07778973545556E-03 
984	-2.96508620541969E-03 
985	 7.90580257135595E-03 
986	 1.49210326488063E-02 
987	 6.62215737240107E-04 
988	 9.73041313111079E-04 
989	 2.88362484010816E-03 
990	 5.15414701558461E-03 
991	 1.37399915652258E-02 
992	 1.7203749370101E-03 
993	 2.14628512086199E-03 
994	 0.014011204273486 
995	 1.20372202552901E-02 
996	 1.58570392322171E-03 
997	-2.82044203630559E-03 
998	 1.48898040400376E-03 
999	 7.42509758520174E-03 
1000	 1.23783768545852E-02 
1001	 3.92543128381424E-03 
1002	 8.82758937135518E-03 
1003	 9.80562468334018E-03 
1004	 0.01113913290777 
1005	 1.13426907115122E-02 
1006	 8.29047112457412E-03 
1007	 0.005511198267773 
1008	 4.67022222865444E-03 
1009	 3.88772887541226E-03 
1010	 2.27263438087694E-03 
1011	-1.27185168567625E-03 
1012	-8.51521287503104E-05 
1013	-1.06756740118748E-05 
1014	 3.24269167398385E-04 
1015	 1.85310297194859E-03 
1016	 4.29447385158737E-03 
1017	 7.32837863117532E-03 
1018	 8.94273241317449E-03 
1019	 1.30496438474979E-02 
1020	 1.30211183351995E-02 
1021	 9.04298162720543E-03 
1022	 4.25188539654865E-03 
1023	 5.85076142927546E-03 
1024	 7.39375816528405E-03 
1025	 6.79786731937957E-03 
1026	 9.74971354134658E-03 
1027	 1.08126821678897E-02 
1028	 8.36521473351847E-03 
1029	 8.24985824155362E-03 
1030	 1.10661921904409E-02 
1031	 1.16229364991353E-02 
1032	 1.05511035374861E-02 
1033	 0.010000955193291 
1034	 8.86832201286572E-03 
1035	 0.00871426959202 
1036	 8.89206607072904E-03 
1037	 9.18358546833985E-03 
1038	 9.9590639886661E-03 
1039	 1.19254913741289E-02 
1040	 1.26267980164399E-02 
1041	 1.00312038776208E-02 
1042	 9.23001333958219E-03 
1043	 8.1513904613434E-03 
1044	 6.87687072464091E-03 
1045	 5.45495895180828E-03 
1046	 4.60169956990685E-03 
1047	 2.98214297707027E-03 
1048	 2.35340075127042E-03 
1049	 2.95835046046406E-03 
1050	 3.64063792319377E-03 
1051	 5.07723540938763E-03 
1052	 5.48042587332166E-03 
1053	 5.43495851099714E-03 
1054	 5.89731247417829E-03 
1055	 6.88759703937694E-03 
1056	 6.62578134075557E-03 
1057	 5.92603291882818E-03 
1058	 5.20120648323652E-03 
1059	 4.58490259682482E-03 
1060	 1.72953403804322E-03 
1061	 2.20131448825017E-03 
1062	 5.97763628777155E-03 
1063	 6.64850982697629E-03 
1064	 7.49611387698497E-03 
1065	 7.34895864361204E-03 
1066	 4.12578255600469E-03 
1067	 3.44534584272544E-03 
1068	 4.89825171307072E-03 
1069	 4.63317147662686E-03 
1070	 4.66563663002666E-03 
1071	 3.88365836371325E-03 
1072	 2.08239947991843E-03 
1073	-1.81289470648899E-03 
1074	-1.9376689687466E-03 
1075	 2.34391275022697E-04 
1076	 3.99778186068614E-04 
1077	 1.65521478753553E-03 
1078	 1.64461842583082E-03 
1079	-2.26459241231418E-03 
1080	-1.2284282322508E-03 
1081	 5.0683149109114E-03 
1082	 5.99212583797761E-03 
1083	 6.84155287397319E-03 
1084	 6.49351372253856E-03 
1085	-1.61384266098619E-03 
1086	-2.6505430306493E-03 
1087	 4.08860840596945E-03 
1088	 5.37306813064511E-03 
1089	 6.39560961828735E-03 
1090	 7.7758131274943E-03 
1091	 6.69332272205846E-03 
1092	-1.63352160741186E-03 
1093	-1.00478582685285E-03 
1094	 5.93000375354144E-03 
1095	 6.00752444897424E-03 
1096	 6.13797361246112E-03 
1097	 6.12882564670316E-03 
1098	 1.65619952332395E-03 
1099	-7.9075890783864E-04 
1100	-1.64700286881458E-03 
1101	-1.45897795236514E-03 
1102	 8.8153594132195E-04 
1103	-2.8301466620178E-03 
1104	-1.33890954111533E-02 
1105	-1.44833940283464E-02 
1106	-1.15000273848004E-02 
1107	-8.52543139978767E-03 
1108	 6.59737517596513E-04 
1109	 1.08468462853096E-02 
1110	 1.25372746494757E-02 
1111	-1.29779007050697E-02 
1112	-0.012445141341434 
1113	 1.92344542377275E-02 
1114	 1.28891044217167E-02 
1115	-2.76091821420365E-02 
1116	-3.72947028132397E-02 
1117	-7.18123993439965E-02 
1118	-0.104574839290594 
1119	-2.22150934980589E-02 
1120	-1.00533351910482E-03 
1121	-8.03075442156156E-02 
1122	-0.229210912321647 
1123	-0.315495543820674 
1124	-0.379496059460121 
1125	-0.286443196677004 
1126	-0.166450086931422 
1127	-0.31139657913908 
1128	-0.347352715177693 
1129	-0.274627374194639 
1130	-0.169227095709563 
1131	-0.207459598272299 
1132	-0.263766486363462 
1133	-0.235246074902263 
1134	-0.264734604112769 
1135	-0.235729709376181 
1136	-5.66605511730173E-02 
1137	 2.46468407359078E-02 
1138	 9.89250664691567E-02 
1139	-6.60799586262601E-03 
1140	-5.07951496758821E-02 
1141	-3.31326994495738E-02 
1142	-6.03877723158658E-02 
1143	-6.45131578979846E-02 
1144	-6.26355977735419E-02 
1145	-6.97605146678511E-02 
1146	-7.03990653192226E-02 
1147	-6.65282337985287E-02 
1148	-0.058059674291724 
1149	-5.45876697109503E-02 
1150	-5.83765885885543E-02 
1151	-8.06958624921947E-02 
1152	-7.09105018317008E-02 
1153	-5.85644617632838E-02 
1154	-5.31991939891481E-02 
1155	-4.56525718544874E-02 
1156	-3.58525782566312E-02 
1157	-3.46165358944048E-02 
1158	-2.06864041814114E-02 
1159	-0.01455233924803 
1160	-1.66225209248999E-02 
1161	-6.30593104631836E-03 
1162	 1.54382211447428E-03 
1163	 2.94644729206302E-03 
1164	 8.8108149144857E-03 
1165	 3.84630940864811E-03 
1166	-6.9554015115557E-03 
1167	-4.00447004230115E-03 
1168	 5.73483009628999E-04 
1169	 7.71385953328307E-04 
1170	 3.64183109369562E-03 
1171	 5.98229919889452E-03 
1172	 6.59943625688031E-03 
1173	 5.15267976030204E-03 
1174	 4.75114006361056E-03 
1175	 1.72050910526105E-03 
1176	-2.49563252070529E-03 
1177	-2.51085900736323E-03 
1178	-5.16538881456513E-03 
1179	-6.64600478882403E-03 
1180	-4.21828408006279E-03 
1181	-6.54610744896037E-03 
1182	-1.06119418375481E-02 
1183	-7.92143103785616E-03 
1184	-4.27188641597414E-03 
1185	-3.4698047492229E-03 
1186	 5.09634950215149E-04 
1187	 4.12409930481426E-03 
1188	 5.55505583827998E-03 
1189	 3.44994726768609E-03 
1190	-6.97252763177708E-04 
1191	-2.31396207433435E-04 
1192	 1.77830606705628E-04 
1193	-9.55704673483093E-04 
1194	 1.93323879974151E-04 
1195	 8.54589602976694E-03 
1196	 1.14084626538494E-02 
1197	 6.28472328934693E-03 
1198	 1.34919900709439E-03 
1199	-1.27728964849341E-03 
1200	-3.57111427317863E-03 
1201	-4.65341643211901E-03 
1202	 5.54560146045379E-04 
1203	 1.55829265336231E-03 
1204	-3.66827196615137E-03 
1205	-1.23955096040827E-03 
1206	 1.4277638363917E-03 
1207	-9.64017520975953E-05 
1208	 3.97378934610838E-04 
1209	 2.14948092896437E-03 
1210	 4.60061056523396E-03 
1211	 4.57319030290638E-03 
1212	 5.06283468081362E-03 
1213	 9.06984577667111E-03 
1214	 9.73025740766634E-03 
1215	 7.49713606337347E-03 
1216	 6.02080238453984E-03 
1217	 1.04174200421784E-02 
1218	 1.12183121216486E-02 
1219	 7.41659415442244E-03 
1220	 7.37731064261778E-03 
1221	 9.12306160349358E-03 
1222	 7.35121599029081E-03 
1223	 4.80481058868123E-03 
1224	 8.01598194109432E-03 
1225	 1.03217688124694E-02 
1226	 6.91424751077149E-03 
1227	 7.58681404505324E-03 
1228	 8.04622036136555E-03 
1229	 4.28874422532743E-03 
1230	 4.36161960988713E-03 
1231	 4.69083068260678E-03 
1232	 4.1235050907135E-03 
1233	 4.90132393555207E-03 
1234	 3.9808567292037E-03 
1235	 3.85560019787394E-03 
1236	 6.61994826046521E-03 
1237	 7.01050956278341E-03 
1238	 5.38688347234662E-03 
1239	 5.35646714250323E-03 
1240	 6.08678275387718E-03 
1241	 4.96105165398809E-03 
1242	 7.01583191991406E-03 
1243	 7.6256689296945E-03 
1244	 5.9590419922194E-03 
1245	 8.93636520427134E-03 
1246	 9.67415382433575E-03 
1247	 6.42153010397045E-03 
1248	 6.05595981297578E-03 
1249	 5.8051410116809E-03 
1250	 3.58079900043839E-03 
1251	 2.11748231458587E-03 
1252	 2.4466891853973E-03 
1253	 3.42475859475871E-03 
1254	 4.27199608170607E-03 
1255	 5.44835180382348E-03 
1256	 5.47336304986436E-03 
1257	 2.30744908678247E-03 
1258	 1.40464467707709E-03 
1259	 1.96420162912435E-03 
1260	 2.63062915864076E-03 
1261	 4.74622816732925E-03 
1262	 5.20166452388091E-03 
1263	 4.71342655762626E-03 
1264	 3.70764753050954E-03 
1265	 4.41957617530646E-03 
1266	 4.97688801521787E-03 
1267	 5.20134028958091E-03 
1268	 5.85439749223351E-03 
1269	 4.10862993749343E-03 
1270	 3.29867587114316E-03 
1271	 6.36547848268405E-03 
1272	 7.59253230902479E-03 
1273	 6.97880625138511E-03 
1274	 7.36511010861959E-03 
1275	 7.66029749249728E-03 
1276	 8.11480738203145E-03 
1277	 9.50992414106971E-03 
1278	 1.10091635559614E-02 
1279	 9.0295878664573E-03 
1280	 6.36511511345164E-03 
1281	 6.78466552061133E-03 
1282	 0.011375180049435 
1283	 1.07049377124152E-02 
1284	 7.63940625222757E-03 
1285	 6.5797646819515E-03 
1286	 3.07018349721734E-03 
1287	 1.6166289073887E-03 
1288	 3.6803378869354E-03 
1289	 5.23592517143332E-03 
1290	 7.6466114890565E-03 
1291	 7.31496594107141E-03 
1292	 4.02896546377974E-03 
1293	 3.37016921520002E-03 
1294	 3.73840304356547E-03 
1295	 1.58452379480316E-03 
1296	 4.05191767867334E-03 
1297	 9.34838048541616E-03 
1298	 7.03523293828049E-03 
1299	 3.94854232932829E-03 
1300	 3.4634810409401E-03 
1301	 8.41994801681112E-04 
1302	 2.3912571511958E-03 
1303	 5.2840349711459E-03 
1304	 4.25255602188222E-03 
1305	 4.07421888829385E-03 
1306	 4.9608382224635E-03 
1307	 7.13497483200503E-03 
1308	 5.98698758121431E-03 
1309	 2.29103104625315E-03 
1310	 2.43136572173786E-03 
1311	 1.81430695002296E-03 
1312	 3.57429531202779E-03 
1313	 0.014129402993132 
1314	 1.84362399101543E-02 
1315	 1.71066066219702E-02 
1316	 1.67272842987854E-02 
1317	 1.42858981955338E-02 
1318	 0.013698140993818 
1319	 1.37041842606696E-02 
1320	 1.37965512068521E-02 
1321	 1.70684418595878E-02 
1322	 1.55613049257983E-02 
1323	 9.04226908997828E-03 
1324	 3.8157349028615E-03 
1325	-5.48504532998686E-03 
1326	-9.24544930905378E-03 
1327	 2.36223564760806E-03 
1328	 9.92894236180279E-03 
1329	 7.59661139661242E-03 
1330	 6.25487578065625E-03 
1331	 1.5762901239395E-03 
1332	-6.83851656531683E-03 
1333	 6.94592355822568E-03 
1334	 3.62780826393523E-02 
1335	 4.01016306602545E-02 
1336	 1.29089228632016E-02 
1337	 1.22634722442272E-02 
1338	 1.50899389922213E-02 
1339	 2.19500293869346E-02 
1340	 4.77308805056541E-02 
1341	 0.063154019111024 
1342	 7.20025553187483E-02 
1343	 0.078875606012658 
1344	 9.90987074219341E-02 
1345	 0.125475780580573 
1346	 0.131827133220329 
1347	 0.137179228520461 
1348	 0.164016078489155 
1349	 0.143264514864669 
1350	 2.36230721009364E-02 
1351	 1.35455032123018E-02 
1352	 0.190280487631334 
1353	 6.27000566417091E-02 
1354	-0.456187722697331 
1355	-0.771318696870975 
1356	-0.900363571716816 
1357	-1.02566782203486 
1358	-0.989444832814999 
1359	-0.971615114073181 
1360	-0.379919003075844 
1361	-0.103231216852453 
1362	-8.01867519376418E-02 
1363	 0.38667097514152 
1364	 0.165421422755512 
1365	-0.384817854547993 
1366	-2.34726138338924E-02 
1367	 0.28988826262996 
1368	 0.206857548777941 
1369	-0.191201137944348 
1370	-0.643060458352379 
1371	-5.34993429489155 
1372	-4.23480023303202 
1373	-1.37662033413539 
1374	-1.55452994211314 
1375	-1.44793084922766 
1376	-1.49171036555748 
1377	-11.4845297327358 
1378	 5.80856189450686 
1379	 0.318555994436492 
1380	-0.258734290919308 
1381	-1.39140507033001 
1382	-0.101577695874486 
1383	-3.84048414611731 
1384	-3.05041523760646 
1385	-3.73864125891206 
1386	-12.2692820687522 
1387	 1.91097860997053 
1388	 3.00978866118995 
1389	-5.46527194710817 
1390	-5.64141050841475 
1391	 4.27788380822124 
1392	-4.90064977748893 
1393	-0.555941645906543 
1394	 0.636361336434952 
1395	 0.275269081342387 
1396	 0.911179768804092 
1397	 1.49761628757314 
1398	-23.4932823483885 
1399	-7.16197513337543 
1400	-2.07718945823275 
1401	-5.33406130386771 
1402	 1.24498636541715 
1403	 1.36457216165562 
1404	 2.0063886121794 
1405	 2.21270558859428 
1406	 83.0117564185397 
1407	 10.370474583553 
1408	 1.72164678394084 
1409	 1.47936359455031 
1410	 0.439965340894616 
1411	 1.56656314836816 
1412	 4.50051681912257E-02 
1413	-0.492382866551991 
1414	 0.672081555028183 
1415	 3.09506699191373 
1416	 3.35404741604602 
1417	 3.79410561738618 
1418	-7.86424584298306 
1419	-2.70296737620891 
1420	-1.06285320932441 
1421	-0.628638623967712 
1422	 2.15577881848438 
1423	-2.55178075881323 
1424	-0.765033019150166 
1425	-0.73893286449454 
1426	-1.51608226011879 
1427	-0.820952794618776 
1428	-0.167438010655926 
1429	-0.135407325188 
1430	 0.108063092460572 
1431	 8.79487584658106E-02 
1432	-1.0641402353903 
1433	-1.46475257033138 
1434	-0.215136742033843 
1435	-0.295993106043328 
1436	-0.540198258322256 
1437	-0.689037399426532 
1438	-1.11020661243 
1439	-1.45589893332977 
1440	-2.11462965785671 
1441	-5.70053721472643 
1442	-0.108458953104024 
1443	-0.105541859863455 
1444	-0.664697754211674 
1445	-0.311595452547891 
1446	-0.233208538755466 
1447	-0.623068123478079 
1448	-0.297936453730421 
1449	-0.155298997382362 
1450	-0.721839596196414 
1451	-0.827740207991412 
1452	-0.583620803763824 
1453	-0.292763972301593 
1454	-7.93411826797329E-02 
1455	 7.46883738379495E-02 
1456	 0.140032207413145 
1457	 0.175622402394239 
1458	 0.158574313728388 
1459	 2.12506599991115E-02 
1460	 5.28665788238946E-02 
1461	 0.248776901350948 
1462	 0.173646497173998 
1463	-7.05670641686214E-03 
1464	 3.96863658567941E-03 
1465	-6.43518448823796E-02 
1466	-0.124532581432939 
1467	 1.68901782479711E-02 
1468	 0.107296452155765 
1469	 7.30385639154969E-02 
1470	 1.04685832368309E-03 
1471	-5.05336189720651E-02 
1472	-6.01219792669645E-02 
1473	-0.239258056901336 
1474	-0.300873053886889 
1475	-9.58665967476089E-02 
1476	-0.102116827832537 
1477	-0.215925280395246 
1478	-0.234045018046099 
1479	-0.234356574683453 
1480	-0.197295321828094 
1481	-8.50571050574678E-02 
1482	-0.09853408885593 
1483	-0.270120193821985 
1484	-0.182428611827632 
1485	-5.36281883965286E-03 
1486	 1.85257288774512E-02 
1487	 8.37803476755754E-02 
1488	 8.35556456166238E-02 
1489	-1.08939806193159E-02 
1490	-0.035284454926575 
1491	-2.67435139426668E-02 
1492	-2.56371646681454E-02 
1493	-2.71777931235018E-02 
1494	-2.32529623528898E-02 
1495	-4.92810969571368E-03 
1496	-1.85801396191713E-03 
1497	-9.38491067145132E-03 
1498	-9.67198120127499E-03 
1499	-1.22321511578305E-02 
1500	-1.44824392669352E-02 
1501	-1.63459984525227E-02 
1502	-1.01814489188262E-02 
1503	 8.65183851775476E-03 
1504	 9.51531089339698E-03 
1505	 6.44041538018416E-03 
1506	-8.28197774789388E-04 
1507	 2.20396293570926E-03 
1508	-1.1019933158426E-03 
1509	-8.27137999140038E-04 
1510	 9.29513210347044E-03 
1511	 1.12116375624902E-02 
1512	 5.2053260148931E-03 
1513	 2.14070153411549E-03 
1514	 3.40735862379563E-03 
1515	 1.11940681271928E-02 
1516	 1.14965193836406E-02 
1517	 3.54358751822504E-03 
1518	 3.53395740464216E-03 
1519	 1.3330788922029E-03 
1520	-7.58350696201574E-04 
1521	 1.52945184033105E-03 
1522	 3.16802032850773E-04 
1523	 4.47655528547409E-03 
1524	 6.3273718395049E-03 
1525	 5.01913385651214E-03 
1526	 8.60837023893274E-03 
1527	 5.79627006801855E-04 
1528	-7.98454626980821E-03 
1529	-4.56859487388959E-03 
1530	-1.86157911908006E-03 
1531	 4.69388631565519E-03 
1532	 7.63973211605985E-03 
1533	 1.51165995484043E-03 
1534	 1.80733909347041E-03 
1535	 3.30906131135466E-03 
1536	 1.96693537646075E-03 
1537	 2.57304891992927E-03 
1538	 2.62060362450604E-03 
1539	 2.05762057994052E-03 
1540	-2.01936786204996E-03 
1541	-4.43830014078827E-03 
1542	-9.74852548974827E-04 
1543	 1.61463632711046E-03 
1544	-2.64604773762834E-04 
1545	-5.2919269693944E-03 
1546	-5.52782945553495E-03 
1547	-2.00564494924687E-03 
1548	-9.17386342830879E-04 
1549	-1.94493682306788E-03 
1550	 1.52672626101342E-04 
1551	 2.08932844322772E-03 
1552	-1.99943016861455E-03 
1553	-2.9804812825329E-03 
1554	-1.18777123186641E-03 
1555	-1.04273687523127E-03 
1556	-2.55374082005595E-05 
1557	 4.48039516259642E-03 
1558	 6.5131046212286E-03 
1559	-2.32799506385213E-03 
1560	-5.41015100913811E-03 
1561	 2.07876812995276E-03 
1562	 8.78427483599547E-04 
1563	-2.20516909395104E-03 
1564	 7.58105159002373E-04 
1565	 1.79967705967738E-05 
1566	-4.04182694839548E-03 
1567	-7.33533806775931E-03 
1568	-4.56301171195547E-03 
1569	-5.57693224879166E-03 
1570	-1.46026069568861E-02 
1571	-0.011010835187069 
1572	-4.34641854537782E-03 
1573	-7.28804593943334E-03 
1574	-1.29596646765335E-03 
1575	 7.40859305305288E-03 
1576	 3.75229572867295E-03 
1577	 5.91773614797224E-04 
1578	 6.86749626438655E-04 
1579	 7.88873205361079E-04 
1580	 1.26630788348386E-03 
1581	-1.61493046249424E-03 
1582	-3.63677450600442E-03 
1583	-4.50147838756185E-03 
1584	-5.24040177776652E-03 
1585	-8.84606041934687E-04 
1586	 5.71528829888772E-03 
1587	 3.67579315230083E-03 
1588	-3.47083105000643E-03 
1589	-4.9497291394172E-03 
1590	-4.07678758646323E-03 
1591	-2.72465007996744E-03 
1592	 1.78666644908836E-03 
1593	 3.32005102067962E-03 
1594	 1.06413363786221E-03 
1595	 2.44894583378385E-03 
1596	 4.06684933420258E-03 
1597	 3.04347495511235E-03 
1598	 1.13937114915144E-03 
1599	 4.76283181142903E-04 
1600	 3.76510158974899E-03 
1601	 3.35823554827895E-03 
1602	 1.29559416617586E-04 
1603	 2.18711593996542E-03 
1604	 3.34729695533516E-03 
1605	 2.77761470972675E-03 
1606	 5.5312796188778E-03 
1607	 5.3285312718626E-03 
1608	-1.76011295923426E-03 
1609	-4.72900073362511E-03 
1610	-1.63331108678277E-03 
1611	-2.94777345400734E-03 
1612	-4.48007231197591E-03 
1613	-5.91481499766993E-03 
1614	-4.44352966036488E-03 
1615	 2.5549733215072E-03 
1616	 4.31943378740952E-03 
1617	 4.05101438073169E-03 
1618	 2.31287141674858E-03 
1619	-1.3515923907229E-03 
1620	 6.81426483984874E-04 
1621	 3.2114848747541E-03 
1622	 3.44809485349777E-03 
1623	 4.38732826879224E-03 
1624	 2.20974768190326E-03 
1625	 3.51121423923225E-05 
1626	-8.81655268817902E-04 
1627	-1.64449573096611E-03 
1628	 1.29526034402057E-03 
1629	 2.29675088056847E-03 
1630	 1.47123532500187E-03 
1631	 9.30922010680377E-04 
1632	-2.89041367103146E-03 
1633	-4.51947572263943E-03 
1634	-1.40084220074003E-03 
1635	 2.06710321716906E-03 
1636	 2.25382515872001E-03 
1637	 2.63449125017527E-03 
1638	 3.68286573596747E-03 
1639	 1.91774785486028E-03 
1640	-1.0580730482715E-03 
1641	-5.80709136609577E-03 
1642	-6.80477247773675E-03 
1643	-2.36615921692295E-03 
1644	 1.65906546204667E-03 
1645	 3.29095234985643E-03 
1646	 3.68383588926259E-03 
1647	 3.29126962987345E-03 
1648	 1.87099234953403E-03 
1649	 2.6190090427055E-03 
1650	 5.16840581363001E-03 
1651	 3.85253399306562E-03 
1652	-1.67359652384281E-04 
1653	 4.00937703998939E-04 
1654	-1.59310769285693E-03 
1655	-7.81752368517086E-03 
1656	-5.34979374107425E-03 
1657	 6.05521336048291E-03 
1658	 5.06318667850176E-03 
1659	-1.00286060654346E-03 
1660	-3.03856124309637E-04 
1661	-4.16945614752438E-03 
1662	-6.98776127427768E-03 
1663	-2.04910882653628E-03 
1664	 1.10516119802188E-03 
1665	-1.29805804213765E-04 
1666	-1.35335726196343E-03 
1667	-4.71108830124285E-04 
1668	 2.83726955101551E-03 
1669	 5.50260383199331E-03 
1670	 6.80928037635361E-03 
1671	 8.69429994807524E-03 
1672	 7.96129615189508E-03 
1673	 8.80915360317643E-04 
1674	-1.79155330660398E-03 
1675	 5.68909169573143E-03 
1676	 4.76356744591022E-03 
1677	 1.45607294500142E-03 
1678	 7.5362435711567E-03 
1679	 8.91779479342346E-03 
1680	 4.60792890964928E-03 
1681	 1.59016376658577E-03 
1682	-4.6327216840537E-03 
1683	-9.24524561306414E-03 
1684	-3.25767989430156E-03 
1685	-3.01295705827716E-03 
1686	-1.07162515740713E-02 
1687	-7.71301284574026E-03 
1688	-7.08187786493089E-03 
1689	-2.27442570951319E-03 
1690	 1.61937002290697E-02 
1691	 1.83029922555202E-02 
1692	 5.77586948674084E-03 
1693	-5.69479700498698E-04 
1694	-9.78483845590903E-04 
1695	 1.24188480760335E-03 
1696	 4.66300118824249E-03 
1697	 5.89180532489374E-03 
1698	 4.92741371131194E-03 
1699	-2.44083883560571E-04 
1700	-3.45830723690584E-03 
1701	 5.19452761928592E-03 
1702	 1.16549579695046E-02 
1703	 6.45558896662192E-03 
1704	 4.38986855550596E-03 
1705	 6.23681691744942E-03 
1706	-1.16647863507037E-03 
1707	-2.38311911142933E-03 
1708	 9.11958564137638E-03 
1709	 1.07541525071269E-02 
1710	 5.63304011381937E-03 
1711	 1.65906389120577E-03 
1712	-1.70393555856913E-03 
1713	 2.72602404273057E-03 
1714	 1.24008614264602E-03 
1715	-3.3228192711838E-03 
1716	-9.89690673840211E-03 
1717	-0.01702478095613 
1718	-0.014571937408314 
1719	-5.69275898715905E-03 
1720	-7.32871373494889E-03 
1721	-7.48534220248982E-03 
1722	-4.75961394573751E-03 
1723	-4.5494045746722E-03 
1724	-1.63851094257626E-03 
1725	-3.67537394303963E-03 
1726	-1.35340986543332E-02 
1727	-1.88403124852715E-02 
1728	-9.87474124034396E-03 
1729	 8.13236136276197E-04 
1730	 3.03273184147412E-03 
1731	 6.45684030211748E-04 
1732	-2.77762897132311E-03 
1733	-8.75556667617723E-03 
1734	-1.39201742436331E-02 
1735	-1.01133282949465E-02 
1736	-1.02972813359158E-02 
1737	-2.25429279353623E-02 
1738	-1.36760307026575E-02 
1739	 2.21346894285541E-03 
1740	-1.52727898065286E-02 
1741	-0.018033826244671 
1742	 8.91130937289912E-03 
1743	 9.17779202843134E-03 
1744	 4.53607962540183E-03 
1745	 1.97706465762072E-02 
1746	 8.04437291301601E-03 
1747	 1.02854495906892E-03 
1748	 1.76981747956789E-02 
1749	 1.93781396380564E-02 
1750	-3.41735923980667E-03 
1751	-8.46045902234204E-03 
1752	-4.14818431481453E-03 
1753	-2.3839270544197E-03 
1754	 8.97238631771014E-03 
1755	 1.03408012830522E-02 
1756	 5.44393558866254E-03 
1757	 1.56722755164455E-02 
1758	 2.15688473791309E-03 
1759	-1.12421210648929E-02 
1760	-1.39508843728242E-02 
1761	-1.94838859827975E-02 
1762	-1.89602560465051E-02 
1763	-0.023582214228831 
1764	-0.019835095142689 
1765	 8.46183390667542E-03 
1766	 1.29862170064386E-02 
1767	 1.15702008996358E-02 
1768	 4.55852124152049E-02 
1769	 4.45487665341982E-02 
1770	 2.39122985822207E-02 
1771	 4.61189736831366E-02 
1772	 3.48016551208899E-02 
1773	-1.04239588098568E-02 
1774	-6.56029477246021E-04 
1775	 3.22484291088222E-02 
1776	 3.19336515952014E-02 
1777	 2.03585789850036E-02 
1778	 1.75872223416428E-02 
1779	-1.39116055937828E-02 
1780	-2.43304726070052E-02 
1781	 9.92561885272395E-03 
1782	 2.47722047632838E-02 
1783	 8.46577196681065E-03 
1784	 2.92201347645443E-02 
1785	 0.101824413071618 
1786	 0.102899018342936 
1787	 7.16315126724787E-02 
1788	 4.92308701361338E-02 
1789	-9.56449928799276E-02 
1790	-0.164118147999121 
1791	-8.20108115624155E-02 
1792	-0.146622336533686 
1793	-0.188309227025431 
1794	-5.66650524397747E-02 
1795	 4.73618937882813E-03 
1796	 8.93019102021035E-02 
1797	 0.391786091214779 
1798	-0.488137639078906 
1799	-0.577526464115155 
1800	-0.502099971279483 
1801	-0.374043790082813 
1802	 5.31653597078648E-03 
1803	 0.121299313001908 
1804	 3.30884736028067E-02 
1805	 1.23034164976169E-02 
1806	-0.401657198109518 
1807	-0.630118024945208 
1808	 0.364758026274383 
1809	 8.72851540929627 
1810	 4.06545564156283 
1811	 10.0163370431486 
1812	-4.59127563062115 
1813	-2.19405338499417 
1814	-0.849662986733454 
1815	-0.52641951305383 
1816	-0.300902964222313 
1817	 0.707308627057841 
1818	-0.655520407366762 
1819	 0.120133318315884 
1820	-17.6501326589619 
1821	-0.43940786575006 
1822	-0.255098170222654 
1823	 0.16781739266745 
1824	 0.632888100667632 
1825	-0.993411745032068 
1826	-0.773308785679986 
1827	 4.92747755220622 
1828	 0.977614992828483 
1829	 0.746423149801962 
1830	 0.46153494201393 
1831	 0.811621402558673 
1832	 0.639937046695666 
1833	-0.291961262092279 
1834	-0.561728369143694 
1835	-1.49712555772739E-02 
1836	-3.06132465939605E-02 
1837	-0.778017023964152 
1838	-0.889552789439503 
1839	-0.554211084819372 
1840	-0.526754947750743 
1841	-0.513123596261643 
1842	-0.240866693877455 
1843	-0.17325661586119 
1844	-0.263955082643738 
1845	 0.135929100213299 
1846	 0.455270024594407 
1847	 0.599282110734998 
1848	 0.372636638759856 
1849	 0.347119191023075 
1850	 0.673112100467692 
1851	 1.37487169753789 
1852	 7.16775597965518 
1853	-12.9818139354841 
1854	-3.60322417985573 
1855	-4.40624547352254 
1856	-4.78486898190829 
1857	-2.72538317428279 
1858	-1.85239385387117 
1859	-1.63874942996999 
1860	-1.62000066023809 
1861	 1.44352853366323 
1862	-8.12409980338563E-02 
1863	-0.159257066383609 
1864	 0.294027483163431 
1865	 0.53809586541916 
1866	 1.18767998409843 
1867	 1.18256685136262 
1868	 0.846081184868248 
1869	 0.834002787536544 
1870	 0.259136520497762 
1871	 0.369513646086268 
1872	 3.32872076704029 
1873	-3.76383985550263 
1874	-6.96513995146444 
1875	-2.59811149514402 
1876	-1.41388020586276 
1877	-4.60416649741868E-02 
1878	 0.358705113480519 
1879	 0.680605854682173 
1880	 1.02261221882472 
1881	 1.93293139380632 
1882	-20.5087330455804 
1883	-2.59363289663378 
1884	-1.20768095015565 
1885	-1.10542219025476 
1886	-0.223441483266979 
1887	-1.89112944078523 
1888	 17.1452494126765 
1889	 47.8888278194735 
1890	-6.22446649169693 
1891	-6.13207536807624 
1892	 51.4692460589802 
1893	-1.02244786819455 
1894	-0.806752681364452 
1895	-0.837407829009243 
1896	-0.779454716478923 
1897	-1.75178702115207 
1898	 4.45878410628244 
1899	 2.31335667615617 
1900	 1.52607271757888 
1901	 0.73145891080172 
1902	 0.418758896552567 
1903	 2.92268259649691E-02 
1904	-0.323054236013762 
1905	-0.628651571170446 
1906	-1.684036665776 
1907	 4.76739220984818 
1908	 1.42236936881622 
1909	-0.384717880156317 
1910	-0.931360809805846 
1911	-2.21090194653929 
1912	 6.22476402262917 
1913	 4.09239334433345 
1914	 6.3257717507141 
1915	 3.72952344303128 
1916	 3.55891793968734 
1917	 7.21964080051375 
1918	 7.47812324371652 
1919	 2.2246534440102 
1920	 2.12317808547432 
1921	 1.27509719097493 
1922	 0.370520361045124 
1923	-3.57603411205816E-02 
1924	-0.388920532351911 
1925	-5.40610237338942E-02 
1926	-7.12592625599985E-02 
1927	-1.14407098666066 
1928	-77.0342309820398 
1929	 2.33662005550555 
1930	-0.331393556674532 
1931	 2.0242778664688 
1932	 0.322641214007838 
1933	 0.592805573414514 
1934	 0.451406255881588 
1935	-0.473372551859653 
1936	-4.87829396019067E-02 
1937	 0.634643688826401 
1938	 0.254984194756871 
1939	 5.80393094517826 
1940	-1.35579650117471 
1941	-0.401165057340499 
1942	-8.22333999159134E-02 
1943	-0.026542471655764 
1944	 5.87358593640366E-02 
1945	 0.173904663393548 
1946	 0.395513729158015 
1947	-4.57251816506038E-03 
1948	-0.236977934615675 
1949	-8.32257192041688E-02 
1950	-0.385483084756422 
1951	-3.04986169143634 
1952	-1.17293299805658 
1953	-1.05838460438084 
1954	-0.549261378750701 
1955	-0.694469906354845 
1956	 3.06326695876589 
1957	-6.27616338127109E-02 
1958	-6.93191394522119E-02 
1959	-0.115076269300094 
1960	 4.39613812433744E-02 
1961	-0.153734184117644 
1962	 4.73819471941205E-02 
1963	 1.18808836773808 
1964	-0.303615322366894 
1965	-0.186582106464425 
1966	-0.119795166488992 
1967	-0.080406029811202 
1968	 5.56077902632631E-02 
1969	 0.591401596657206 
1970	 0.735129869386986 
1971	 0.482222345865623 
1972	 0.43723320091722 
1973	 0.224824633319983 
1974	-7.17825286099265E-02 
1975	-4.09527775691303E-02 
1976	 0.130645296168485 
1977	 0.11205162802457 
1978	 0.15201577438883 
1979	 0.210599215074105 
1980	 0.405518913593774 
1981	 0.275791409482686 
1982	 4.73336293530298E-02 
1983	 0.10128007266964 
1984	 1.88117874226522E-02 
1985	-0.12009662290299 
1986	-0.137294760361557 
1987	-0.135286511732723 
1988	-0.181805472204973 
1989	-0.181510939818934 
1990	-8.07689612191145E-02 
1991	-7.92139607587952E-02 
1992	-9.50442039037894E-02 
1993	-3.85868415849599E-02 
1994	 8.75909383662937E-02 
1995	 0.284090181702628 
1996	 0.546829973780452 
1997	 0.647388151850322 
1998	 0.692416657955032 
1999	 0.588884515356573 
2000	 0.256874298795867 
2001	 0.283997731727326 
2002	 0.329541780620873 
2003	 0.23221232849514 
2004	 0.332154548893185 
2005	 0.29064748314121 
2006	 0.12924186471057 
2007	 0.218903206266681 
2008	 0.355471829785586 
2009	 0.410244637509984 
2010	 0.441018475913402 
2011	 0.530383475581534 
2012	 0.740888970590926 
2013	 0.657712043216592 
2014	 0.622399215180464 
2015	 0.691884652203802 
2016	 0.484179496310884 
2017	 0.415639122425024 
2018	 0.442510235991484 
2019	 0.444467487968147 
2020	 0.284242589148101 
2021	 0.205877846608376 
2022	 0.189384674085883 
2023	 0.044785971774628 
2024	-2.10751329158412E-02 
2025	-4.46576770777463E-03 
2026	 4.78516833322542E-03 
2027	-0.016442866142355 
2028	 8.84107185044438E-02 
2029	 0.11879989705663 
2030	 0.114833506212405 
2031	 0.133733566424992 
2032	 7.68724092294204E-02 
2033	 2.80333782004697E-02 
2034	 3.39293905919341E-02 
2035	 4.55154576150082E-03 
2036	-3.55789728175229E-02 
2037	-7.24262251096937E-03 
2038	 4.38556645239801E-03 
2039	-1.96899062006665E-02 
2040	-7.18990273355685E-02 
2041	-7.94087274115368E-02 
2042	-0.110947173964596 
2043	-0.103648474608157 
2044	-3.77188499529053E-02 
2045	 5.27203440242962E-03 
2046	 0.011645144425455 
2047	 3.39399236161236E-04 
2048	-1.17739809554968E-02 
2049	 6.76198294494015E-02 
2050	 8.60776580599654E-02 
2051	 6.33600040190379E-02 
2052	 0.168428735581063 
2053	 0.188972861963234 
2054	 0.201787132041088 
2055	 0.246493047400457 
2056	 0.222430445753699 
2057	 6.09294782961274E-02 
2058	 3.05013036139234E-02 
2059	 0.058266054297723 
2060	 6.19696213352319E-02 
2061	 0.104831098715199 
2062	 0.119888385071679 
2063	 0.107634974099897 
2064	 9.70879343280261E-02 
2065	 0.129809888121184 
2066	 0.156952899014083 
2067	 0.130898816501959 
2068	 0.112642419392498 
2069	 7.66067973364845E-02 
2070	 3.37435726896091E-02 
2071	 1.62352308734102E-02 
2072	 4.44132384076681E-03 
2073	-1.28133233137465E-02 
2074	-3.48049624971299E-02 
2075	-3.73142897828646E-02 
2076	-2.83803358622075E-02 
2077	-3.60562540276293E-02 
2078	-3.92301205364549E-02 
2079	-0.040614386077423 
2080	-0.054856421165124 
2081	-5.88003943330195E-02 
2082	-4.53846426821581E-02 
2083	-1.94145795793602E-02 
2084	-0.010982038494971 
2085	 1.79116291557942E-02 
2086	 2.65612644648875E-02 
2087	 1.80150461219375E-02 
2088	 1.95818101569014E-02 
2089	 0.01555134194113 
2090	-8.85500982182838E-03 
2091	-3.01007609630818E-02 
2092	-2.30811091084878E-02 
2093	-8.31532136585642E-03 
2094	 8.59830320731673E-04 
2095	 6.21367496049424E-02 
2096	 7.39200061497017E-02 
2097	 4.54946561316265E-02 
2098	 3.39672729007146E-02 
2099	 2.7347506514548E-03 
2100	-1.66565492794903E-02 
2101	 3.86550698837832E-03 
2102	 1.29326059427043E-02 
2103	 3.49158233410202E-02 
2104	 3.76013637461816E-02 
2105	 2.11541217495197E-02 
2106	 3.65102300267932E-02 
2107	 2.26521265010151E-02 
2108	 1.92520150103539E-02 
2109	 5.39895445523513E-02 
2110	 4.15493568684743E-02 
2111	 1.99690702674579E-02 
2112	 1.66894720613257E-02 
2113	 9.55183561389402E-03 
2114	-3.40235001136291E-02 
2115	-0.039230670340413 
2116	 2.27193620036214E-03 
2117	 1.22912689903039E-02 
2118	 7.72128431705912E-03 
2119	 2.14761987400092E-02 
2120	 0.043492968912142 
2121	 5.52616021715672E-02 
2122	 4.66587434871354E-02 
2123	 4.69635554875927E-02 
2124	 2.87496168067009E-02 
2125	-1.39670402588339E-02 
2126	-1.54326173980999E-02 
2127	-1.04833062265872E-02 
2128	-2.53918544225024E-02 
2129	-2.32022774784862E-02 
2130	-1.33930735216746E-02 
2131	-0.012396371084059 
2132	 2.70841280530903E-02 
2133	 3.99417468062736E-02 
2134	 4.44289624174859E-02 
2135	 3.89284570586322E-02 
2136	 3.37801539369985E-02 
2137	 1.46938179225721E-02 
2138	 1.37627752062793E-02 
2139	 2.45288380875427E-02 
2140	 2.71996416972479E-02 
2141	 0.026811173951643 
2142	 2.32106561066561E-02 
2143	 9.68415938966466E-03 
2144	 7.36071440404704E-03 
2145	 2.02317704355291E-02 
2146	 5.18003341346658E-02 
2147	 7.10038539775085E-02 
2148	 6.91100989063992E-02 
2149	 8.15531188800005E-02 
2150	 8.87370102392727E-02 
2151	 0.104237992085938 
2152	 0.140274157925595 
2153	 0.132543696504739 
2154	 0.108937936182086 
2155	 0.095208133709911 
2156	 7.09233001646472E-02 
2157	 4.98244462546941E-02 
2158	 2.03615556624231E-02 
2159	 1.97583773039881E-02 
2160	 2.00312172587686E-02 
2161	 0.041229383267524 
2162	 0.117149387019733 
2163	 0.146236802824157 
2164	 0.176055713968156 
2165	 0.182976426097496 
2166	 0.130490808655461 
2167	 0.109645733468263 
2168	 0.100370364641231 
2169	 8.87818152800727E-02 
2170	 9.74822730680438E-02 
2171	 8.54668423022624E-02 
2172	 0.085111933540813 
2173	 5.78535392543919E-02 
2174	-5.29214142349831E-03 
2175	-1.11513375311758E-02 
2176	-3.75512460375382E-02 
2177	-0.108245079867722 
2178	-8.94721511316754E-02 
2179	-5.36396596856043E-02 
2180	-4.80814968952057E-02 
2181	 3.47618645197555E-02 
2182	 7.48741502891829E-02 
2183	 5.33724246810079E-02 
2184	 3.61485657480055E-02 
2185	 1.10394397462648E-02 
2186	 1.30856317293625E-02 
2187	 1.92024424065061E-02 
2188	 2.54990372632047E-02 
2189	 5.99926677338751E-02 
2190	 0.067112845349009 
2191	 6.92933777471645E-02 
2192	 0.0536540208756 
2193	 1.75353527656142E-02 
2194	-0.001890541758126 
2195	-6.35498391509303E-02 
2196	-8.26868624394385E-02 
2197	-4.48394568832921E-02 
2198	-4.73580009751632E-02 
2199	-7.79342890772245E-02 
2200	-0.016961514120711 
2201	-5.51989967608602E-02 
2202	-0.115925518990414 
2203	-8.58487880826087E-02 
2204	-0.133029499826804 
2205	-0.112808031537897 
2206	 1.87261885128634E-02 
2207	 8.28976977007794E-02 
2208	 6.06140228107967E-02 
2209	 4.53774590653618E-02 
2210	 6.23888034624955E-03 
2211	-3.36735311830188E-02 
2212	-2.47714982965304E-02 
2213	 5.67700792154346E-02 
2214	 0.104155003088589 
2215	-4.65304934010226E-03 
2216	-0.037097470905765 
2217	-2.02626581125306E-02 
2218	-3.26397123608655E-02 
2219	-1.59154268392911E-02 
2220	 0.15351007508146 
2221	 0.17249194176393 
2222	 7.20530252039084E-02 
2223	 1.79279035737938E-02 
2224	-7.24524015612787E-02 
2225	-0.12215908672327 
2226	-0.183754409853814 
2227	-0.192046191010969 
2228	-0.120035129200731 
2229	-0.105865823164734 
2230	-0.101932979947268 
2231	-6.81897436624393E-02 
2232	-2.63218179855513E-02 
2233	 2.49466855169081E-02 
2234	 0.120229902243293 
2235	 0.17892589297674 
2236	 0.274490426356721 
2237	 0.242001150747844 
2238	 0.151893542398993 
2239	 0.120984431300576 
2240	 9.00756412910917E-02 
2241	 4.14288154405169E-02 
2242	 8.26620998586887E-02 
2243	 0.141467944653233 
2244	 8.32519634537294E-02 
2245	 1.88418248719749E-02 
2246	-4.28277411817219E-02 
2247	-0.105474789346558 
2248	-0.132813279775599 
2249	-0.12419207487687 
2250	-0.125347712930088 
2251	-9.44249323655934E-02 
2252	 2.67085578848588E-02 
2253	 0.182515453124703 
2254	 0.209792914163778 
2255	 0.186714989388028 
2256	 0.14391215540078 
2257	 1.20981508404797E-02 
2258	 5.12364905557023E-02 
2259	 0.111727842472604 
2260	 7.14559922653333E-02 
2261	 0.019180046373101 
2262	-0.018208176896377 
2263	-0.170746109724148 
2264	-0.198941364020479 
2265	-0.123623907901164 
2266	-0.106598721580667 
2267	-0.101409186528533 
2268	-3.49714651209597E-02 
2269	 8.99186566843296E-02 
2270	 0.161432496090464 
2271	 0.291087247019815 
2272	 0.327366209871172 
2273	 0.198233775053356 
2274	 0.220936253567171 
2275	 0.308715117255916 
2276	 0.320374542096369 
2277	 0.380504915582846 
2278	 0.354368440983001 
2279	 0.201993892118754 
2280	 0.1005800176529 
2281	-1.23825926224147E-02 
2282	-0.145190892940472 
2283	-0.14215906182979 
2284	-0.121652220729645 
2285	-0.111995831213032 
2286	-6.67144215293262E-02 
2287	 2.71950843027924E-02 
2288	-2.36679492850737E-02 
2289	-0.19772202759446 
2290	-0.286466187169585 
2291	-0.364267331650156 
2292	-0.392562192834523 
2293	-0.289221213652519 
2294	-9.08005043365811E-02 
2295	 7.46332761632594E-02 
2296	-2.65832492961598E-02 
2297	-3.03064763157876E-02 
2298	 8.95129629386507E-02 
2299	 0.116262792204158 
2300	 0.155648241517723 
2301	 0.261156345494572 
2302	 0.240748180083943 
2303	 7.91040084961939E-02 
2304	 6.65204459072484E-02 
2305	 0.100747705636128 
2306	 0.147107179638418 
2307	 0.16972883600001 
2308	 0.120042102861277 
2309	 5.17995845287876E-02 
2310	-0.194463354403457 
2311	-0.208687248935108 
2312	-0.230246217030456 
2313	-0.357142932921934 
2314	-0.187113475886599 
2315	-0.081394797012202 
2316	 0.11095654931879 
2317	 0.59625494064151 
2318	 0.658729200677072 
2319	 0.607339708315144 
2320	 0.512035259355333 
2321	 0.276460555353018 
2322	 1.61955317289758E-02 
2323	-0.397692872703848 
2324	-0.388048609245203 
2325	-0.17917846990032 
2326	 1.70461298332619E-02 
2327	 9.03844031155013E-02 
2328	 2.76172711666534E-02 
2329	-4.84616874489689E-03 
2330	-6.81134668144911E-02 
2331	-5.66969071831686E-02 
2332	-0.1025032980578 
2333	-0.257466088499539 
2334	-0.283094780699499 
2335	-0.14631968377018 
2336	-0.119825820482944 
2337	-5.87607773452509E-02 
2338	 0.161710035131447 
2339	 0.369197893323587 
2340	 2.02626557730942 
2341	 1.29345765239917 
2342	 1.70621246826349 
2343	 0.928418313329158 
2344	 0.463333941838489 
2345	 0.397269703534547 
2346	 0.324635715386297 
2347	-0.106728285322376 
2348	-1.54697203868577 
2349	-1.84184433230544 
2350	-1.60945808780724 
2351	-1.49384327653311 
2352	-1.00037800828228 
2353	-4.10701208206413 
2354	 5.63425518838616 
2355	 7.49862960338894 
2356	-4.12854140365032 
2357	-1.05614494153315 
2358	-0.579794544027077 
2359	-0.300185690512465 
2360	-0.256396233925778 
2361	-0.323872378845005 
2362	 0.650039559196941 
2363	 0.486298901398657 
2364	 0.248361754153808 
2365	 0.371135438721642 
2366	 0.310386487444073 
2367	 0.426109469007716 
2368	 0.899036811440651 
2369	 0.707161085533617 
2370	-7.59760442723676E-02 
2371	-0.833239136566828 
2372	-0.61858341945002 
2373	-0.610382415986712 
2374	-1.08843865674812 
2375	-0.20375534772471 
2376	-0.539437889159552 
2377	-0.65904930254383 
2378	-0.646516021839377 
2379	-0.659826551736785 
2380	 1.07587840393556 
2381	 3.53867146770571 
2382	-2.62504102190772 
2383	-31.8746098500859 
2384	 1.57463218549038 
2385	 0.496644334380065 
2386	 7.64634201415679E-02 
2387	-5.17415339603509E-02 
2388	-0.51293794938119 
2389	-0.820202025258081 
2390	-0.179061318651291 
2391	-9.99581168292989E-02 
2392	-1.18380334724859 
2393	-2.25260787242684 
2394	-1.83743033548237 
2395	-0.485156583856244 
2396	-0.511481035703158 
2397	-1.73451681676061 
2398	-19.9853412185874 
2399	-137.762022513245 
2400	-1.96169008385649 
2401	-0.84840916125944 
2402	-0.141411805106538 
2403	 0.324821472268062 
2404	 5.32173111069104 
2405	-9.68898546847909 
2406	 0.616361167914625 
2407	-0.342122790290256 
2408	-0.190573308049455 
2409	-0.104657125030625 
2410	-0.281920033003481 
2411	-0.514225468037948 
2412	-1.65653589509397 
2413	-4.45003366599972 
2414	-12.1194603158736 
2415	-3.91120286545098 
2416	-0.890907816446991 
2417	-0.591562543274634 
2418	-0.124046734411346 
2419	 0.320287523106769 
2420	 0.455857873513854 
2421	 0.825626655151549 
2422	 0.333394971872143 
2423	-0.559984528262755 
2424	-3.67898946645937E-02 
2425	 4.36824683801898E-02 
2426	 4.47366998524356 
2427	-4.06253087298008 
2428	-3.14728138653954 
2429	-0.067531771874843 
2430	 0.778872828739458 
2431	 0.9510530516273 
2432	 1.12901979279549 
2433	 3.0798183712339 
2434	-9.80351042175188 
2435	-1.21832629294335 
2436	-0.722623582386805 
2437	-1.14156073124629 
2438	-14.9792854369228 
2439	-7.22719901236803 
2440	-3.87581109551035 
2441	 0.407684114404817 
2442	 1.53451613022629 
2443	-2.72184924514278 
2444	 1.55332047176218 
2445	 0.847505730230871 
2446	 0.612995708728644 
2447	 0.307048665346868 
2448	 0.266864837951888 
2449	 10.8131456618479 
2450	-3.77489500767374 
2451	 0.112696990909536 
2452	-6.05828306006692 
2453	-1.35193572384374 
2454	-0.781219755559371 
2455	-0.906268049813267 
2456	-1.27159509764521 
2457	 4.68427285199268 
2458	 1.02011610989898 
2459	 0.520293970059139 
2460	 0.475529269429939 
2461	 1.89269630207235 
2462	 5.15808633582572 
2463	 0.570741535268934 
2464	-1.60383984609791 
2465	-1.38047428290568 
2466	-1.35219101660132 
2467	-1.70081942876108 
2468	 0.224631917241555 
2469	 0.715915253454159 
2470	 0.670308681120274 
2471	 0.938620562177193 
2472	 0.658115492912679 
2473	-0.233516831552248 
2474	-1.33649372011547 
2475	-0.726179831374962 
2476	-0.147262805748915 
2477	 0.461290660954814 
2478	 1.57594623856236 
2479	 46.620984085414 
2480	-2.56821736426016 
2481	-1.56344220196294 
2482	-1.19628927763382 
2483	 0.199073693399476 
2484	 0.803706294447806 
2485	 1.88215637841126 
2486	-14.6819688338543 
2487	-1.69888192144401 
2488	-1.15777787130862 
2489	-1.18233453288512 
2490	 1.36944176853221 
2491	-0.208111990442453 
2492	-0.208122660711766 
2493	 0.11179995879233 
2494	 8.65016288934006E-02 
2495	 8.42195407528322E-02 
2496	-0.288617738553304 
2497	-0.979954597867094 
2498	-0.863582317102194 
2499	 1.09304503387187 
2500	 0.203157651388636 
