Wavelength	rt0802far00004.asd
350	 2.03398859971325E-02 
351	 2.20572774690005E-02 
352	 1.93865782027591E-02 
353	 1.84553239569328E-02 
354	 2.17692769033358E-02 
355	 2.06847704005425E-02 
356	 2.10958911582113E-02 
357	 2.20305159706496E-02 
358	 0.021390857992894 
359	 2.17187589601521E-02 
360	 2.20636469506319E-02 
361	 2.20322883536851E-02 
362	 2.18259642154701E-02 
363	 0.022803233634705 
364	 2.30651948814452E-02 
365	 2.22647919861126E-02 
366	 2.29941018502482E-02 
367	 2.30402966648174E-02 
368	 2.29523022156955E-02 
369	 0.023308680103526 
370	 2.18480637234833E-02 
371	 2.28130220303864E-02 
372	 2.42082651713231E-02 
373	 0.021583651878747 
374	 2.43629762619378E-02 
375	 2.59550437758941E-02 
376	 2.41682646138471E-02 
377	 2.51173710659818E-02 
378	 2.54481295609788E-02 
379	 0.024681154362586 
380	 2.35487308798423E-02 
381	 2.44098019696153E-02 
382	 2.51309972335457E-02 
383	 2.58494410579945E-02 
384	 2.73110412216226E-02 
385	 2.61494127885308E-02 
386	 2.58524821428354E-02 
387	 2.66625744456161E-02 
388	 0.024802643267946 
389	 2.61836719525352E-02 
390	 2.84186352748477E-02 
391	 2.88486666326728E-02 
392	 0.028268527725713 
393	 0.027456968164831 
394	 2.78410739283359E-02 
395	 3.01153466296076E-02 
396	 0.031123224920849 
397	 2.90573739837403E-02 
398	 2.65741332443332E-02 
399	 2.93941459402006E-02 
400	 3.07358241360913E-02 
401	 3.02803864058322E-02 
402	 2.94063783129168E-02 
403	 3.08519298057052E-02 
404	 3.12327237161513E-02 
405	 3.05920160577819E-02 
406	 3.03393989990066E-02 
407	 3.16741090659496E-02 
408	 3.18987593000001E-02 
409	 3.10209585628974E-02 
410	 0.031798491073072 
411	 3.26140351636284E-02 
412	 3.29730539335411E-02 
413	 3.28440114215964E-02 
414	 3.27276837260518E-02 
415	 3.26850119518706E-02 
416	 3.31567058676109E-02 
417	 3.43417985496952E-02 
418	 3.42671323658652E-02 
419	 3.38744221319255E-02 
420	 3.39582564318699E-02 
421	 3.48567126290877E-02 
422	 3.51423738058347E-02 
423	 3.53762806641764E-02 
424	 3.60092882690541E-02 
425	 3.58974707798369E-02 
426	 3.59210113263435E-02 
427	 3.67310974878918E-02 
428	 0.038382756752506 
429	 3.78509813726748E-02 
430	 3.74357008414284E-02 
431	 3.80581500436386E-02 
432	 0.038396666556105 
433	 0.039221147244591 
434	 3.97617425560956E-02 
435	 3.95329364622778E-02 
436	 3.97617482748817E-02 
437	 4.04523534054475E-02 
438	 4.11597651794238E-02 
439	 4.13131951980633E-02 
440	 4.17230122094681E-02 
441	 4.22937063698891E-02 
442	 4.28207875708948E-02 
443	 4.30884886089655E-02 
444	 4.36699728754331E-02 
445	 0.044102149404906 
446	 4.40145394519471E-02 
447	 4.45517286297338E-02 
448	 4.49901034365044E-02 
449	 4.53867844968766E-02 
450	 4.62834277783417E-02 
451	 4.63381452513118E-02 
452	 4.62755051064612E-02 
453	 4.66706751045938E-02 
454	 4.71848346212941E-02 
455	 4.75433801680092E-02 
456	 4.77408976898603E-02 
457	 4.78674285054278E-02 
458	 4.77456222921561E-02 
459	 4.81338445268625E-02 
460	 4.88680809682656E-02 
461	 4.88614106474916E-02 
462	 4.87851244181838E-02 
463	 0.04878932617265 
464	 4.89641000096843E-02 
465	 4.95786689513406E-02 
466	 4.98176180169618E-02 
467	 4.97864386138774E-02 
468	 5.00422043580256E-02 
469	 5.06467275993616E-02 
470	 5.08208063862235E-02 
471	 5.06005708327019E-02 
472	 5.11997875741226E-02 
473	 5.15870606646192E-02 
474	 5.18017416238422E-02 
475	 5.20313776442514E-02 
476	 5.18434383957392E-02 
477	 5.24235200435969E-02 
478	 5.33766553975356E-02 
479	 5.33296882954879E-02 
480	 5.30554136061991E-02 
481	 5.36073029468981E-02 
482	 5.48720726524505E-02 
483	 5.42233205355565E-02 
484	 5.43477434502768E-02 
485	 5.53587060911575E-02 
486	 5.63030689329961E-02 
487	 0.05617771039464 
488	 5.63318071883636E-02 
489	 5.70437084299493E-02 
490	 5.74453758363046E-02 
491	 5.78158020604814E-02 
492	 5.83599429266351E-02 
493	 5.91000837105586E-02 
494	 5.95832236706654E-02 
495	 6.02131001959143E-02 
496	 6.07127497224354E-02 
497	 6.06503420656144E-02 
498	 6.14010724550753E-02 
499	 6.18429585994794E-02 
500	 6.18586788277862E-02 
501	 0.06331704771879 
502	 6.38250989369719E-02 
503	 6.39444483810538E-02 
504	 6.47820413292758E-02 
505	 0.065911208613152 
506	 6.65107466683431E-02 
507	 6.67388011490203E-02 
508	 6.74955421298078E-02 
509	 6.84644144479782E-02 
510	 6.93033857294421E-02 
511	 6.99066103298029E-02 
512	 7.07574157847421E-02 
513	 0.071360323625732 
514	 7.17767292700228E-02 
515	 7.23439749971483E-02 
516	 7.34747343398639E-02 
517	 7.43022637548103E-02 
518	 0.074654366985619 
519	 7.53442945663028E-02 
520	 7.65371108894579E-02 
521	 7.75205536242764E-02 
522	 7.78501581323766E-02 
523	 7.86738647388518E-02 
524	 7.98101441370642E-02 
525	 8.08226875099791E-02 
526	 0.081208533859826 
527	 8.17298338245389E-02 
528	 8.26582782546888E-02 
529	 8.39111679013107E-02 
530	 0.084951918414378 
531	 8.56155723388593E-02 
532	 8.62618521816786E-02 
533	 8.72915054089117E-02 
534	 8.78951568408789E-02 
535	 8.86343425526816E-02 
536	 8.95976728835341E-02 
537	 9.02456981319382E-02 
538	 9.10884276244689E-02 
539	 9.20903267848331E-02 
540	 9.30861289362591E-02 
541	 9.39949220185544E-02 
542	 9.45727226430239E-02 
543	 9.50943746999371E-02 
544	 9.60854861696956E-02 
545	 9.70436530375422E-02 
546	 9.78686641541362E-02 
547	 9.86150270966662E-02 
548	 0.099536519527372 
549	 0.100354642595074 
550	 0.101077412741469 
551	 0.101811693027789 
552	 0.102544547479941 
553	 0.103518146205955 
554	 0.104640813069225 
555	 0.105434343033484 
556	 0.105986743253931 
557	 0.106514923721938 
558	 0.107217395021029 
559	 0.108152165007514 
560	 0.1087340823424 
561	 0.109122810871755 
562	 0.109915687070734 
563	 0.110932373003294 
564	 0.111366704396873 
565	 0.111160482057385 
566	 0.111906039449881 
567	 0.11223352282241 
568	 0.112568625721372 
569	 0.113601368127039 
570	 0.113527669523078 
571	 0.113694480770827 
572	 0.114353460562933 
573	 0.114395184781456 
574	 0.114627148891241 
575	 0.11489414796612 
576	 0.11500308501817 
577	 0.115394730657132 
578	 0.115410652419617 
579	 0.115243658789217 
580	 0.115477719664607 
581	 0.114912537255967 
582	 0.114499276531459 
583	 0.114548473745695 
584	 0.11368755626232 
585	 0.112997396907525 
586	 0.112432494249031 
587	 0.111600528231446 
588	 0.110666833251938 
589	 0.109968207509113 
590	 0.109563659082956 
591	 0.109100434456689 
592	 0.108295913593263 
593	 0.107375515510142 
594	 0.106534461902131 
595	 0.105451518058984 
596	 0.104362020636798 
597	 0.103219426823377 
598	 0.101897973965541 
599	 0.100894011050424 
600	 9.99748032736005E-02 
601	 9.90281831791423E-02 
602	 9.82653331643713E-02 
603	 9.77447392873338E-02 
604	 0.097266966574821 
605	 9.67412315271885E-02 
606	 9.71458054867681E-02 
607	 9.72289191306138E-02 
608	 9.67665121915174E-02 
609	 0.096690243024261 
610	 9.67580198685122E-02 
611	 9.66639531829626E-02 
612	 9.63295807257324E-02 
613	 9.64457992673323E-02 
614	 9.62768570370355E-02 
615	 0.096201294614991 
616	 9.69454105623669E-02 
617	 9.63131914768131E-02 
618	 9.60085707291835E-02 
619	 9.65015645203497E-02 
620	 9.55393973455245E-02 
621	 9.56201663364134E-02 
622	 9.59397518885507E-02 
623	 9.52159719940131E-02 
624	 9.54471987757767E-02 
625	 9.52660869284729E-02 
626	 9.45912077390652E-02 
627	 0.094660753746282 
628	 9.44933691420592E-02 
629	 9.42894258981206E-02 
630	 9.43227653488668E-02 
631	 9.45486450578969E-02 
632	 9.42324442305799E-02 
633	 9.39829912654415E-02 
634	 9.46893306144806E-02 
635	 9.39510295862009E-02 
636	 9.33991286156324E-02 
637	 0.093611784861578 
638	 9.31168612345922E-02 
639	 0.093299754294924 
640	 9.36063094952404E-02 
641	 9.32415634365211E-02 
642	 9.28405216134857E-02 
643	 9.23247192446355E-02 
644	 9.17505520090995E-02 
645	 9.12904890432123E-02 
646	 9.08983588955028E-02 
647	 9.06100899470408E-02 
648	 9.02877922571435E-02 
649	 0.089194671292394 
650	 8.95537519627049E-02 
651	 8.99192219153986E-02 
652	 8.81867780081248E-02 
653	 8.79417738060957E-02 
654	 8.70995921459579E-02 
655	 8.53046876504761E-02 
656	 8.52595403916554E-02 
657	 0.084956892635045 
658	 8.43775747537495E-02 
659	 8.37932248322119E-02 
660	 8.30668357444331E-02 
661	 8.24513418096572E-02 
662	 0.081921378503027 
663	 8.13416190549334E-02 
664	 8.12811661210967E-02 
665	 8.07885343617938E-02 
666	 7.97943288098731E-02 
667	 8.01742373494127E-02 
668	 8.02125656120596E-02 
669	 7.96811209766075E-02 
670	 7.89283556248242E-02 
671	 7.84813892250528E-02 
672	 7.85196628492115E-02 
673	 7.88618306842811E-02 
674	 7.90291197175847E-02 
675	 7.90158195896028E-02 
676	 7.88259522370235E-02 
677	 7.85388302405631E-02 
678	 7.83430494801007E-02 
679	 7.84532931790758E-02 
680	 7.85792139699515E-02 
681	 7.83588976162523E-02 
682	 7.88170598797923E-02 
683	 0.079003675103852 
684	 0.078789717699815 
685	 0.079397965424004 
686	 0.078821085814674 
687	 7.83438546493374E-02 
688	 7.92974607734987E-02 
689	 7.90277651450501E-02 
690	 7.88372268831517E-02 
691	 7.85629357271657E-02 
692	 7.72505754138046E-02 
693	 7.66274521721491E-02 
694	 7.60845667778042E-02 
695	 7.53702685637295E-02 
696	 7.53611124149327E-02 
697	 7.40320619999253E-02 
698	 7.22388995576078E-02 
699	 7.15089759867717E-02 
700	 7.03020363978457E-02 
701	 0.069370475244252 
702	 6.86893484096558E-02 
703	 6.75488816943936E-02 
704	 6.58052471203311E-02 
705	 6.42139015799521E-02 
706	 6.32246985157204E-02 
707	 6.21475261938008E-02 
708	 6.07226927873682E-02 
709	 5.90988219500488E-02 
710	 5.74943456209762E-02 
711	 0.055257301693702 
712	 5.31340649857181E-02 
713	 5.14775764931549E-02 
714	 5.00844510894631E-02 
715	 4.72921912647801E-02 
716	 4.37674950404932E-02 
717	 4.14267636323248E-02 
718	 3.91721518799522E-02 
719	 3.71062317922788E-02 
720	 3.61294514104193E-02 
721	 3.60845763142615E-02 
722	 3.42941156165683E-02 
723	 3.11179686759711E-02 
724	 2.82568654463956E-02 
725	 2.77496712518379E-02 
726	 2.70116787114662E-02 
727	 2.56031916389086E-02 
728	 2.37642777719835E-02 
729	 2.21255648022436E-02 
730	 2.00417615773986E-02 
731	 1.85510137817806E-02 
732	 1.84128967063074E-02 
733	 1.79776210567792E-02 
734	 1.71215544641171E-02 
735	 1.61322969439457E-02 
736	 1.57633609110958E-02 
737	 1.55802592449808E-02 
738	 1.54857752820789E-02 
739	 1.53790904282811E-02 
740	 1.48140678141315E-02 
741	 1.50558464707889E-02 
742	 1.55917551083469E-02 
743	 1.52267613937974E-02 
744	 1.49094877282451E-02 
745	 1.45151308225693E-02 
746	 1.42981696560924E-02 
747	 1.51222945138617E-02 
748	 1.53003672014916E-02 
749	 1.52903933369467E-02 
750	 1.55428117707774E-02 
751	 0.014468476141617 
752	 0.014268321221816 
753	 1.47682930647589E-02 
754	 1.46516262519341E-02 
755	 1.51909873036384E-02 
756	 1.52933608425615E-02 
757	 1.46794552814995E-02 
758	 0.014487401254681 
759	 1.38136833631298E-02 
760	 0.012670872164355 
761	 1.26600795132625E-02 
762	 1.37794721611236E-02 
763	 1.50115633924872E-02 
764	 1.54344314319242E-02 
765	 1.49793989676699E-02 
766	 1.49568192008304E-02 
767	 1.48006206042946E-02 
768	 0.014534993134093 
769	 1.47394892116591E-02 
770	 1.55240014730126E-02 
771	 0.015995310724661 
772	 0.015704231661723 
773	 1.59658132496391E-02 
774	 0.015553271465823 
775	 1.51787799166441E-02 
776	 1.59295159716739E-02 
777	 1.57075623072928E-02 
778	 1.60002035249975E-02 
779	 1.68979692043712E-02 
780	 1.69199497138406E-02 
781	 1.68914682366251E-02 
782	 0.016755855619715 
783	 1.65019587123473E-02 
784	 1.65641325728203E-02 
785	 1.67051976038458E-02 
786	 1.67757114873349E-02 
787	 1.68329630016116E-02 
788	 1.79461703704018E-02 
789	 1.82983211144671E-02 
790	 1.80422669368775E-02 
791	 0.018843284206138 
792	 1.88451062966115E-02 
793	 1.84995133551248E-02 
794	 0.018342699698469 
795	 1.86084979199776E-02 
796	 1.83508459241677E-02 
797	 0.018541274882875 
798	 0.019765425624793 
799	 1.93101335514453E-02 
800	 0.019717764266886 
801	 2.06406277311665E-02 
802	 2.03328415376089E-02 
803	 2.05706442701125E-02 
804	 2.06140801088742E-02 
805	 2.03937550027626E-02 
806	 2.06719665969841E-02 
807	 1.98160077862322E-02 
808	 1.90533285097928E-02 
809	 1.93945001650567E-02 
810	 0.019542270006174 
811	 1.89779690539116E-02 
812	 1.81059484057292E-02 
813	 1.78307040983225E-02 
814	 1.78593549182786E-02 
815	 1.73495037342966E-02 
816	 0.016006335632904 
817	 1.46220789468312E-02 
818	 1.72114835971943E-02 
819	 1.78961659520863E-02 
820	 1.56794010509598E-02 
821	 1.53437148714308E-02 
822	 1.47570009189608E-02 
823	 1.48863375422196E-02 
824	 1.57272009678591E-02 
825	 1.39740898459507E-02 
826	 1.19784358468823E-02 
827	 1.11104026744986E-02 
828	 1.19108813088324E-02 
829	 1.11246170815652E-02 
830	 1.06914189755278E-02 
831	 0.010735302155015 
832	 1.01097511137066E-02 
833	 1.01556547748938E-02 
834	 1.01032001853433E-02 
835	 9.73708585040342E-03 
836	 9.76875851845221E-03 
837	 9.68786770790577E-03 
838	 9.45577949535847E-03 
839	 9.25512526259964E-03 
840	 9.58096620209727E-03 
841	 9.90748697439545E-03 
842	 9.93105307704447E-03 
843	 9.59348558813045E-03 
844	 9.44962732783948E-03 
845	 9.48805887146159E-03 
846	 9.40658921128888E-03 
847	 8.89094959898909E-03 
848	 9.22976253489265E-03 
849	 9.69278651620374E-03 
850	 9.72583654287458E-03 
851	 9.3661707281176E-03 
852	 9.20911664811989E-03 
853	 9.44231110400133E-03 
854	 9.86592706272437E-03 
855	 9.7719367680453E-03 
856	 9.50360593094089E-03 
857	 9.45081766888798E-03 
858	 9.67316315563468E-03 
859	 9.07532402707378E-03 
860	 8.34611488443892E-03 
861	 8.20313164343839E-03 
862	 8.96326001737104E-03 
863	 8.74917915808609E-03 
864	 8.40097834723902E-03 
865	 8.3843090584974E-03 
866	 8.6739542454223E-03 
867	 9.90355762150075E-03 
868	 1.03434038888616E-02 
869	 9.45077791397315E-03 
870	 8.57131224210801E-03 
871	 8.56032368619331E-03 
872	 8.02896388914664E-03 
873	 6.75044848343316E-03 
874	 8.26796835513509E-03 
875	 9.74594285193023E-03 
876	 9.68549221935381E-03 
877	 7.97518812347292E-03 
878	 7.53901356837836E-03 
879	 7.51903843461908E-03 
880	 8.05768434271582E-03 
881	 9.21712434836403E-03 
882	 8.25980488205642E-03 
883	 6.78565371553572E-03 
884	 6.03494795171597E-03 
885	 6.64842075553423E-03 
886	 8.87473619527544E-03 
887	 9.18030964167551E-03 
888	 7.41357250630404E-03 
889	 7.53614482575415E-03 
890	 7.32231017026207E-03 
891	 7.07229819032923E-03 
892	 7.33366103309921E-03 
893	 8.28462154900501E-03 
894	 4.9367961871983E-03 
895	 2.61571420706838E-03 
896	 6.80642439247181E-03 
897	 8.11105408537387E-03 
898	 7.20984591151372E-03 
899	 5.28764104119164E-03 
900	 4.11239598743967E-03 
901	 4.9362796318654E-03 
902	 5.35741421252523E-03 
903	 5.67812041250429E-03 
904	 6.78206646030122E-03 
905	 7.03546894351435E-03 
906	 7.56116481250556E-03 
907	 6.94245810957583E-03 
908	 3.07939797933845E-03 
909	 5.39360526134092E-03 
910	 7.74563431516384E-03 
911	 5.54748251107068E-03 
912	-9.33753694548628E-04 
913	 1.04216654822072E-03 
914	 2.36933344474034E-03 
915	 1.47372431985884E-03 
916	 6.9604404190698E-03 
917	 4.54015620101216E-03 
918	 1.53471265885941E-03 
919	 2.88487785350286E-03 
920	 7.08112998736703E-03 
921	 3.49849248888219E-03 
922	-9.56491880044086E-04 
923	-6.89735959741193E-04 
924	-6.0156829150442E-04 
925	 4.43679391223387E-04 
926	 2.20888633996449E-03 
927	 4.37542685353087E-03 
928	 8.56652099810706E-03 
929	 4.32713444614094E-03 
930	 3.47177482220681E-03 
931	 2.47300331415851E-02 
932	-3.63189404803082E-02 
933	-4.08789805677056E-02 
934	 4.27566772081771E-02 
935	 7.00465066014158E-02 
936	-0.104634065769948 
937	-0.108196852310518 
938	-0.01361858815092 
939	 7.08455501786435E-03 
940	 5.64436126902925E-03 
941	-3.29318199350204E-02 
942	-5.23845843868044E-02 
943	 1.50629622172711E-02 
944	 2.19326401435353E-02 
945	-2.17628831798575E-02 
946	-5.63867377342682E-02 
947	-2.37492777604559E-02 
948	-4.72861406608459E-02 
949	-1.00942043784158E-02 
950	 4.76414708573259E-02 
951	 2.44351197019328E-02 
952	 8.59370789513323E-03 
953	-2.42587770654524E-02 
954	-4.85988322094297E-02 
955	-2.07024711119901E-02 
956	-1.45703641250055E-02 
957	-2.31328234392691E-02 
958	-2.77606520119384E-02 
959	-1.28709461012515E-02 
960	-1.40243994972841E-02 
961	-2.62845598489503E-02 
962	-3.26120502340756E-02 
963	-1.64402317693621E-02 
964	 1.38885467413314E-02 
965	 2.17069020520655E-02 
966	 6.63687482136365E-03 
967	-8.05326345447926E-03 
968	-2.28518048638557E-03 
969	 3.98101706393949E-03 
970	 4.64744349678743E-03 
971	 6.42246983134169E-03 
972	-2.92140023361839E-04 
973	-3.16114881638231E-03 
974	 6.76903406139397E-04 
975	 2.11651275604779E-03 
976	-1.1708777862223E-03 
977	-6.80716575827424E-03 
978	-8.96704238916424E-03 
979	-2.81131042992777E-03 
980	 8.57237568003788E-04 
981	-2.78959218787143E-03 
982	-9.58989556977957E-03 
983	-1.04398274069815E-02 
984	-6.90079518673346E-03 
985	 1.5307851152098E-03 
986	 5.94211654116478E-03 
987	-3.76400480954075E-03 
988	-4.54772587652753E-03 
989	 3.72851446189562E-03 
990	 1.20103317149713E-02 
991	 9.31289638232726E-03 
992	 4.86463603178386E-04 
993	-4.31002999899226E-03 
994	 5.99346641818168E-04 
995	 1.23002050278108E-02 
996	 9.85628292933273E-03 
997	 1.25591780376139E-03 
998	-6.47315987054543E-03 
999	-8.15163324094346E-03 
1000	 3.45207985348815E-03 
1001	 1.48153229974457E-02 
1002	 1.40476569531229E-02 
1003	 1.34974466217999E-02 
1004	 1.06810672534508E-02 
1005	 8.75831610838421E-03 
1006	 7.26867970950087E-03 
1007	 5.00138164642736E-03 
1008	 2.67960521916087E-03 
1009	 4.80198517342784E-03 
1010	 2.96162569624195E-03 
1011	 1.42440939505399E-03 
1012	 2.11308699322451E-03 
1013	 9.1823454374734E-04 
1014	 9.59215982181562E-04 
1015	 4.49683576230232E-03 
1016	 3.99813957516064E-03 
1017	-1.06657364512227E-03 
1018	-1.10266728490502E-03 
1019	 1.30533842600359E-03 
1020	 5.9157532046726E-04 
1021	 1.16803958288263E-03 
1022	 7.64929187194406E-04 
1023	-1.88454959503109E-03 
1024	-1.56299704468419E-03 
1025	-1.30401132727029E-03 
1026	 1.79981783225589E-03 
1027	 2.56011363940333E-03 
1028	 7.64423303235792E-04 
1029	 1.13250632842687E-03 
1030	 3.43598532369397E-03 
1031	 3.34678973479389E-03 
1032	 3.47254894220602E-03 
1033	 1.63445274646469E-03 
1034	-4.72412519188499E-03 
1035	-6.09103270212851E-03 
1036	-5.76170363386193E-03 
1037	-5.62835734616461E-03 
1038	-2.34238990652082E-03 
1039	-2.03796671597289E-04 
1040	-1.97536666668901E-03 
1041	-5.69219072185815E-04 
1042	 1.54153905195305E-03 
1043	 5.86446345839781E-03 
1044	 6.57777307097755E-03 
1045	 7.34059921871532E-03 
1046	 6.49751895657513E-03 
1047	 1.91767869097362E-03 
1048	 1.57208393007844E-04 
1049	-2.02901287237038E-03 
1050	-1.25628689283217E-03 
1051	 4.07162449591918E-03 
1052	 4.5832982732875E-03 
1053	 4.73116643539327E-03 
1054	 4.49812873586804E-03 
1055	-1.85962558548472E-03 
1056	-3.62066479023033E-03 
1057	-3.27757427631057E-03 
1058	 1.07439100886781E-03 
1059	 1.59170061206647E-03 
1060	 2.81327897904223E-03 
1061	 3.18477346148009E-03 
1062	 7.14974314928868E-04 
1063	 8.53494434064121E-04 
1064	 3.36085817309169E-03 
1065	 3.92843723066106E-03 
1066	 4.44481405095471E-03 
1067	 4.22561037459131E-03 
1068	 2.37004114375743E-03 
1069	 1.59035645359111E-03 
1070	-1.16912175315015E-03 
1071	-4.1634226381564E-04 
1072	 5.29989146467066E-03 
1073	 7.6823625686793E-03 
1074	 8.60383303352624E-03 
1075	 1.02965207884298E-02 
1076	 1.04311564221307E-02 
1077	 5.77735085823788E-03 
1078	 5.53753106967772E-03 
1079	 9.37335367421014E-03 
1080	 9.2808867670041E-03 
1081	 7.26755307823943E-03 
1082	 6.47858608549413E-03 
1083	 4.4714885447529E-03 
1084	 3.0954618609459E-03 
1085	 4.50827038716856E-03 
1086	 3.34301372691647E-03 
1087	-2.69597984329429E-03 
1088	-4.56204225225343E-03 
1089	-6.88051932608366E-03 
1090	-5.5247538632998E-03 
1091	-2.40429185498944E-03 
1092	 8.31535409000576E-03 
1093	 1.06569292566227E-02 
1094	 9.28090271489959E-03 
1095	 1.12892332470903E-02 
1096	 1.22085756595192E-02 
1097	 1.07241446260032E-02 
1098	 1.33267093160454E-02 
1099	 9.72401987108283E-03 
1100	-9.99474345507831E-03 
1101	-1.39996599790069E-02 
1102	-9.20897932440407E-03 
1103	-7.45314325787919E-03 
1104	 6.8385488114639E-03 
1105	 1.66600031020869E-02 
1106	 3.70110522103453E-03 
1107	-6.96908724792841E-03 
1108	-7.78939992893068E-03 
1109	-6.68941677765809E-03 
1110	-1.19703681634058E-02 
1111	-7.58396152566868E-03 
1112	-6.09114713997604E-03 
1113	-2.69949993862395E-02 
1114	-3.41098103967312E-02 
1115	-6.02999875267949E-03 
1116	-7.18710425877574E-03 
1117	-5.01895618574472E-02 
1118	-6.78643561807957E-02 
1119	-8.19781104265065E-02 
1120	-9.69717950467196E-02 
1121	-5.72041981971944E-02 
1122	-2.97504451470309E-02 
1123	-9.69831604913433E-02 
1124	-0.212225079364106 
1125	-0.291323091929785 
1126	-0.214423562370695 
1127	-0.141035950511266 
1128	-0.188708595823191 
1129	-0.148435386787027 
1130	-0.127182417716156 
1131	-0.112797940605923 
1132	-0.013367275584291 
1133	 1.27203959109888E-02 
1134	-3.74616669934956E-03 
1135	-4.82843567480531E-02 
1136	-0.209258366220715 
1137	-0.203814937998409 
1138	-0.134334291228918 
1139	-0.114346698010901 
1140	-0.119521619978195 
1141	-6.80426506068335E-02 
1142	-7.33602231822564E-02 
1143	-0.126208972342319 
1144	-8.01195686521578E-02 
1145	-0.058988118743018 
1146	-0.142884850194027 
1147	-0.143735544058737 
1148	-0.106610815111784 
1149	-0.147187588292096 
1150	-0.12682449136617 
1151	-3.92941165731598E-02 
1152	-3.30148873486081E-02 
1153	-0.063703445383257 
1154	-4.06008279473899E-02 
1155	-3.61808077242959E-03 
1156	-2.11186264964845E-02 
1157	-1.99149084034532E-02 
1158	-7.6366372693174E-03 
1159	-1.42346873682153E-02 
1160	-1.05087085324195E-02 
1161	 4.25197976917555E-04 
1162	 8.89526071752092E-04 
1163	 3.80213196942445E-03 
1164	 7.10035626713993E-03 
1165	 5.15785015289918E-03 
1166	 3.40626610554631E-03 
1167	 2.3425234625324E-03 
1168	 3.67940448999869E-03 
1169	 7.45595087582679E-03 
1170	 7.02721036198778E-03 
1171	 6.64020291869524E-03 
1172	 4.1129658210215E-03 
1173	 2.38009872560123E-03 
1174	-2.16748281861449E-03 
1175	 3.28300491483377E-03 
1176	 5.72809533167186E-03 
1177	-4.24830451432442E-04 
1178	-1.12340564572194E-03 
1179	-6.16555438328828E-04 
1180	 7.35403021819271E-04 
1181	 3.16062890965964E-03 
1182	 3.0118638109645E-03 
1183	 7.87133812598638E-04 
1184	-3.77749013466612E-03 
1185	-2.27257409069467E-03 
1186	 2.29255706289905E-03 
1187	 2.69945976243151E-03 
1188	 2.96507469248981E-03 
1189	 1.04412534578931E-03 
1190	 6.9420387931956E-04 
1191	 4.55753280560218E-03 
1192	 5.11571887760849E-03 
1193	 4.76765870657099E-03 
1194	 3.92758594719267E-03 
1195	 4.55863459395307E-03 
1196	 2.26661497572132E-03 
1197	 3.68456300822472E-04 
1198	 4.70685372045791E-03 
1199	 8.30136311457182E-03 
1200	 6.34807454737037E-03 
1201	 4.2892691615929E-03 
1202	 5.64550032151001E-03 
1203	 4.70809578799818E-03 
1204	 1.0390913587873E-03 
1205	 2.99227251884232E-03 
1206	 5.44098464271823E-03 
1207	 3.20868817461171E-03 
1208	 3.79378434237261E-03 
1209	 4.88311887107489E-03 
1210	 1.93788008355694E-03 
1211	 1.67073081350727E-04 
1212	 3.30888284712724E-03 
1213	 6.42327282226262E-03 
1214	 5.7789220757385E-03 
1215	 2.58263264425214E-03 
1216	 1.1748249982361E-03 
1217	 1.38607901251668E-03 
1218	 5.71168602717835E-04 
1219	 2.11499861775652E-03 
1220	 1.2506054361223E-03 
1221	-1.95555867814334E-03 
1222	-3.35900498290829E-03 
1223	-3.60717006286186E-03 
1224	-2.05849737701281E-03 
1225	-6.3115591323895E-04 
1226	 4.08329578554145E-04 
1227	 1.14497350288206E-03 
1228	 2.77160110687594E-03 
1229	 3.3087401294949E-03 
1230	 1.87594778925824E-03 
1231	 1.56907722997747E-03 
1232	 3.15097113369786E-04 
1233	 1.84161634501072E-04 
1234	 2.73826104234308E-03 
1235	 3.62507783568035E-03 
1236	 4.72953604999623E-03 
1237	 4.81953642921246E-03 
1238	 0.004792359828195 
1239	 1.74406506407205E-03 
1240	-1.64017690598537E-03 
1241	-1.29243338805607E-03 
1242	 1.91805494416733E-03 
1243	 4.25473656794583E-03 
1244	 5.87276357586482E-03 
1245	 8.59372416190742E-03 
1246	 8.68555832828575E-03 
1247	 5.01524834644283E-03 
1248	 2.73681738771164E-03 
1249	 2.68090318308353E-03 
1250	 1.88275719341338E-04 
1251	-1.2901108840724E-03 
1252	 9.15347270324049E-04 
1253	 1.02355121975304E-03 
1254	-3.55470533367439E-04 
1255	-3.20717412348249E-04 
1256	 6.02243508927777E-04 
1257	 2.0864232889387E-03 
1258	 2.90526396363608E-03 
1259	 5.17823735513318E-03 
1260	 6.07914982318673E-03 
1261	 5.43815154624759E-03 
1262	 4.94676502815218E-03 
1263	 3.8926492594512E-03 
1264	 3.55294467259212E-03 
1265	 3.83662410998674E-03 
1266	 2.20649442347576E-03 
1267	 1.54811260249423E-03 
1268	 2.82662320192794E-03 
1269	 2.09729731510265E-03 
1270	 3.16058200316612E-03 
1271	 4.20222688458048E-03 
1272	 2.01134928855355E-03 
1273	 1.71555611727383E-03 
1274	 3.49504303574399E-03 
1275	 4.31294097009275E-03 
1276	 3.04381105612282E-03 
1277	 3.90494397841713E-03 
1278	 5.69606839296202E-03 
1279	 4.95699536038848E-03 
1280	 4.05650732705355E-03 
1281	 3.48311731694797E-03 
1282	 1.58916256363199E-03 
1283	 8.49051441078821E-04 
1284	 1.13789011313335E-03 
1285	 6.5276164297752E-04 
1286	-1.41504696763657E-04 
1287	-1.02784142531791E-03 
1288	-2.23763269753266E-03 
1289	-2.48028447507858E-03 
1290	-9.82897256974299E-04 
1291	-2.5971926946627E-03 
1292	-0.002894960928651 
1293	-9.79665675372008E-04 
1294	-5.24685327587801E-04 
1295	-7.7711635551856E-04 
1296	-2.11456251226728E-03 
1297	-3.4888651370224E-03 
1298	-1.38292423783972E-03 
1299	 2.74559621354188E-03 
1300	 3.73330821513227E-03 
1301	 2.51113302976207E-03 
1302	 3.12658507663614E-03 
1303	 2.42399712523479E-03 
1304	 7.16445481916955E-04 
1305	-4.64452303667847E-04 
1306	-1.32064972055022E-03 
1307	-4.90797781249609E-03 
1308	-5.2030842772595E-03 
1309	-2.09967872339987E-03 
1310	-2.17632867966729E-03 
1311	-1.9739326461711E-03 
1312	-3.49273330113779E-03 
1313	-7.02593569200405E-03 
1314	-6.2688796905019E-03 
1315	-6.98011203086729E-03 
1316	-7.08014237645452E-03 
1317	-2.54598205458138E-03 
1318	-2.18638349286428E-03 
1319	-3.23813108534382E-03 
1320	-2.43042147232193E-03 
1321	-4.99216828165067E-03 
1322	-3.92738982743342E-04 
1323	 3.22763997420233E-04 
1324	-5.9842481850996E-03 
1325	-9.27379109097537E-03 
1326	-1.74134724182649E-02 
1327	-1.96776157686271E-02 
1328	-2.42906509643136E-02 
1329	-3.10014705855161E-02 
1330	-1.84590625053957E-02 
1331	-1.36560907346047E-02 
1332	-0.01953530622288 
1333	-2.09582772025825E-02 
1334	-3.11316363707239E-02 
1335	-3.97963848170521E-02 
1336	-0.066456398875496 
1337	-0.051058617836464 
1338	 2.84860950504434E-02 
1339	 2.08382393808486E-02 
1340	-0.037992992928552 
1341	-3.30114052935796E-02 
1342	-6.10545509652397E-02 
1343	-0.110851559476803 
1344	-0.059476876094397 
1345	-4.71003821246066E-02 
1346	-0.206890641766548 
1347	-0.29620849492548 
1348	-0.27353050031958 
1349	-0.282348387241423 
1350	-0.284954769638532 
1351	-0.312580778549537 
1352	-0.360133165062879 
1353	-0.438638645387441 
1354	-0.780420929609125 
1355	-0.594102919763907 
1356	-0.645422905375479 
1357	-0.542383525925569 
1358	-0.277061169432287 
1359	-0.256259427997425 
1360	-0.476004959491589 
1361	-0.650854463488944 
1362	-0.933967852521946 
1363	-1.27309278483208 
1364	-1.41147934357314 
1365	-1.58247903127532 
1366	-0.290299380578756 
1367	-0.269520882595294 
1368	-0.373621843103714 
1369	-0.373693483505784 
1370	-0.101370451179793 
1371	-1.47918329881288 
1372	-1.76594548791479 
1373	-0.69060863677465 
1374	-3.39833210799703E-02 
1375	 0.921086160744733 
1376	 0.54814878493743 
1377	-4.58578241882517 
1378	 2.24778540263347 
1379	 2.14150213790378 
1380	 3.72102774360387 
1381	 53.5932496396064 
1382	-5.44461624826164 
1383	-4.45561822536219 
1384	-5.70571291670036 
1385	 10.1348610331567 
1386	 14.8527474483784 
1387	-3.75885773801484 
1388	-5.86628319844112 
1389	 12.4131812776402 
1390	 23.2140355422343 
1391	 26.339261286487 
1392	-4.98102181462503 
1393	 8.67706318053734E-02 
1394	 1.17391506543174 
1395	 0.427764434497824 
1396	-0.611592804348906 
1397	-0.894708353092394 
1398	-28.7007490278361 
1399	-7.1212702465926 
1400	 6.6660668393968 
1401	 9.07130599021381 
1402	-3.73456836536383 
1403	-2.77644619810645 
1404	-1.67704920344928 
1405	-2.48304025129635 
1406	 151.701058500435 
1407	 20.3725830819248 
1408	 8.68376154520829 
1409	 10.5321931163411 
1410	-9.5178159341602 
1411	-18.0635241724935 
1412	 4.53944465845707 
1413	 5.86869019484736 
1414	-3.69261332663674 
1415	-4.55158246037729 
1416	-1.64965675961139 
1417	-1.29941144956486 
1418	 5.11655343590072 
1419	 2.14564945199172 
1420	 0.563204900977667 
1421	 0.650621166582359 
1422	 11.1174928864869 
1423	-8.09723161076355 
1424	-1.56048979218532 
1425	-1.18125696208979 
1426	-2.70256043156863 
1427	-1.6748272001144 
1428	-0.17357884032988 
1429	-0.127555395422502 
1430	-0.691713496925164 
1431	-0.863999778086418 
1432	-1.47013364731068 
1433	-1.96808524601503 
1434	-1.08367642026847 
1435	-0.84837587453891 
1436	-0.661317343584806 
1437	-0.677210274056658 
1438	-1.2163049441734 
1439	-1.03376335829947 
1440	-1.49772579671203 
1441	-10.0502353632168 
1442	-4.70487530546691 
1443	-1.13767535763104 
1444	-0.248586157289918 
1445	-0.342884176541015 
1446	-1.49431304064986 
1447	-2.36606871952774 
1448	-3.67592029569463 
1449	-3.70526712841508 
1450	-1.27911281443208 
1451	-0.559629398811498 
1452	-0.587151540074944 
1453	-0.67023303131827 
1454	-0.606615479371947 
1455	-0.694294823517171 
1456	-0.634213114538601 
1457	-0.512159231159762 
1458	-0.394424861110964 
1459	-0.151423160611311 
1460	-0.133040798069783 
1461	-0.166134532862699 
1462	-0.153763349662946 
1463	-0.304644134323217 
1464	-0.289908377644376 
1465	-7.43248414512567E-02 
1466	-3.98720472163298E-02 
1467	-0.138374181030893 
1468	-0.103462919520417 
1469	-0.035785357778634 
1470	-2.95501117172536E-02 
1471	 8.59551544521539E-02 
1472	 0.068141321707739 
1473	-0.193726695399878 
1474	-0.258350475743735 
1475	-0.177426513176671 
1476	-0.163583312378897 
1477	-0.079138622584409 
1478	-9.42660409884338E-02 
1479	-0.208980294306178 
1480	-0.186626304933783 
1481	-0.147814939967095 
1482	-0.123168600989338 
1483	-7.49149414098466E-03 
1484	 6.81488255739377E-03 
1485	-5.73542900250779E-02 
1486	-0.047152933209858 
1487	-9.44221326945157E-03 
1488	-2.25508572654857E-02 
1489	-6.25826640103713E-02 
1490	-0.048856748587241 
1491	-2.32955614479291E-02 
1492	-1.88995108758745E-02 
1493	 8.61620181085515E-03 
1494	 2.48709293582175E-02 
1495	 2.25577798854361E-02 
1496	 1.00429706102432E-02 
1497	-6.38371682829652E-03 
1498	-1.15245489195589E-02 
1499	-3.02906803439832E-02 
1500	-3.20894543355608E-02 
1501	-8.95402427071834E-03 
1502	-2.22998885418096E-03 
1503	-3.00350254335104E-03 
1504	-6.17197500562048E-04 
1505	 1.44545331555688E-03 
1506	 7.07178438300342E-04 
1507	-4.34147111841972E-03 
1508	-5.71735078352483E-03 
1509	 3.21002169505105E-03 
1510	 8.24512916320562E-03 
1511	 1.30448239309182E-02 
1512	 1.49141324442829E-02 
1513	 1.12270657862418E-03 
1514	-1.07987090763738E-02 
1515	-7.86173936506861E-03 
1516	 1.16939082183793E-03 
1517	 6.26369097740456E-04 
1518	-2.58144413846778E-03 
1519	-4.25729758168401E-03 
1520	-8.14819663168862E-03 
1521	-2.41231334050317E-03 
1522	 2.38680662106543E-03 
1523	 6.3466124816368E-05 
1524	-2.48812254705816E-04 
1525	 6.20429642306796E-04 
1526	 4.54386403650114E-03 
1527	 5.44315822181847E-03 
1528	 4.39259175796225E-03 
1529	 7.4819795614565E-03 
1530	 5.96232436400044E-03 
1531	 1.05424178018517E-03 
1532	-4.14719650135691E-04 
1533	-1.10729749087906E-04 
1534	 3.18989780870751E-03 
1535	 9.24663924762364E-03 
1536	 1.02236304382411E-02 
1537	 0.004784799599462 
1538	 2.22785178699358E-03 
1539	 4.88805466435093E-03 
1540	 3.9164046942856E-03 
1541	 2.12617599560921E-04 
1542	 1.41448809439059E-03 
1543	 2.68705949322211E-03 
1544	 2.42562025597785E-03 
1545	 3.45791391814992E-03 
1546	 3.74103378993977E-04 
1547	-3.31207150866717E-03 
1548	-2.48548825363731E-03 
1549	-3.32439388090102E-03 
1550	-3.68507474854394E-03 
1551	-1.47656392904865E-03 
1552	-3.12973041209689E-03 
1553	-3.9321554319646E-03 
1554	-4.99373789129905E-04 
1555	-3.70974477995909E-03 
1556	-1.12164622688677E-02 
1557	-8.09748943837112E-03 
1558	-3.18555094132302E-03 
1559	-6.45845776154912E-03 
1560	-6.0337690713304E-03 
1561	-1.03578265988688E-04 
1562	-1.08792257579924E-03 
1563	-6.72169424445698E-03 
1564	-4.53485586125429E-03 
1565	-2.3092538548078E-03 
1566	-5.98986601162012E-03 
1567	-5.08862469459913E-03 
1568	-3.27175019395467E-03 
1569	-7.24662546059976E-03 
1570	-1.00985808578509E-02 
1571	-5.00267740423943E-03 
1572	-3.45578494742685E-04 
1573	-2.81515434032758E-03 
1574	-4.7581315620098E-03 
1575	-4.83794209381234E-03 
1576	-6.04607914664307E-03 
1577	-7.37095017872822E-03 
1578	-7.82783517674966E-03 
1579	-8.89707647906955E-03 
1580	-8.44527262449589E-03 
1581	-5.1457574649031E-03 
1582	-2.65842190053841E-03 
1583	 6.13709944406731E-04 
1584	 2.47176204426558E-03 
1585	 3.17429327994615E-03 
1586	 4.27581053809257E-03 
1587	-9.91521769356483E-04 
1588	-4.11992498048332E-03 
1589	-3.09816558691276E-04 
1590	 1.89141952248774E-03 
1591	 2.10655721780316E-03 
1592	 6.68612351892797E-04 
1593	-2.98556320980501E-03 
1594	-3.6384317290379E-03 
1595	 5.28428990690708E-04 
1596	 7.06386656876278E-04 
1597	-8.88721659476627E-04 
1598	-1.22751793563897E-03 
1599	-3.46725801100038E-03 
1600	-6.55216222559588E-03 
1601	-9.46955259057442E-03 
1602	-7.01806958082957E-03 
1603	-1.50961598604666E-03 
1604	 1.07395816072458E-03 
1605	 1.64565012113198E-03 
1606	 1.49451100809245E-03 
1607	-2.32649816658261E-03 
1608	-4.18181624656609E-03 
1609	-1.2627597739376E-03 
1610	-5.56203833832116E-03 
1611	-8.73842225071404E-03 
1612	-5.42279503676877E-03 
1613	-2.69614966977898E-03 
1614	-1.0347208471876E-04 
1615	-3.86823396763893E-03 
1616	-7.37937235097427E-03 
1617	-5.96496997748661E-03 
1618	-5.12946931532242E-03 
1619	-2.19296887497799E-03 
1620	-1.80778650924547E-05 
1621	 1.26373926996664E-03 
1622	 1.33232769379652E-03 
1623	-1.82075517289881E-03 
1624	-2.81734150351782E-03 
1625	-5.63674086732874E-03 
1626	-1.05451180129231E-02 
1627	-8.98669225296412E-03 
1628	-5.40445813319435E-03 
1629	-3.8295508416364E-03 
1630	-1.23326476816572E-03 
1631	 9.27883646336702E-04 
1632	-1.43696674297588E-03 
1633	-1.38550800048861E-03 
1634	 9.21582673847899E-04 
1635	-3.10938629785678E-03 
1636	-4.90536156962306E-03 
1637	-2.99918701884385E-03 
1638	-4.17887966239672E-03 
1639	-4.95805475489793E-03 
1640	-2.62172287521612E-03 
1641	-1.53378312622609E-03 
1642	-2.73002960478672E-03 
1643	-3.31351538346461E-03 
1644	-4.08754159082855E-03 
1645	-2.5084564116563E-03 
1646	 1.59052916263058E-03 
1647	 1.72976187010124E-03 
1648	 3.09469987899544E-03 
1649	 8.59153843777038E-03 
1650	 6.63736921400182E-03 
1651	 2.16259477597041E-03 
1652	 6.19228764376595E-03 
1653	 1.61743533944144E-03 
1654	-3.07020492898549E-03 
1655	-5.64389848526089E-04 
1656	 1.51309288321763E-03 
1657	-7.52814951637711E-05 
1658	-2.52061320518753E-03 
1659	-2.10922745795751E-03 
1660	-3.26257731696467E-03 
1661	-1.13789682607081E-02 
1662	-1.33111707328163E-02 
1663	-7.24677271434164E-03 
1664	-5.24436908410131E-03 
1665	-7.33415598696323E-03 
1666	-6.46707429433189E-03 
1667	-1.29462910412541E-03 
1668	-1.82646252062693E-03 
1669	-6.19031588833697E-03 
1670	-4.5856275592724E-03 
1671	-5.74401008667885E-03 
1672	-1.23099079624257E-02 
1673	-7.91494796804801E-03 
1674	-3.14328778321085E-03 
1675	-4.96331293880357E-03 
1676	-4.09810600279147E-03 
1677	-1.30578475954943E-04 
1678	-2.49258173185535E-03 
1679	-1.17965124264703E-02 
1680	-9.96293871319681E-03 
1681	-3.0881753682602E-03 
1682	-3.49770989981259E-03 
1683	 1.88887457611383E-03 
1684	 5.83229473187118E-03 
1685	 5.95862728723459E-04 
1686	 1.57968186473244E-03 
1687	 5.13745928164171E-03 
1688	 1.46613922506124E-03 
1689	-6.45669202511128E-03 
1690	-1.00837416339867E-02 
1691	-7.05067727833197E-03 
1692	-5.28121059961303E-03 
1693	-7.00129611388087E-03 
1694	-1.06181960405392E-02 
1695	-1.38866382238462E-02 
1696	-1.76240752037984E-02 
1697	-1.53011194824812E-02 
1698	-4.87143698247285E-03 
1699	-3.28260735652579E-03 
1700	-4.79666676593986E-03 
1701	 1.06147924854507E-03 
1702	-3.60197325812559E-04 
1703	-5.51793945586736E-03 
1704	-2.46195087520298E-03 
1705	-3.23519352499332E-03 
1706	-1.27032591700858E-02 
1707	-2.08473020653597E-02 
1708	-2.32092127305032E-02 
1709	-1.37693086761802E-02 
1710	 6.21364734744791E-04 
1711	 6.17004406723176E-03 
1712	 7.84722230813008E-03 
1713	-2.48487050442701E-03 
1714	-6.98517496937375E-03 
1715	 5.55798205753488E-03 
1716	 8.66654125050951E-04 
1717	-1.11764711549994E-02 
1718	-7.04922910069269E-03 
1719	-1.04900573554449E-02 
1720	-8.02058982800292E-03 
1721	 1.17516674856561E-02 
1722	 1.07112901614565E-02 
1723	-5.47569401136938E-04 
1724	 1.12849703940674E-03 
1725	-3.00329975968421E-03 
1726	-1.06205216697424E-03 
1727	 1.73151943241124E-02 
1728	 1.54417555037799E-02 
1729	 5.52390534425809E-03 
1730	 9.88218001951557E-03 
1731	-2.91238048581683E-03 
1732	-1.71331348983413E-02 
1733	-7.92565995058956E-03 
1734	 1.03314748657098E-03 
1735	 3.58464605424894E-03 
1736	 4.08065315255872E-03 
1737	 6.66488025940536E-04 
1738	-8.76164014953512E-03 
1739	-1.34141271698895E-02 
1740	-8.64346340255771E-03 
1741	-4.42919970287168E-03 
1742	 1.00870245906376E-03 
1743	 1.52991825568069E-03 
1744	 6.03585626736502E-03 
1745	 1.11761010773894E-02 
1746	 7.47941753079012E-04 
1747	-4.45451626675938E-04 
1748	 0.016380105507157 
1749	 9.4987149591923E-03 
1750	-2.05654121319668E-02 
1751	-0.020906782608644 
1752	-1.37194523007241E-02 
1753	-1.20470322968003E-02 
1754	 4.56245000252615E-03 
1755	 9.87470181847465E-03 
1756	 6.95790237944579E-04 
1757	-6.92917324732906E-04 
1758	 3.43478923502357E-03 
1759	-6.13952948475361E-03 
1760	-1.78071693788555E-02 
1761	-2.04367873372855E-02 
1762	-2.01812899227417E-02 
1763	-1.63376842017785E-02 
1764	-2.42099433016377E-02 
1765	-2.23182654172118E-02 
1766	-9.50289642242871E-03 
1767	 3.30325866855929E-03 
1768	 2.96056965262292E-02 
1769	 0.015105860981905 
1770	-1.43288255624531E-02 
1771	-2.38361067063024E-02 
1772	-4.13946150754011E-02 
1773	-4.11768284847946E-02 
1774	-3.56898206130678E-02 
1775	-2.90103568829302E-02 
1776	-4.52670170282509E-02 
1777	-8.63785096167615E-02 
1778	-8.72421998276753E-02 
1779	-9.54212455537241E-02 
1780	-0.102001486766895 
1781	-4.07311853420669E-02 
1782	-2.33355362180718E-02 
1783	-0.070676180473483 
1784	-6.20094704622712E-02 
1785	-2.94663325103895E-02 
1786	-6.7350396646833E-03 
1787	 9.16053194158749E-02 
1788	 9.89024386608743E-02 
1789	-2.17672844140659E-02 
1790	 1.53485678315713E-02 
1791	-0.117368488909241 
1792	-0.188019996696186 
1793	 3.88839521869193E-02 
1794	 7.00672096707781E-02 
1795	-3.38720660305134E-03 
1796	-3.02407543249556E-02 
1797	-1.27710289045285 
1798	-1.17825725864908 
1799	-0.427404091560577 
1800	 4.82921091176907E-02 
1801	 0.260512348807874 
1802	 0.55977007569647 
1803	 0.603818396597895 
1804	 0.258683973233546 
1805	-2.39276781658363E-02 
1806	-1.15073874733228 
1807	-1.82179651198543 
1808	-4.14411234413034 
1809	 54.8831426626155 
1810	-1.03709054260865 
1811	-2.4581866182171 
1812	-2.06530389645067 
1813	-1.06092768811634 
1814	-0.547030926555612 
1815	-0.61593158210893 
1816	-0.611010668795714 
1817	-6.43295891580526 
1818	 0.352604135599074 
1819	-1.06572939894531 
1820	 10.2588294780698 
1821	 0.258895793205038 
1822	 0.112628224628961 
1823	-0.364392684063703 
1824	-0.568125221519645 
1825	 0.579143259401421 
1826	 7.54601187176691E-02 
1827	 25.0844944647137 
1828	 6.49741027268284 
1829	 1.23475038711941 
1830	 0.719278734171149 
1831	 0.391141946209501 
1832	 0.278266076775661 
1833	 0.117124149671247 
1834	 0.159157240436199 
1835	 0.204793787427038 
1836	 8.09360462220917E-02 
1837	-0.340088304478931 
1838	-0.249619283469798 
1839	 1.70910599614809E-02 
1840	-0.123730400057628 
1841	-0.440700811871046 
1842	-0.224978686959687 
1843	-0.243423311808871 
1844	-2.13901589698111 
1845	-3.1551973618866 
1846	 5.21198643247776E-02 
1847	 0.719483005143953 
1848	 0.742208211232654 
1849	 0.808143562487516 
1850	 1.20427585714981 
1851	 2.75058144257391 
1852	 11.3629493581529 
1853	-12.7164474148445 
1854	-2.87269369470479 
1855	-2.49725077076825 
1856	 0.089003495382375 
1857	 1.06647165579226 
1858	 0.737110925902113 
1859	-0.280523361143441 
1860	-0.580864979000633 
1861	 3.92570694262109 
1862	 1.82719077024109 
1863	 1.303331511756 
1864	 0.472909887975277 
1865	 0.285164684476216 
1866	 0.268981540740946 
1867	 0.106669762677403 
1868	-0.139791410678337 
1869	-1.73456226894827E-02 
1870	 0.197748553016502 
1871	 2.24893878857609 
1872	 8.71414723396512 
1873	-9.497773875424 
1874	-16.3702926901345 
1875	-5.72563547104362 
1876	-3.66006860555396 
1877	-1.82594608376878 
1878	-1.41704135898585 
1879	-0.959646137121381 
1880	-1.00742932214322 
1881	-1.96111144873038 
1882	 20.5529910020688 
1883	 3.28603530849594 
1884	 2.62376237394579 
1885	 2.96852872937901 
1886	-4.35557198036254 
1887	-3.54783958458501 
1888	 17.5082893592093 
1889	 35.6310551664404 
1890	-9.69336286031053 
1891	-9.44344386674624 
1892	 64.9234429779171 
1893	-4.71701199454077E-03 
1894	-0.118339277783483 
1895	 0.419656100332099 
1896	 1.17666929672825 
1897	 1.58088009616343 
1898	 0.118595485069137 
1899	 0.576242126433459 
1900	 0.798911533164494 
1901	 1.51201807634693 
1902	 1.42578359083485 
1903	 1.06533837786088 
1904	 0.706975375431457 
1905	-0.494597884154654 
1906	-1.27298544638438 
1907	 5.84320340889103 
1908	 4.70208990187105 
1909	 3.40563546306611 
1910	 1.0682246599716 
1911	 1.71714060749885 
1912	-2.05377531819423 
1913	-0.167133310944439 
1914	 0.824984536381884 
1915	 1.08988601284647 
1916	 1.10707430392485 
1917	 3.64686941155098 
1918	 4.52738521073206 
1919	 1.50277639576409 
1920	 2.03142215662104 
1921	 0.644582165825893 
1922	 0.106669952137158 
1923	 0.647581693880399 
1924	 0.315280299760391 
1925	 0.532041042747676 
1926	 0.435129791853891 
1927	-0.217205022090885 
1928	-3453.83114762188 
1929	-4.89093515690105 
1930	-3.15718320417626 
1931	 2.56337633119464 
1932	-8.44540670917894E-02 
1933	-2.49268008182657E-02 
1934	-0.571755692672557 
1935	-0.328993057642754 
1936	 0.168814747034234 
1937	-0.296560309955928 
1938	-0.331337911826676 
1939	-1.56774846581404 
1940	-0.18317511620936 
1941	 0.145544225103703 
1942	 6.07219873849079E-02 
1943	 0.142024024315533 
1944	 0.300888554006897 
1945	 0.236139884967989 
1946	 0.207453815948807 
1947	 1.60847288469527E-02 
1948	-7.37698953068572E-02 
1949	-5.08021224445535E-02 
1950	-0.222190464469272 
1951	 0.454248966347288 
1952	-7.07141700779739E-02 
1953	-0.108393834454262 
1954	 5.66449066336185E-03 
1955	-6.72791347796087E-02 
1956	 1.49944605335209 
1957	-9.42603308746404E-02 
1958	-0.307107126255147 
1959	-0.158438042153803 
1960	-1.59065358891228E-02 
1961	-3.24518897118215E-02 
1962	 0.369130840795755 
1963	 3.57529415627111 
1964	 2.13108977563805 
1965	 0.786281016320451 
1966	 0.799207836376224 
1967	 1.02311826923153 
1968	 0.848983132724171 
1969	 0.886982237439153 
1970	 0.872781471772128 
1971	 0.514901854865208 
1972	 0.329186013778893 
1973	 0.195498562340583 
1974	 0.222779216217791 
1975	 0.201666152046171 
1976	-3.09305433373251E-02 
1977	-5.89554126232281E-02 
1978	 4.48260264338878E-02 
1979	 0.131333056127706 
1980	 0.374835811784841 
1981	 0.456612602517339 
1982	 0.394928843471421 
1983	 0.318189671914387 
1984	 0.259798384085878 
1985	 0.261395579923398 
1986	 0.29652144989126 
1987	 0.311167260720692 
1988	 0.24666918571912 
1989	 0.230397062545495 
1990	 0.305200956062022 
1991	 0.261739082278923 
1992	 0.168923395443929 
1993	 0.115565993611866 
1994	 0.112839508221535 
1995	 0.128971573458695 
1996	 0.211501512247232 
1997	 0.229760537353381 
1998	 0.227256805677258 
1999	 0.110890502670369 
2000	 1.23929726166899E-03 
2001	 0.138538701406308 
2002	 0.281865912055182 
2003	 0.32875574460747 
2004	 0.312113586273019 
2005	 0.406605881045845 
2006	 0.514006991817268 
2007	 0.339287214321689 
2008	 0.175097747090212 
2009	 0.134974108879966 
2010	-0.068529319738515 
2011	-0.133538496015925 
2012	-8.23231879621938E-03 
2013	 0.416844041833191 
2014	 0.565668931218237 
2015	 0.378269462143092 
2016	 0.339178879828819 
2017	 0.353637757585802 
2018	 0.260168055567592 
2019	 0.250542088600148 
2020	 0.239803130401158 
2021	 0.178720891122414 
2022	 0.14819933447284 
2023	 7.86276995256487E-02 
2024	 3.72186079375846E-02 
2025	 2.6016916391815E-03 
2026	 0.024884192002325 
2027	 9.14755764531031E-02 
2028	 0.104086181601665 
2029	 0.137000991651907 
2030	 0.115601805756286 
2031	 7.38239310231877E-02 
2032	 8.74320572273159E-02 
2033	 6.56606753975253E-02 
2034	 3.97217678641263E-02 
2035	 3.01459984632926E-02 
2036	-9.14250294318014E-03 
2037	-8.75929211094646E-03 
2038	 1.77002126581797E-02 
2039	 2.99276713668246E-02 
2040	 3.30459805329965E-02 
2041	 4.54129651242198E-02 
2042	 7.97003292676841E-02 
2043	 8.76700371890026E-02 
2044	 8.33155876329323E-02 
2045	 7.81430793166996E-02 
2046	 7.49054966694964E-02 
2047	 6.68687044430015E-02 
2048	 5.34828967389589E-02 
2049	 6.09888290319394E-02 
2050	 5.75031826364195E-02 
2051	 5.94495091164197E-03 
2052	 1.59911631823304E-02 
2053	 2.44728020162632E-02 
2054	 2.01058760314618E-02 
2055	 3.28034982993543E-02 
2056	 3.17298789368067E-02 
2057	 7.4131503605534E-03 
2058	-8.05998897914583E-03 
2059	-2.50041494940666E-02 
2060	-1.38561062234047E-02 
2061	-7.95024398671647E-03 
2062	 4.47297203070033E-02 
2063	 0.104647726143972 
2064	 9.55311673525425E-02 
2065	 0.113166762644653 
2066	 0.130786066911154 
2067	 0.165615093922601 
2068	 0.19748328122298 
2069	 0.166736777052362 
2070	 7.71569294754657E-02 
2071	-1.97215368159517E-03 
2072	-6.96316462949431E-02 
2073	-8.29264081481969E-02 
2074	-9.5534177898602E-03 
2075	-8.84000357072999E-04 
2076	 7.75146920614391E-03 
2077	-1.17465967316356E-03 
2078	-4.87218086112869E-02 
2079	-6.99967398592522E-02 
2080	-9.99846842378402E-02 
2081	-8.40985170061364E-02 
2082	-6.04104634632321E-02 
2083	-4.41712361871996E-02 
2084	-5.43599132768894E-03 
2085	 0.025241471806817 
2086	 5.41285788240602E-02 
2087	 5.61954944284025E-02 
2088	 1.58105385418458E-02 
2089	-2.29533126374688E-02 
2090	-5.04111256442419E-02 
2091	-7.39679419925897E-02 
2092	-6.60007588546961E-02 
2093	 5.25007471601054E-03 
2094	 2.48615228889865E-02 
2095	 4.26203271117785E-02 
2096	 0.050878091014444 
2097	 1.21904128147985E-02 
2098	 8.38492540625521E-03 
2099	 1.77391897455422E-02 
2100	 0.035182015143662 
2101	 4.23504636907341E-02 
2102	 5.59858784608246E-02 
2103	 5.59662647589176E-02 
2104	 1.83257771731439E-02 
2105	 4.57229732180102E-03 
2106	-1.57529140277786E-02 
2107	-4.13302019077293E-02 
2108	-2.78633159877949E-02 
2109	-1.09657801056708E-02 
2110	-7.7007275374353E-03 
2111	-6.32875052082924E-03 
2112	 3.97383508578845E-03 
2113	 1.54836399343659E-02 
2114	 4.03742383057289E-02 
2115	 3.47690926721516E-02 
2116	 9.20982632497116E-03 
2117	 8.39346150506237E-03 
2118	-1.29079972247335E-02 
2119	-1.56888410994847E-02 
2120	 2.67087035255441E-02 
2121	 2.91832273093532E-02 
2122	 1.10854793422247E-02 
2123	 0.042355653305477 
2124	 6.06042550597639E-02 
2125	 6.61266670337047E-02 
2126	 5.50726223331227E-02 
2127	 1.37505320002645E-02 
2128	 1.64084925321271E-02 
2129	 3.12584620171895E-02 
2130	 4.10719241991898E-02 
2131	 6.64346810862236E-02 
2132	-6.3924862985952E-04 
2133	-3.97292218085628E-02 
2134	-0.036335975970703 
2135	-1.17072293319002E-02 
2136	 2.62498079570395E-03 
2137	 6.36393215786229E-02 
2138	 7.77823957454307E-02 
2139	 6.53529178229767E-02 
2140	 6.27515640385929E-02 
2141	 4.88561686963651E-02 
2142	 3.84961510627643E-02 
2143	 1.81904382837709E-02 
2144	 1.32967101229142E-02 
2145	 2.46579815436361E-02 
2146	 6.22452664562323E-02 
2147	 7.96324225872612E-02 
2148	 6.89355317221674E-02 
2149	 6.28093366757526E-02 
2150	 5.13937354609076E-02 
2151	 8.28672582065682E-02 
2152	 0.118251426239888 
2153	 0.118353850577321 
2154	 0.130671852609262 
2155	 0.122137125325842 
2156	 0.130949206583511 
2157	 0.121901280784005 
2158	 0.108425992220679 
2159	 8.30270627003154E-02 
2160	 3.67509799783297E-02 
2161	 1.23741855534635E-02 
2162	-1.76059856559957E-02 
2163	-1.81627092360882E-02 
2164	 2.35524095662573E-02 
2165	 1.05284655241807E-02 
2166	-1.69016775616148E-02 
2167	-3.33917136430703E-02 
2168	-0.103581151794428 
2169	-0.130441949794068 
2170	-0.131531075721243 
2171	-8.08451684343342E-02 
2172	-5.32359896190365E-02 
2173	-0.038147497830033 
2174	-2.00871584384572E-02 
2175	-1.26688165669755E-02 
2176	-1.86999037518602E-02 
2177	 1.87249981350032E-03 
2178	 3.39175362265812E-02 
2179	 2.15237097253581E-02 
2180	 1.29431512161853E-02 
2181	-2.88748308707537E-02 
2182	-9.32020971104911E-02 
2183	-0.112559903313382 
2184	-0.175277742093638 
2185	-0.178240357724369 
2186	-0.151592446696612 
2187	-9.44977841155429E-02 
2188	-6.52107904434948E-02 
2189	 0.011733551610636 
2190	 2.71803767369584E-02 
2191	-5.86505564693849E-03 
2192	 9.5570225084656E-03 
2193	 3.56227006056075E-02 
2194	 4.13488699350881E-02 
2195	 0.048631108489309 
2196	 5.19086498615408E-02 
2197	 2.09564211234974E-02 
2198	 2.00826276826523E-02 
2199	 3.09678403934961E-02 
2200	 9.44684561419515E-02 
2201	 0.130880855788077 
2202	 0.136931226828926 
2203	 0.150207041441926 
2204	 0.122887351932903 
2205	 8.85672742684783E-02 
2206	 0.113272573427694 
2207	 0.167452501084746 
2208	 0.23236288464947 
2209	 0.203445714342656 
2210	 0.126029095289771 
2211	 0.102296855666868 
2212	 1.90341587380299E-02 
2213	 6.05145849766834E-03 
2214	 0.143185794346049 
2215	 0.166064859407611 
2216	 0.15231542449291 
2217	 0.160964908466305 
2218	 0.146720094755554 
2219	 0.139342363721607 
2220	 0.145904926511785 
2221	 0.168354993025886 
2222	 0.216104044600237 
2223	 0.209699597826336 
2224	 0.187585598773196 
2225	 0.168074260404753 
2226	 0.105263269584003 
2227	 6.51084115261597E-02 
2228	 5.99852706148952E-02 
2229	 3.32500352501134E-02 
2230	-0.025377177507617 
2231	-6.85689867802373E-02 
2232	-0.126483176258429 
2233	-0.147616786305053 
2234	-0.170527116350932 
2235	-0.11963641614462 
2236	-5.31484761667837E-02 
2237	 1.30599355565578E-02 
2238	 9.67509483224629E-02 
2239	 8.44162711434739E-02 
2240	 0.10871606974594 
2241	 0.146333198127381 
2242	 7.47152543761406E-02 
2243	 9.37952381165366E-02 
2244	 7.96924171269901E-02 
2245	 2.92907028648241E-02 
2246	 4.02050024555931E-02 
2247	 4.24375099397657E-02 
2248	 7.50978587028165E-02 
2249	 0.146866371363273 
2250	 0.181173330783528 
2251	 0.166446592451252 
2252	 0.141200333913037 
2253	 4.31844748548795E-02 
2254	-7.95042617567854E-02 
2255	-9.78459100459252E-02 
2256	-0.137236152734756 
2257	-0.186180910764606 
2258	-0.192728612835648 
2259	-0.13899809270049 
2260	-0.085077932767358 
2261	-1.18996012628383E-02 
2262	 3.65277012366879E-05 
2263	 2.38704467641524E-03 
2264	-1.72315328016577E-03 
2265	-0.084358602382335 
2266	-7.98506565791605E-02 
2267	 4.28739920935253E-02 
2268	 7.94232176577361E-02 
2269	 6.92670559315715E-02 
2270	 0.10087128997617 
2271	 0.166687388467738 
2272	 0.100944180913502 
2273	-3.55405375982671E-04 
2274	-3.56917410286787E-02 
2275	-0.187627617871771 
2276	-0.187927930359664 
2277	-3.54338860233687E-02 
2278	 3.40953560948153E-05 
2279	 6.05384699624059E-02 
2280	 0.118076089673107 
2281	 0.117601820832911 
2282	 0.129923095157803 
2283	 6.52434331122193E-02 
2284	-6.18293586702774E-02 
2285	-0.198750564143856 
2286	-0.325244989309342 
2287	-0.346174471232939 
2288	-0.317988861449729 
2289	-0.306919957431112 
2290	-0.2683453907253 
2291	-0.200005637417166 
2292	-0.15149883178848 
2293	-0.040186521836513 
2294	-2.98124891723355E-02 
2295	-0.120454726913369 
2296	-0.118263187786548 
2297	-0.259246625845816 
2298	-0.413579661178905 
2299	-0.241382107958719 
2300	-0.156602791164533 
2301	-0.175229557796153 
2302	-3.29937789625082E-02 
2303	-0.172310014705137 
2304	-0.36570707645989 
2305	-0.253747887586368 
2306	-0.245520504352546 
2307	-0.132336042201268 
2308	 9.09175410433183E-02 
2309	 0.208569199773559 
2310	 0.229312453549232 
2311	-0.106649586135483 
2312	-0.293041426107289 
2313	-0.292654169458778 
2314	-0.37035193626944 
2315	-0.235845461253012 
2316	-0.234092964609494 
2317	-0.569931865914303 
2318	-0.388382082916589 
2319	 6.14411333613278E-02 
2320	 0.1550849558465 
2321	 0.240975000419493 
2322	 0.190398448687442 
2323	-0.232769091432463 
2324	-0.429317295872395 
2325	-0.202762357578024 
2326	-3.39729639638456E-02 
2327	-2.18215343584989E-02 
2328	 1.61050574955264E-02 
2329	 0.103455112085901 
2330	 2.93604985452643E-02 
2331	-0.155855464714219 
2332	-0.256385515388717 
2333	-0.468164374526271 
2334	-0.597868573597619 
2335	-0.415240119508418 
2336	-0.399869258691926 
2337	-0.588720424859033 
2338	-0.763379029827683 
2339	-2.00695605063134 
2340	-5.22150418307418 
2341	-2.3862379772032 
2342	-2.45339451272103 
2343	-0.682395160554364 
2344	-0.349874829300439 
2345	-0.128422324004765 
2346	 7.54257153464866E-02 
2347	-4.87421927561902E-02 
2348	-9.81103871183148E-02 
2349	-0.638107478860724 
2350	-0.941205492498447 
2351	-0.935739597395276 
2352	-0.635797310027 
2353	 1.09522817969665 
2354	-4.5350722265507 
2355	-6.91021010729609 
2356	 2.23415230892897 
2357	 0.437838073792691 
2358	 0.192925471469378 
2359	-0.209667906672342 
2360	-0.513673385522901 
2361	-0.86427169457428 
2362	-1.99958525331979 
2363	-1.17235203112195 
2364	 0.486457770045369 
2365	 0.501379738754855 
2366	 0.11866353357846 
2367	-4.72325261856823E-02 
2368	-0.493870394366575 
2369	-0.935617185398692 
2370	-0.187712046247491 
2371	 1.05460579629984 
2372	 1.28288320585863 
2373	 0.976244261244973 
2374	 1.46033038722448 
2375	-0.315898380036567 
2376	 0.519131013843278 
2377	 0.314803506612533 
2378	-0.401901809691054 
2379	-1.51915300308135 
2380	 4.90138800319072 
2381	 4.36521259393689 
2382	-1.19682632455847 
2383	-20.5426703458499 
2384	 0.597539276310906 
2385	 0.169488280696056 
2386	 7.35154348125351E-02 
2387	-0.218323542144182 
2388	-0.449281401292858 
2389	-0.12171284751954 
2390	 0.701326192436822 
2391	 0.448870477174015 
2392	-1.21308274365343 
2393	-2.21061043037538 
2394	-3.37139049549672 
2395	-2.07670925405057 
2396	-3.90542993335305 
2397	-19.725751796306 
2398	-23.4364277661958 
2399	 37.8023786076608 
2400	 1.78785857628259 
2401	 0.965756297118222 
2402	 0.529831585316569 
2403	 0.515324483918229 
2404	 8.72314446099338 
2405	-20.6470581743639 
2406	 5.19414595126426 
2407	 0.896358819970099 
2408	 0.610721760162322 
2409	 0.318794158128668 
2410	 0.149471314407688 
2411	 0.647304167606908 
2412	 0.849937283192264 
2413	-0.618694278708951 
2414	-0.273331014310818 
2415	 1.25567905134334 
2416	 0.516890483274846 
2417	 0.75638211535335 
2418	 0.655480663449147 
2419	 5.62371153740595E-02 
2420	 6.58507615758726E-03 
2421	 0.716210455633244 
2422	 1.36370857530481 
2423	 1.43759909730817 
2424	 2.10293207636553 
2425	 6.65324655067589 
2426	-15.1889628500214 
2427	 3.97362849011288 
2428	 9.93698102903091 
2429	-1.99799068172543 
2430	-0.776823578081966 
2431	 0.104650281273295 
2432	 0.274447235269316 
2433	 2.12136695796995 
2434	-11.9048343784571 
2435	-1.99337737070962 
2436	-1.03830002800178 
2437	-1.28546869368583 
2438	-11.68802041605 
2439	-5.24050747244091 
2440	-4.67035725165557 
2441	-4.86656484732795 
2442	-2.04837537855032 
2443	 4.15589340435599 
2444	 0.59892018529466 
2445	 0.638847365045841 
2446	 0.298293890570417 
2447	 0.919110355397577 
2448	 1.13335394647389 
2449	 13.1656575392054 
2450	-8.93465507575884 
2451	 5.63496095274876 
2452	 15.0453240472635 
2453	 1.96177113040419 
2454	 1.07337213616677 
2455	 0.161151783328701 
2456	-0.782564964738374 
2457	 4.36165337433423 
2458	 8.49074410112761E-02 
2459	-0.040275377282844 
2460	-2.23798048259964E-02 
2461	-0.622072746664946 
2462	 0.709413100702529 
2463	 2.07227332320987 
2464	-0.976913842340541 
2465	-0.962862461869153 
2466	-0.64611294604456 
2467	-1.32260481534222 
2468	 3.24080680468196 
2469	 0.943564695600276 
2470	 1.16080225626797 
2471	 2.27740598766541 
2472	 2.58656768616955 
2473	 2.91300025721658 
2474	 3.35971578571299 
2475	 1.47863592355836 
2476	 0.979158738709519 
2477	 0.814063697324611 
2478	 1.29039845546963 
2479	 27.3483963977954 
2480	-0.895384581216117 
2481	-0.330672409808019 
2482	-0.498801258807655 
2483	-0.493660684127692 
2484	-0.552138094100278 
2485	-1.60329157981476 
2486	 13.9599202491195 
2487	 1.85344219022538 
2488	 1.49394718471418 
2489	 2.55043790126086 
2490	-9.62105872368348 
2491	-1.49949962021589 
2492	-0.623803053038441 
2493	-0.253823502466649 
2494	-0.141555383095604 
2495	-7.91853628448474E-02 
2496	-8.07228282633431E-02 
2497	-0.136216922280815 
2498	 0.245219753713815 
2499	-8.38634263081379E-02 
2500	 0.441841366843739 
