Wavelength	rt0802close00001.asd
350	 2.13851654884288E-02 
351	 2.08779191088705E-02 
352	 2.03544495020728E-02 
353	 2.01936075393149E-02 
354	 2.02770594128881E-02 
355	 2.03005434396312E-02 
356	 2.07065294098316E-02 
357	 0.021657305348137 
358	 2.27482910535982E-02 
359	 2.16654986996846E-02 
360	 2.08205566221662E-02 
361	 2.10607749090331E-02 
362	 2.19138013490907E-02 
363	 2.29625244585461E-02 
364	 2.29777039055638E-02 
365	 0.021891859415357 
366	 2.13836442803637E-02 
367	 2.24124081666869E-02 
368	 2.36073586260399E-02 
369	 2.34431980916888E-02 
370	 2.22139938428692E-02 
371	 2.22381322182405E-02 
372	 2.27154019149971E-02 
373	 2.15747122029324E-02 
374	 2.36389701196865E-02 
375	 2.48988854357336E-02 
376	 2.42855880905798E-02 
377	 2.59695453550024E-02 
378	 2.53044874367406E-02 
379	 2.42731094387497E-02 
380	 0.025092079188817 
381	 2.55886956886985E-02 
382	 2.56882997251999E-02 
383	 2.61804177170807E-02 
384	 0.027699858910561 
385	 2.64065533915172E-02 
386	 2.64807383377996E-02 
387	 2.80860363022507E-02 
388	 2.64249426346559E-02 
389	 0.026548136355846 
390	 2.79534099991096E-02 
391	 2.90068795872052E-02 
392	 2.80686649662619E-02 
393	 2.79688907767796E-02 
394	 2.87425204715235E-02 
395	 2.93447533214106E-02 
396	 2.96261341937466E-02 
397	 0.029242316612735 
398	 2.87715693528977E-02 
399	 2.94600249360883E-02 
400	 3.04857156544433E-02 
401	 3.12189480328547E-02 
402	 3.14189758218178E-02 
403	 3.15426937988398E-02 
404	 3.12913328474292E-02 
405	 3.11678675494718E-02 
406	 3.17411773018558E-02 
407	 3.22330144334452E-02 
408	 3.23743901759187E-02 
409	 3.23615696245425E-02 
410	 3.27734499256571E-02 
411	 3.34128936331649E-02 
412	 3.36479464892629E-02 
413	 3.32400397422817E-02 
414	 3.29721923448774E-02 
415	 3.29867862197437E-02 
416	 3.35213015366285E-02 
417	 3.45696022703527E-02 
418	 3.47732169374041E-02 
419	 3.45485276966118E-02 
420	 3.47059971441565E-02 
421	 3.62265005085056E-02 
422	 3.63534655166822E-02 
423	 3.60865272188249E-02 
424	 3.65881595493064E-02 
425	 0.03716581701401 
426	 3.73678991705505E-02 
427	 3.78156987373457E-02 
428	 3.92424164541251E-02 
429	 3.91029231451972E-02 
430	 3.88059449437598E-02 
431	 3.92447662710207E-02 
432	 4.02226380365258E-02 
433	 4.06664084816533E-02 
434	 4.07256366126099E-02 
435	 4.08227787066956E-02 
436	 4.11979657166871E-02 
437	 4.18098794516206E-02 
438	 4.24391583492683E-02 
439	 4.27937618617283E-02 
440	 0.042864711673026 
441	 4.32896634848504E-02 
442	 4.41559631494883E-02 
443	 4.46564157418519E-02 
444	 4.51641147953464E-02 
445	 4.54795011123041E-02 
446	 4.54918175682869E-02 
447	 4.59761222497625E-02 
448	 4.64224711878977E-02 
449	 4.68734436745675E-02 
450	 4.77008428193312E-02 
451	 4.77930243321131E-02 
452	 4.76594739217094E-02 
453	 4.79094144828716E-02 
454	 4.89346863391096E-02 
455	 0.049274346745456 
456	 4.92828766498456E-02 
457	 4.97341527035546E-02 
458	 4.95470889146479E-02 
459	 4.99765324745659E-02 
460	 5.08878813420785E-02 
461	 5.07097081483427E-02 
462	 5.04820012409643E-02 
463	 5.06567242778449E-02 
464	 5.12626433942514E-02 
465	 5.15360097786012E-02 
466	 5.16581287025492E-02 
467	 5.15314113174904E-02 
468	 5.11561540013017E-02 
469	 5.21128759923126E-02 
470	 5.26899804725496E-02 
471	 5.23554310609181E-02 
472	 5.25543961808351E-02 
473	 5.29745776135414E-02 
474	 5.34933250340741E-02 
475	 5.39509207641163E-02 
476	 5.39437545562676E-02 
477	 5.43454567914868E-02 
478	 5.50294327497432E-02 
479	 5.52129414219053E-02 
480	 5.50998380835222E-02 
481	 5.55267172161657E-02 
482	 5.64781067009779E-02 
483	 5.59729756102115E-02 
484	 5.60896406171804E-02 
485	 5.69035898487376E-02 
486	 5.77030505945027E-02 
487	 5.79792193660482E-02 
488	 5.84437068449186E-02 
489	 5.90787026881471E-02 
490	 5.91483888508486E-02 
491	 5.97069906813136E-02 
492	 6.02758904931838E-02 
493	 6.04848144287867E-02 
494	 6.10998169085294E-02 
495	 6.18889425059514E-02 
496	 6.25427364314887E-02 
497	 6.28088471495323E-02 
498	 6.33422851948681E-02 
499	 6.39744729878985E-02 
500	 6.45583111450349E-02 
501	 6.51136354873292E-02 
502	 6.58545779387133E-02 
503	 6.65561345112642E-02 
504	 6.70136453176148E-02 
505	 6.76321247040744E-02 
506	 6.83709964227397E-02 
507	 6.90768886957943E-02 
508	 6.95682675302849E-02 
509	 7.05542476410173E-02 
510	 7.12934204254944E-02 
511	 7.15638500830087E-02 
512	 7.30102318382607E-02 
513	 7.35749885906357E-02 
514	 7.38273975858063E-02 
515	 7.51680056375761E-02 
516	 0.076059856319804 
517	 7.65010736390656E-02 
518	 7.69737992571058E-02 
519	 7.83473218631528E-02 
520	 7.90828932921587E-02 
521	 0.079629087673406 
522	 8.05509327212471E-02 
523	 8.10074639328565E-02 
524	 8.20587587082277E-02 
525	 8.33562791293103E-02 
526	 8.36941902324023E-02 
527	 8.43526114256851E-02 
528	 8.54248242347116E-02 
529	 8.66534800946365E-02 
530	 8.74713312919808E-02 
531	 8.82701725034411E-02 
532	 8.91098636144363E-02 
533	 8.99847083296416E-02 
534	 9.12853240491441E-02 
535	 9.20663269416822E-02 
536	 9.24529633261356E-02 
537	 9.38364442879435E-02 
538	 9.47117677506752E-02 
539	 9.53559081632351E-02 
540	 9.62966699511409E-02 
541	 9.74021572084411E-02 
542	 9.84652310785223E-02 
543	 9.93558533604257E-02 
544	 0.100053584562022 
545	 0.101056694783278 
546	 0.10195357188831 
547	 0.102654717002047 
548	 0.103946530284339 
549	 0.105146902353468 
550	 0.105914384316069 
551	 0.106272501084023 
552	 0.107502844164211 
553	 0.108693253341313 
554	 0.109490014356421 
555	 0.110310301674012 
556	 0.111242632740226 
557	 0.111990125347035 
558	 0.112453890449194 
559	 0.11359395818789 
560	 0.114267876778708 
561	 0.114789459547624 
562	 0.116213660668424 
563	 0.116983715422019 
564	 0.117298699739614 
565	 0.117605230273641 
566	 0.118393441430961 
567	 0.118886581831588 
568	 0.119410197933119 
569	 0.120408678444599 
570	 0.120459149600664 
571	 0.120766163638382 
572	 0.121512561513776 
573	 0.121636768327445 
574	 0.122180313432813 
575	 0.122642855900473 
576	 0.122637275745584 
577	 0.123354903137327 
578	 0.123588148163956 
579	 0.123521087829876 
580	 0.12405714696441 
581	 0.124056960961722 
582	 0.123980171768617 
583	 0.124072596877537 
584	 0.123841047494214 
585	 0.123241081555552 
586	 0.122607927815302 
587	 0.122314489933398 
588	 0.121687249838979 
589	 0.121592148372352 
590	 0.121737811419787 
591	 0.120606311105949 
592	 0.120603212363608 
593	 0.120581960129814 
594	 0.119521242304045 
595	 0.118957131351497 
596	 0.118297632703564 
597	 0.11742034727315 
598	 0.116501253933371 
599	 0.115918542403867 
600	 0.115455530809296 
601	 0.114970727137883 
602	 0.114563097673194 
603	 0.114221389551724 
604	 0.113932921833167 
605	 0.113726537981598 
606	 0.113864006839565 
607	 0.113929737823528 
608	 0.11381769445183 
609	 0.113782971242461 
610	 0.114135069904518 
611	 0.114231831367599 
612	 0.113751269451997 
613	 0.113895127986207 
614	 0.114264930129852 
615	 0.114550428546243 
616	 0.114505066448689 
617	 0.114184025032547 
618	 0.114263313156612 
619	 0.114669701464517 
620	 0.113998251525959 
621	 0.113763453449678 
622	 0.114031201998375 
623	 0.114337748825382 
624	 0.114245143530479 
625	 0.113457919966981 
626	 0.112694611936313 
627	 0.113519520000748 
628	 0.113800485985851 
629	 0.113507214137852 
630	 0.113134273192807 
631	 0.113377530447668 
632	 0.113311334127527 
633	 0.113193261395103 
634	 0.11366430036089 
635	 0.113650906336242 
636	 0.113457233417811 
637	 0.113283624902937 
638	 0.11297544207495 
639	 0.112936359699749 
640	 0.113146480599081 
641	 0.113353751325663 
642	 0.113026599798972 
643	 0.112374075485932 
644	 0.11173410039577 
645	 0.111495837056632 
646	 0.1108157767515 
647	 0.110255138178084 
648	 0.110317597016671 
649	 0.110742564307535 
650	 0.110426127406986 
651	 0.109967250928407 
652	 0.110266322090481 
653	 0.109284164052157 
654	 0.108111087193116 
655	 0.10739677496753 
656	 0.106947107411409 
657	 0.106417742359829 
658	 0.106064203031162 
659	 0.105933457978569 
660	 0.105033481836352 
661	 0.104469867062798 
662	 0.104293406269311 
663	 0.103956359447466 
664	 0.103893025246849 
665	 0.103714012914078 
666	 0.103279330489172 
667	 0.103054597781548 
668	 0.103076611054511 
669	 0.102814137321633 
670	 0.101890680039529 
671	 0.101650587579212 
672	 0.101825619735316 
673	 0.102229023057306 
674	 0.102782751828493 
675	 0.102458881135081 
676	 0.101975145054917 
677	 0.101940187393938 
678	 0.101761070048246 
679	 0.101906564785941 
680	 0.102199017015036 
681	 0.102246385971241 
682	 0.102382452066162 
683	 0.102680566749182 
684	 0.102956528093932 
685	 0.102702807647954 
686	 0.101932412046599 
687	 0.101503098709003 
688	 0.102031223076089 
689	 0.102429235587776 
690	 0.102184506307158 
691	 0.101435039990393 
692	 0.100748760778944 
693	 0.100315094216314 
694	 9.97279074327434E-02 
695	 9.90891224684267E-02 
696	 9.93602026011531E-02 
697	 9.84892561260537E-02 
698	 9.68541061668091E-02 
699	 0.095640402538676 
700	 9.49849490182266E-02 
701	 9.40045025222358E-02 
702	 9.28017093471461E-02 
703	 9.21122053602011E-02 
704	 9.10132435481023E-02 
705	 8.94825405532328E-02 
706	 8.78982943648884E-02 
707	 8.70245375832773E-02 
708	 8.56395282270915E-02 
709	 8.39030186919707E-02 
710	 0.082333592310152 
711	 8.02997965614807E-02 
712	 7.79464337707074E-02 
713	 7.55719169230596E-02 
714	 7.35232578734732E-02 
715	 0.070847440878242 
716	 6.71934712809587E-02 
717	 6.32884549122396E-02 
718	 6.07329367773195E-02 
719	 5.91346113417469E-02 
720	 5.80129144242119E-02 
721	 5.67116051411781E-02 
722	 5.47101300886436E-02 
723	 5.16064879212462E-02 
724	 4.84692176427309E-02 
725	 4.71483506104347E-02 
726	 4.52371450238374E-02 
727	 4.27784558391615E-02 
728	 4.01040698799557E-02 
729	 3.64985131329052E-02 
730	 3.45240116186432E-02 
731	 3.36160748104096E-02 
732	 3.19551371510321E-02 
733	 3.01915965945764E-02 
734	 2.84500543656671E-02 
735	 2.71534147432401E-02 
736	 2.70990101732638E-02 
737	 2.65358951450898E-02 
738	 2.57148891393225E-02 
739	 2.52112613820867E-02 
740	 2.51273964062073E-02 
741	 2.48884540139914E-02 
742	 2.45524059585097E-02 
743	 2.44600970074539E-02 
744	 2.44818301003862E-02 
745	 2.44261211284179E-02 
746	 0.024297443099231 
747	 2.43623485876097E-02 
748	 2.42099313945173E-02 
749	 2.42589016685499E-02 
750	 2.47362163682437E-02 
751	 2.45721803792119E-02 
752	 2.44017978304476E-02 
753	 2.43657764744443E-02 
754	 2.43657521238161E-02 
755	 2.48122313709237E-02 
756	 2.48833090280744E-02 
757	 2.44300403720812E-02 
758	 2.44287675090428E-02 
759	 2.40608097641698E-02 
760	 2.32205217295805E-02 
761	 2.30358064113692E-02 
762	 2.32214517111592E-02 
763	 2.49340134447092E-02 
764	 2.62359185536449E-02 
765	 2.56557846511185E-02 
766	 2.51290918009514E-02 
767	 2.50437372225287E-02 
768	 0.025330980591164 
769	 0.025634583296584 
770	 2.62254492850094E-02 
771	 2.66500043711959E-02 
772	 2.66387995965253E-02 
773	 2.67520139099684E-02 
774	 2.68653610555362E-02 
775	 2.69585656976871E-02 
776	 2.70719444656022E-02 
777	 2.73895381180727E-02 
778	 2.76661940566666E-02 
779	 2.79700350832293E-02 
780	 2.86622608267849E-02 
781	 2.89716817360965E-02 
782	 2.89378560959859E-02 
783	 2.89079624610073E-02 
784	 2.96301825364619E-02 
785	 2.97567053806591E-02 
786	 0.029446153506163 
787	 2.95284638987657E-02 
788	 3.08597193777983E-02 
789	 3.20036840410612E-02 
790	 3.24411271869143E-02 
791	 3.26353952697772E-02 
792	 3.27874246844375E-02 
793	 3.30189927812348E-02 
794	 3.33939225298674E-02 
795	 3.39275334365848E-02 
796	 3.37347506823847E-02 
797	 3.38474079101673E-02 
798	 3.50111291768926E-02 
799	 3.50330328017132E-02 
800	 3.52534488633486E-02 
801	 3.58243483433145E-02 
802	 3.62111202546128E-02 
803	 3.65955932089896E-02 
804	 0.036361798879605 
805	 3.59090584313806E-02 
806	 3.65959740171917E-02 
807	 3.61744766364316E-02 
808	 3.53729063470111E-02 
809	 3.52277744287173E-02 
810	 0.035976784066498 
811	 3.55855001750257E-02 
812	 3.44674246928915E-02 
813	 3.40682087744717E-02 
814	 3.28094354913338E-02 
815	 0.032118159157276 
816	 3.17993729222773E-02 
817	 3.05782340426433E-02 
818	 3.25529726341502E-02 
819	 3.18062732741697E-02 
820	 2.83933766984784E-02 
821	 2.97164015443539E-02 
822	 2.89848643633886E-02 
823	 2.74190153462892E-02 
824	 2.69797264225562E-02 
825	 2.61634267092841E-02 
826	 2.38236061303064E-02 
827	 2.14020951946209E-02 
828	 2.10482484932664E-02 
829	 1.99424073997989E-02 
830	 1.87338567696697E-02 
831	 1.77686524869137E-02 
832	 1.70757259377884E-02 
833	 1.65796137363349E-02 
834	 1.63738346947496E-02 
835	 1.63022066337586E-02 
836	 1.59219348982668E-02 
837	 1.46223570263011E-02 
838	 1.36617930640699E-02 
839	 1.39267630538598E-02 
840	 1.45100128772408E-02 
841	 1.53450111324539E-02 
842	 1.52838628600103E-02 
843	 1.37841022475191E-02 
844	 1.43867737812707E-02 
845	 1.49632477814018E-02 
846	 1.44247504295931E-02 
847	 1.29051799300313E-02 
848	 1.33791384043405E-02 
849	 1.42872787686862E-02 
850	 0.014247423258351 
851	 1.29987123705963E-02 
852	 1.28818574164786E-02 
853	 1.32925294356567E-02 
854	 1.33134076761018E-02 
855	 1.28393141977883E-02 
856	 1.29973681153687E-02 
857	 1.35510982797406E-02 
858	 1.37481425412264E-02 
859	 1.24992620893347E-02 
860	 1.12028880598622E-02 
861	 0.010731658973605 
862	 1.14238852087332E-02 
863	 1.27861575191298E-02 
864	 1.28764945721452E-02 
865	 1.16182582131891E-02 
866	 1.08298908882003E-02 
867	 1.17128420009114E-02 
868	 1.25163891776498E-02 
869	 1.25329753758833E-02 
870	 1.29209706176662E-02 
871	 1.21409553539562E-02 
872	 1.07143070165258E-02 
873	 9.69765352926751E-03 
874	 1.02447041467437E-02 
875	 1.10658000380304E-02 
876	 1.16276721031927E-02 
877	 1.16802858250544E-02 
878	 1.09450960114051E-02 
879	 1.06139390397202E-02 
880	 1.07161616728012E-02 
881	 1.05110983445533E-02 
882	 8.69780987267688E-03 
883	 7.91558544484727E-03 
884	 8.62338811391639E-03 
885	 9.48616690633023E-03 
886	 1.11466800612945E-02 
887	 1.11673681928047E-02 
888	 9.60077873339637E-03 
889	 9.55790643745054E-03 
890	 0.010220090694058 
891	 1.04160731528857E-02 
892	 9.68623276622487E-03 
893	 9.37312133127732E-03 
894	 6.32376920124852E-03 
895	 4.98909917584533E-03 
896	 8.87037386003093E-03 
897	 7.33720625960987E-03 
898	 4.54341409384162E-03 
899	 4.49775956560516E-03 
900	 8.13843209580943E-03 
901	 8.44661859032732E-03 
902	 8.29722541040787E-03 
903	 7.60232314212232E-03 
904	 5.82305992736736E-03 
905	 5.71488607712767E-03 
906	 7.27642854437429E-03 
907	 8.3386073004131E-03 
908	 6.08077444486001E-03 
909	 8.32766378412768E-03 
910	 8.61306220619075E-03 
911	 4.04023875513704E-03 
912	-2.01745119062819E-03 
913	 5.06552965542273E-03 
914	 8.31894390297673E-03 
915	 5.30993621981605E-03 
916	 1.21422402170475E-02 
917	 6.83738256839312E-03 
918	 5.74399428229754E-04 
919	 1.33405406809754E-03 
920	 7.90253014751398E-03 
921	 7.6613592448363E-03 
922	 5.27951758113519E-03 
923	 5.37772121080453E-03 
924	 4.99088935382651E-03 
925	 5.59760225038747E-03 
926	 7.62665050046652E-03 
927	 9.67213398834763E-03 
928	 3.90418177745546E-03 
929	 4.13690923538024E-04 
930	 8.13110881158058E-03 
931	 0.024747737410022 
932	-1.96936798300205E-02 
933	-1.79651931570153E-02 
934	 3.27454552418561E-02 
935	 2.82274582582698E-02 
936	-3.89730125098101E-02 
937	-5.78721501256928E-03 
938	 3.10152444715089E-02 
939	-2.43490787398432E-02 
940	-1.98217408876042E-04 
941	-1.22656506791197E-02 
942	-3.67828807978231E-02 
943	 3.94955581697385E-03 
944	 9.53383503845165E-03 
945	 3.91019131739092E-03 
946	 4.39831793237156E-03 
947	 7.03523961873205E-03 
948	-6.15253570644341E-02 
949	-0.043868543495112 
950	 3.88943369225489E-02 
951	 7.22989194643321E-02 
952	 4.52611340816285E-02 
953	-1.75113243777997E-02 
954	-5.89297194569441E-02 
955	-0.025747008332504 
956	 0.015381087387355 
957	 1.27045904993054E-03 
958	-3.42663540403784E-02 
959	-9.24067529815764E-03 
960	 9.64560688023495E-03 
961	-2.81831080112627E-04 
962	-1.57344084869933E-02 
963	 1.76675875980852E-04 
964	 1.45549499967888E-02 
965	 3.46408974399936E-03 
966	-1.43501149626091E-02 
967	-3.89448420185868E-03 
968	 2.33630237752843E-03 
969	 6.16230549527396E-03 
970	 6.90290697908548E-03 
971	 1.0715604900265E-03 
972	-3.4791720937856E-03 
973	-4.39668810578448E-03 
974	-3.54969439179277E-03 
975	-4.86294574703147E-03 
976	 3.58315480011464E-03 
977	 3.19715178313194E-03 
978	-2.45384673910988E-03 
979	 6.04927622262786E-03 
980	 9.92375828595011E-03 
981	 1.35506179657827E-03 
982	-9.69507749981318E-03 
983	-5.74215954866913E-03 
984	-4.75115659806627E-03 
985	-1.4418694227073E-03 
986	 1.45838509367117E-03 
987	-3.40993673217216E-03 
988	-6.66739722104836E-03 
989	-2.63742369796088E-03 
990	 5.35351913701757E-03 
991	 8.35025164891362E-03 
992	 1.38210114083431E-03 
993	-2.82846804518634E-03 
994	 1.61294055485301E-03 
995	 1.04092908940589E-02 
996	 3.87087888780449E-03 
997	-4.32505750804077E-04 
998	 3.0108851858286E-03 
999	 7.41052964290767E-03 
1000	 3.2876904751585E-04 
1001	 1.47713285268899E-03 
1002	 1.59740593105951E-03 
1003	 2.01625233806187E-03 
1004	 3.70963619662989E-03 
1005	 4.43023905630762E-03 
1006	 4.52809941374364E-03 
1007	 5.51173166026174E-03 
1008	 7.12768585984395E-03 
1009	 8.25395131130152E-03 
1010	 9.32528704370643E-03 
1011	 8.79108964771494E-03 
1012	 5.47190422937254E-03 
1013	 4.72502064582794E-03 
1014	 4.73546734582157E-03 
1015	 6.38577695590466E-03 
1016	 6.16462521886655E-03 
1017	 4.7397725744325E-03 
1018	 5.64949370085647E-03 
1019	 8.95223464000495E-03 
1020	 8.76575305053786E-03 
1021	 7.83837926751115E-03 
1022	 8.46972115803351E-03 
1023	 5.8726316458953E-03 
1024	 1.84050542968542E-03 
1025	 1.3338027589485E-03 
1026	 3.00959928223986E-03 
1027	 5.12203047752694E-03 
1028	 8.98192089129204E-03 
1029	 0.011027788409829 
1030	 1.48345520777403E-02 
1031	 1.46682686621707E-02 
1032	 1.12781782661668E-02 
1033	 9.00927124924891E-03 
1034	 3.2171584321207E-03 
1035	 2.41411881651915E-03 
1036	 4.44851244638736E-03 
1037	 5.59983085373596E-03 
1038	 9.96424371782312E-03 
1039	 1.34887406478882E-02 
1040	 8.48912365405809E-03 
1041	 6.2920769510357E-03 
1042	 5.99914566029243E-03 
1043	 4.63575871726165E-03 
1044	 4.06536481692853E-03 
1045	 6.91328133787548E-03 
1046	 8.24101625984594E-03 
1047	 9.29226883634556E-03 
1048	 7.77130664672838E-03 
1049	 4.79832471859314E-03 
1050	 3.93661981933025E-03 
1051	-7.00473960559762E-04 
1052	-1.23718146496854E-03 
1053	 4.90288859663297E-03 
1054	 7.31497211636447E-03 
1055	 9.4490919362897E-03 
1056	 1.04811142501637E-02 
1057	 1.03771174457966E-02 
1058	 7.9361563947383E-03 
1059	 7.29299913849917E-03 
1060	 6.67206873086444E-03 
1061	 5.71068864329148E-03 
1062	 4.63500684551919E-03 
1063	 4.38919057488165E-03 
1064	 3.17549043832087E-03 
1065	 4.00754899140887E-03 
1066	 9.12559953617899E-03 
1067	 9.67309335378116E-03 
1068	 8.20907376159487E-03 
1069	 7.54199604019213E-03 
1070	 1.51293505239619E-03 
1071	 9.17608026460878E-04 
1072	 5.4377456722023E-03 
1073	 9.99948949418913E-03 
1074	 1.03483706544947E-02 
1075	 1.15753593833915E-02 
1076	 0.010314213708236 
1077	 2.62555468020284E-03 
1078	 6.44279800009948E-04 
1079	-1.11350423344833E-04 
1080	 1.81929391722679E-03 
1081	 9.67433575585235E-03 
1082	 1.07710604026353E-02 
1083	 1.06703962889694E-02 
1084	 1.05128424535381E-02 
1085	 3.27389681041073E-03 
1086	 1.82827366488537E-03 
1087	 6.22449902706248E-03 
1088	 8.08316227372058E-03 
1089	 1.41308319698706E-02 
1090	 1.28032051623441E-02 
1091	 0.011431172939173 
1092	 7.68201161962083E-03 
1093	 5.54329808945944E-03 
1094	-1.84211712375476E-03 
1095	 8.58968069253012E-04 
1096	 1.31894721139318E-02 
1097	 1.53250295007298E-02 
1098	 2.05044551841383E-02 
1099	 2.06698566965369E-02 
1100	 2.11553540769378E-03 
1101	 1.00770375733683E-03 
1102	 1.82087383249427E-02 
1103	 2.21902034010787E-02 
1104	 2.97046450601084E-02 
1105	 3.08513269364688E-02 
1106	 0.01835350936361 
1107	 3.40050380204482E-03 
1108	 5.40391302129598E-03 
1109	 2.25980158751429E-02 
1110	 2.36808856867221E-02 
1111	 2.10327797557503E-02 
1112	 1.97961154817486E-02 
1113	-2.27452778938017E-03 
1114	 3.1864888652111E-04 
1115	 5.57014622185752E-02 
1116	 7.45726197172439E-02 
1117	 6.08404453544527E-02 
1118	 6.86734780325317E-02 
1119	 2.38011728349659E-02 
1120	 2.38795176574962E-02 
1121	 0.119460425673462 
1122	 0.339532129642511 
1123	 0.413815981435497 
1124	 0.285263533964997 
1125	 0.175154735516383 
1126	-3.71229111533519E-02 
1127	-3.76128509983849E-02 
1128	 0.184725400894478 
1129	 0.193132719232016 
1130	 0.132754910581692 
1131	 9.23823215757834E-02 
1132	-5.50940008309996E-02 
1133	-2.09336526785811E-02 
1134	 0.161169361365915 
1135	 0.187868881339556 
1136	 0.178439876255023 
1137	 0.167294727823383 
1138	 8.83165191364352E-02 
1139	 8.91679805624788E-02 
1140	 0.172091416827942 
1141	 0.206487594818043 
1142	 0.202208019104878 
1143	 0.158007694618965 
1144	 5.80688024601959E-02 
1145	 5.18996258276196E-02 
1146	 0.123571013716065 
1147	 0.104967394615498 
1148	 8.65226190648675E-02 
1149	 0.10382199823944 
1150	 8.38234993116363E-02 
1151	 2.39559922719129E-02 
1152	 2.72099531590129E-02 
1153	 4.63232561811787E-02 
1154	 4.48152622789568E-02 
1155	 5.08252831353287E-02 
1156	 4.52082084849858E-02 
1157	 3.27402296531132E-02 
1158	 3.03550049394984E-02 
1159	 2.12130327599781E-02 
1160	 1.81063844060135E-02 
1161	 1.16847269603581E-02 
1162	 2.54654558588265E-03 
1163	 4.34435747838556E-03 
1164	 5.85743720653423E-03 
1165	 6.25952635812834E-03 
1166	 4.42538754440809E-03 
1167	-2.68006132782154E-03 
1168	-2.06046892409678E-03 
1169	 3.33073270603091E-03 
1170	 8.61732253631314E-03 
1171	 0.01076796839453 
1172	 1.10264826506837E-02 
1173	 8.83448959876128E-03 
1174	 2.7440771328576E-03 
1175	 1.47873991263891E-03 
1176	 2.78520429219361E-03 
1177	 6.38454047885418E-03 
1178	 8.10819165492784E-03 
1179	 6.90799631645832E-03 
1180	 4.6024347987231E-03 
1181	 5.30050529282701E-03 
1182	 7.91378295793175E-03 
1183	 5.75019939499586E-03 
1184	 4.32952347784184E-03 
1185	 7.32414074154441E-03 
1186	 6.08124667452424E-03 
1187	 2.37927232270635E-03 
1188	 3.6831519458186E-03 
1189	 3.44480039709549E-03 
1190	 5.34142186354455E-04 
1191	 1.76910937671279E-03 
1192	 2.39437396242792E-03 
1193	 2.94044094555663E-03 
1194	-7.51647130977868E-04 
1195	 3.69505691459669E-04 
1196	 4.82120394795121E-03 
1197	 5.65656253694511E-03 
1198	 5.73191012164399E-03 
1199	 7.44305625012391E-03 
1200	 7.45484316342023E-03 
1201	 7.34729341435967E-03 
1202	 6.60709858187014E-03 
1203	 4.00721310633077E-03 
1204	 6.33666032930189E-03 
1205	 1.04444863264733E-02 
1206	 9.52825786244261E-03 
1207	 7.5369499027434E-03 
1208	 6.47592328553114E-03 
1209	 5.90368119985993E-03 
1210	 6.66203120245647E-03 
1211	 8.33175398146837E-03 
1212	 9.17379669364653E-03 
1213	 7.20822965461431E-03 
1214	 5.26862536964123E-03 
1215	 3.66011337479384E-03 
1216	 4.75412988571871E-03 
1217	 3.49055257128184E-03 
1218	 1.71137470574395E-03 
1219	 4.19368578521221E-03 
1220	 5.76844999534113E-03 
1221	 4.87479481852123E-03 
1222	 6.73125529320023E-03 
1223	 9.41982737800789E-03 
1224	 8.34495661225175E-03 
1225	 6.00477102487581E-03 
1226	 4.72360489028932E-03 
1227	 4.91925226294701E-03 
1228	 5.49184677640508E-03 
1229	 5.40184994277193E-03 
1230	 6.13145306212329E-03 
1231	 6.2824664299248E-03 
1232	 5.84108328228707E-03 
1233	 6.89510402312109E-03 
1234	 7.10827949761311E-03 
1235	 6.41401599814548E-03 
1236	 2.08819219058251E-03 
1237	 1.85869942711649E-03 
1238	 3.56483327201268E-03 
1239	 4.54770242642218E-03 
1240	 5.68699333203319E-03 
1241	 7.30255519554804E-03 
1242	 7.44990241329812E-03 
1243	 5.46105020263815E-03 
1244	 2.33976494434703E-03 
1245	 2.5257894645594E-04 
1246	-7.32509528146684E-04 
1247	-1.26435549457147E-03 
1248	 1.21818470365458E-03 
1249	 4.71437415081978E-03 
1250	 5.6534418387474E-03 
1251	 6.63957467964279E-03 
1252	 9.0429583374907E-03 
1253	 9.15080400006926E-03 
1254	 5.66289525264968E-03 
1255	 3.96611593542646E-03 
1256	 4.30891635288056E-03 
1257	 6.49378532586494E-03 
1258	 6.0037127308944E-03 
1259	 6.77510167000299E-03 
1260	 6.40510086160625E-03 
1261	 7.37076908899513E-04 
1262	 5.84102491762904E-04 
1263	 4.81942938655907E-03 
1264	 7.34435697256126E-03 
1265	 6.6705198957354E-03 
1266	 6.24279679433894E-03 
1267	 5.02309672396707E-03 
1268	 2.47005426309483E-03 
1269	 1.37819677767417E-03 
1270	 0.003410033564725 
1271	 5.30783678478237E-03 
1272	 4.40199638743507E-03 
1273	 2.64296866153466E-03 
1274	 4.07644371539523E-03 
1275	 4.82080328335613E-03 
1276	 4.72591801696503E-03 
1277	 6.96354783574788E-03 
1278	 8.37337162817875E-03 
1279	 8.31590623989781E-03 
1280	 7.26350835810411E-03 
1281	 6.07716592605652E-03 
1282	 5.57504377014369E-03 
1283	 5.37204389103441E-03 
1284	 3.25351232129472E-03 
1285	 3.63437381208951E-03 
1286	 7.61886192923303E-03 
1287	 8.25284878511946E-03 
1288	 7.12868830048477E-03 
1289	 7.90730595692483E-03 
1290	 9.23758047966397E-03 
1291	 8.57686975433614E-03 
1292	 1.11987090637872E-02 
1293	 1.31902338261968E-02 
1294	 1.07857166066046E-02 
1295	 1.07742096928607E-02 
1296	 6.59816451745183E-03 
1297	 3.84881957536365E-03 
1298	 8.15700305009405E-03 
1299	 9.98716023252632E-03 
1300	 0.013288295541778 
1301	 1.51430193761012E-02 
1302	 1.30853682149838E-02 
1303	 1.09287264777951E-02 
1304	 1.15107806856229E-02 
1305	 1.37002002085438E-02 
1306	 1.26883222823953E-02 
1307	 8.04106907843789E-03 
1308	 7.05383082704525E-03 
1309	 5.58901683767378E-03 
1310	 4.36786618774847E-03 
1311	 4.71891223045191E-03 
1312	 6.73608419293583E-03 
1313	 1.16209468471418E-02 
1314	 1.48139666566424E-02 
1315	 0.018851403668683 
1316	 2.18634951784854E-02 
1317	 1.98367668548961E-02 
1318	 2.09416820507684E-02 
1319	 3.09391080526951E-02 
1320	 3.19069270162733E-02 
1321	 2.62599141892529E-02 
1322	 2.40583336733168E-02 
1323	 1.47876299439472E-02 
1324	 5.47725060899205E-03 
1325	 1.41449367121098E-02 
1326	 1.65757785013612E-02 
1327	 2.59405463502403E-02 
1328	 3.97374390468907E-02 
1329	 3.44197025218283E-02 
1330	 4.58158233144332E-02 
1331	 5.04723900371533E-02 
1332	 3.72204666859247E-02 
1333	 0.039482047127766 
1334	 2.33923433306196E-02 
1335	 1.76153844091653E-02 
1336	 1.70548229316565E-02 
1337	 2.15458045702863E-02 
1338	 3.23214589983963E-02 
1339	 4.32062678871726E-02 
1340	 6.64366203868735E-02 
1341	 6.65030996973729E-02 
1342	 3.90705823080317E-02 
1343	 3.57302249549786E-02 
1344	 4.69531600938297E-02 
1345	 4.01671236701604E-02 
1346	 2.32531839699479E-02 
1347	 3.76550431814531E-02 
1348	 2.69539531275985E-02 
1349	 3.63338780496296E-02 
1350	 0.196007968153358 
1351	 0.281777195947101 
1352	 0.321303138273183 
1353	 0.381191453986895 
1354	 0.35160815858152 
1355	 0.39239831177106 
1356	 0.111103412400205 
1357	 6.33172169985687E-02 
1358	 0.445660089663112 
1359	 0.552628082339973 
1360	 0.532422566983582 
1361	 0.857673164922058 
1362	 1.17043648631226 
1363	 0.710909368544508 
1364	 0.520588863579272 
1365	 1.13168751365182 
1366	 1.08885350178437 
1367	 1.16796690259123 
1368	 1.07395018654677 
1369	 1.09938374232816 
1370	 1.5110481899523 
1371	 5.80728278328393 
1372	 3.25840739212233 
1373	 1.17074812988534 
1374	 0.953445163055631 
1375	 0.114488451929774 
1376	 0.035077337371486 
1377	 4.32280064552821 
1378	-2.26488703590476 
1379	 0.518753953795831 
1380	 0.44953697121597 
1381	-32.908769646627 
1382	 3.71892965945349 
1383	-3.3800377266901 
1384	-1.74367965486753 
1385	-7.09621644925498 
1386	-9.44842570838818 
1387	 1.43097427616975 
1388	 2.70624962098927 
1389	 0.444475969742007 
1390	 4.08143587571185 
1391	-7.88366211689636 
1392	 5.37613326328187 
1393	 1.87280491784987 
1394	 0.961180053147441 
1395	 1.85801448619379 
1396	 2.92802752280536 
1397	 2.1690457303862 
1398	 31.6221410812321 
1399	 8.17371276592144 
1400	-3.0964258074212 
1401	-0.70415393814364 
1402	 0.224268347659739 
1403	 1.59117567275764 
1404	 3.35697566434109 
1405	 5.25656589478225 
1406	-215.279775023707 
1407	-21.2576280031135 
1408	-2.43989822224688 
1409	-1.84733826266746 
1410	 3.12504998421362 
1411	 7.0958699839001 
1412	-2.47026251613099 
1413	-4.77951612522843 
1414	 7.9683160856966 
1415	 9.82740902655492 
1416	 2.04708811336029 
1417	 1.7942507376259 
1418	-4.83726998611633 
1419	-1.38899814001163 
1420	-0.323182454336483 
1421	-0.615715308127887 
1422	-10.9743916979371 
1423	 5.7608967733982 
1424	 0.42328929211479 
1425	 0.413753808062096 
1426	 2.06496546266371 
1427	 0.714891440711912 
1428	-0.195510809959515 
1429	-6.39109233238928E-02 
1430	 0.032822112692668 
1431	-7.85902070010899E-02 
1432	 0.569625337976534 
1433	 1.19965331503764 
1434	 0.31781996412273 
1435	 0.16600702743639 
1436	 0.251823422500565 
1437	 0.463298926549008 
1438	 0.944606383765535 
1439	 0.984664071551897 
1440	 0.787555530329629 
1441	-0.815515780345393 
1442	-0.880209811611647 
1443	-0.645511567487652 
1444	-0.754859884625407 
1445	 3.83037692271766E-02 
1446	 0.536943245725494 
1447	 1.08821754281788 
1448	 2.1702507980885 
1449	 1.89266792416709 
1450	 0.840110051359747 
1451	 8.03799420622243E-02 
1452	-0.620550120393957 
1453	-0.398642585681698 
1454	-8.11347932320119E-02 
1455	 0.260451835566506 
1456	 0.175159111895631 
1457	 0.158738272817953 
1458	 0.18397761635471 
1459	-8.32879435309102E-02 
1460	-6.94355610755444E-02 
1461	 0.286368871317275 
1462	 0.422623389818638 
1463	 0.476130368484261 
1464	 0.446071058674231 
1465	 0.408386420756442 
1466	 0.365979425952864 
1467	 9.52449410925199E-02 
1468	 3.54438336554293E-02 
1469	 0.121115778928029 
1470	 0.15051630652612 
1471	 0.301332398192602 
1472	 0.330119894927849 
1473	 0.2830779884588 
1474	 0.355916742195254 
1475	 0.508895601945218 
1476	 0.397332999678515 
1477	 0.241781679989728 
1478	 0.224275712884932 
1479	 0.129006934518067 
1480	 7.75446356605448E-02 
1481	 0.1245225168419 
1482	 0.137571972184748 
1483	 9.98496887898919E-02 
1484	 6.64604965168667E-02 
1485	 6.54395702314061E-02 
1486	 6.48925038060375E-02 
1487	 3.41243533710736E-02 
1488	 4.18121919932069E-02 
1489	 0.102599607169413 
1490	 8.97133990007497E-02 
1491	 2.71104601711586E-02 
1492	 2.59949605515312E-02 
1493	 5.06455341354704E-02 
1494	 3.47977555275967E-02 
1495	 1.50728209573278E-02 
1496	 1.46099000199863E-02 
1497	-1.22998165369186E-02 
1498	-1.65344081314165E-02 
1499	 1.64482420956863E-02 
1500	 0.027123236205434 
1501	 3.51256995654514E-02 
1502	 3.26175246104458E-02 
1503	 0.010336650518097 
1504	 6.7414499972178E-03 
1505	 5.48680235851555E-03 
1506	 6.88675293078951E-03 
1507	 1.60725146224972E-02 
1508	 2.53901545891966E-02 
1509	 2.16074742842196E-02 
1510	 1.28974849950636E-02 
1511	 1.55629722796164E-02 
1512	 2.16785006011553E-02 
1513	 1.47186856992545E-02 
1514	 3.55782639331834E-03 
1515	 6.43792311052638E-03 
1516	 8.75077818949332E-03 
1517	 8.50579059089395E-03 
1518	 1.88267283897011E-02 
1519	 1.61428560116372E-02 
1520	 9.3539882422493E-03 
1521	 1.11092833919075E-02 
1522	 9.1693425780839E-03 
1523	 1.49343439096334E-02 
1524	 1.81960150769148E-02 
1525	 1.35984545187006E-02 
1526	 1.62744699454006E-02 
1527	 1.61568709685002E-02 
1528	 9.72862329149326E-03 
1529	 1.15001018183422E-02 
1530	 1.67964255851401E-02 
1531	 1.08198508246895E-02 
1532	 5.55823119029542E-03 
1533	 9.76682065543583E-03 
1534	 8.68787317739056E-03 
1535	 3.53110549028956E-03 
1536	 4.52193957051258E-03 
1537	 5.52854544146776E-03 
1538	 3.64463736762731E-03 
1539	 5.46917732920465E-03 
1540	 1.12732123380732E-02 
1541	 1.23726361868738E-02 
1542	 9.96338382891728E-03 
1543	 0.01539537255987 
1544	 1.80674695881514E-02 
1545	 9.90302011703833E-03 
1546	 5.50701598927859E-03 
1547	 8.07611872379288E-03 
1548	 9.84484580185814E-03 
1549	 7.06388391869211E-03 
1550	 3.91051344258695E-03 
1551	 4.82547836967589E-03 
1552	 6.63949217802415E-03 
1553	 7.48326312227153E-03 
1554	 1.10038309693886E-02 
1555	 1.31747829383852E-02 
1556	 7.70172820742674E-03 
1557	 6.10638668431329E-03 
1558	 8.31036834570642E-03 
1559	 3.84822916953762E-03 
1560	 1.53853611565649E-03 
1561	 6.95205768274025E-03 
1562	 1.42802865574823E-02 
1563	 0.017863790813454 
1564	 1.58883281577872E-02 
1565	 1.21767217149413E-02 
1566	 7.09943170092557E-03 
1567	 5.95540274184097E-03 
1568	 1.09518490335402E-02 
1569	 1.10169358410138E-02 
1570	 9.72392424180716E-03 
1571	 1.17083549780496E-02 
1572	 0.0110823101668 
1573	 8.53346097581457E-03 
1574	 9.46950239567774E-03 
1575	 9.58627164720302E-03 
1576	 6.50324222347511E-03 
1577	 1.20947990809999E-02 
1578	 1.76562088356782E-02 
1579	 1.53345806449809E-02 
1580	 1.46436008144961E-02 
1581	 1.20297873287712E-02 
1582	 7.43585685857503E-03 
1583	 9.38708566533285E-03 
1584	 1.52743259371014E-02 
1585	 1.73048210076458E-02 
1586	 1.57631213395541E-02 
1587	 1.37299648183916E-02 
1588	 8.79007186241022E-03 
1589	 1.91186065333903E-03 
1590	 1.44474988903191E-03 
1591	 4.69869608022931E-03 
1592	 5.22614502362212E-03 
1593	 7.40671797160785E-03 
1594	 8.45155661347038E-03 
1595	 4.82177840681234E-03 
1596	 6.52186783632819E-03 
1597	 1.07307500565575E-02 
1598	 1.08176063225754E-02 
1599	 1.04543522238238E-02 
1600	 1.16794762909328E-02 
1601	 0.010812383215997 
1602	 7.6099051553735E-03 
1603	 9.30136128111338E-03 
1604	 6.71951264249855E-03 
1605	 1.1513649374638E-03 
1606	 3.06388411385677E-03 
1607	 1.22205913768698E-03 
1608	 1.00927159230237E-03 
1609	 9.14546326367524E-03 
1610	 1.06254728563205E-02 
1611	 9.61396939905502E-03 
1612	 0.01192155532822 
1613	 8.54612864237975E-03 
1614	 6.31153953739442E-03 
1615	 1.10109142626408E-02 
1616	 1.32439282842933E-02 
1617	 1.23316591776331E-02 
1618	 1.02505760870481E-02 
1619	 7.33800574006136E-03 
1620	 7.55602345206257E-03 
1621	 4.50541945870612E-03 
1622	-1.47855112731767E-03 
1623	-2.88651232570326E-03 
1624	-3.83966306560654E-03 
1625	-3.68775287564027E-03 
1626	 1.91780293697044E-03 
1627	 5.13774278967794E-03 
1628	 2.92022056759102E-03 
1629	 4.10169357943825E-03 
1630	 7.49968465306653E-03 
1631	 8.07373729457321E-03 
1632	 1.00545593830614E-02 
1633	 0.011688241075228 
1634	 1.32925351256912E-02 
1635	 1.95212491757227E-02 
1636	 2.00752077871673E-02 
1637	 1.64302380417962E-02 
1638	 0.018832276143907 
1639	 1.73240066018751E-02 
1640	 1.22201259000918E-02 
1641	 7.11640137735411E-03 
1642	 4.80211284344856E-04 
1643	 6.15629297128683E-04 
1644	 7.73234029224329E-03 
1645	 1.98755414876239E-02 
1646	 2.50845378313288E-02 
1647	 1.78608614805089E-02 
1648	 0.012273818628518 
1649	 1.14313620825659E-02 
1650	 1.21957231214943E-02 
1651	 1.15524424490262E-02 
1652	 1.19937326563912E-02 
1653	 9.20678870225996E-03 
1654	 6.8420696343825E-03 
1655	 1.07680236299153E-02 
1656	 1.11437097134573E-02 
1657	 4.14033786289183E-03 
1658	 4.51639467596881E-03 
1659	 1.23637355469442E-02 
1660	 1.18828271728471E-02 
1661	 7.96824642128981E-03 
1662	 8.94412344969911E-03 
1663	 8.82221043545786E-03 
1664	 9.00526793716524E-03 
1665	 1.17374341915905E-02 
1666	 1.13370970301814E-02 
1667	 9.19745137829663E-03 
1668	 7.3266193900838E-03 
1669	 7.42303251806116E-03 
1670	 1.22965293536291E-02 
1671	 1.80368071705243E-02 
1672	 1.77982327548118E-02 
1673	 1.51231866015038E-02 
1674	 1.41461397621861E-02 
1675	 8.27495192619018E-03 
1676	 9.36705791567513E-03 
1677	 1.51114116370285E-02 
1678	 1.47708594580455E-02 
1679	 9.67998809941475E-03 
1680	 2.91446525466885E-03 
1681	 3.02310901980199E-03 
1682	 6.16879922198853E-03 
1683	 1.00288248603366E-02 
1684	 1.77927294346194E-02 
1685	 1.98049688208921E-02 
1686	 1.64338377540603E-02 
1687	 1.62679376685339E-02 
1688	 1.72051230319778E-02 
1689	 1.52144941236966E-02 
1690	 1.30282219663336E-02 
1691	 1.22203706690796E-02 
1692	 8.6105618533285E-03 
1693	 5.8397443949817E-03 
1694	 5.36212787849592E-03 
1695	 4.87584703909726E-03 
1696	 5.52575735362129E-03 
1697	 9.94237845423932E-03 
1698	 1.59812159706783E-02 
1699	 2.08911537046261E-02 
1700	 2.46132801175167E-02 
1701	 1.91514904151814E-02 
1702	 0.011785362264711 
1703	 1.19701179862796E-02 
1704	 1.23596412649213E-02 
1705	 1.14818872645762E-02 
1706	 1.12649011610889E-02 
1707	 1.57301280842112E-02 
1708	 1.88665458597967E-02 
1709	 1.23446607302732E-02 
1710	 1.30787132545734E-02 
1711	 1.01671850653881E-02 
1712	-2.03441690989256E-03 
1713	 7.02247008635336E-03 
1714	 6.04199516634111E-03 
1715	-1.07708084228993E-03 
1716	-1.02740237366986E-02 
1717	-1.66410331161913E-02 
1718	-1.29069655150659E-02 
1719	 1.1891428910184E-03 
1720	 1.24546002450032E-04 
1721	-4.22517690274058E-03 
1722	 2.23591665985345E-03 
1723	-4.98127554131713E-03 
1724	-1.38043770804151E-02 
1725	-4.15620035208477E-04 
1726	 1.58453378525439E-02 
1727	 1.74310675301153E-02 
1728	 1.81571996870766E-02 
1729	 0.016255090327026 
1730	 7.61671585889326E-03 
1731	 7.63912907249429E-03 
1732	 2.33381526142396E-02 
1733	 3.43773503785634E-02 
1734	 3.15953119749267E-02 
1735	 2.78882023836502E-02 
1736	 2.48318304387139E-02 
1737	 2.73878243964469E-02 
1738	 2.29913365499267E-02 
1739	 2.47114356801934E-02 
1740	 2.91508963780117E-02 
1741	 1.41776910435672E-02 
1742	 1.48823968881236E-02 
1743	 9.8540625040443E-03 
1744	-4.46642592101402E-03 
1745	 1.07786500853824E-02 
1746	-7.60705980779483E-04 
1747	-4.90496996750596E-03 
1748	-8.2416609663614E-03 
1749	-1.00155787647808E-02 
1750	 9.24672743940185E-04 
1751	 8.1425252986623E-03 
1752	 1.96365891312239E-02 
1753	 1.85337634353903E-02 
1754	 1.1007458909951E-03 
1755	 7.82659441293368E-04 
1756	-3.60906264585282E-03 
1757	-7.06392368963198E-03 
1758	 1.59268833263791E-02 
1759	 1.89046515283778E-02 
1760	 3.52381020041625E-02 
1761	 0.050898816040835 
1762	 2.95954118547271E-02 
1763	 1.38244625331994E-02 
1764	 1.17402774039219E-02 
1765	 7.97114254158746E-03 
1766	 1.68934739466789E-02 
1767	 0.041721535069427 
1768	 4.62124117802265E-02 
1769	 3.92505182175446E-02 
1770	 6.10528802346748E-02 
1771	 5.46872732666863E-02 
1772	 0.017896005858433 
1773	 2.63675239466293E-02 
1774	 3.65373855415367E-02 
1775	 6.10511771853815E-02 
1776	 7.16651460156411E-02 
1777	 7.08023081476076E-02 
1778	 6.18549115770603E-02 
1779	 0.023850308155091 
1780	-8.77867213340606E-03 
1781	-8.05716069081116E-02 
1782	-7.73715426946182E-02 
1783	-8.80633897031542E-03 
1784	 5.52366535138006E-02 
1785	 0.201485500397726 
1786	 0.253664195922307 
1787	 0.259459800652642 
1788	 0.264341335203462 
1789	 0.18980195481187 
1790	 0.169456769217848 
1791	 0.162840931842664 
1792	 0.13933628335752 
1793	 0.185531987644438 
1794	 0.177984118355064 
1795	 0.226799578806201 
1796	 0.588226237609533 
1797	 0.945692771768685 
1798	 0.400894899413751 
1799	 0.243135521058162 
1800	 0.451783728245603 
1801	 0.435691336437964 
1802	 0.673816982926245 
1803	 0.880702106964292 
1804	 0.351328883517753 
1805	 0.244870007003221 
1806	 0.548697697130281 
1807	 0.805475793631361 
1808	 1.8769746386252 
1809	-20.3757399002073 
1810	-0.39512020444665 
1811	-0.600023578894793 
1812	 9.90374140512913E-03 
1813	 0.132051361098351 
1814	 0.346895999242512 
1815	 0.310902545343462 
1816	 0.143812581862323 
1817	 6.38104325113524 
1818	-0.602573231998349 
1819	-4.02038349968508 
1820	 15.8661710534872 
1821	-4.56860046736564E-02 
1822	-7.04773233048422E-02 
1823	 0.615832925503075 
1824	 0.880050221291504 
1825	 0.121027009379444 
1826	 9.36201242245289E-03 
1827	-4.89158993507483 
1828	-0.495097591160788 
1829	 1.83180227560014 
1830	 1.94680590699155 
1831	 1.18742437166382 
1832	 1.3473220037612 
1833	 2.1219023515823 
1834	 2.29194707885923 
1835	 2.23136727393178 
1836	 2.34602262034697 
1837	 4.87833104428328 
1838	 3.61191748027698 
1839	 1.59259157825448 
1840	 1.58622165656784 
1841	 1.39940181711985 
1842	 0.724977324000705 
1843	 0.671495316456083 
1844	 1.79105302355889 
1845	 2.43979544656282 
1846	 1.64681716770329 
1847	 1.58357495808128 
1848	 1.14674417363231 
1849	 0.585028841769955 
1850	 1.03257119448272 
1851	 2.25044650774386 
1852	 6.42068585775089 
1853	-12.9995780584406 
1854	-4.43019358108428 
1855	-11.7715959651789 
1856	-11.4832984735297 
1857	-4.57625463045817 
1858	-3.60643746973024 
1859	-2.2574826021513 
1860	-3.47717419177075 
1861	 15.0694834083628 
1862	 4.80691209971173 
1863	 2.71527135109144 
1864	 1.96301059028423 
1865	 1.71663882110752 
1866	 1.47968618415499 
1867	 1.47235504232375 
1868	 1.95843680371717 
1869	 2.13629276711267 
1870	 2.91992840740065 
1871	 4.25750293820937 
1872	 5.10949187516381 
1873	-5.1183537256652 
1874	-10.9153698035857 
1875	-5.39044914520862 
1876	-4.30296170688227 
1877	-3.40983306776817 
1878	-2.8863751080455 
1879	-1.98580960742153 
1880	-2.11143576493058 
1881	-3.24602669030895 
1882	 11.5771131836724 
1883	 1.95825074258184 
1884	 1.73283157884872 
1885	 2.42214209096353 
1886	-7.60667620797432 
1887	-5.70619273337882 
1888	 25.7219477370385 
1889	 63.4136203505686 
1890	-12.4747720642123 
1891	-12.5753156963436 
1892	 133.512628569878 
1893	-3.11827507715778 
1894	-2.26795889307807 
1895	-1.87868317953848 
1896	-1.75123782822893 
1897	-4.44656148541666 
1898	 4.96087692638306 
1899	 1.45386665908791 
1900	 1.13578369963044 
1901	 0.849995030679969 
1902	 0.935808926545548 
1903	 1.77718840458212 
1904	 3.37584109571796 
1905	 3.2099268572394 
1906	 2.95948947457056 
1907	-6.8763239632573 
1908	-3.0281147906728 
1909	-2.32807427780688 
1910	-1.14576155159286 
1911	-2.45306886099997 
1912	 3.15610209010524 
1913	 1.62011643239239 
1914	 3.93781347807565 
1915	 2.31318267206484 
1916	 1.92491296304413 
1917	 4.8907313791414 
1918	 6.76943883765935 
1919	 2.33362954381193 
1920	 2.96883033635552 
1921	 4.65518552487148 
1922	 1.97629466850872 
1923	 1.67322446673292 
1924	 2.41913570089925 
1925	 2.54637532448085 
1926	 2.379226953161 
1927	 2.97056949015723 
1928	 1343.35204009305 
1929	-8.49577002212046E-03 
1930	-0.171250919641838 
1931	-0.702693691142621 
1932	-0.404922667825036 
1933	-0.682412290245479 
1934	-1.21101633288686 
1935	-1.61458730830583 
1936	-0.891604932819224 
1937	-0.236321356367242 
1938	 0.136675149519884 
1939	 7.40791728706586 
1940	-0.627913230332646 
1941	 0.25304992463504 
1942	 0.288052178937012 
1943	 0.197234275025734 
1944	 0.396970065391733 
1945	 0.833261944118978 
1946	 1.54114931484123 
1947	 1.56291148931765 
1948	 1.28868625506471 
1949	 1.24595983433269 
1950	 1.97310646062437 
1951	-11.0677620591821 
1952	-1.74581779751499 
1953	-0.804734019842325 
1954	-0.498255809807613 
1955	-0.362155867948549 
1956	-0.696186897334344 
1957	-0.607746400513795 
1958	-0.519859511241975 
1959	-0.125874217826725 
1960	 0.413324357690996 
1961	 1.9884582295501 
1962	 2.21006669713992 
1963	 6.61315068008578 
1964	 3.98472809756123 
1965	 0.993590518972601 
1966	 0.617994706548961 
1967	 0.342830187051601 
1968	 0.355868152829838 
1969	 0.332524878811849 
1970	 0.505178751332025 
1971	 0.493608642997979 
1972	 0.483889546956511 
1973	 0.420558926330866 
1974	 0.193421062533098 
1975	 0.414070251786904 
1976	 0.568347773579166 
1977	 0.615427604037171 
1978	 0.900447232718617 
1979	 0.999200009725723 
1980	 0.955353234992762 
1981	 0.896239544968821 
1982	 0.88471503850412 
1983	 0.618417521006498 
1984	 0.415917458095841 
1985	 0.338349051340166 
1986	 0.290323355441994 
1987	 0.229289123356843 
1988	 0.229835882458774 
1989	 0.184125125557241 
1990	 6.46183831487455E-02 
1991	 4.69282712877037E-02 
1992	 0.131055893727817 
1993	 0.134846606824265 
1994	 0.201820898566392 
1995	 0.31347166909849 
1996	 0.494674496735876 
1997	 0.498092236712124 
1998	 0.481316142495869 
1999	 0.401848329221851 
2000	 0.261853506019213 
2001	 0.335081640125204 
2002	 0.309820829037655 
2003	 0.186336974711557 
2004	 0.224677095768032 
2005	 0.252781347077811 
2006	 0.295764260186407 
2007	 0.354861906232852 
2008	 0.315404880739895 
2009	 0.305188274151014 
2010	 0.187339927535914 
2011	 0.11533359850846 
2012	 4.67674624551793E-02 
2013	 8.38173660801868E-02 
2014	 0.211340081630621 
2015	 0.205482804643973 
2016	 0.381200515784463 
2017	 0.468289963022313 
2018	 0.319754561818099 
2019	 0.317868200147834 
2020	 0.332717732386678 
2021	 0.286189651380294 
2022	 0.303821899792233 
2023	 0.272122786546089 
2024	 0.221314331305773 
2025	 0.110099731972131 
2026	 5.50409314697106E-02 
2027	 9.4200983879181E-03 
2028	 2.37714916714718E-02 
2029	 6.38179646030281E-03 
2030	 8.25668636104114E-02 
2031	 0.17978631619007 
2032	 0.209385453500607 
2033	 0.260710242961946 
2034	 0.290504978610977 
2035	 0.277406724529043 
2036	 0.270675656112654 
2037	 0.255433832355961 
2038	 0.201275008543683 
2039	 0.15913170331387 
2040	 0.108062492683186 
2041	 9.27012004877637E-02 
2042	 7.78342946958381E-02 
2043	 9.20838591705089E-02 
2044	 0.150334207078682 
2045	 0.177149257831319 
2046	 0.210631645871672 
2047	 0.232410263562354 
2048	 0.203454269206368 
2049	 0.163756664535495 
2050	 0.137380623198409 
2051	 8.23267376398162E-02 
2052	 5.55148580480163E-04 
2053	 9.55274109185692E-03 
2054	 3.99118439315448E-02 
2055	 3.20856342481017E-02 
2056	 4.01118687381734E-02 
2057	 0.112720184670046 
2058	 0.117580952543013 
2059	 3.78834215670968E-02 
2060	 4.12319156644393E-02 
2061	 9.65175087192141E-02 
2062	 8.17020891035115E-02 
2063	 8.78900152971508E-02 
2064	 0.168350976036707 
2065	 0.117168582462588 
2066	 5.01682749787765E-02 
2067	 3.28237166509182E-02 
2068	 3.46723531079874E-03 
2069	 7.84180362235441E-03 
2070	 6.15807885146483E-02 
2071	 6.92033842219643E-02 
2072	 4.40694563486566E-02 
2073	 2.79202777666027E-02 
2074	-3.13936029966677E-02 
2075	-1.31383280660877E-02 
2076	 5.32750018424463E-02 
2077	 0.070470143405665 
2078	 0.11880536984038 
2079	 0.123076839547939 
2080	 6.34047229676822E-02 
2081	 5.76459337794406E-02 
2082	 8.02314561313361E-02 
2083	 9.50858715867689E-02 
2084	 0.106681832254752 
2085	 0.115644636550049 
2086	 0.128660167367736 
2087	 0.114265505572676 
2088	 9.62075993410079E-02 
2089	 7.96696445021906E-02 
2090	 6.65337702893346E-02 
2091	 4.02589098072646E-02 
2092	 1.89022724429132E-02 
2093	-4.1898441371593E-03 
2094	 3.69448850791322E-03 
2095	 0.020980198846622 
2096	 3.58631322464642E-02 
2097	 0.10586728550054 
2098	 0.109008540341031 
2099	 6.81674000822947E-02 
2100	 1.77417235471489E-02 
2101	-1.13126751825597E-02 
2102	-4.00664861485466E-03 
2103	 1.63019939534363E-02 
2104	 3.60518068357278E-02 
2105	 6.28686969632417E-02 
2106	 3.22056305582005E-02 
2107	 2.55695327093713E-02 
2108	 8.04188022881285E-02 
2109	 0.104607303502164 
2110	 9.76194986416453E-02 
2111	 8.95391602145337E-02 
2112	 7.31658709931259E-02 
2113	 6.11697069277212E-02 
2114	 4.48186295205222E-02 
2115	 5.44283600891465E-02 
2116	 7.80814463432755E-02 
2117	 8.75276612298838E-02 
2118	 0.128745921193879 
2119	 0.13533348901508 
2120	 0.113875494855325 
2121	 0.088312082447203 
2122	 7.94019221338296E-02 
2123	 2.30634997070603E-02 
2124	-7.72738017735413E-03 
2125	 1.21706077967788E-02 
2126	-1.09574408322085E-02 
2127	-2.01130185483491E-02 
2128	-2.07684579630809E-03 
2129	-9.27111838526811E-03 
2130	 0.012318907951998 
2131	 0.024170722653889 
2132	 3.42031091872092E-02 
2133	 0.076407423395198 
2134	 8.07808961564689E-02 
2135	 6.71825123243696E-02 
2136	 7.84145825844337E-02 
2137	 7.82170341237728E-02 
2138	 7.55594486868827E-02 
2139	 8.04692525498878E-02 
2140	 9.98560768274151E-02 
2141	 0.138982313466665 
2142	 0.14574469755954 
2143	 0.143054062964837 
2144	 0.167609046321382 
2145	 0.141836766770446 
2146	 0.100506268443097 
2147	 0.120145587911007 
2148	 0.123268437831177 
2149	 0.14058289612616 
2150	 0.163245905365302 
2151	 0.13854254643286 
2152	 0.126254151168291 
2153	 0.113257354676902 
2154	 8.47475729963136E-02 
2155	 0.112740434184605 
2156	 0.150725219153334 
2157	 0.146131547622262 
2158	 0.109056875540809 
2159	 0.108019376171075 
2160	 9.80927968662897E-02 
2161	 0.104840723487765 
2162	 0.152836528551934 
2163	 0.180359492980668 
2164	 0.18221240447004 
2165	 0.185535112498257 
2166	 0.209125189629065 
2167	 0.205631960850512 
2168	 0.183625408664536 
2169	 0.173048353169945 
2170	 0.169017188807459 
2171	 0.125446960182617 
2172	 8.72287635210274E-02 
2173	 7.50924148104401E-02 
2174	 4.38472488241398E-02 
2175	 3.78166164963555E-02 
2176	 3.62476446546846E-02 
2177	 3.53395637652693E-02 
2178	 7.57694094093315E-02 
2179	 0.124333076715143 
2180	 0.171096376969989 
2181	 0.219749159316083 
2182	 0.250428611572917 
2183	 0.233133985501514 
2184	 0.19815548919819 
2185	 0.17227451119859 
2186	 0.15050563726301 
2187	 9.61858696293485E-02 
2188	 0.083228087838493 
2189	 0.11571272691317 
2190	 0.104096249314507 
2191	 9.29939732266979E-02 
2192	 7.94326925425761E-02 
2193	 3.31001117790717E-03 
2194	 6.89234967647964E-03 
2195	 8.21497260461949E-02 
2196	 0.099565700150369 
2197	 0.134757584365915 
2198	 0.171978038824211 
2199	 0.17774376488866 
2200	 0.167952267967314 
2201	 0.191453498646331 
2202	 0.166883285512464 
2203	 0.159985737661604 
2204	 0.149303353983322 
2205	 9.78342329967341E-02 
2206	 0.101845721230122 
2207	 0.087960357226496 
2208	 6.88178420921625E-02 
2209	 0.105803963600889 
2210	 0.133515415808204 
2211	 0.152889008529321 
2212	 0.178017638513588 
2213	 0.187476214567115 
2214	 0.218661443742047 
2215	 0.203176291844032 
2216	 0.160285895027615 
2217	 0.130504346041092 
2218	 7.23416450639006E-02 
2219	 3.37589017496173E-02 
2220	-1.19194284913644E-02 
2221	-1.32033076419283E-02 
2222	 0.017298986669762 
2223	 5.92278106581292E-02 
2224	 0.170701224111273 
2225	 0.208612304441913 
2226	 0.225111568162027 
2227	 0.184679000264222 
2228	 5.58451994534501E-02 
2229	 3.31750154564753E-02 
2230	 2.51132289423353E-02 
2231	 2.58602312733745E-02 
2232	 0.094477824309387 
2233	 0.113866810206408 
2234	 8.13497017750778E-02 
2235	 0.119936971902255 
2236	 0.134023815515778 
2237	 0.151334938410875 
2238	 0.188688984454692 
2239	 0.184399986496407 
2240	 0.206229037776933 
2241	 0.207181214092747 
2242	 0.192293008967385 
2243	 0.183981234066084 
2244	 0.182849947424714 
2245	 0.195322526606503 
2246	 0.132890279127107 
2247	 9.98361391333154E-02 
2248	 0.127233710439009 
2249	 0.136748824669299 
2250	 0.185000490663987 
2251	 0.22819740289995 
2252	 0.149258526464124 
2253	 5.77135073930937E-02 
2254	 2.50531481635843E-02 
2255	 1.31278560490428E-02 
2256	 0.070495296780357 
2257	 0.099390879560345 
2258	 5.03156512787565E-02 
2259	 6.18570301748054E-02 
2260	 5.02776996409966E-02 
2261	-5.16684530948798E-02 
2262	-7.19799267130639E-02 
2263	 4.31104883185987E-03 
2264	 1.86094641036316E-03 
2265	-6.19609831545638E-02 
2266	 2.02831115417731E-02 
2267	 0.197443616834702 
2268	 0.268989232460698 
2269	 0.427803025927361 
2270	 0.494257037293261 
2271	 0.341199901835955 
2272	 0.320946293760081 
2273	 0.428242675790766 
2274	 0.4074237267167 
2275	 0.317669722499137 
2276	 0.308402703342132 
2277	 0.270204306948801 
2278	 0.255236347644733 
2279	 0.386010289007859 
2280	 0.377139974527225 
2281	 0.24638756297343 
2282	 0.178552757696467 
2283	 0.205331036005981 
2284	 0.17201341169823 
2285	 0.245629682722642 
2286	 0.361520860508115 
2287	 0.395609034274338 
2288	 0.305034209988809 
2289	 0.258835660168868 
2290	 0.297052666218281 
2291	 0.277543323508814 
2292	 0.198279761879434 
2293	 0.226924426711122 
2294	 0.165779887100226 
2295	 6.52961640028982E-02 
2296	 0.148273199608906 
2297	 8.27169488194286E-02 
2298	-8.91733618671697E-02 
2299	-0.185568500633646 
2300	-0.270505723255721 
2301	-0.229238199937196 
2302	-0.130418572785013 
2303	 4.09770142939485E-02 
2304	 0.27453775041667 
2305	 0.312575632745026 
2306	 0.303507094756456 
2307	 0.300965434077189 
2308	 0.115286952236869 
2309	 0.201402528825411 
2310	 0.368671686167657 
2311	 0.301683901884531 
2312	 0.351323531024418 
2313	 0.17225828528683 
2314	 7.68293428473468E-02 
2315	 0.159424285286671 
2316	 3.76791814891256E-02 
2317	 9.24374263054676E-03 
2318	 0.24212258351117 
2319	 0.245438918398826 
2320	 0.308316890996641 
2321	 0.551032450136952 
2322	 0.714643023640751 
2323	 0.864516460029681 
2324	 0.874957526509491 
2325	 0.78045113658707 
2326	 0.658559060680417 
2327	 0.615286751380364 
2328	 0.715960939916191 
2329	 0.821334920614289 
2330	 0.849907480145618 
2331	 0.74360771120212 
2332	 0.615167970463366 
2333	 0.516195349168561 
2334	 0.325523602366051 
2335	 0.277804072752268 
2336	 0.131635228478839 
2337	-0.261212653914767 
2338	-0.35538805794724 
2339	-1.00183173047331 
2340	-3.04133356341456 
2341	-0.383057622484345 
2342	 0.482785633966794 
2343	 0.449203267693726 
2344	 0.408501291098071 
2345	 0.658767661866413 
2346	 0.796317207995104 
2347	 0.720192705210926 
2348	 1.28219352842684 
2349	 1.35537655477091 
2350	 1.46517619498015 
2351	 2.64999890563546 
2352	 3.96169670363985 
2353	 11.0984450453119 
2354	-10.2309824385179 
2355	-14.8532771620486 
2356	 6.80540923856775 
2357	 1.39856390101131 
2358	 1.16289029822864 
2359	 0.82066738064754 
2360	 0.566806440682504 
2361	 1.36569445750614 
2362	 1.88179450801217 
2363	 1.37768618542634 
2364	 0.895544193983248 
2365	 0.166293821922764 
2366	 0.223067275393658 
2367	 0.640880273423798 
2368	 1.82362995828579 
2369	 2.73861783327181 
2370	 1.92083721200614 
2371	 1.45700260424986 
2372	 1.28458744869221 
2373	 1.03583049312729 
2374	 2.31062466549151 
2375	-2.68320762350063 
2376	-0.949330233870614 
2377	-1.23115615624267 
2378	-1.89830089206851 
2379	-2.84572954746482 
2380	 6.60592349745468 
2381	 8.36951048556346 
2382	-2.63311294513575 
2383	-21.9173707680068 
2384	 0.443101691503583 
2385	 0.54334761110421 
2386	 0.574002427105251 
2387	 0.381060859704902 
2388	 0.712008697198106 
2389	 1.19127770349491 
2390	 2.26137054707632 
2391	 6.42816114152257 
2392	-5.92073448601097 
2393	-4.93628999921843 
2394	-5.30774020583386 
2395	-1.8718692190227 
2396	-2.95606370023214 
2397	-18.2623472309087 
2398	-36.1489799001148 
2399	-143.309889686245 
2400	-1.94815706643936 
2401	-0.602812179803509 
2402	-0.612421622017731 
2403	-0.386390339866963 
2404	 4.46611725763735 
2405	-6.18702100205912 
2406	 0.38044112607497 
2407	-0.141482836705968 
2408	-0.163128034658371 
2409	-0.295262099812483 
2410	-0.162386651795293 
2411	 0.250712442419697 
2412	-0.320104822973331 
2413	-0.597541061872447 
2414	 3.77986919418345 
2415	 2.47571455839558 
2416	 1.28030588487674 
2417	 1.42480255845184 
2418	 1.02855328422334 
2419	 0.375252312098083 
2420	 0.474581166241162 
2421	 0.386379887140654 
2422	-0.933709004268693 
2423	-2.67170154800092 
2424	-4.33809390740558 
2425	-41.09254396821 
2426	-44.2302969231848 
2427	 7.8217437454248 
2428	 13.2326832749434 
2429	-1.12443445997962 
2430	 2.59899390946711E-02 
2431	 1.12391941596924E-02 
2432	-0.153273968752847 
2433	-0.525931677015858 
2434	 4.17600927831714 
2435	 1.00330256237558 
2436	 7.92309170698049E-02 
2437	-0.585124623835131 
2438	-13.8454567845021 
2439	-8.86320955807285 
2440	-10.0689808264503 
2441	-11.4484266015717 
2442	-4.54768161284857 
2443	 23.4397629658305 
2444	-0.866545300185426 
2445	-1.16498268106044 
2446	-0.468693629605335 
2447	 0.207964379717097 
2448	 0.222193166279511 
2449	 0.384304785452561 
2450	 0.625329448317448 
2451	-1.19541888472793 
2452	 0.832596675471663 
2453	-0.600686555627666 
2454	-0.871904128921422 
2455	-0.878031642506701 
2456	-1.07241985105107 
2457	 4.21520565267154 
2458	 0.803013634590648 
2459	 4.91024625302929E-02 
2460	-0.214601762207213 
2461	-0.585229795771584 
2462	-5.48136964734686 
2463	-1.36035255790343 
2464	 3.78163566813359 
2465	 1.46876597691853 
2466	-2.01696423702765E-02 
2467	 0.318934283578444 
2468	 0.685704622166964 
2469	 0.169714087535922 
2470	-0.268884741883386 
2471	-0.250540935961416 
2472	 1.60793272647202E-02 
2473	-0.285253064951681 
2474	-0.918521238582276 
2475	-0.474857155928445 
2476	-1.84292426314951E-02 
2477	 0.236939019960464 
2478	 5.89949210772585E-02 
2479	 7.53426722135396 
2480	-0.134373878575469 
2481	 0.412657501706888 
2482	-1.43990148980781 
2483	-1.65976114907753 
2484	-0.275978435834221 
2485	-0.455312899538475 
2486	-0.588900992575822 
2487	-0.468814173175793 
2488	-0.37754672758166 
2489	-0.534453361277802 
2490	 0.28791736441273 
2491	-0.458326835293426 
2492	-0.501671120380198 
2493	-0.218407775482884 
2494	 0.212509558146387 
2495	 0.396511689732774 
2496	 0.536866593892615 
2497	 0.676978089745778 
2498	 1.70099553200895 
2499	-4.10949998366496 
2500	-2.35626551877003 
