Wavelength	rt0802close00002.asd
350	 2.40697362322817E-02 
351	 2.50680649810909E-02 
352	 2.35258865822905E-02 
353	 2.31790550499521E-02 
354	 2.55762913335291E-02 
355	 2.56449004797899E-02 
356	 0.026592141244802 
357	 2.74627890094859E-02 
358	 2.65759548344211E-02 
359	 2.43420445008349E-02 
360	 2.52658993321059E-02 
361	 2.76453045622885E-02 
362	 2.62332269929481E-02 
363	 2.67748394946414E-02 
364	 2.66450972849236E-02 
365	 2.52967826101708E-02 
366	 2.68984677217366E-02 
367	 2.74342854153103E-02 
368	 2.71544048149647E-02 
369	 2.70099153982188E-02 
370	 2.60034529282844E-02 
371	 2.58923799750245E-02 
372	 2.68498504675959E-02 
373	 2.79883352962811E-02 
374	 2.87286187560372E-02 
375	 2.90596978617373E-02 
376	 2.89110037373055E-02 
377	 2.80323335504562E-02 
378	 2.86190803521475E-02 
379	 2.90810745131229E-02 
380	 2.81771621969655E-02 
381	 2.89015933424439E-02 
382	 2.84175228178502E-02 
383	 2.86241148255209E-02 
384	 3.22551220663597E-02 
385	 3.09028280471367E-02 
386	 3.02038891730532E-02 
387	 3.15857648343102E-02 
388	 3.05921669765694E-02 
389	 3.14317011028596E-02 
390	 3.27009051346991E-02 
391	 3.27273240443909E-02 
392	 3.17657117049884E-02 
393	 3.17552483701717E-02 
394	 3.20706007323146E-02 
395	 3.17049511605734E-02 
396	 3.36512759031238E-02 
397	 3.41915190440521E-02 
398	 3.31499573067716E-02 
399	 3.35698769961137E-02 
400	 3.49083869604926E-02 
401	 3.46892582440262E-02 
402	 3.26649999905694E-02 
403	 3.42344926009338E-02 
404	 3.49674171298396E-02 
405	 3.47740254733603E-02 
406	 0.035017700298496 
407	 3.54331578118478E-02 
408	 0.035682449409547 
409	 3.58645324610889E-02 
410	 0.036467788832205 
411	 3.66620907279666E-02 
412	 3.67823542923864E-02 
413	 3.70322282601519E-02 
414	 3.66662609133068E-02 
415	 3.69470010196429E-02 
416	 3.77560502271872E-02 
417	 0.038339910581385 
418	 3.80085975045556E-02 
419	 3.77962049678168E-02 
420	 3.82120656090252E-02 
421	 3.90360025835313E-02 
422	 3.97647164311898E-02 
423	 4.01836599871173E-02 
424	 4.02921002415635E-02 
425	 4.03729616538314E-02 
426	 4.08020129790896E-02 
427	 4.16754268517632E-02 
428	 0.042727027229253 
429	 4.24831821328006E-02 
430	 4.26039495192732E-02 
431	 4.34863064330612E-02 
432	 4.37056940816272E-02 
433	 4.38459364444239E-02 
434	 4.41074563857902E-02 
435	 4.44867310451401E-02 
436	 4.45639391109991E-02 
437	 4.49169504537328E-02 
438	 4.56390524488654E-02 
439	 4.64612034496275E-02 
440	 4.66180996268595E-02 
441	 4.69529825147916E-02 
442	 0.047693853918537 
443	 4.78887701347227E-02 
444	 4.83776731624268E-02 
445	 4.90385483138858E-02 
446	 4.95763171726033E-02 
447	 5.01456190758576E-02 
448	 5.03553044026769E-02 
449	 0.050454990830496 
450	 5.10846904897652E-02 
451	 5.13905150006254E-02 
452	 5.15999505789371E-02 
453	 5.19387241021655E-02 
454	 5.22917094063395E-02 
455	 5.27848539267799E-02 
456	 5.31161895793175E-02 
457	 5.29974865543977E-02 
458	 5.30161654379657E-02 
459	 5.33671918529509E-02 
460	 5.39022378629265E-02 
461	 5.41548675639198E-02 
462	 5.39293216871146E-02 
463	 5.38323086322013E-02 
464	 5.43257308473637E-02 
465	 0.055102951703741 
466	 5.52883189701059E-02 
467	 5.50779706940129E-02 
468	 5.51931340143493E-02 
469	 5.55418287050696E-02 
470	 5.57587617193789E-02 
471	 5.58876660152181E-02 
472	 5.65544992973798E-02 
473	 5.69061436608265E-02 
474	 5.70806928055106E-02 
475	 5.73212228163317E-02 
476	 0.057133274076786 
477	 5.76682471174302E-02 
478	 5.85900362318981E-02 
479	 5.86400092025429E-02 
480	 5.86222593014263E-02 
481	 5.90512754107936E-02 
482	 5.98707726964898E-02 
483	 5.99421642410323E-02 
484	 6.00070109879388E-02 
485	 6.04766889309208E-02 
486	 6.14278943993356E-02 
487	 6.19297778178834E-02 
488	 6.18510634512286E-02 
489	 6.17732901038666E-02 
490	 6.27992788328869E-02 
491	 6.32962494254464E-02 
492	 6.35774552386135E-02 
493	 6.41579587229187E-02 
494	 6.50689121858672E-02 
495	 6.57082030122352E-02 
496	 6.60237246190099E-02 
497	 6.62986828912601E-02 
498	 6.68417340601317E-02 
499	 6.74133795658561E-02 
500	 6.79858728132277E-02 
501	 0.068974830572312 
502	 6.93781600525801E-02 
503	 6.96776510564248E-02 
504	 7.05180393832279E-02 
505	 7.12642377891491E-02 
506	 7.20780866851235E-02 
507	 7.28640902921911E-02 
508	 7.33589825205492E-02 
509	 7.41295592801879E-02 
510	 7.48507290474298E-02 
511	 7.53743307266632E-02 
512	 7.63287077511488E-02 
513	 7.72393789515137E-02 
514	 7.78779098831234E-02 
515	 7.82986683383333E-02 
516	 7.98109589618862E-02 
517	 8.07010331748637E-02 
518	 8.07508299528502E-02 
519	 8.18799328629403E-02 
520	 8.29788244366335E-02 
521	 0.08384753919698 
522	 8.45202828266015E-02 
523	 8.49768612948116E-02 
524	 8.61146878200566E-02 
525	 8.73487872256966E-02 
526	 8.72964252056795E-02 
527	 8.84636097046783E-02 
528	 8.96469787364509E-02 
529	 9.01492031756457E-02 
530	 9.14063060116486E-02 
531	 9.22208701364751E-02 
532	 9.28502409169925E-02 
533	 9.39225021090994E-02 
534	 9.49146359641384E-02 
535	 9.55697805440609E-02 
536	 9.62049935472437E-02 
537	 9.77345078349913E-02 
538	 9.87024247302375E-02 
539	 9.93113820317925E-02 
540	 0.100131331365929 
541	 0.10154996497984 
542	 0.10251225143674 
543	 0.103060613491895 
544	 0.103925363389592 
545	 0.105125393233244 
546	 0.106057906524339 
547	 0.106621570768905 
548	 0.107845337739851 
549	 0.109024565075171 
550	 0.109833753468309 
551	 0.1102612036722 
552	 0.111233098914516 
553	 0.112303712652702 
554	 0.113337460169807 
555	 0.114622617245464 
556	 0.115294779539677 
557	 0.115907517599306 
558	 0.116978896089022 
559	 0.117725746715397 
560	 0.118494356971673 
561	 0.119254407483002 
562	 0.119810322222832 
563	 0.120862125808835 
564	 0.121468141382609 
565	 0.121360871067731 
566	 0.121994540002734 
567	 0.12284863629378 
568	 0.123751773444979 
569	 0.124518590826642 
570	 0.124398005541436 
571	 0.124801248952848 
572	 0.125721373908983 
573	 0.125532117112386 
574	 0.125704802028706 
575	 0.126370861219441 
576	 0.127185168687403 
577	 0.12734139755937 
578	 0.127495020189104 
579	 0.127844658263553 
580	 0.128222541953599 
581	 0.127823321549108 
582	 0.12779655414744 
583	 0.128387697913402 
584	 0.127726836589536 
585	 0.126874781974004 
586	 0.126263940588214 
587	 0.126016802327886 
588	 0.125421846950995 
589	 0.125034309440707 
590	 0.124797268079002 
591	 0.123915962256455 
592	 0.123887713240057 
593	 0.123637519517712 
594	 0.122378986406266 
595	 0.121718585478652 
596	 0.121176804290814 
597	 0.120377765900439 
598	 0.119147875428096 
599	 0.118630225968249 
600	 0.118111355741045 
601	 0.117350122786863 
602	 0.117283439892938 
603	 0.116800372198068 
604	 0.11626341145142 
605	 0.116300039881053 
606	 0.116330173390818 
607	 0.116317984796356 
608	 0.116223523021799 
609	 0.116004640291625 
610	 0.116299028794919 
611	 0.116498695783689 
612	 0.116147124890967 
613	 0.115978144322429 
614	 0.116272959193135 
615	 0.116754552905395 
616	 0.116853853267952 
617	 0.116890229645582 
618	 0.116613139673847 
619	 0.116130587813733 
620	 0.116221736983841 
621	 0.116362425477057 
622	 0.116229863078025 
623	 0.11572936026584 
624	 0.115542106535835 
625	 0.115363731497441 
626	 0.115270060739387 
627	 0.115686427420026 
628	 0.115556283809701 
629	 0.115146801016616 
630	 0.114957064097495 
631	 0.115432054083209 
632	 0.115515078653658 
633	 0.115466503808911 
634	 0.115949261151207 
635	 0.115338840231475 
636	 0.115016423846957 
637	 0.115295526667704 
638	 0.114559867889758 
639	 0.114590716671664 
640	 0.114957877421671 
641	 0.114801650428235 
642	 0.114348397992142 
643	 0.113732816607541 
644	 0.113152949909451 
645	 0.112830699464924 
646	 0.112242375968568 
647	 0.111912379495916 
648	 0.112127669805213 
649	 0.112123247871929 
650	 0.11237550217316 
651	 0.112135001717533 
652	 0.110710541047391 
653	 0.110783851968725 
654	 0.110059993105425 
655	 0.108144819771925 
656	 0.107936891853367 
657	 0.107887497279888 
658	 0.107601007528851 
659	 0.107038174977798 
660	 0.106351134665061 
661	 0.106038573739745 
662	 0.105723773287419 
663	 0.104699788319508 
664	 0.104888518007948 
665	 0.104819919584197 
666	 0.103963705738905 
667	 0.104243030764657 
668	 0.104435980208368 
669	 0.104002665848353 
670	 0.102946784204161 
671	 0.102767408972245 
672	 0.102882252129873 
673	 0.103161668238418 
674	 0.103919932798298 
675	 0.10368695373986 
676	 0.103180214340602 
677	 0.103154588823608 
678	 0.103389361641831 
679	 0.103357479648169 
680	 0.103208649752058 
681	 0.10332952770111 
682	 0.103178411945902 
683	 0.103446980088389 
684	 0.104085316915104 
685	 0.103940829048377 
686	 0.102996828321265 
687	 0.102561602325268 
688	 0.103457582027186 
689	 0.103338063313556 
690	 0.10313578286936 
691	 0.102854402978564 
692	 0.101934113248952 
693	 0.100551480198246 
694	 9.97627111158305E-02 
695	 9.98782365492129E-02 
696	 0.100093524456024 
697	 0.098773049443236 
698	 9.67994686783649E-02 
699	 0.095812887656557 
700	 9.51012418451508E-02 
701	 9.43277523487034E-02 
702	 0.09340958142847 
703	 9.24033007929628E-02 
704	 9.09481476563311E-02 
705	 8.93673995442798E-02 
706	 8.79688665929615E-02 
707	 8.65787875585764E-02 
708	 8.50032163561727E-02 
709	 8.35634965493825E-02 
710	 8.24151598997447E-02 
711	 7.95204643732268E-02 
712	 7.70689398133686E-02 
713	 7.55163113005569E-02 
714	 0.073197461754587 
715	 0.070307987995816 
716	 6.69220656644672E-02 
717	 6.37580239762608E-02 
718	 6.05466245135907E-02 
719	 5.80980956567423E-02 
720	 5.66652857854282E-02 
721	 5.55294517680225E-02 
722	 5.44769815996739E-02 
723	 5.16812393793594E-02 
724	 4.77014983087861E-02 
725	 4.62283385695528E-02 
726	 0.044292771044867 
727	 4.22875449188633E-02 
728	 4.04826110787096E-02 
729	 3.64567916617994E-02 
730	 3.38490587170471E-02 
731	 3.27422567803993E-02 
732	 3.14325397712531E-02 
733	 0.030399791510709 
734	 2.87321681212659E-02 
735	 2.68320163415796E-02 
736	 2.68742058272497E-02 
737	 2.64956057998288E-02 
738	 0.026097389301243 
739	 2.60887912447449E-02 
740	 2.49180224307786E-02 
741	 2.47286711113617E-02 
742	 2.52595511962903E-02 
743	 2.51886427675163E-02 
744	 2.52004883492786E-02 
745	 0.024791641268258 
746	 2.42285614131762E-02 
747	 2.48917519717273E-02 
748	 0.02531407472906 
749	 0.025256923270592 
750	 2.48851148981218E-02 
751	 2.45309636779764E-02 
752	 2.43628039892297E-02 
753	 2.44759874707857E-02 
754	 2.48341198928413E-02 
755	 2.49243770059266E-02 
756	 2.46973320546481E-02 
757	 2.43489502118257E-02 
758	 2.43990352390624E-02 
759	 0.024328284223336 
760	 2.35352669888415E-02 
761	 2.25546090129532E-02 
762	 2.23281205224226E-02 
763	 2.39768110202554E-02 
764	 2.54800670893757E-02 
765	 2.52317756228834E-02 
766	 2.52842777624385E-02 
767	 2.51020030613287E-02 
768	 0.024896047679742 
769	 2.55995544480878E-02 
770	 2.62684164392952E-02 
771	 2.63683456032297E-02 
772	 2.59447826342697E-02 
773	 2.63055510449927E-02 
774	 2.67212607454443E-02 
775	 2.70395766314498E-02 
776	 2.73186984911104E-02 
777	 2.73191736098784E-02 
778	 2.75178773274991E-02 
779	 0.027998841347463 
780	 2.84027862042312E-02 
781	 0.02875483741998 
782	 2.87192041165777E-02 
783	 0.028390411762615 
784	 0.029011077292872 
785	 2.92940964136546E-02 
786	 2.91712535274877E-02 
787	 2.91263443839231E-02 
788	 2.98708285971412E-02 
789	 3.04436422584525E-02 
790	 3.09502088628531E-02 
791	 3.22301589831784E-02 
792	 3.22679711333113E-02 
793	 3.20039064010647E-02 
794	 3.21418190271291E-02 
795	 3.23793491780754E-02 
796	 3.31178683140335E-02 
797	 3.37393580628697E-02 
798	 3.37675083536372E-02 
799	 3.40277379036276E-02 
800	 3.43767243779372E-02 
801	 3.48318481983697E-02 
802	 0.035438129401206 
803	 3.59280603334977E-02 
804	 3.58400933614055E-02 
805	 3.53197069183009E-02 
806	 3.50821839834475E-02 
807	 0.035069650499904 
808	 3.50225982696577E-02 
809	 3.48190520145877E-02 
810	 3.49975886234217E-02 
811	 3.38302259743867E-02 
812	 3.27634619953557E-02 
813	 3.41132552064095E-02 
814	 3.29334038605752E-02 
815	 3.12873045761261E-02 
816	 3.06586932880302E-02 
817	 3.10368000034887E-02 
818	 3.21311655936705E-02 
819	 3.15218978131111E-02 
820	 2.94558357744722E-02 
821	 2.91059760079105E-02 
822	 2.80700949153652E-02 
823	 0.027434372145032 
824	 2.74981994876965E-02 
825	 2.48668584427644E-02 
826	 2.33129664754511E-02 
827	 2.23776725987809E-02 
828	 2.04489513101416E-02 
829	 0.018666757948314 
830	 0.018622891118883 
831	 1.90974415843441E-02 
832	 1.74723559657988E-02 
833	 1.69691603814391E-02 
834	 1.69046544374935E-02 
835	 1.65197885455141E-02 
836	 1.55715666279416E-02 
837	 1.48062713079529E-02 
838	 1.44084808733305E-02 
839	 1.45414395190259E-02 
840	 1.58187442470027E-02 
841	 1.65300818689679E-02 
842	 1.60264372391662E-02 
843	 1.46978819533703E-02 
844	 1.53208493153582E-02 
845	 1.53905310732468E-02 
846	 1.46062413621803E-02 
847	 1.42439747908713E-02 
848	 1.42703775017651E-02 
849	 1.44741524596736E-02 
850	 1.46708302248341E-02 
851	 1.47560460710383E-02 
852	 1.39036047005544E-02 
853	 1.35066966953977E-02 
854	 1.40007242414218E-02 
855	 1.28340912388378E-02 
856	 1.28863417141417E-02 
857	 0.013658836465683 
858	 1.38592455287728E-02 
859	 1.28362597028915E-02 
860	 1.23502110683793E-02 
861	 1.24917845872583E-02 
862	 0.012619804780164 
863	 1.37810247101289E-02 
864	 1.34830245630295E-02 
865	 1.21295625645422E-02 
866	 1.26763582894637E-02 
867	 1.33929119765088E-02 
868	 1.33333331207206E-02 
869	 1.25576410148728E-02 
870	 0.012221194071195 
871	 1.19940325085077E-02 
872	 1.15910179818466E-02 
873	 1.09279705300788E-02 
874	 1.02458040520375E-02 
875	 1.21001253337658E-02 
876	 1.31389821507436E-02 
877	 1.05866054209211E-02 
878	 1.05930600309451E-02 
879	 0.011491059709321 
880	 0.012324958602692 
881	 1.24072738493451E-02 
882	 1.06196746969002E-02 
883	 9.70423366685825E-03 
884	 9.95359623173582E-03 
885	 9.86271202146679E-03 
886	 1.15432301857681E-02 
887	 1.17239764054607E-02 
888	 1.04066241980828E-02 
889	 1.16375676584268E-02 
890	 1.08686148457248E-02 
891	 1.10688980864454E-02 
892	 1.31493298580126E-02 
893	 1.07348254465918E-02 
894	 7.63847921408874E-03 
895	 7.91239850721502E-03 
896	 1.26336117770931E-02 
897	 1.16206489956623E-02 
898	 7.60951703170647E-03 
899	 5.92433756046477E-03 
900	 9.30617419730288E-03 
901	 1.03326754118885E-02 
902	 8.27112037319091E-03 
903	 7.12907955127464E-03 
904	 1.03089653652761E-02 
905	 9.59744636789314E-03 
906	 7.63946504760231E-03 
907	 6.23408159639838E-03 
908	 6.13819681273827E-03 
909	 5.36356935815516E-03 
910	 5.97474510297628E-03 
911	 5.60110001924867E-03 
912	-6.2251637667731E-04 
913	 2.11756553972193E-03 
914	 6.04557272854566E-03 
915	 7.54211874741677E-03 
916	 1.06236955461561E-02 
917	 9.42358927217717E-03 
918	 4.24111050093784E-03 
919	 8.77968298822141E-04 
920	 9.70844256137844E-03 
921	 5.43983347942494E-03 
922	 2.37169997443208E-03 
923	 9.39813844172807E-03 
924	 6.33434155427627E-03 
925	 5.70788593179309E-03 
926	 5.09900540863289E-03 
927	 2.56838220915393E-04 
928	 3.03348675283078E-03 
929	-3.05653225119011E-03 
930	-2.5101310862291E-03 
931	 3.11978591662491E-02 
932	-2.80084834851644E-02 
933	-4.01024462167276E-02 
934	 2.06375950443763E-02 
935	 2.56151714431717E-02 
936	-9.52338642215312E-02 
937	-5.52100442249171E-02 
938	 2.09058644553134E-02 
939	-2.00952157763569E-02 
940	-3.27589508385455E-03 
941	 7.94605498923858E-03 
942	 3.8981635806082E-03 
943	 2.14406402569761E-03 
944	 1.10011686451189E-02 
945	 6.32799595335988E-03 
946	 9.64093526628573E-03 
947	 0.046158488922123 
948	 8.03793640406039E-03 
949	 0.015348112909085 
950	 3.97219368053815E-02 
951	-2.67669754621224E-03 
952	 2.71653109669824E-02 
953	 2.25878863801107E-02 
954	-1.89601608863077E-02 
955	-2.17203236220034E-02 
956	 2.20231637478338E-02 
957	 1.95457768991031E-02 
958	-1.13770215765586E-02 
959	 8.5015753241125E-03 
960	 1.52712132926404E-02 
961	-9.45763485419562E-03 
962	-0.027664443002809 
963	 8.16021225516217E-03 
964	 1.96172896384956E-02 
965	 2.09610547782372E-02 
966	 1.42498111094168E-02 
967	-4.59041147593581E-03 
968	 1.38327293947255E-03 
969	 5.76132666007426E-03 
970	 5.26016395493386E-03 
971	 1.52928544434034E-02 
972	 8.98046643104195E-03 
973	 1.89487306529259E-03 
974	 4.71209409541708E-04 
975	-2.05045827887293E-03 
976	-1.38987181334493E-05 
977	 5.89318812600194E-05 
978	 2.15911000681063E-04 
979	 7.19049437314733E-03 
980	 2.92969715504889E-03 
981	 4.50457769418247E-03 
982	 8.55714884603008E-03 
983	-6.95777843859598E-04 
984	 2.33943051884227E-03 
985	 4.4973794752211E-03 
986	 3.25589549532872E-03 
987	 4.7058261169707E-03 
988	-2.30450648813555E-03 
989	-9.46849231799183E-04 
990	 8.65057182737859E-03 
991	 1.28303254043821E-02 
992	 5.86653431600055E-03 
993	 1.22471112914107E-06 
994	 1.11389577784492E-04 
995	 2.85052531978859E-03 
996	 1.05630966584786E-03 
997	-4.2589844474631E-03 
998	-4.43113360823868E-03 
999	 7.47280033685662E-03 
1000	 1.07472324747705E-02 
1001	-2.70990579888261E-03 
1002	-4.85768963254792E-03 
1003	-5.36396343359519E-03 
1004	-2.3314199472061E-03 
1005	 4.80749825164424E-04 
1006	 5.21140772679882E-03 
1007	 4.52493826046496E-03 
1008	 4.35494914911651E-03 
1009	 9.8267212563723E-03 
1010	 1.07375257700597E-02 
1011	 1.17762678643461E-02 
1012	 0.016968593777347 
1013	 1.72844576694947E-02 
1014	 1.64399328371141E-02 
1015	 1.24186671974355E-02 
1016	 1.24641632020836E-02 
1017	 1.26285952015679E-02 
1018	 1.27316208902931E-02 
1019	 0.016254925526668 
1020	 1.62327195395803E-02 
1021	 1.50017707867337E-02 
1022	 1.02798816606097E-02 
1023	 4.98845963760254E-03 
1024	 3.00349918868027E-03 
1025	 9.13766750153513E-04 
1026	-1.50038012289629E-04 
1027	 1.21245218725618E-03 
1028	 7.19811095028466E-03 
1029	 8.17241765533202E-03 
1030	 8.47358698903032E-03 
1031	 8.78701453896526E-03 
1032	 6.0947065060784E-03 
1033	 5.41715865261976E-03 
1034	 5.94506760895382E-03 
1035	 6.88167120648663E-03 
1036	 9.20475337523102E-03 
1037	 9.98341022989754E-03 
1038	 1.10687751964477E-02 
1039	 1.15132491480484E-02 
1040	 9.95800883800546E-03 
1041	 6.56793354584037E-03 
1042	 5.63602405168996E-03 
1043	 4.55459845255445E-03 
1044	 5.28613427126366E-03 
1045	 8.80727504939205E-03 
1046	 9.65391974277414E-03 
1047	 1.09350967461935E-02 
1048	 0.010417235289234 
1049	 6.64154930005988E-03 
1050	 5.72824813776015E-03 
1051	 4.46514885226726E-03 
1052	 5.12160414144666E-03 
1053	 9.11303161775649E-03 
1054	 1.11754256227161E-02 
1055	 1.55387031255461E-02 
1056	 1.61248483025979E-02 
1057	 0.014647566881743 
1058	 9.38307110829767E-03 
1059	 8.43276654951238E-03 
1060	 6.43829542006034E-03 
1061	 6.0193503711573E-03 
1062	 9.4406683629201E-03 
1063	 1.00573186707218E-02 
1064	 8.70516161232412E-03 
1065	 8.58445122341197E-03 
1066	 8.77593966366415E-03 
1067	 9.08136979958977E-03 
1068	 9.88935402824991E-03 
1069	 1.01870881111718E-02 
1070	 1.11406877039541E-02 
1071	 1.09256184673216E-02 
1072	 9.87627049321832E-03 
1073	 7.95298252458903E-03 
1074	 6.99227711880275E-03 
1075	 4.99122182490144E-03 
1076	 5.36680166129031E-03 
1077	 7.63573254303436E-03 
1078	 8.7741452806093E-03 
1079	 1.16902120941223E-02 
1080	 1.18773579329313E-02 
1081	 9.81487291129454E-03 
1082	 9.09665838948796E-03 
1083	 6.67520255234576E-03 
1084	 6.16246367841009E-03 
1085	 7.42455536305164E-03 
1086	 8.30888715007519E-03 
1087	 1.15011223846937E-02 
1088	 1.24711510668143E-02 
1089	 1.26445201884146E-02 
1090	 1.08090215676853E-02 
1091	 1.06501716324944E-02 
1092	 8.86161628632498E-03 
1093	 8.95646356873605E-03 
1094	 0.012109734707986 
1095	 0.012967688031452 
1096	 1.30631231394284E-02 
1097	 1.24726390589971E-02 
1098	 1.03221446628789E-02 
1099	 9.21325233043517E-03 
1100	 6.67413214389777E-03 
1101	 7.29469313155313E-03 
1102	 1.25465524554392E-02 
1103	 1.28176668620117E-02 
1104	 1.29789401855458E-02 
1105	 1.17709165125531E-02 
1106	-2.11649528149724E-03 
1107	-2.39030844467363E-03 
1108	 7.14356569356426E-03 
1109	 1.16290042598062E-02 
1110	 1.28397397119174E-02 
1111	 1.66002221392632E-02 
1112	 1.67048956876449E-02 
1113	 7.32732584372349E-05 
1114	-5.50946084932135E-03 
1115	 7.88860945364515E-03 
1116	 8.96481135982414E-03 
1117	-1.33621066122008E-02 
1118	-1.44857547422777E-02 
1119	 3.45412563797003E-03 
1120	 2.08479534742016E-02 
1121	 7.14011567104427E-02 
1122	 0.19671495659101 
1123	 0.297384955784228 
1124	 0.144312409918086 
1125	-0.119604946496909 
1126	-0.218365789464352 
1127	-0.120940581806131 
1128	-8.09319960958352E-02 
1129	-7.80302556128546E-02 
1130	 3.22880821624939E-02 
1131	-1.73130946447513E-02 
1132	-0.282171473965417 
1133	-0.233869594530149 
1134	-5.48979484734859E-02 
1135	-3.94048088979095E-03 
1136	 9.87099390456869E-02 
1137	 9.43458460498375E-02 
1138	-1.18301401630015E-02 
1139	 9.02163509144612E-03 
1140	-1.17150758797139E-02 
1141	-2.91109098596775E-02 
1142	 3.84384918511554E-02 
1143	 0.049437431022314 
1144	-3.11198412983427E-02 
1145	-0.024577674695297 
1146	-7.52504481792484E-03 
1147	-7.37881516139285E-02 
1148	-3.51791082933153E-02 
1149	 1.24685998690303E-02 
1150	-2.80276279602525E-04 
1151	-5.34356730798838E-02 
1152	-5.32389286889981E-02 
1153	-8.43738867306626E-02 
1154	-6.04324929768356E-02 
1155	-3.92541472485893E-03 
1156	 1.59689731367273E-02 
1157	 1.17658129104651E-02 
1158	 1.18517084091687E-03 
1159	-8.1816546807556E-03 
1160	-2.85561094548192E-03 
1161	 5.61326307938689E-03 
1162	 1.57624558794623E-02 
1163	 2.05252218512465E-02 
1164	 1.28451179891485E-02 
1165	 6.72633527193083E-03 
1166	 0.008365684971382 
1167	 1.02590333548057E-02 
1168	 1.03795290897807E-02 
1169	 7.87368579592533E-03 
1170	 6.86197989629635E-03 
1171	 8.74918030443905E-03 
1172	 0.014038633974402 
1173	 1.33848348818694E-02 
1174	 1.31430020860048E-02 
1175	 1.10494425837563E-02 
1176	 4.25048464259281E-03 
1177	-1.48781036274997E-04 
1178	 8.88837922368817E-04 
1179	 5.10345562841294E-03 
1180	 9.55750159746868E-03 
1181	 8.89355480122169E-03 
1182	 2.14215747833103E-03 
1183	-3.16024280844946E-03 
1184	-4.62032310463454E-03 
1185	-3.89459909735194E-03 
1186	 1.82672938876826E-03 
1187	 7.87476039890379E-03 
1188	 1.17425052069598E-02 
1189	 1.26053366016788E-02 
1190	 1.05188286719181E-02 
1191	 1.08386378119545E-02 
1192	 1.03837057289247E-02 
1193	 7.74777184135905E-03 
1194	 6.84518557775156E-03 
1195	 9.78597939951292E-03 
1196	 7.19587911158727E-03 
1197	 2.85511980363739E-03 
1198	 3.10522510244914E-03 
1199	 3.6175202018397E-03 
1200	 5.46212772918396E-03 
1201	 8.96753356221417E-03 
1202	 9.86459162899643E-03 
1203	 6.95655945630386E-03 
1204	 1.86839027404209E-03 
1205	 3.99842687556683E-03 
1206	 9.38670447668314E-03 
1207	 1.07596172894515E-02 
1208	 1.20174035189616E-02 
1209	 9.16987233062692E-03 
1210	 6.3716102821098E-03 
1211	 8.61011052349058E-03 
1212	 8.39489218726538E-03 
1213	 7.91057809538606E-03 
1214	 9.04122807619128E-03 
1215	 9.71440183992592E-03 
1216	 6.38678989405987E-03 
1217	 5.54169790855339E-03 
1218	 8.21724338987389E-03 
1219	 7.3404171523581E-03 
1220	 5.63355968103156E-03 
1221	 6.78881417891951E-03 
1222	 7.45111656630901E-03 
1223	 7.26738898567054E-03 
1224	 7.64094127949352E-03 
1225	 6.85273326404122E-03 
1226	 6.30948164713561E-03 
1227	 6.35269502279139E-03 
1228	 2.92012565300609E-03 
1229	 2.38174054791441E-03 
1230	 6.44060494858473E-03 
1231	 6.87350029213041E-03 
1232	 0.007068421469372 
1233	 8.14544971583477E-03 
1234	 7.09570578315902E-03 
1235	 6.32853393674277E-03 
1236	 5.22292606382309E-03 
1237	 5.40200873903753E-03 
1238	 6.68027661717515E-03 
1239	 5.81055232196068E-03 
1240	 5.30469422729412E-03 
1241	 6.63462831082423E-03 
1242	 7.10107266716721E-03 
1243	 7.96894134703148E-03 
1244	 8.68601267379041E-03 
1245	 9.85364767879212E-03 
1246	 1.17360279517532E-02 
1247	 1.00322473267272E-02 
1248	 7.76342360278457E-03 
1249	 8.38482678611831E-03 
1250	 8.69518769537331E-03 
1251	 8.13746054319506E-03 
1252	 7.82206575161944E-03 
1253	 7.84501543103882E-03 
1254	 7.90775122002288E-03 
1255	 7.94466797138358E-03 
1256	 7.43004704179765E-03 
1257	 7.76470020912617E-03 
1258	 8.24629832539834E-03 
1259	 7.26262197361221E-03 
1260	 6.6484817080178E-03 
1261	 7.79347538490043E-03 
1262	 8.38581075456322E-03 
1263	 7.60455281363316E-03 
1264	 7.18776855941241E-03 
1265	 7.51944378313764E-03 
1266	 8.93514171084149E-03 
1267	 9.2275074337199E-03 
1268	 8.41760636150868E-03 
1269	 8.63358686226187E-03 
1270	 8.7784967120229E-03 
1271	 8.10334861203116E-03 
1272	 9.01614000046399E-03 
1273	 1.03378228034742E-02 
1274	 6.35592956619726E-03 
1275	 3.90726071207676E-03 
1276	 6.30614681458229E-03 
1277	 6.89088659993373E-03 
1278	 7.47297157356481E-03 
1279	 9.51539076266133E-03 
1280	 1.01683553745359E-02 
1281	 1.02768975579108E-02 
1282	 1.26705688738348E-02 
1283	 1.30154729385405E-02 
1284	 8.75991715262659E-03 
1285	 7.00073069750889E-03 
1286	 7.40887547236161E-03 
1287	 6.92016637251162E-03 
1288	 5.60097710499115E-03 
1289	 5.52937865786088E-03 
1290	 5.74426525604471E-03 
1291	 6.25294417081012E-03 
1292	 7.4784384481687E-03 
1293	 1.06917036106094E-02 
1294	 1.33291106867602E-02 
1295	 1.17734053784541E-02 
1296	 1.02901299817244E-02 
1297	 0.008007516732472 
1298	 3.21755519065066E-03 
1299	 2.67104722359901E-03 
1300	 3.35539405882349E-03 
1301	 4.5306029162051E-03 
1302	 7.71729224913532E-03 
1303	 7.85663167560483E-03 
1304	 7.50190730043494E-03 
1305	 8.22040124260443E-03 
1306	 7.39091841928869E-03 
1307	 7.62977180910587E-03 
1308	 7.77751227010349E-03 
1309	 3.52245758480861E-03 
1310	 3.79425264976452E-03 
1311	 1.13340550696399E-02 
1312	 1.28828152261966E-02 
1313	 1.25807243598077E-02 
1314	 0.011608926089828 
1315	 3.74619699868036E-03 
1316	 1.64462815768857E-03 
1317	 4.2979541361186E-03 
1318	 4.8548956617108E-03 
1319	 8.21086982189092E-03 
1320	 1.06300748956196E-02 
1321	 0.01156791214587 
1322	 9.05951239521524E-03 
1323	 1.31976462591707E-02 
1324	 1.81677320483237E-02 
1325	 1.84712376418425E-02 
1326	 1.08969952514125E-02 
1327	 5.13670681410652E-03 
1328	 9.51860860044765E-03 
1329	 1.78567252377991E-02 
1330	 3.54828672132924E-02 
1331	 5.10293370795925E-02 
1332	 4.72681593441146E-02 
1333	 2.91880305624074E-02 
1334	 2.51265676080589E-02 
1335	 2.31396877371431E-02 
1336	 1.80097576407073E-02 
1337	 0.015447621377561 
1338	 2.39769607914214E-02 
1339	 3.88110842278847E-02 
1340	 7.22152865017883E-02 
1341	 7.47222707719789E-02 
1342	 5.61134813230127E-02 
1343	 7.54502389038366E-02 
1344	 8.45349384298391E-02 
1345	 6.49353056034865E-02 
1346	 7.98767654396206E-02 
1347	 0.122520303526919 
1348	 0.142822126009011 
1349	 0.169445305744479 
1350	 0.289734536333018 
1351	 0.339610505770458 
1352	 0.110355900624257 
1353	-2.89415843955438E-02 
1354	-0.072059280564181 
1355	 0.342472469002535 
1356	 0.238271182888668 
1357	 4.39687269654886E-03 
1358	-0.114089260712482 
1359	-0.190468717992014 
1360	-0.326007574366241 
1361	-5.82882053740841E-02 
1362	 0.250670767315811 
1363	-0.110042959234328 
1364	 0.101283039707405 
1365	 1.23395772496382 
1366	 0.505057580551046 
1367	-0.23911222986689 
1368	-0.239028071105477 
1369	-0.926421165011358 
1370	-0.80906274607426 
1371	 5.67363312490234 
1372	 5.46134653622173 
1373	 2.08547614612993 
1374	 1.76983457898645 
1375	 0.42302827132338 
1376	 0.340493709412282 
1377	 4.25631220972574 
1378	-2.18193379819738 
1379	-2.00903039122444 
1380	-1.83765946989531 
1381	 6.81409597969318 
1382	-6.5049170567757 
1383	-5.26683259597911 
1384	-3.61621241657072 
1385	-5.48587500041435 
1386	-18.7940955993462 
1387	 3.3709558518232 
1388	 4.63719026458313 
1389	-2.55700306288698 
1390	-2.47724490016581 
1391	-6.17333960406317 
1392	 3.5486982865972 
1393	 1.17873377234318 
1394	 0.595784429371633 
1395	 0.737655893544694 
1396	 0.530541389276164 
1397	 0.457503998666733 
1398	-5.18072542861171 
1399	-7.44096100267358 
1400	 7.68168511237934 
1401	 7.01792409202978 
1402	-1.30081714677106 
1403	-0.168907460694459 
1404	 1.43720869832751 
1405	 3.46234396641025 
1406	-89.8404882529986 
1407	-9.64341982400421 
1408	-4.0505555510338 
1409	-4.26821842048941 
1410	 1.22110692254928 
1411	 2.93493144477714 
1412	-2.17243645135366 
1413	-3.59051684311489 
1414	 3.49428023863171 
1415	 5.03097971352736 
1416	 1.01616972501608 
1417	 1.1019635558694 
1418	-7.01884290256813 
1419	-3.35993513136824 
1420	-2.06487210419562 
1421	-2.49442039669365 
1422	-15.6466092219734 
1423	 8.58096272469075 
1424	 0.870803308259392 
1425	 0.441603015286313 
1426	 1.80015688904057 
1427	 1.17199050960811 
1428	 0.13872419353127 
1429	 2.81770282112748E-02 
1430	 5.62793528263903E-03 
1431	-1.69940416037747E-02 
1432	-1.68093350478482E-02 
1433	 3.90398255297212E-02 
1434	 7.23494637594242E-02 
1435	 3.91524151768182E-02 
1436	-0.260381188012099 
1437	-0.103602051489979 
1438	 0.629087196313877 
1439	 1.28588120845779 
1440	 1.98730375934124 
1441	 9.92004979964947 
1442	 5.35271767118272 
1443	 1.63269845564391 
1444	 0.148939722960093 
1445	 8.28770035678487E-03 
1446	-0.203163682636065 
1447	-0.741352923222906 
1448	-0.755154295564049 
1449	 5.23505518088771E-02 
1450	 3.08045236304631E-02 
1451	 0.184481330110362 
1452	 0.629394162077184 
1453	 0.732456444847997 
1454	 0.656616530342877 
1455	 0.678686395768755 
1456	 0.547329036998602 
1457	 0.251111436669821 
1458	 0.168043095960994 
1459	 9.74230358980662E-02 
1460	 1.86865471949955E-02 
1461	-8.96805867648711E-02 
1462	-6.72355655847879E-03 
1463	 0.231570097769158 
1464	 0.211554245875527 
1465	 0.15138476473531 
1466	 0.165465908879954 
1467	-2.57866345839554E-02 
1468	-4.42243711982781E-02 
1469	 0.238275969339656 
1470	 0.277771654052907 
1471	 8.60930131882132E-02 
1472	 8.96941017113885E-02 
1473	 0.190126699303475 
1474	 0.28617608113765 
1475	 0.484203953097074 
1476	 0.407924511917628 
1477	 0.257206804408627 
1478	 0.18185011781361 
1479	 3.02976447992991E-02 
1480	 2.41112986930117E-03 
1481	 4.71190676516256E-02 
1482	 2.79942597358021E-02 
1483	-2.97906293645115E-02 
1484	-1.78197066767775E-02 
1485	 2.27598771863492E-02 
1486	 1.43034549557198E-02 
1487	 1.12426155928491E-02 
1488	 2.31411570893789E-02 
1489	 5.94911257863541E-03 
1490	 8.66381900119313E-03 
1491	 3.98232425357043E-02 
1492	 0.046316319422038 
1493	 0.042291987454256 
1494	 4.66910879624804E-02 
1495	 5.87616696726155E-02 
1496	 5.05030108653302E-02 
1497	 0.025735907506417 
1498	 2.16003926763251E-02 
1499	 2.77972570216714E-02 
1500	 2.14674151240528E-02 
1501	 1.38923356932565E-02 
1502	 1.18130994989458E-02 
1503	 1.88173838860801E-03 
1504	-5.89340275133807E-03 
1505	-1.37054547955303E-02 
1506	-2.57968357465626E-03 
1507	 7.06103560430653E-03 
1508	 9.42231790739316E-04 
1509	 1.18065661480888E-03 
1510	 3.74595123831924E-03 
1511	-2.69551572106013E-03 
1512	-8.09202063397937E-03 
1513	-4.97672221963304E-03 
1514	 3.07554051678605E-03 
1515	 6.71315093326207E-03 
1516	 1.22099570983569E-02 
1517	 7.25612310972845E-03 
1518	-1.45907251393282E-04 
1519	 4.4089465234435E-03 
1520	-4.4430090919115E-04 
1521	 3.67729591755855E-03 
1522	 1.49255720716145E-02 
1523	 1.15433135053272E-02 
1524	 1.24488392944473E-02 
1525	 1.23019057614345E-02 
1526	 6.18516939400888E-03 
1527	 4.43426713259839E-03 
1528	 2.80574099607444E-03 
1529	 8.02618338641695E-04 
1530	 2.12997699958249E-05 
1531	 2.42169628911556E-03 
1532	 3.06074097199268E-03 
1533	-2.36822494996792E-03 
1534	-4.02051029286921E-03 
1535	 3.97102321950816E-03 
1536	 9.23370497384631E-03 
1537	 6.06969681361505E-03 
1538	 2.66821766266186E-03 
1539	-3.39448546017807E-04 
1540	-5.21294085950981E-03 
1541	-6.49904119722528E-03 
1542	 3.7455686340523E-04 
1543	 5.39844061557935E-03 
1544	 2.72054028978693E-03 
1545	-3.43283086827076E-05 
1546	 1.50282546657379E-03 
1547	 1.67154406859686E-03 
1548	-3.10587052381705E-03 
1549	-2.09796271607358E-03 
1550	 3.48222779367596E-03 
1551	 1.84214297392721E-03 
1552	-2.97411069157813E-03 
1553	-1.19728771842357E-03 
1554	 4.9785436061555E-03 
1555	 4.89593287238428E-03 
1556	 3.24060374221024E-03 
1557	 3.96798347044845E-03 
1558	 2.15302920415693E-03 
1559	 3.19500947778897E-03 
1560	 6.36250978164521E-03 
1561	 6.87941568949659E-03 
1562	 5.59292980347798E-03 
1563	 3.42272221641224E-03 
1564	 4.83969022238974E-03 
1565	 6.73184987009101E-03 
1566	 3.92026630201988E-03 
1567	 4.97137543645357E-03 
1568	 7.0928955609187E-03 
1569	 8.29692776930143E-03 
1570	 1.13230537057077E-02 
1571	 7.05632799139004E-03 
1572	 8.48644067423038E-03 
1573	 1.80025424661053E-02 
1574	 1.79244032913518E-02 
1575	 1.35574116600149E-02 
1576	 9.4707478951239E-03 
1577	 4.5279319662428E-03 
1578	 4.40076208536201E-03 
1579	 7.01291851506918E-03 
1580	 4.71958150170076E-03 
1581	 5.00899260499493E-03 
1582	 8.84916539655459E-03 
1583	 9.98412028567845E-03 
1584	 1.23263499648059E-02 
1585	 1.35986632426583E-02 
1586	 1.20752060912286E-02 
1587	 8.72533947700287E-03 
1588	 8.78979352305434E-03 
1589	 1.29741885093505E-02 
1590	 1.02594219072174E-02 
1591	 6.79068535676544E-03 
1592	 1.22484650100277E-02 
1593	 1.17011900421556E-02 
1594	 5.76412327609674E-03 
1595	 7.43080953475624E-03 
1596	 8.12601380077457E-03 
1597	 6.10410388590732E-03 
1598	 4.63208641187829E-03 
1599	 3.69207680336365E-03 
1600	 4.32106447364123E-03 
1601	 1.38865093993906E-03 
1602	 1.22136716553792E-03 
1603	 5.93347324795102E-03 
1604	 5.73099952328262E-03 
1605	 5.05007743835717E-03 
1606	 4.85498876558334E-03 
1607	 3.5841139641166E-03 
1608	 2.10265987345269E-03 
1609	 2.49288793050721E-03 
1610	 1.13812920929925E-02 
1611	 1.55091089149499E-02 
1612	 8.3151160201915E-03 
1613	 9.15174569885606E-03 
1614	 1.41091235880326E-02 
1615	 9.01463569511571E-03 
1616	 7.77912079413291E-03 
1617	 8.50595626333009E-03 
1618	 2.62184151380048E-03 
1619	 5.81840177004728E-04 
1620	 2.56272795136187E-03 
1621	 4.59952826542386E-03 
1622	 2.90326808239467E-03 
1623	-1.39313469285106E-03 
1624	 6.83424132566911E-04 
1625	 5.84244992209401E-03 
1626	 4.42665016102617E-03 
1627	 1.65763597309498E-03 
1628	 2.11767543682949E-03 
1629	 1.28750697677088E-03 
1630	 9.08124488551873E-04 
1631	 2.97201055926049E-03 
1632	 5.16964708402913E-03 
1633	 6.50006078789442E-03 
1634	 5.86903554210936E-03 
1635	 3.40608100608315E-03 
1636	 5.06426776444771E-03 
1637	 8.62963061381523E-03 
1638	 7.02445275809157E-03 
1639	 6.46868670349601E-03 
1640	 9.45357231247811E-03 
1641	 9.24925335399659E-03 
1642	 6.20866302758567E-03 
1643	 6.64388590920004E-03 
1644	 5.50629672895305E-03 
1645	 2.22152141483485E-03 
1646	 6.2544451403752E-03 
1647	 8.04683334789442E-03 
1648	 8.42810787331746E-03 
1649	 1.29069861681506E-02 
1650	 9.21047935398296E-03 
1651	 2.99695928401959E-03 
1652	 3.14691364193853E-03 
1653	 2.77486331429261E-03 
1654	 6.66600176049376E-04 
1655	 2.64028423067255E-03 
1656	 7.89518125646584E-03 
1657	 9.8076521643522E-03 
1658	 8.45525056169042E-03 
1659	 1.34165714870884E-02 
1660	 1.51001467600992E-02 
1661	 8.30575896882515E-03 
1662	 1.14105644045804E-02 
1663	 2.31125332410385E-02 
1664	 2.02586741436189E-02 
1665	 9.75064303108556E-03 
1666	 8.49970698651466E-03 
1667	 6.48682674362041E-03 
1668	 1.17105105816625E-02 
1669	 1.85804862912197E-02 
1670	 2.06989655027361E-02 
1671	 8.18958490808755E-03 
1672	 6.53848830772332E-03 
1673	 1.21821112636448E-02 
1674	 6.44687889558494E-03 
1675	 7.42058564076849E-03 
1676	 5.12635271398274E-03 
1677	-5.24783946329401E-04 
1678	 1.82682569162729E-03 
1679	 4.5737806988206E-04 
1680	 1.04261888423896E-03 
1681	 5.22278320936077E-03 
1682	 5.43247333664446E-03 
1683	 7.97615576329555E-03 
1684	 1.17618597681585E-02 
1685	 0.008450475248052 
1686	 4.87261193957689E-03 
1687	 8.88938023545323E-03 
1688	 8.00444824973543E-03 
1689	 2.49480244385876E-03 
1690	 4.1335960719839E-03 
1691	 7.14002967401063E-03 
1692	 4.91486499223643E-03 
1693	 1.79771357255601E-04 
1694	 1.99845737639063E-03 
1695	 3.61325658576024E-03 
1696	-1.14081006000745E-03 
1697	 5.42392120274718E-03 
1698	 1.39340798518902E-02 
1699	 7.75658353709333E-03 
1700	 3.88559369554768E-03 
1701	 5.87070686581825E-03 
1702	-1.56178090229567E-03 
1703	-9.49597896368261E-03 
1704	 1.38921983466086E-03 
1705	 8.80350849051365E-03 
1706	 2.32251384856726E-03 
1707	 6.44657453380979E-03 
1708	 1.24850445959243E-02 
1709	 9.59773052570176E-03 
1710	 5.91249789054907E-03 
1711	 3.98455068539192E-03 
1712	-4.36485671716413E-03 
1713	 3.76844852327665E-03 
1714	 6.52595610127827E-03 
1715	 2.58952666355233E-03 
1716	-0.001104881049616 
1717	-5.93274494292033E-03 
1718	-8.70821791086744E-03 
1719	-2.79294449956767E-03 
1720	 2.77824627246799E-03 
1721	 6.66736159729159E-05 
1722	 3.09629667390298E-03 
1723	 1.13176586436355E-02 
1724	 1.24727041775018E-02 
1725	 1.49360146929259E-02 
1726	 1.79234491606758E-02 
1727	 3.28341774382991E-04 
1728	-1.37841665965518E-02 
1729	-8.39982834772124E-04 
1730	 8.50110160209146E-03 
1731	 1.61935934406785E-02 
1732	 1.77257838424732E-02 
1733	-4.07425233354855E-03 
1734	-1.55490401106081E-02 
1735	-1.14396284815715E-02 
1736	 1.26594901657123E-03 
1737	 2.48172453998745E-02 
1738	 2.54646317091599E-02 
1739	 1.51294576332378E-02 
1740	 1.72566720151363E-02 
1741	 1.80572667351584E-02 
1742	 2.15398280222754E-02 
1743	 2.19488132856354E-02 
1744	 8.66205763279907E-03 
1745	 2.56495102809063E-03 
1746	 2.50174783386166E-02 
1747	 3.13199231769854E-02 
1748	 4.17546459848352E-02 
1749	 3.83039004278781E-02 
1750	 6.66725929850486E-03 
1751	 3.74325833492256E-03 
1752	 1.72340337165746E-02 
1753	 2.42888058385912E-02 
1754	 4.56465896323019E-02 
1755	 4.22555989607983E-02 
1756	 1.56035783475815E-02 
1757	-1.9972657437885E-03 
1758	-3.10528474770231E-03 
1759	-1.05174427056833E-02 
1760	-8.40968468860597E-03 
1761	 7.39052933168379E-03 
1762	-3.44482416022533E-03 
1763	-9.65239016790648E-03 
1764	 9.21814540123432E-03 
1765	 7.20486535590686E-03 
1766	 2.17394784704313E-03 
1767	 1.03925258143832E-02 
1768	-7.27214272588504E-03 
1769	-1.95768425641334E-02 
1770	-1.48477405332503E-02 
1771	-4.28179955234238E-02 
1772	-3.73049256045475E-02 
1773	 1.71122388778974E-02 
1774	 3.37297311378203E-02 
1775	 7.66783682870566E-02 
1776	 9.77675740727582E-02 
1777	 3.95749678438668E-02 
1778	 3.38441059949566E-02 
1779	 6.99122135438442E-02 
1780	 7.10003690399452E-02 
1781	 9.26364267275159E-02 
1782	 7.13107203097735E-02 
1783	-2.13128266798283E-02 
1784	-3.63638746741524E-02 
1785	-4.14817101240877E-02 
1786	-4.77506494609939E-02 
1787	-3.04899695704366E-02 
1788	 2.18259138696099E-02 
1789	 0.194819063749349 
1790	 0.27122415891873 
1791	 0.299998092502039 
1792	 0.202269885006425 
1793	-5.88290564294619E-02 
1794	-0.211425478793344 
1795	-0.27843070466207 
1796	-0.332262998104379 
1797	 0.358134256751113 
1798	 1.00280670013784 
1799	 0.643652035922426 
1800	 0.170332211172905 
1801	 0.111763450490453 
1802	 5.50397326525587E-02 
1803	 4.79159520445274E-02 
1804	 0.47294014347261 
1805	 0.615796827117053 
1806	 0.625092319343141 
1807	 0.933424751728 
1808	 4.28895733175091 
1809	-55.2113971210072 
1810	-0.628483501847459 
1811	 2.38001771185806 
1812	-3.41078458376182 
1813	-1.66659447854659 
1814	-0.550674984718341 
1815	-0.416193439764153 
1816	-0.234521217116499 
1817	-3.87467953901917 
1818	 0.28389751789953 
1819	 3.50460049664371 
1820	-12.2995635539497 
1821	-0.573810306145308 
1822	-0.409681553953579 
1823	-0.13034158277522 
1824	 0.267626544391162 
1825	-1.51870072574937 
1826	-1.465734656739 
1827	 19.3000221750398 
1828	 3.85415144835488 
1829	 0.624503039401546 
1830	 0.304416544262235 
1831	-0.653217623872706 
1832	-0.595208140006051 
1833	-0.816776806481892 
1834	-0.560671196757341 
1835	-6.88316924450363E-02 
1836	 0.230024659543464 
1837	 2.46717777033053 
1838	 2.59988562829305 
1839	 0.689820698225937 
1840	 0.68148646948355 
1841	 0.993413094659397 
1842	 0.643912644194867 
1843	 0.566702221779937 
1844	 0.739840847904743 
1845	 0.91609473449268 
1846	 0.512025123788586 
1847	 0.322418185835287 
1848	 0.486930584463494 
1849	 0.30624013918254 
1850	 0.201536200650597 
1851	 0.121091906208453 
1852	 3.8263428739675 
1853	-13.4467065145878 
1854	-5.01677499226885 
1855	-15.650876653674 
1856	-14.912334005661 
1857	-3.42559082851248 
1858	-1.80652085471713 
1859	-0.67045120319457 
1860	-9.42136348175149E-02 
1861	-1.11408301946937 
1862	-1.2354127393229 
1863	-1.82121506437569 
1864	-1.25616703245443 
1865	-0.953502620118118 
1866	-0.506560646405081 
1867	-0.299762835485356 
1868	-0.1818030193853 
1869	-0.019534622851276 
1870	 0.289717478600058 
1871	 1.4426097109192 
1872	 2.29116637668947 
1873	-3.43795247819348 
1874	-4.3063877721748 
1875	-0.576036186908251 
1876	-0.575398294453581 
1877	-1.08666211534466 
1878	-0.926794191418022 
1879	-0.724342002913274 
1880	-1.0262901415341 
1881	-2.13825988176767 
1882	 16.2079977627686 
1883	 2.53080510336361 
1884	-0.355744534223708 
1885	-2.81220176001601 
1886	 5.78052688336024 
1887	 3.72124734517828 
1888	-20.8362807597683 
1889	-44.738559671497 
1890	 5.86826679110285 
1891	 5.43362910983271 
1892	-85.7012637181912 
1893	 0.580319826320157 
1894	-0.304364547810638 
1895	 0.318230007119347 
1896	-0.276813525481612 
1897	-1.03303215638216 
1898	 0.733277108320522 
1899	 1.45526637625855 
1900	 1.24494663439577 
1901	 0.741272683434286 
1902	 0.574734291653572 
1903	 0.743149598881614 
1904	 0.327164046797291 
1905	-0.781617525467481 
1906	-1.42308078373414 
1907	 6.44007650269946 
1908	 3.46203301449158 
1909	 0.649000739301685 
1910	-0.295966444161496 
1911	-1.15534876902227 
1912	 4.07902739077418 
1913	 1.58200489426921 
1914	-2.3933042326271 
1915	-2.18096409961525 
1916	-2.61039494163012 
1917	-4.75290586648138 
1918	-2.4603848013258 
1919	 0.416566069589326 
1920	 1.82529759527708 
1921	 4.17913349837257 
1922	 1.78393210470921 
1923	 1.40784654527865 
1924	 1.88767489645647 
1925	 2.02368640354097 
1926	 2.21152408424065 
1927	 4.35965340942866 
1928	 3458.93417539246 
1929	 7.03336774577193 
1930	 5.37642922950107 
1931	-7.9506623479085 
1932	-1.38593129558487 
1933	 0.323856938561201 
1934	 0.858846416762536 
1935	 0.994936351051711 
1936	 1.28497417938981 
1937	 1.06654468238846 
1938	 0.849233355441958 
1939	-3.0414216719468 
1940	 1.15313179311806 
1941	 0.769031985841323 
1942	 0.710922075101586 
1943	 0.688551686962597 
1944	 0.273072515592549 
1945	-6.84509317138855E-02 
1946	-7.70883646216932E-02 
1947	-0.174646814476316 
1948	-0.111126894402504 
1949	-3.77513591595279E-02 
1950	 0.116617657456666 
1951	-5.01328271734174 
1952	-0.75854704781616 
1953	-4.84618033318762E-02 
1954	 3.63741883489025E-02 
1955	 0.31754623337505 
1956	-8.28384388576694 
1957	-1.92185282616845 
1958	-1.31919201278771 
1959	-0.732204562099933 
1960	-0.818335002382071 
1961	-0.972255907178365 
1962	-0.116819588432786 
1963	 0.479840176034677 
1964	-0.752178891094741 
1965	-0.334683077154746 
1966	-0.256424913835926 
1967	-0.295987896346084 
1968	-0.198112163892499 
1969	 0.173904665179468 
1970	 0.245524771297329 
1971	 0.292650338371397 
1972	 0.314332966945561 
1973	 0.217600784380417 
1974	 0.122270259766699 
1975	 0.210688965085397 
1976	 9.80011857667171E-02 
1977	-0.14329895130291 
1978	-6.33829663526372E-02 
1979	-7.32719258713145E-02 
1980	-0.175366983024121 
1981	-0.14040332079072 
1982	 5.66427853619651E-02 
1983	 0.171149117308915 
1984	 0.276308518551456 
1985	 0.238076850403381 
1986	 0.267286017392345 
1987	 0.212452695124006 
1988	 0.156511022341976 
1989	 0.214183281769286 
1990	 8.27250949598517E-02 
1991	-1.12433648042145E-03 
1992	-1.18312865167369E-02 
1993	-9.15803294303199E-02 
1994	-8.42504110449187E-02 
1995	 3.69483474791711E-02 
1996	 0.259295118359997 
1997	 0.298796062958367 
1998	 0.178143736233893 
1999	 0.248437759303638 
2000	 1.08260043385732E-02 
2001	-0.199258719522202 
2002	-6.99188543518774E-03 
2003	-2.46388187524001E-04 
2004	 2.79865066811308E-02 
2005	 0.138403230536589 
2006	 6.76663130342945E-02 
2007	-9.06372607931384E-03 
2008	-0.105897038999117 
2009	-0.104000898172977 
2010	 7.06226587515886E-02 
2011	 0.11339750128992 
2012	 0.127012733969304 
2013	 0.237758702093901 
2014	 0.354969254699384 
2015	 0.316563973245873 
2016	 0.240650635947354 
2017	 0.337038682247407 
2018	 0.194010827054548 
2019	-1.55753740818104E-02 
2020	-6.76214267889155E-02 
2021	-8.84551996927244E-02 
2022	-6.57404504133493E-02 
2023	-7.83313727872473E-02 
2024	-5.11119696831443E-02 
2025	 4.17282270868049E-02 
2026	 6.87469803062368E-02 
2027	 2.97718254480676E-02 
2028	 9.99434849306087E-02 
2029	 0.113904407453323 
2030	 0.114979859333234 
2031	 0.179967647677844 
2032	 0.151220375691603 
2033	 0.147386460290115 
2034	 0.113427329150753 
2035	 2.91798896936186E-03 
2036	-2.27125461505904E-02 
2037	-9.5228906738525E-03 
2038	-4.62960020566968E-02 
2039	-0.055081955643761 
2040	-0.030852847117156 
2041	-1.55941914461268E-03 
2042	 4.87416643733238E-02 
2043	 6.95086364388212E-02 
2044	 0.113428375969966 
2045	 0.122709831405289 
2046	 6.44393870048131E-02 
2047	 1.76844206757058E-02 
2048	 5.13251657467769E-03 
2049	-2.64269205679707E-02 
2050	-3.30219552704503E-02 
2051	-3.71872505441477E-02 
2052	-4.28002749628453E-02 
2053	-5.46925522833062E-02 
2054	-5.29808049784832E-02 
2055	-3.27855098984505E-02 
2056	-0.010297049132379 
2057	 6.90879294349189E-02 
2058	 8.05473229048409E-02 
2059	 3.54516277845176E-02 
2060	 2.48552482439636E-02 
2061	 8.20945309193611E-03 
2062	-6.94497653133059E-03 
2063	-4.95912653652805E-02 
2064	-6.70210539860435E-02 
2065	-5.54827789232946E-02 
2066	-8.64508915531958E-02 
2067	-0.09529016538563 
2068	-6.43269217757374E-02 
2069	-7.16717215774223E-02 
2070	-0.119965888784348 
2071	-0.127029717466422 
2072	-0.14046776049739 
2073	-0.116791963412192 
2074	-5.70632814930516E-02 
2075	-3.69567364490133E-02 
2076	 1.16968948375781E-02 
2077	 3.57126099958213E-02 
2078	 8.64178317600367E-03 
2079	 1.19606854038561E-02 
2080	 4.93346094631359E-02 
2081	 1.70199521867533E-02 
2082	-9.31276559340083E-03 
2083	-1.95688531397035E-02 
2084	-3.64798895438435E-02 
2085	-3.4339043314914E-04 
2086	 5.51888716509722E-02 
2087	 6.02939360886654E-02 
2088	 6.55536531373636E-02 
2089	 6.06884063111638E-02 
2090	 1.40973594619929E-02 
2091	-2.69004273407443E-02 
2092	-4.81608024395634E-02 
2093	-9.59955727488743E-02 
2094	-0.085189172087875 
2095	 1.12951709886042E-02 
2096	 0.044409923809129 
2097	 8.60748973333625E-02 
2098	 8.65707095752089E-02 
2099	 4.18803966047319E-02 
2100	-4.30903131152549E-02 
2101	-7.21202990481734E-02 
2102	-0.058337499746814 
2103	-5.33889536477782E-02 
2104	-4.65657408086932E-02 
2105	-1.12780698098143E-02 
2106	-1.12708372039044E-02 
2107	-3.21713798865685E-02 
2108	-0.032009045009438 
2109	-2.32164811493781E-02 
2110	-1.99279293788643E-02 
2111	-1.07296543907862E-02 
2112	 0.02417646812789 
2113	 2.26552684542857E-02 
2114	-2.72958702531998E-02 
2115	-4.65243909159203E-02 
2116	-0.07702773669065 
2117	-7.85416537392154E-02 
2118	-6.12343619163371E-02 
2119	-4.34155595856587E-02 
2120	 5.30853542474794E-03 
2121	 3.87993176444406E-02 
2122	 7.48589440111564E-03 
2123	 2.97135657086537E-02 
2124	 1.94133309223206E-02 
2125	-2.19861992415997E-02 
2126	-1.15852901600456E-02 
2127	-4.98935083631181E-03 
2128	-1.70996251822865E-02 
2129	-1.72081879686336E-02 
2130	-1.07712062000897E-02 
2131	-4.25140682287471E-02 
2132	-3.76228538381013E-02 
2133	 1.07454626963028E-02 
2134	 1.65425057754583E-02 
2135	 1.70274583542569E-02 
2136	 1.81089627574459E-02 
2137	-0.016169475009735 
2138	-2.38718711683112E-02 
2139	-3.32865992631822E-03 
2140	-1.79169389598471E-03 
2141	 6.4234393813605E-03 
2142	-4.18986732808454E-03 
2143	-4.50735947051004E-02 
2144	-5.30266618586387E-02 
2145	-6.62001150049962E-02 
2146	-9.63190892852006E-02 
2147	-9.15369297294565E-02 
2148	-9.54173939217943E-02 
2149	-0.103947936207815 
2150	-7.86571772585608E-02 
2151	-4.55372263213856E-02 
2152	-2.75784225325345E-02 
2153	-2.73352952639015E-02 
2154	-4.56181476587254E-02 
2155	-5.61664466731158E-02 
2156	-3.88368416884989E-02 
2157	-0.031565586907846 
2158	 6.54419637352826E-03 
2159	 2.20848861202466E-02 
2160	-1.41126264784034E-03 
2161	-1.01086426995922E-02 
2162	-2.20329012263691E-02 
2163	-1.88787235850757E-02 
2164	 1.38791293384843E-02 
2165	 3.39541728997987E-02 
2166	 7.29159108409311E-02 
2167	 8.67738037938068E-02 
2168	 6.35059824040954E-02 
2169	 3.27506308760614E-02 
2170	-1.38528034107402E-02 
2171	-2.36349881965634E-02 
2172	-9.34803318671007E-02 
2173	-0.118125039046321 
2174	-0.124294299042404 
2175	-0.170733715369512 
2176	-0.17725700112537 
2177	-0.159950624602135 
2178	-0.140668160633442 
2179	-0.135173311200632 
2180	-9.23907079054567E-02 
2181	-3.19803050082386E-02 
2182	-2.66632455305493E-02 
2183	-2.23428973520596E-02 
2184	-4.15895004114963E-02 
2185	-6.93249257308647E-02 
2186	-6.50874806499851E-02 
2187	-2.20297132616589E-02 
2188	-7.62897165610863E-03 
2189	 0.013910730715515 
2190	 2.34308102216537E-02 
2191	 2.00465798197816E-02 
2192	 2.09144383550212E-02 
2193	-3.16504237308506E-03 
2194	-8.98464157875143E-04 
2195	 2.52159392157386E-02 
2196	 4.78535255109125E-02 
2197	 0.114387995335595 
2198	 0.139120045787095 
2199	 0.139262305351967 
2200	 0.117023663189578 
2201	 8.28190911800635E-02 
2202	 3.73787733794946E-02 
2203	 4.01554996468353E-02 
2204	 0.02424193677282 
2205	-5.48091017592216E-03 
2206	 8.54353891641523E-03 
2207	-3.09593768197562E-02 
2208	-6.15623101082568E-02 
2209	-3.21832252751174E-02 
2210	-6.69361472001888E-02 
2211	-6.65278163600493E-02 
2212	-3.00920985559916E-02 
2213	-4.61446185920718E-02 
2214	 3.27229080518737E-03 
2215	 2.93525422235601E-02 
2216	-1.15139604396578E-02 
2217	-3.00848919029016E-02 
2218	-8.98661288584529E-02 
2219	-8.22991265283467E-02 
2220	-2.43866724946279E-02 
2221	 4.88547322764434E-03 
2222	 7.09791137527339E-02 
2223	 9.87436525218548E-02 
2224	 7.76584646480534E-02 
2225	 0.100065958022584 
2226	 0.185407007154892 
2227	 0.171913596870017 
2228	 7.40821004323066E-02 
2229	 4.52758745202055E-02 
2230	-9.00181068025879E-03 
2231	-0.043984209884972 
2232	-1.32818137357528E-02 
2233	 1.36404790325805E-02 
2234	 3.19929082033639E-02 
2235	 2.68738000902312E-02 
2236	 9.68961253067268E-02 
2237	 9.10352993030959E-02 
2238	 1.00099348657251E-02 
2239	 3.97606562645151E-03 
2240	 2.63020802378958E-02 
2241	-6.98236793274862E-03 
2242	-5.89535679693392E-02 
2243	-2.16827910144099E-02 
2244	 2.47204987096469E-02 
2245	 5.92741932562015E-02 
2246	 6.09997256420138E-02 
2247	-7.29620101218678E-03 
2248	-1.75776531961764E-02 
2249	 6.0900584243931E-03 
2250	 1.18924087136294E-03 
2251	 5.69347288867797E-02 
2252	 8.01410881095289E-02 
2253	 8.8890786610299E-03 
2254	 1.48395996843417E-02 
2255	 5.42128952257286E-03 
2256	-5.96242246686229E-02 
2257	-7.52782871753901E-02 
2258	-7.86929195384854E-02 
2259	-6.80867645102282E-02 
2260	-2.18729538049322E-02 
2261	 0.075236842881339 
2262	 7.38717611851861E-02 
2263	 5.48598436133768E-02 
2264	 5.97312331630377E-02 
2265	 2.63128349791578E-02 
2266	-3.55878158646187E-02 
2267	-0.10186606151708 
2268	-0.153938083289253 
2269	-0.305136589908836 
2270	-0.345539788200659 
2271	-0.26666178015189 
2272	-0.231396353109381 
2273	-0.2012900830043 
2274	-0.158781515503977 
2275	-0.104619800645844 
2276	-7.49873342528347E-02 
2277	-3.80350226971938E-03 
2278	 0.046520335146463 
2279	 0.109623497844181 
2280	 0.107343131201177 
2281	 9.74512825061939E-02 
2282	-0.049049179522947 
2283	-0.181626733855507 
2284	-0.269336621265494 
2285	-0.17026504748054 
2286	-5.66634591968219E-02 
2287	 5.16112436589057E-02 
2288	 0.153390796555062 
2289	 0.144147033878588 
2290	 0.105017978348595 
2291	 9.49590641527528E-03 
2292	-3.75368469230627E-02 
2293	-9.03665678669454E-02 
2294	-0.215975298226184 
2295	-0.210682122188286 
2296	-0.114145862142407 
2297	 3.38625470621399E-02 
2298	 0.104782300066744 
2299	 2.34500812685936E-02 
2300	-6.38459731698167E-02 
2301	-0.185130766655289 
2302	-0.154966665024753 
2303	-3.32080407074005E-02 
2304	 2.65908985505711E-02 
2305	 0.100476481021222 
2306	 0.124911691990591 
2307	 3.87070897351433E-02 
2308	-3.83392078497795E-02 
2309	-3.12322352363609E-02 
2310	-0.119373816440617 
2311	-0.129578957558556 
2312	 0.044491038867937 
2313	-5.72133687401637E-02 
2314	-9.40450589386537E-02 
2315	 9.75924913209348E-02 
2316	 0.135143147339894 
2317	 0.258183830914719 
2318	 0.348324444917133 
2319	 4.77264997195311E-02 
2320	-0.124673727515045 
2321	-0.416230510717649 
2322	-0.866846260238163 
2323	-1.08988647296357 
2324	-1.07010893100916 
2325	-0.875451982748171 
2326	-0.740832026100246 
2327	-0.537809973450899 
2328	-0.356405274883794 
2329	-0.22408729179949 
2330	-3.74993921257095E-02 
2331	 0.115945986183485 
2332	 0.339858220952395 
2333	 0.478174693465981 
2334	 0.555655509202563 
2335	 0.706320422474783 
2336	 0.749978100990879 
2337	 0.834121330574284 
2338	 1.10058621455361 
2339	 1.94121284917618 
2340	 3.59773374316415 
2341	 1.94181385215083 
2342	 2.91687197282459 
2343	 1.10227626095873 
2344	 0.525749001202838 
2345	 0.321494391386256 
2346	-0.123694430535923 
2347	-0.551122261654725 
2348	-1.49254018439627 
2349	-1.35041952897541 
2350	-0.35458233462422 
2351	-0.514505527217343 
2352	-0.908643468198328 
2353	-2.50310000108545 
2354	 4.12369839695463 
2355	 2.51001221921299 
2356	-0.31020685542131 
2357	-0.167484996594926 
2358	-0.147212137782555 
2359	-4.21764326309733E-02 
2360	 0.178485757747346 
2361	 0.393476039194022 
2362	 1.02702898531657 
2363	 0.442820624800246 
2364	-0.880206439083286 
2365	-1.0000325588949 
2366	-0.976861502207475 
2367	-1.07744360800019 
2368	-2.07765160205764 
2369	-2.26053232983931 
2370	-1.04297198440953 
2371	-0.348178637618896 
2372	-0.164734662502341 
2373	-4.51836350811915E-03 
2374	-0.398988248941728 
2375	 0.642634682526419 
2376	-6.06350753396281E-02 
2377	 0.205957230481808 
2378	 0.35201797101942 
2379	 0.084824518710557 
2380	-4.10275127068579 
2381	-5.95546391409012 
2382	 1.01639147238099 
2383	 13.9742258719639 
2384	-0.564272424868068 
2385	-0.670264488871142 
2386	-0.705884175743999 
2387	-1.02953357017219 
2388	-1.96929882280032 
2389	-1.82430627144218 
2390	-1.38512358090794 
2391	-4.90451139183039E-02 
2392	-1.24901991110244 
2393	 0.921709834703511 
2394	 2.29956939869691 
2395	 0.700787633951227 
2396	 4.36404997415972E-02 
2397	-8.16497689118199 
2398	-23.0930940523572 
2399	-65.294337993349 
2400	 0.433465368326127 
2401	 1.3328394056149 
2402	 1.09343546029848 
2403	 1.93563641929506 
2404	 14.8566690782522 
2405	-13.8268835616408 
2406	 3.47612406389315 
2407	 0.751978476884725 
2408	 0.876981392541174 
2409	 0.667048224468985 
2410	 0.417230683926359 
2411	 0.115328141753046 
2412	-1.12991237386973 
2413	-4.0338562674268 
2414	-13.80530432323 
2415	-3.1200708650163 
2416	-0.25867904310141 
2417	 0.584783411841028 
2418	 0.586664138583633 
2419	 0.430105319154452 
2420	 0.623862636070204 
2421	 0.719279138943632 
2422	 1.79294974838701 
2423	 3.20081567622183 
2424	 3.83594427911593 
2425	 34.7026782976934 
2426	 42.3094243635797 
2427	-9.29420818041651 
2428	-11.6835646041329 
2429	 0.810494690578142 
2430	 0.183765709298927 
2431	 0.167226278124283 
2432	 0.519119675432985 
2433	 1.31223789683905 
2434	-4.17629320664203 
2435	-1.27668086805751 
2436	-0.948857256451132 
2437	-1.32946244828286 
2438	-7.46180697105309 
2439	 2.1464154104434 
2440	 5.1431652670645 
2441	 5.9824225179682 
2442	 1.03491336728913 
2443	 19.2369523966357 
2444	 1.32098029526739 
2445	 0.197052914841658 
2446	 0.17690712702504 
2447	 0.314150022730713 
2448	 0.430022281234054 
2449	 4.23967916988835 
2450	 2.10389339194094 
2451	-3.0712009450461 
2452	-10.2841937267181 
2453	-1.29594327939633 
2454	-0.397108707506829 
2455	 0.268002195377713 
2456	 0.566420945574563 
2457	-4.45521599449062 
2458	-1.10153538634846 
2459	-1.03805650216219 
2460	-1.4516334354532 
2461	-3.10271146796287 
2462	-9.2040139639252 
2463	-7.55490819752846 
2464	-6.33393287824353 
2465	-3.29754147868077 
2466	-3.73889666926936 
2467	-7.45344659672821 
2468	 10.6648720370165 
2469	 1.71785241886681 
2470	 0.860761575202645 
2471	 1.36451409793516 
2472	 1.69697021206682 
2473	 2.23824786069673 
2474	 3.06368054955114 
2475	 0.800280479196492 
2476	 0.279259631071566 
2477	 0.381859571880746 
2478	 0.45255469939342 
2479	 24.7049575184251 
2480	-2.26763450281216 
2481	-0.355454149479566 
2482	 1.62182444986753 
2483	 1.74991590429413 
2484	 0.798814527697028 
2485	 0.736718987855752 
2486	 0.593017604537805 
2487	 0.416467261458207 
2488	 0.100660433619003 
2489	 0.843609362415769 
2490	-4.74669023730567 
2491	-0.704336446342197 
2492	-0.549029492311483 
2493	-7.98142848157313E-02 
2494	 0.171247911863566 
2495	 3.48804994556736E-02 
2496	 7.15832490760469E-02 
2497	-0.292157671876983 
2498	-2.01755293563481 
2499	 4.1157719025434 
2500	 2.26245750926928 
