Wavelength	rt0802close00006.asd
350	 2.48517071729014E-02 
351	 2.55785893613031E-02 
352	 2.50857015181826E-02 
353	 2.44991232320558E-02 
354	 2.47374510366291E-02 
355	 2.55633303596909E-02 
356	 2.72126200308326E-02 
357	 0.027749395498079 
358	 2.58416476812247E-02 
359	 2.52560367168254E-02 
360	 2.59849954002136E-02 
361	 2.66561062268324E-02 
362	 0.025552394407579 
363	 2.64904855038789E-02 
364	 2.72610041554829E-02 
365	 2.69303866831914E-02 
366	 2.76624072453987E-02 
367	 2.73516759448444E-02 
368	 2.73389097047901E-02 
369	 2.84358069465801E-02 
370	 2.59397247228907E-02 
371	 2.65142010061507E-02 
372	 0.028292765229796 
373	 2.55854554893172E-02 
374	 2.79162955737579E-02 
375	 2.99895055880628E-02 
376	 2.91190892415382E-02 
377	 2.84234876451531E-02 
378	 0.029288954638714 
379	 2.97325802598016E-02 
380	 2.85998684532843E-02 
381	 3.03627995327381E-02 
382	 3.05258349908791E-02 
383	 3.02044397859577E-02 
384	 3.22705774106601E-02 
385	 3.09367686901761E-02 
386	 3.06087330333243E-02 
387	 3.23459061734434E-02 
388	 3.25944663987054E-02 
389	 3.27954515153942E-02 
390	 3.29581757949074E-02 
391	 3.30464448845087E-02 
392	 3.35613424605238E-02 
393	 3.36591559876661E-02 
394	 3.39814620138494E-02 
395	 3.51577739626098E-02 
396	 3.46910910263781E-02 
397	 3.45389447675603E-02 
398	 3.49373683953098E-02 
399	 3.45374666980733E-02 
400	 3.56089358897859E-02 
401	 3.63385313090527E-02 
402	 3.57467446042628E-02 
403	 3.60882701913732E-02 
404	 3.59726722967046E-02 
405	 3.59865007413365E-02 
406	 3.69257757772456E-02 
407	 3.63945776807641E-02 
408	 3.63238697279357E-02 
409	 0.037122078913396 
410	 3.74786930694138E-02 
411	 3.79998971841339E-02 
412	 3.88197160777828E-02 
413	 3.95209626547794E-02 
414	 3.83034202086857E-02 
415	 3.85590846399326E-02 
416	 3.95225387179978E-02 
417	 3.92219631901431E-02 
418	 4.00251740555999E-02 
419	 4.02526284436275E-02 
420	 3.98730842290456E-02 
421	 0.040838934226388 
422	 4.09745112161573E-02 
423	 4.09800295068179E-02 
424	 4.16596214299987E-02 
425	 4.24549558738351E-02 
426	 4.27716745505049E-02 
427	 4.32100999732247E-02 
428	 4.45518802494426E-02 
429	 4.42249917689907E-02 
430	 4.42356927544006E-02 
431	 4.50444331710778E-02 
432	 4.48091867558423E-02 
433	 0.04554339924907 
434	 4.63550257587716E-02 
435	 4.63785075140552E-02 
436	 4.67522888748247E-02 
437	 0.047348151996649 
438	 4.80002727573255E-02 
439	 4.85067769658643E-02 
440	 4.86733955512951E-02 
441	 4.90112777143145E-02 
442	 4.97263222380228E-02 
443	 5.04861661963441E-02 
444	 5.08258910279942E-02 
445	 5.09649309848871E-02 
446	 5.12845515216062E-02 
447	 0.05195672812807 
448	 5.22292608757774E-02 
449	 5.23863028131193E-02 
450	 5.33442362104351E-02 
451	 5.35526314694152E-02 
452	 5.36148035814062E-02 
453	 5.40453739568317E-02 
454	 0.054546618751306 
455	 0.054771462497852 
456	 5.48316817401224E-02 
457	 5.50004405797447E-02 
458	 5.52825555394132E-02 
459	 5.56350295765865E-02 
460	 5.59761063697628E-02 
461	 5.61932427706362E-02 
462	 5.62173056256864E-02 
463	 5.62563485373399E-02 
464	 5.65390841350476E-02 
465	 5.73223754912454E-02 
466	 5.70833383300425E-02 
467	 5.66000416440413E-02 
468	 0.057490049060007 
469	 0.058084952322202 
470	 5.80846314829998E-02 
471	 5.79348586518027E-02 
472	 5.88827977753675E-02 
473	 0.059120348137357 
474	 5.89991447883237E-02 
475	 5.92191560474324E-02 
476	 0.059512665948503 
477	 5.99253128527666E-02 
478	 6.03350709821844E-02 
479	 6.05334694665354E-02 
480	 6.05820126858179E-02 
481	 6.12409170060302E-02 
482	 6.23755998729962E-02 
483	 6.17763926613794E-02 
484	 6.18474214352443E-02 
485	 6.26608081599022E-02 
486	 6.34146587777689E-02 
487	 6.37966449982732E-02 
488	 6.40469764195103E-02 
489	 6.44728854532461E-02 
490	 6.53549092049317E-02 
491	 6.58249054786437E-02 
492	 6.61711616737631E-02 
493	 6.67112846909001E-02 
494	 0.067137114264109 
495	 6.80976701910405E-02 
496	 6.89130869126727E-02 
497	 6.85591801843934E-02 
498	 6.93284971103316E-02 
499	 6.99470018373578E-02 
500	 6.99917864996068E-02 
501	 7.09449513279262E-02 
502	 7.17521131475283E-02 
503	 7.22324399564349E-02 
504	 7.26360980625798E-02 
505	 7.38829458646398E-02 
506	 7.47729096990763E-02 
507	 0.075212305379254 
508	 0.075998471502444 
509	 7.68695433062884E-02 
510	 7.75651713131296E-02 
511	 7.80603697957639E-02 
512	 7.88708465010516E-02 
513	 7.99074582848103E-02 
514	 0.08065780708332 
515	 0.080708832899493 
516	 8.18552063724064E-02 
517	 8.30052426943394E-02 
518	 8.36728888108928E-02 
519	 8.44536204355196E-02 
520	 8.53659677351584E-02 
521	 8.62363744549812E-02 
522	 8.69560725434622E-02 
523	 8.77875258374702E-02 
524	 8.88232370420037E-02 
525	 8.98357218390729E-02 
526	 9.04463928896107E-02 
527	 9.11871763265942E-02 
528	 9.22739731208437E-02 
529	 0.093563990266127 
530	 0.094335252756028 
531	 9.50545351835551E-02 
532	 0.095902174254681 
533	 9.69230043452715E-02 
534	 9.79991966120264E-02 
535	 9.88896989323817E-02 
536	 9.95695349175983E-02 
537	 0.10025678306841 
538	 0.101421969865154 
539	 0.102697724474114 
540	 0.103673030778306 
541	 0.104582904949076 
542	 0.105304089919649 
543	 0.106173017716155 
544	 0.107664315704702 
545	 0.108538228901059 
546	 0.109220031555434 
547	 0.110220118236244 
548	 0.111872950582058 
549	 0.112845509431774 
550	 0.113243004684276 
551	 0.113762390298037 
552	 0.115010212848962 
553	 0.116436345480997 
554	 0.117640364577585 
555	 0.118478325443532 
556	 0.119119704393073 
557	 0.119823108789955 
558	 0.120770578661777 
559	 0.121879436346845 
560	 0.122852454281158 
561	 0.123700509960244 
562	 0.124615266202914 
563	 0.125380241270347 
564	 0.125813492956862 
565	 0.126065315850518 
566	 0.12694147589965 
567	 0.127725915497346 
568	 0.128558942261996 
569	 0.129659242061753 
570	 0.129884718822318 
571	 0.129979759051691 
572	 0.130340844085136 
573	 0.130844696401912 
574	 0.131274596787789 
575	 0.131706059039626 
576	 0.132261796554858 
577	 0.133074035030214 
578	 0.133163939601826 
579	 0.132940224148618 
580	 0.133518172944305 
581	 0.133748567567301 
582	 0.133776224538775 
583	 0.13374253904301 
584	 0.133495630049498 
585	 0.132781548749415 
586	 0.132320979528779 
587	 0.132817099354757 
588	 0.132029075426067 
589	 0.131406814235113 
590	 0.131440871207423 
591	 0.13116481361607 
592	 0.130883204078439 
593	 0.130538655054194 
594	 0.13005214952861 
595	 0.129411562104833 
596	 0.12885973599851 
597	 0.128237612056731 
598	 0.127257848809524 
599	 0.126537513150054 
600	 0.126024312830565 
601	 0.125692541703924 
602	 0.125731164675068 
603	 0.125404654513121 
604	 0.124986628718818 
605	 0.124954565040354 
606	 0.124994290016386 
607	 0.124867251444123 
608	 0.124711747790571 
609	 0.12502319057302 
610	 0.125208856158504 
611	 0.125211127713444 
612	 0.12516650780276 
613	 0.125426379690566 
614	 0.125676807643047 
615	 0.125760943380996 
616	 0.125673853053896 
617	 0.125952646422876 
618	 0.125766570709075 
619	 0.125092705026011 
620	 0.125461444578392 
621	 0.125517835861682 
622	 0.125302811881294 
623	 0.125233878259349 
624	 0.125299555743171 
625	 0.124906040804806 
626	 0.124291624027632 
627	 0.124481058881179 
628	 0.12471012191435 
629	 0.124779568960952 
630	 0.124732067302649 
631	 0.124936724609085 
632	 0.124981795673436 
633	 0.124965681550012 
634	 0.125158167429383 
635	 0.125151796691488 
636	 0.124878858462408 
637	 0.124614391996159 
638	 0.125075426140422 
639	 0.125191545770067 
640	 0.125106450039079 
641	 0.125112349761004 
642	 0.124526795787284 
643	 0.1238890192844 
644	 0.123375010427887 
645	 0.122854538799984 
646	 0.122636280705752 
647	 0.122504509793174 
648	 0.122283864886495 
649	 0.122122354749272 
650	 0.1223925588021 
651	 0.122528329379368 
652	 0.121822533535612 
653	 0.121287743979581 
654	 0.120270723449397 
655	 0.118932476926814 
656	 0.118815967391744 
657	 0.118362326190304 
658	 0.117964580086614 
659	 0.11798912626501 
660	 0.117561075671624 
661	 0.116963623997056 
662	 0.116561826730318 
663	 0.116660583372487 
664	 0.116162858859255 
665	 0.11561781788164 
666	 0.11544426364614 
667	 0.115481178844443 
668	 0.1153886186224 
669	 0.115200816864849 
670	 0.11501947343234 
671	 0.114515880663464 
672	 0.11412770520076 
673	 0.114202744718189 
674	 0.114889307922368 
675	 0.114802908078801 
676	 0.114386206194199 
677	 0.114250159414794 
678	 0.11449286327367 
679	 0.114693547137166 
680	 0.114781818349045 
681	 0.114821792473482 
682	 0.114457301160413 
683	 0.11465101825306 
684	 0.115372640333763 
685	 0.115144492337453 
686	 0.113974323398623 
687	 0.113267287404548 
688	 0.114119123435027 
689	 0.114910084763755 
690	 0.114514001991823 
691	 0.113242457229844 
692	 0.112351046638214 
693	 0.112052035880122 
694	 0.111898507348626 
695	 0.111515957724283 
696	 0.110898295559109 
697	 0.110028341501458 
698	 0.109037660369029 
699	 0.108133571001563 
700	 0.106822537365036 
701	 0.105764150912929 
702	 0.105023648787309 
703	 0.104100712838736 
704	 0.102645477275335 
705	 0.100988492839279 
706	 9.95800505431477E-02 
707	 9.87055006933986E-02 
708	 9.73196782891335E-02 
709	 9.56392265922292E-02 
710	 9.41041742777373E-02 
711	 9.13583565746084E-02 
712	 8.90487755692471E-02 
713	 8.75129596262499E-02 
714	 8.54680497194022E-02 
715	 8.18828975726522E-02 
716	 0.077688986679294 
717	 7.50168310759094E-02 
718	 7.17768389185276E-02 
719	 6.91302064554235E-02 
720	 6.78843558888695E-02 
721	 6.73707694726955E-02 
722	 6.54403088531805E-02 
723	 6.19564732803305E-02 
724	 0.058323158928552 
725	 5.67213213792352E-02 
726	 5.51415090814099E-02 
727	 5.27828454771967E-02 
728	 4.95795165387397E-02 
729	 4.65704150421373E-02 
730	 4.35697961118604E-02 
731	 4.14583771798316E-02 
732	 4.04473873304425E-02 
733	 3.83276557669459E-02 
734	 3.61694148652145E-02 
735	 3.46919204340499E-02 
736	 3.39843635997694E-02 
737	 3.36803188279407E-02 
738	 3.32249539726941E-02 
739	 3.24644619638109E-02 
740	 3.23999273903105E-02 
741	 3.19221330982957E-02 
742	 3.14904708499146E-02 
743	 3.20494075118498E-02 
744	 0.031920669697633 
745	 3.17434371075724E-02 
746	 3.17900715347968E-02 
747	 3.15529014855558E-02 
748	 3.18217527502535E-02 
749	 3.22362343014958E-02 
750	 3.22396470600745E-02 
751	 3.15922197262025E-02 
752	 3.13090061541553E-02 
753	 3.14911058342932E-02 
754	 3.17080632548196E-02 
755	 3.20061233471912E-02 
756	 0.031786342816754 
757	 3.11798981488281E-02 
758	 3.15840473569398E-02 
759	 0.030973697513212 
760	 2.96781056594203E-02 
761	 0.030236832562296 
762	 2.98921266249619E-02 
763	 3.14931845248442E-02 
764	 3.30802450477726E-02 
765	 3.26795772908451E-02 
766	 3.24578439831076E-02 
767	 3.23170856008785E-02 
768	 3.22160915266618E-02 
769	 0.03227477596375 
770	 3.34170630467606E-02 
771	 3.42438718979573E-02 
772	 3.38803361413617E-02 
773	 3.40945520553516E-02 
774	 3.39396060302352E-02 
775	 3.40278410399056E-02 
776	 3.51571666572552E-02 
777	 3.51144764306647E-02 
778	 3.51966762854659E-02 
779	 3.58238541605549E-02 
780	 0.036289670516787 
781	 3.66014299321628E-02 
782	 3.68190498691005E-02 
783	 3.70211183121244E-02 
784	 3.72802296140248E-02 
785	 3.74107242197413E-02 
786	 3.76480602873547E-02 
787	 3.82394930690284E-02 
788	 0.038491954969713 
789	 3.92554410501774E-02 
790	 4.03075190126271E-02 
791	 4.06464495611905E-02 
792	 4.12276390892468E-02 
793	 4.14406383766306E-02 
794	 0.041255424114188 
795	 4.19039162895205E-02 
796	 4.23190078070081E-02 
797	 0.042451488252366 
798	 0.042629924773689 
799	 0.043320429235273 
800	 4.38822041855368E-02 
801	 4.42184688052012E-02 
802	 4.45618262615475E-02 
803	 4.47730843507149E-02 
804	 4.48563688323608E-02 
805	 4.49478015395837E-02 
806	 4.52618732820798E-02 
807	 4.48612908812906E-02 
808	 4.42735874339439E-02 
809	 4.40825590484498E-02 
810	 4.41715557209515E-02 
811	 4.36274404359178E-02 
812	 4.31136729423448E-02 
813	 4.35455835939158E-02 
814	 4.09603707839213E-02 
815	 4.05060277822657E-02 
816	 4.15108945934466E-02 
817	 3.88457155829068E-02 
818	 4.01744924587456E-02 
819	 3.98455229495891E-02 
820	 0.037019345737751 
821	 3.72744417382486E-02 
822	 3.75654851779325E-02 
823	 3.64503424730053E-02 
824	 3.41742337424329E-02 
825	 3.28508214764119E-02 
826	 3.09180740066381E-02 
827	 2.87850702958807E-02 
828	 2.75121882318842E-02 
829	 2.56792757803612E-02 
830	 0.024989860633388 
831	 2.43695839283926E-02 
832	 2.14578286221551E-02 
833	 2.10375441149578E-02 
834	 2.12802256991673E-02 
835	 2.07224463678797E-02 
836	 1.93621050750921E-02 
837	 1.89866318897553E-02 
838	 1.91315659726123E-02 
839	 1.91287014532087E-02 
840	 0.019094478968842 
841	 1.91545152151465E-02 
842	 1.91662617210681E-02 
843	 0.018920274127684 
844	 1.82464644210615E-02 
845	 1.87546566248494E-02 
846	 1.91014133034893E-02 
847	 1.67143931893801E-02 
848	 1.71491211834857E-02 
849	 1.82270128452154E-02 
850	 1.84981508542143E-02 
851	 1.86314995026106E-02 
852	 0.017606402484387 
853	 1.72898256352169E-02 
854	 1.82623578314332E-02 
855	 1.72608309220402E-02 
856	 1.66172090630731E-02 
857	 0.016533342053838 
858	 1.65731001434174E-02 
859	 0.016255250902207 
860	 1.60935108716069E-02 
861	 1.61769828804095E-02 
862	 0.016334189381572 
863	 1.64531396080477E-02 
864	 1.56345541585518E-02 
865	 1.45879929509187E-02 
866	 1.52319604687874E-02 
867	 1.57378313690407E-02 
868	 1.59805098733134E-02 
869	 1.60357526012699E-02 
870	 1.59004798528774E-02 
871	 1.44964795625047E-02 
872	 1.35105394436699E-02 
873	 1.38878656143999E-02 
874	 1.34676966299691E-02 
875	 1.46781944008675E-02 
876	 1.55971340964326E-02 
877	 1.41013359227219E-02 
878	 1.21835321322641E-02 
879	 1.17622191179934E-02 
880	 1.25843661247739E-02 
881	 1.32521822275853E-02 
882	 1.34525415009224E-02 
883	 1.29175772113832E-02 
884	 1.18707815049888E-02 
885	 0.011106550581557 
886	 1.29725203275178E-02 
887	 1.36133338129942E-02 
888	 1.21741456996333E-02 
889	 1.19443347435491E-02 
890	 1.21370358422736E-02 
891	 1.18332227701785E-02 
892	 1.10330271368289E-02 
893	 1.18702392312541E-02 
894	 1.03162755071171E-02 
895	 8.85597941938208E-03 
896	 1.04627303463968E-02 
897	 1.03326807875642E-02 
898	 1.10842172121418E-02 
899	 1.11545929521328E-02 
900	 8.90459197558666E-03 
901	 7.10822862815723E-03 
902	 6.81958891646461E-03 
903	 7.0628069485545E-03 
904	 6.74499820255905E-03 
905	 8.01131281030759E-03 
906	 9.70370196934475E-03 
907	 1.02398689239599E-02 
908	 8.25512846110294E-03 
909	 6.99494057216166E-03 
910	 5.92071290746557E-03 
911	 3.16932738939113E-03 
912	-2.19794630892273E-03 
913	 6.40121786484325E-03 
914	 1.02511643065315E-02 
915	 4.5930321219273E-03 
916	 5.01861191078061E-03 
917	 7.5724177832282E-03 
918	 6.06791547119279E-03 
919	 2.17837721848522E-03 
920	 6.47586917672613E-03 
921	 5.06734865455184E-03 
922	 2.62938053026994E-03 
923	 4.33589558107473E-03 
924	 8.95841907752319E-03 
925	 4.98409222904706E-03 
926	-1.55677885303424E-03 
927	 2.82483429087487E-04 
928	 8.54171083073348E-03 
929	 7.94283329442188E-03 
930	 8.57880245695374E-03 
931	 2.95803621828177E-02 
932	-3.83784120121329E-02 
933	-5.16721349338725E-02 
934	-3.12862787376825E-03 
935	-2.65998159253262E-02 
936	-0.122840646773321 
937	-5.39932953998913E-02 
938	 2.24452423173184E-02 
939	-3.86886182560501E-02 
940	-8.05059320132701E-05 
941	-7.84422940615734E-04 
942	-1.04118545761154E-02 
943	 5.36405725222518E-02 
944	 9.08491509268535E-03 
945	-2.82133865943184E-03 
946	 0.03970242164527 
947	 5.79539905066185E-02 
948	 2.94964718561699E-03 
949	 0.019239982413993 
950	 5.75877016106872E-02 
951	-1.49317460182137E-03 
952	-1.86523208762108E-03 
953	 7.41429447119342E-03 
954	 2.97341862005532E-04 
955	-1.43283397571493E-02 
956	 9.11820315252487E-03 
957	-0.016172206324225 
958	-0.053489364405493 
959	-4.78781806499752E-03 
960	 1.06036378447061E-02 
961	 1.44009677956324E-03 
962	-1.19435118530305E-02 
963	-1.18784510222915E-02 
964	-1.25622571048575E-03 
965	 7.50386924270363E-03 
966	 7.56615123329476E-03 
967	-5.85559141361318E-04 
968	 6.79862404984117E-03 
969	 1.12833737706222E-02 
970	 5.7657011263385E-03 
971	-2.99984690457125E-03 
972	 3.38428089020742E-03 
973	 7.84834842057908E-03 
974	 4.32642764323254E-03 
975	 1.84325574805913E-03 
976	-1.8094984857734E-04 
977	-4.09136432257955E-04 
978	 1.52287400728624E-03 
979	 4.27444038431399E-03 
980	 1.87154112866013E-03 
981	 1.11930356973531E-03 
982	 2.70096116471609E-03 
983	 1.90783751648082E-03 
984	-3.75490492654659E-03 
985	-2.3741088251518E-03 
986	 2.00859276207102E-03 
987	-3.21583830601734E-03 
988	-2.39517426572078E-03 
989	 2.31879208154307E-03 
990	 6.80193965681284E-03 
991	 6.96522797427875E-03 
992	-2.63887583544372E-03 
993	-5.19400837585127E-03 
994	 6.0563362044643E-03 
995	 0.022952539615616 
996	 1.51003321190773E-02 
997	 2.51362746428748E-03 
998	-5.78399170755685E-04 
999	 8.15500339527842E-03 
1000	 1.08486424118447E-02 
1001	 9.74893247481035E-03 
1002	 9.39817882618801E-03 
1003	 1.01192449992822E-02 
1004	 1.29137681801567E-02 
1005	 1.46733032558924E-02 
1006	 1.57302046034547E-02 
1007	 1.75902013330283E-02 
1008	 1.61843989975633E-02 
1009	 1.23599710246641E-02 
1010	 1.01595188473264E-02 
1011	 8.32693194224391E-03 
1012	 9.30937550300522E-03 
1013	 1.00160940028056E-02 
1014	 9.56428846612844E-03 
1015	 6.67097637809714E-03 
1016	 6.9582292496426E-03 
1017	 8.08585702427856E-03 
1018	 9.35880200266072E-03 
1019	 0.015072369913758 
1020	 1.59796578454446E-02 
1021	 1.24778050269918E-02 
1022	 1.16259896223051E-02 
1023	 1.47825771964776E-02 
1024	 1.40427219802616E-02 
1025	 1.16702672751456E-02 
1026	 1.48421401866935E-02 
1027	 1.55755679262509E-02 
1028	 1.19495291534814E-02 
1029	 1.27440084910339E-02 
1030	 1.86459975625831E-02 
1031	 1.89303805712818E-02 
1032	 1.71235519603517E-02 
1033	 1.62250977406659E-02 
1034	 1.37899190037235E-02 
1035	 0.012213081668241 
1036	 9.81792055952504E-03 
1037	 9.53049697833796E-03 
1038	 1.15251265543021E-02 
1039	 1.12806185932342E-02 
1040	 1.09858469447014E-02 
1041	 1.35638171293747E-02 
1042	 1.33552916572375E-02 
1043	 1.05500311476277E-02 
1044	 1.02814294788323E-02 
1045	 1.09245104626458E-02 
1046	 1.09628171470115E-02 
1047	 1.11999390647039E-02 
1048	 1.12315836799341E-02 
1049	 1.10823829408331E-02 
1050	 0.011087518599845 
1051	 1.12298771040319E-02 
1052	 1.16435371936505E-02 
1053	 1.19573591974717E-02 
1054	 1.22887112979157E-02 
1055	 1.44588401968066E-02 
1056	 1.42778865086931E-02 
1057	 1.30123871131776E-02 
1058	 9.90386798966042E-03 
1059	 9.30478797418636E-03 
1060	 7.49655629215923E-03 
1061	 7.81594317042089E-03 
1062	 1.15351333926388E-02 
1063	 1.28026028271677E-02 
1064	 0.0145120094321 
1065	 1.38983375848573E-02 
1066	 0.010287357959207 
1067	 9.25422231992354E-03 
1068	 7.78539187161757E-03 
1069	 6.84743811846608E-03 
1070	 7.35459568197938E-03 
1071	 8.37963976549683E-03 
1072	 0.011267677780409 
1073	 1.11827886952919E-02 
1074	 1.08832695935993E-02 
1075	 1.07823170457985E-02 
1076	 1.13842161936168E-02 
1077	 9.63828350898499E-03 
1078	 0.01031860885036 
1079	 1.39886302526872E-02 
1080	 1.58351253915532E-02 
1081	 1.71590330590325E-02 
1082	 1.89996818704067E-02 
1083	 2.26387736831808E-02 
1084	 2.32128892879109E-02 
1085	 2.02245774072556E-02 
1086	 2.00277632743585E-02 
1087	 2.25509545005455E-02 
1088	 2.05870638044406E-02 
1089	 1.52666932101826E-02 
1090	 1.23840684785025E-02 
1091	 1.24472851308306E-02 
1092	 9.92306862668484E-03 
1093	 9.46867518749835E-03 
1094	 1.89395474234598E-02 
1095	 2.00980163702154E-02 
1096	 1.05645643236767E-02 
1097	 1.08979794570403E-02 
1098	 1.90404218605228E-02 
1099	 1.76223393200925E-02 
1100	 1.43625836870331E-02 
1101	 1.42606891148313E-02 
1102	 1.70213853606603E-03 
1103	 1.56343591366692E-03 
1104	 0.016911098753015 
1105	 3.26089686837952E-02 
1106	 3.65782344384982E-02 
1107	 3.81317943122304E-02 
1108	 2.96432891102418E-02 
1109	 2.30153230277517E-02 
1110	 2.11159060521651E-02 
1111	 3.09933735515585E-02 
1112	 3.48612954176616E-02 
1113	 3.33746132270642E-02 
1114	 3.59400232865542E-02 
1115	 5.38508252235473E-02 
1116	 5.55945938080592E-02 
1117	 0.037683702447318 
1118	 3.46648198730333E-02 
1119	-6.01838511563348E-03 
1120	-1.24113693651404E-02 
1121	 4.80113440370017E-02 
1122	 0.208280290942407 
1123	 0.295667301565756 
1124	 0.189523707664216 
1125	 0.291916861981208 
1126	 0.347414238838632 
1127	 0.200937522090269 
1128	 0.269832210793171 
1129	 0.229082516026969 
1130	-5.86772309848153E-02 
1131	-9.41146395680858E-02 
1132	 3.83831447510813E-02 
1133	 0.09602983828437 
1134	 0.16220738699858 
1135	 0.160996658743074 
1136	 0.130764745429715 
1137	 0.130100580938137 
1138	 0.102327016142228 
1139	 0.118063377926662 
1140	 0.162656431897614 
1141	 0.153719353040417 
1142	 0.119900016331021 
1143	 5.65248712792645E-02 
1144	 5.36291214817097E-02 
1145	 9.63585168678048E-02 
1146	 9.29114489358647E-02 
1147	 0.113541823259923 
1148	 0.144424713881031 
1149	 0.078234109345831 
1150	 5.51165420884291E-02 
1151	 8.08782568120448E-02 
1152	 7.11403658258359E-02 
1153	 2.24955393148191E-02 
1154	 0.027833321885164 
1155	 5.36418661676194E-02 
1156	 0.055262894558576 
1157	 0.045996667119605 
1158	 4.00176807911302E-02 
1159	 2.34897660752947E-02 
1160	 3.39371263125591E-03 
1161	 2.65332907629636E-03 
1162	 1.60295149863148E-02 
1163	 2.08452305550112E-02 
1164	 1.21125973712288E-02 
1165	 3.20202908196486E-03 
1166	 3.73638007878834E-03 
1167	 9.0442601615545E-03 
1168	 0.017732760698382 
1169	 2.14017361164258E-02 
1170	 1.59269330895606E-02 
1171	 1.58272502685445E-02 
1172	 1.56820760910703E-02 
1173	 1.28814077101889E-02 
1174	 0.010885453693404 
1175	 1.04071112728425E-02 
1176	 7.03892285020553E-03 
1177	 6.70975149309356E-03 
1178	 0.011777847886303 
1179	 1.71849724584666E-02 
1180	 2.35330159093336E-02 
1181	 2.01370082276874E-02 
1182	 1.01667596961578E-02 
1183	 1.15988918028582E-02 
1184	 1.24058630332096E-02 
1185	 8.16812800968141E-03 
1186	 9.02498774550223E-03 
1187	 1.24372653510487E-02 
1188	 1.25891179253763E-02 
1189	 1.27156950168794E-02 
1190	 0.018759100021493 
1191	 2.06300671346101E-02 
1192	 2.02053570946972E-02 
1193	 1.54243335895185E-02 
1194	 1.54925299646399E-02 
1195	 1.65905250168388E-02 
1196	 0.015026089482947 
1197	 1.20811822071973E-02 
1198	 1.25027962398372E-02 
1199	 1.25013986919209E-02 
1200	 1.17404094169184E-02 
1201	 1.27130650032867E-02 
1202	 0.012649821241235 
1203	 1.24646230146842E-02 
1204	 1.47640473848862E-02 
1205	 1.78082634333604E-02 
1206	 1.68244620227058E-02 
1207	 1.74092689383626E-02 
1208	 1.97727685645139E-02 
1209	 1.61593153393207E-02 
1210	 1.62025274368504E-02 
1211	 1.92927384224779E-02 
1212	 0.012692665490915 
1213	 6.56860637759568E-03 
1214	 6.24972173817348E-03 
1215	 9.94301504950763E-03 
1216	 9.91849166953116E-03 
1217	 1.02012583651073E-02 
1218	 0.013524977413213 
1219	 1.28530332872832E-02 
1220	 9.38453562665672E-03 
1221	 1.07539227615456E-02 
1222	 0.013674754065532 
1223	 0.012052994078482 
1224	 8.79349869084431E-03 
1225	 8.28778641921345E-03 
1226	 8.38855137182166E-03 
1227	 8.38408213970364E-03 
1228	 9.87702055796586E-03 
1229	 1.16133491518141E-02 
1230	 1.16504444348481E-02 
1231	 9.59896710079947E-03 
1232	 9.49433204776184E-03 
1233	 1.12352717349152E-02 
1234	 1.06093235415488E-02 
1235	 1.05024252795211E-02 
1236	 0.014013619251463 
1237	 0.014204940741757 
1238	 1.16546168479889E-02 
1239	 8.70014657572281E-03 
1240	 8.25264769725897E-03 
1241	 7.87797802661321E-03 
1242	 7.47689541944094E-03 
1243	 8.84255639960203E-03 
1244	 9.41447764185451E-03 
1245	 7.0697834734988E-03 
1246	 6.49541831223628E-03 
1247	 8.36963473489548E-03 
1248	 9.48195750647127E-03 
1249	 9.39580181053356E-03 
1250	 9.93846756294532E-03 
1251	 9.68747987451834E-03 
1252	 7.70925736195448E-03 
1253	 9.6494514049524E-03 
1254	 1.26259742195561E-02 
1255	 1.01217819853781E-02 
1256	 8.76740645472238E-03 
1257	 6.86598220313138E-03 
1258	 7.49404908895024E-03 
1259	 1.07517739389486E-02 
1260	 9.40610968501234E-03 
1261	 5.42815955991986E-03 
1262	 5.96330145309188E-03 
1263	 5.42730334241068E-03 
1264	 4.33674171425727E-03 
1265	 7.55091916012594E-03 
1266	 1.04265006745271E-02 
1267	 8.98101707855816E-03 
1268	 6.77285649293821E-03 
1269	 7.20613856653524E-03 
1270	 7.99202923222265E-03 
1271	 6.01608076700023E-03 
1272	 5.41955247210298E-03 
1273	 1.03649023132858E-02 
1274	 1.52508648913846E-02 
1275	 1.39695473708381E-02 
1276	 1.12993337949921E-02 
1277	 1.17749716274323E-02 
1278	 1.16461651458475E-02 
1279	 8.11615514666788E-03 
1280	 7.85949952018236E-03 
1281	 9.3253759851457E-03 
1282	 8.64044830455837E-03 
1283	 8.37915778224627E-03 
1284	 1.45187706988703E-02 
1285	 1.48655229544651E-02 
1286	 8.05145001260384E-03 
1287	 7.09012506356464E-03 
1288	 8.76991651571465E-03 
1289	 9.34528360207562E-03 
1290	 1.23766506112163E-02 
1291	 1.22413824491712E-02 
1292	 9.23263529092118E-03 
1293	 9.12464936257297E-03 
1294	 7.57062631775866E-03 
1295	 7.74844094222065E-03 
1296	 1.30799238895167E-02 
1297	 1.39010024001555E-02 
1298	 1.14718290210053E-02 
1299	 0.011181796186123 
1300	 1.21814304344661E-02 
1301	 1.20526308935945E-02 
1302	 1.20363927477529E-02 
1303	 1.62179481294935E-02 
1304	 1.69870592478744E-02 
1305	 1.48291674460099E-02 
1306	 1.56555107059584E-02 
1307	 2.11435430010795E-02 
1308	 2.20239012960833E-02 
1309	 2.14423463036764E-02 
1310	 1.96083041756174E-02 
1311	 1.12947078649038E-02 
1312	 1.35618536105702E-02 
1313	 2.41040343144893E-02 
1314	 2.46696513435951E-02 
1315	 2.76495749236977E-02 
1316	 3.05538273485386E-02 
1317	 2.16575232199246E-02 
1318	 0.018805260818876 
1319	 2.59395302974761E-02 
1320	 2.88805203739071E-02 
1321	 2.69376203540135E-02 
1322	 2.71269665281799E-02 
1323	 3.27609532371384E-02 
1324	 3.89718010653337E-02 
1325	 3.84058479609579E-02 
1326	 2.92721463097928E-02 
1327	 2.17224337630764E-02 
1328	 1.39826106998373E-02 
1329	 1.47630337014718E-02 
1330	 3.33889804969931E-02 
1331	 4.42047514585308E-02 
1332	 4.19793570791362E-02 
1333	 2.06070846858015E-02 
1334	 7.28663652242062E-03 
1335	 1.13834209633858E-02 
1336	 3.68541084038653E-02 
1337	 5.10347189140364E-02 
1338	 9.06879268436052E-02 
1339	 0.100691903991734 
1340	 7.48527628617672E-02 
1341	 8.72140201486957E-02 
1342	 0.132290103940114 
1343	 0.108676020555703 
1344	 2.28776976558513E-02 
1345	 2.23950872009332E-02 
1346	 3.84871164201107E-02 
1347	 3.55888870101036E-03 
1348	-2.29431759007603E-02 
1349	 0.14368389237013 
1350	 0.457823578620181 
1351	 0.573639544044246 
1352	 1.02773169547444 
1353	 1.52820883644485 
1354	 1.66195038812481 
1355	 1.00277960362531 
1356	 0.441923009821148 
1357	 0.234905880870292 
1358	-6.29213031233452E-02 
1359	-0.490163611818062 
1360	-0.55645724701371 
1361	 3.83113557183816E-03 
1362	 0.575320023070089 
1363	 0.862384514061143 
1364	 0.999883209522869 
1365	 1.38632455282253 
1366	 1.77913834083816 
1367	 1.25405231459969 
1368	 0.895656304129807 
1369	 1.28066340483365 
1370	 1.84064276221132 
1371	 4.30293403128727 
1372	 1.68498972794018 
1373	 0.770846709444549 
1374	 0.830625455629365 
1375	 0.102176039653226 
1376	 0.307279144527306 
1377	 13.3110592240795 
1378	-9.95978635123549 
1379	-4.42517601683742 
1380	-4.70130613434697 
1381	-98.1884266632686 
1382	 20.5592942621373 
1383	 11.0582362991346 
1384	 9.83024372282925 
1385	-26.001029998838 
1386	-38.9741461526996 
1387	 1.5199282550614 
1388	 0.994705540878583 
1389	-2.6010909862507 
1390	-3.77027206514702 
1391	 0.700498228043441 
1392	 2.7243934770376 
1393	 2.26015586806339 
1394	 2.2566425656925 
1395	 5.12870830554407 
1396	 5.68123890478908 
1397	 2.22838869137394 
1398	 5.4917299599045 
1399	 10.3511813697744 
1400	-7.93378290934097 
1401	-7.99894281424927 
1402	 4.66108716412698 
1403	 3.49337937559482 
1404	 3.04218284550677 
1405	 3.56868533342255 
1406	-90.636241043818 
1407	-13.7062050789808 
1408	-7.22284719463373 
1409	-8.74465829057542 
1410	 9.2538045092781 
1411	 19.3753953746165 
1412	-5.1026783201529 
1413	-6.88837324800099 
1414	 3.46818284798524 
1415	 7.55985817871044 
1416	 5.29394481451777 
1417	 4.90934524484549 
1418	-13.1872118340564 
1419	-5.19263104560847 
1420	-1.07860042750978 
1421	-0.534820245115994 
1422	-10.5029782295445 
1423	 9.9588268906133 
1424	 2.4487192050467 
1425	 1.76365567688889 
1426	 4.36634338700161 
1427	 3.23478170827788 
1428	 0.64805648015096 
1429	 0.482120322378743 
1430	 0.938262319933452 
1431	 1.18863307276304 
1432	 2.62419140951673 
1433	 2.78702997384618 
1434	 0.820414418219281 
1435	 0.634335321025478 
1436	 0.456312583191607 
1437	 0.139892941588585 
1438	-1.75174644428048E-02 
1439	 0.637430919786408 
1440	 1.16721355877488 
1441	 4.62259925788923 
1442	 3.19322572397177 
1443	 2.26809998758407 
1444	 1.7859192958164 
1445	 1.56013510210502 
1446	 1.92188963946881 
1447	 1.80569323044059 
1448	 2.33246878008244 
1449	 2.85680046448392 
1450	 1.48365893516087 
1451	 0.753884800659742 
1452	 0.519781202078657 
1453	 0.184730875177862 
1454	 0.102198730354354 
1455	 0.340327726449143 
1456	 0.431469107140869 
1457	 0.448429643454198 
1458	 0.374463969709643 
1459	 0.245476330222425 
1460	 0.307098347615644 
1461	 0.367203480629116 
1462	 0.339169836558612 
1463	 0.440418143504235 
1464	 0.467159371417388 
1465	 0.323283323841541 
1466	 0.278233703153123 
1467	 0.37092458566626 
1468	 0.318536602528231 
1469	 0.104006037250902 
1470	 9.86215894246995E-02 
1471	 0.208016333611123 
1472	 0.275870659467153 
1473	 0.522431480180945 
1474	 0.576852004027721 
1475	 0.425819957194848 
1476	 0.361204814693706 
1477	 0.273785667602162 
1478	 0.209733941931433 
1479	 0.133061671170205 
1480	 0.161216443021558 
1481	 0.265954143535804 
1482	 0.276461668199517 
1483	 0.270986905385349 
1484	 0.277048317666191 
1485	 0.28333869605804 
1486	 0.251785878316359 
1487	 0.213950593928111 
1488	 0.193510227141074 
1489	 0.15109203089086 
1490	 0.122115135359144 
1491	 0.134503231990134 
1492	 0.114999369575828 
1493	 6.25324381976698E-02 
1494	 4.13029320299621E-02 
1495	 1.72252692667558E-02 
1496	 1.86978077374757E-02 
1497	 0.060396752312658 
1498	 5.95674689307581E-02 
1499	 3.65681060698656E-02 
1500	 3.62822598645771E-02 
1501	 3.71663612787702E-02 
1502	 2.51984501778322E-02 
1503	 1.01487809894565E-02 
1504	 1.51907410520282E-02 
1505	 2.89848387239957E-02 
1506	 1.97847733326061E-02 
1507	 2.18901413171153E-02 
1508	 0.037479938081855 
1509	 3.75139130607993E-02 
1510	 0.027417408047525 
1511	 2.82740675316472E-02 
1512	 3.16840171033244E-02 
1513	 0.019815964235061 
1514	 1.65722396653688E-02 
1515	 2.33502885540144E-02 
1516	 1.94710987207479E-02 
1517	 2.32370632193828E-02 
1518	 2.91072969700983E-02 
1519	 2.27330696687428E-02 
1520	 2.40835785853815E-02 
1521	 2.09767099426718E-02 
1522	 1.15272116889877E-02 
1523	 1.56957895735087E-02 
1524	 1.59028181882214E-02 
1525	 1.24923417666806E-02 
1526	 1.48819106301812E-02 
1527	 1.34841412402363E-02 
1528	 1.06733121472595E-02 
1529	 1.12706141789789E-02 
1530	 1.00453840733114E-02 
1531	 4.70493076381959E-03 
1532	 4.28035158617672E-03 
1533	 6.90064223101383E-03 
1534	 1.10738404393988E-02 
1535	 1.61610952483176E-02 
1536	 0.014688428686931 
1537	 1.40518725817083E-02 
1538	 1.50406394956662E-02 
1539	 1.03472246652567E-02 
1540	 6.04894088066495E-03 
1541	 5.66428590768073E-03 
1542	 1.74522773915963E-03 
1543	-1.2429382192169E-03 
1544	 4.73920925261948E-03 
1545	 9.04029870503912E-03 
1546	 5.67123018040969E-03 
1547	 6.61395141284803E-03 
1548	 1.08884907765501E-02 
1549	 7.68218420059036E-03 
1550	 5.43925922178036E-03 
1551	 5.96343892622206E-03 
1552	 3.77278414121456E-03 
1553	 5.67776721184785E-03 
1554	 7.9299199814434E-03 
1555	 7.44995714700991E-03 
1556	 8.35319592792326E-03 
1557	 3.20985623619727E-03 
1558	-4.40417446091355E-03 
1559	-4.1129890857936E-03 
1560	-2.34613801393969E-03 
1561	-2.11120760270744E-03 
1562	 3.86602222432791E-04 
1563	 3.25223964812975E-03 
1564	 3.83518939862101E-03 
1565	 9.99917135469686E-04 
1566	 2.85822240276849E-03 
1567	 0.009509524034373 
1568	 4.94588052321226E-03 
1569	 3.2404082529214E-03 
1570	 8.66266115821499E-03 
1571	 3.82476282100834E-03 
1572	 3.34771071655095E-03 
1573	 6.86257435328832E-03 
1574	 8.82939008779993E-03 
1575	 1.30827938094837E-02 
1576	 0.013119475661265 
1577	 1.05197734726347E-02 
1578	 6.39155358038364E-03 
1579	 4.90074295275422E-03 
1580	 5.60800936595198E-03 
1581	 1.58681647261583E-03 
1582	 1.33201768335757E-03 
1583	 5.85444798046935E-03 
1584	 4.8794396585909E-03 
1585	 7.94471381920222E-03 
1586	 0.014714847431397 
1587	 1.25930608339244E-02 
1588	 1.24676203357165E-02 
1589	 1.69934053159958E-02 
1590	 1.65411181425404E-02 
1591	 1.67430322114556E-02 
1592	 1.87465797150835E-02 
1593	 1.56663606443775E-02 
1594	 1.08089840166699E-02 
1595	 7.11301555005627E-03 
1596	 3.65122228557985E-03 
1597	 2.23686794806166E-03 
1598	 5.21914405448221E-03 
1599	 9.42536973448406E-03 
1600	 1.15576077262618E-02 
1601	 1.00915908433913E-02 
1602	 4.88537358109095E-03 
1603	 7.70623921511531E-03 
1604	 1.13737224502936E-02 
1605	 7.00627976048977E-03 
1606	 1.12211371965539E-02 
1607	 1.29124194901264E-02 
1608	 2.69731356959255E-03 
1609	 1.11888973388941E-04 
1610	 2.56088544855618E-03 
1611	 1.28421881634445E-03 
1612	 1.75704286957499E-03 
1613	 5.90863965401224E-03 
1614	 5.12255846370844E-03 
1615	 3.53001960381155E-03 
1616	 8.77812806493837E-03 
1617	 9.94756815137031E-03 
1618	 9.91329021957495E-03 
1619	 0.015561521557227 
1620	 1.72626943089952E-02 
1621	 1.39318925977576E-02 
1622	 0.014370270303227 
1623	 1.26520776814245E-02 
1624	 8.90906624696205E-03 
1625	 1.31695684649906E-02 
1626	 1.56647953514067E-02 
1627	 1.18791424059138E-02 
1628	 7.36030658900285E-03 
1629	 4.68172380129715E-03 
1630	 6.96150975403987E-03 
1631	 1.10382964342104E-02 
1632	 1.41590773808901E-02 
1633	 1.32312580125317E-02 
1634	 1.00574362882136E-02 
1635	 8.52998549344207E-03 
1636	 5.25430607855636E-03 
1637	 9.29872567936116E-04 
1638	 1.89388364711588E-03 
1639	 6.94161355881836E-03 
1640	 5.20054553949364E-03 
1641	 4.61513547877024E-03 
1642	 1.11723285136133E-02 
1643	 1.37070718293212E-02 
1644	 1.55410719499214E-02 
1645	 0.021445292652969 
1646	 0.020725079789386 
1647	 1.36048883081951E-02 
1648	 1.33318923639107E-02 
1649	 1.51119304372467E-02 
1650	 1.44506209218837E-02 
1651	 1.58819320266609E-02 
1652	 1.50377810958881E-02 
1653	 6.65884500669081E-03 
1654	 4.71537169281692E-03 
1655	 1.18942302664842E-03 
1656	 7.32829245218194E-04 
1657	 8.56990429117089E-03 
1658	 8.37248481152752E-03 
1659	 3.03735058555282E-03 
1660	 5.87519265363481E-03 
1661	 1.13509563625112E-02 
1662	 1.29252957669055E-02 
1663	 1.79691679497546E-02 
1664	 1.66008763653617E-02 
1665	 6.90081111702283E-03 
1666	 5.37559727197622E-03 
1667	 7.35018319644298E-03 
1668	 5.55663623157627E-03 
1669	 3.80709521608515E-03 
1670	 5.01161652143068E-03 
1671	 4.8805116898362E-03 
1672	 8.58885731702701E-03 
1673	 0.012862055162757 
1674	 9.15060962050644E-03 
1675	 8.91620777097974E-03 
1676	 1.34874778022775E-02 
1677	 1.87504658738503E-02 
1678	 1.98840664614046E-02 
1679	 1.92887403342111E-02 
1680	 1.61769632479368E-02 
1681	 7.64617760598194E-03 
1682	 7.66585801052725E-03 
1683	 8.08347678002889E-03 
1684	 6.92482283977859E-03 
1685	 1.05866113071295E-02 
1686	 0.012005576901392 
1687	 1.23395115437952E-02 
1688	 1.29595657672072E-02 
1689	 1.71595557182121E-02 
1690	 0.017430348787246 
1691	 1.25733327547526E-02 
1692	 6.61192306862987E-03 
1693	 1.21411106593222E-03 
1694	 1.17922592531857E-02 
1695	 2.18054898719166E-02 
1696	 0.016529259387651 
1697	 1.26667901074814E-02 
1698	 8.08561963687858E-03 
1699	 8.44920012221096E-03 
1700	 2.25018474563682E-02 
1701	 2.54770328978616E-02 
1702	 1.19155940705429E-02 
1703	 9.51223243311665E-03 
1704	 0.017877194607149 
1705	 0.021961416536195 
1706	 2.71384853052853E-02 
1707	 2.20042446053842E-02 
1708	 9.48367177801988E-03 
1709	 1.51940754218912E-02 
1710	 2.29842716590093E-02 
1711	 2.09637829100307E-02 
1712	 1.58088338640974E-02 
1713	 1.51135747812733E-02 
1714	 1.36222805912253E-02 
1715	 1.39478168883371E-02 
1716	 1.68623696726021E-02 
1717	 1.31060313057656E-02 
1718	 9.20176995439051E-03 
1719	 1.09081728182783E-02 
1720	 1.10029881075001E-02 
1721	 7.85503170631732E-03 
1722	 8.84800414267005E-03 
1723	 1.28628690003447E-02 
1724	 3.61482771966331E-03 
1725	-1.25328651638251E-03 
1726	 6.38917806815865E-03 
1727	-3.25181194621082E-03 
1728	-5.03739884600005E-03 
1729	 1.22476742069465E-02 
1730	 0.013903876769427 
1731	 1.78956641426056E-02 
1732	 2.92441048486131E-02 
1733	 1.72278987097719E-02 
1734	 7.75664503400523E-03 
1735	 2.19041419784514E-02 
1736	 3.36391967945106E-02 
1737	 4.01662807736474E-02 
1738	 3.89522702697946E-02 
1739	 2.68977131760254E-02 
1740	 3.09979713546005E-02 
1741	 4.33563019237949E-02 
1742	 3.69413378238206E-02 
1743	 2.63960081418206E-02 
1744	 1.76572515567474E-02 
1745	-2.73030090634371E-03 
1746	 1.30424194139022E-02 
1747	 1.20631329181488E-02 
1748	-2.34563207094078E-02 
1749	-1.93809430053226E-02 
1750	 0.012796886685146 
1751	 2.00233029659253E-02 
1752	 4.04858753124361E-02 
1753	 4.76716195725632E-02 
1754	 1.64839457402741E-02 
1755	 1.60350412105784E-02 
1756	 4.45116087091032E-02 
1757	 3.86989503759858E-02 
1758	 0.057238317901036 
1759	 5.73039574542603E-02 
1760	 1.81372968808261E-02 
1761	 0.01071640742576 
1762	 1.37071085184214E-02 
1763	 1.62620314535317E-02 
1764	 4.35906826795008E-02 
1765	 6.43532835016499E-02 
1766	 7.70457649564901E-02 
1767	 8.16811169154846E-02 
1768	 6.52408641734016E-02 
1769	 4.90168146700851E-02 
1770	 3.07758112713747E-02 
1771	 6.13491928679503E-02 
1772	 0.105622085915252 
1773	 0.11384525706895 
1774	 0.128781650670033 
1775	 3.52110987063914E-02 
1776	 7.57633784191286E-03 
1777	 6.79197543823145E-03 
1778	-5.08373559163551E-05 
1779	 7.33222877812092E-02 
1780	 0.122831699711377 
1781	 0.163942407979367 
1782	 0.174127543481478 
1783	 9.94158279538394E-02 
1784	 7.85306414230036E-02 
1785	 6.36837139565837E-02 
1786	 9.49072474203446E-02 
1787	 0.257054240187263 
1788	 0.323781174827438 
1789	 0.380143827863878 
1790	 0.397612628377244 
1791	 0.24296580194181 
1792	 0.192295759211107 
1793	 0.219938407716219 
1794	 0.127848482778726 
1795	 0.148580663334306 
1796	 0.389563102286322 
1797	 0.885292665436233 
1798	 0.380993693569601 
1799	 0.28624964753774 
1800	 0.359294457986712 
1801	 0.355332546797802 
1802	 1.1567891744484 
1803	 1.34543798814228 
1804	 0.1527479634182 
1805	-6.14097573837531E-02 
1806	-0.433837878842824 
1807	-0.584150672753561 
1808	 1.91705155855742 
1809	-35.9171394790183 
1810	-0.463272887172601 
1811	-1.28134318192358 
1812	 0.491782275066729 
1813	 0.383543739809684 
1814	 0.498829798026978 
1815	 0.826144121495168 
1816	 1.41214847928096 
1817	 33.3278705467771 
1818	-1.91430294017128 
1819	 1.09422059477219 
1820	-11.9466444718747 
1821	 0.493728507606144 
1822	 0.593217394915952 
1823	 1.37778825158408 
1824	 2.11445318316227 
1825	-0.402139566814927 
1826	 0.113993582200944 
1827	-5.39148201399958 
1828	-9.84420826522312E-03 
1829	 2.33583236550303 
1830	 2.146036819981 
1831	 1.42695571558243 
1832	 1.68831009735606 
1833	 1.68395741792913 
1834	 1.48655889233136 
1835	 0.824741881148173 
1836	 0.502628094748276 
1837	-0.641623924360573 
1838	-1.65936792356111 
1839	-0.898963116386904 
1840	-0.857731603435634 
1841	-1.06052032315612 
1842	-0.476658725214715 
1843	-0.448359309743082 
1844	-1.02572980161837 
1845	-1.71538180299724 
1846	-1.5307100494517 
1847	-1.51728393889043 
1848	-1.19435969608139 
1849	-0.580820733618268 
1850	-0.675531975874678 
1851	-1.72185939938864 
1852	-6.88301738009623 
1853	 14.0418134523159 
1854	 4.54507355881492 
1855	 11.5804397657157 
1856	 10.4726339417893 
1857	 3.40214344570512 
1858	 1.61137725175028 
1859	-0.414832476099778 
1860	-1.37135651335378 
1861	 6.26393089808661 
1862	 1.81126351653013 
1863	 0.442323567731555 
1864	 0.148143848407996 
1865	 0.125675859762621 
1866	 0.639136369060624 
1867	 0.617313792551467 
1868	 0.329822176808643 
1869	 0.415637576822904 
1870	 0.71619133704429 
1871	 1.81393999338527 
1872	 5.82799685233706 
1873	-3.78430991288718 
1874	-0.9697576604035 
1875	 0.710123701474358 
1876	 1.15015655046619 
1877	 1.7935880762564 
1878	 1.72103271231549 
1879	 0.906032472959357 
1880	 1.04309819187645 
1881	 2.40829416578007 
1882	-12.3985477523336 
1883	-1.39228175801419 
1884	-0.71912633341094 
1885	-0.303123484248053 
1886	 0.209532221170299 
1887	-4.55627859507177E-02 
1888	 5.39484309517192E-02 
1889	 3.7118649058895 
1890	-2.98044299935263 
1891	-3.23742649489383 
1892	 20.2229882132531 
1893	-0.519075490362615 
1894	-0.489594233817137 
1895	 0.606876663730434 
1896	 0.79632864123679 
1897	 2.02068438365273 
1898	-3.87915395989329 
1899	-1.10181902163903 
1900	-0.479627630438968 
1901	 0.294733884867358 
1902	 0.302315524489336 
1903	-3.20982610650564E-02 
1904	-6.79713719511602E-02 
1905	 0.229161660687539 
1906	-0.556526463645131 
1907	 3.22340949441786 
1908	 1.05953495905739 
1909	 1.15264166927516 
1910	 0.234077763605966 
1911	-0.188193149434007 
1912	 3.87649342052597 
1913	 2.3250474998792 
1914	-1.06299638299125 
1915	-0.679442572025689 
1916	 0.379095542539051 
1917	-0.316995347617091 
1918	-1.81358967950079 
1919	-0.568315720094045 
1920	-1.81027807186735 
1921	-4.10021253290247 
1922	-2.09176560457846 
1923	-1.76618014164129 
1924	-2.14344380526194 
1925	-3.03186071770891 
1926	-3.41193016683607 
1927	-6.71885573606373 
1928	-4496.69594955783 
1929	-8.12631339584446 
1930	-5.13956330991782 
1931	 6.577625809915 
1932	 2.41469542930801 
1933	 1.84012064674418 
1934	 1.84771916986979 
1935	 2.81858528559097 
1936	 2.68243310266012 
1937	 2.80504933890861 
1938	 4.75987216510189 
1939	 55.7583170893076 
1940	-2.45772419771611 
1941	-0.756765416780719 
1942	-0.50065603076359 
1943	-0.425328397038653 
1944	-0.209090846193982 
1945	-0.425975275133003 
1946	-0.655304073212421 
1947	-0.283275256915135 
1948	-0.423697563975167 
1949	-0.623118498361207 
1950	-0.584719564396574 
1951	 2.99907315633012 
1952	 0.824970946439474 
1953	 0.551586143207911 
1954	 0.361122483017078 
1955	 1.07150935186208 
1956	-10.4174566128447 
1957	-1.58727275459456 
1958	-0.472454733424331 
1959	 2.77221001802233E-03 
1960	-0.150426843041761 
1961	-1.22445190049366 
1962	-1.23173337886872 
1963	-2.41594144505426 
1964	-1.48772374436354 
1965	-0.551128236940649 
1966	-0.378332540817063 
1967	-0.241690173644577 
1968	-0.320959901901526 
1969	-0.350675872673104 
1970	-0.292596153846385 
1971	-0.111884509760656 
1972	 5.04183243774715E-02 
1973	 0.19835429441417 
1974	 0.338621680832312 
1975	 0.282119449821098 
1976	-7.78934010084046E-02 
1977	-0.258131958880354 
1978	-0.272505513264781 
1979	-0.307461747358224 
1980	-0.311740789356469 
1981	-0.208310988701406 
1982	-0.136042838102366 
1983	-0.256346755522143 
1984	-0.193963970903909 
1985	-7.51438255211656E-02 
1986	 1.16283452738599E-02 
1987	 9.00890568932908E-02 
1988	 4.72133551442116E-02 
1989	 9.92586712317192E-02 
1990	 0.117407209906214 
1991	 9.53673469584631E-02 
1992	 0.22476345785449 
1993	 0.113317969022153 
1994	 4.26478806186194E-02 
1995	-0.102773940762551 
1996	-0.102243377481518 
1997	-0.294303020807454 
1998	-0.292628856575494 
1999	-0.33259578587419 
2000	-0.27037836705804 
2001	-0.021425417281836 
2002	 4.11411604260976E-02 
2003	 0.127091241404111 
2004	 4.42035625878733E-02 
2005	-0.256598981360902 
2006	-0.256997762224816 
2007	-0.11059976094171 
2008	-7.66694755108644E-02 
2009	-8.63326685682553E-02 
2010	-7.79449017855792E-02 
2011	-9.38841536569345E-02 
2012	-0.287556404242118 
2013	-0.40276164569351 
2014	-0.330746401621401 
2015	-0.464686332319779 
2016	-0.54757649136236 
2017	-0.449173775768068 
2018	-0.407122717123958 
2019	-0.238073787284989 
2020	-0.130775786788223 
2021	-0.154529143654394 
2022	-0.207689089569098 
2023	-0.244868506324667 
2024	-0.205593708069857 
2025	-0.131456349088206 
2026	-9.20385676555322E-02 
2027	-1.26595012239097E-02 
2028	 3.84695308534183E-02 
2029	 6.57740121826658E-02 
2030	 8.54971570372526E-02 
2031	 0.111830291679616 
2032	 0.170812894739124 
2033	 0.152909845498322 
2034	 8.08924104789833E-02 
2035	 6.07516372623438E-02 
2036	 4.56790493297402E-02 
2037	 5.15322494805016E-02 
2038	 7.66890460004537E-02 
2039	 4.35162076965238E-02 
2040	-5.50618057068264E-02 
2041	-7.71908512120748E-02 
2042	-0.101529794125044 
2043	-0.112823421370786 
2044	-7.41941202882635E-02 
2045	-4.81799252575189E-02 
2046	-7.75431480872271E-02 
2047	-6.93086747192187E-02 
2048	-6.40178499716648E-02 
2049	-0.069686716098872 
2050	-3.40940042070701E-02 
2051	-3.53244060616702E-02 
2052	-3.74512382187915E-02 
2053	 5.09024838608944E-03 
2054	-9.61865151199895E-04 
2055	 2.64164694824162E-02 
2056	 2.64872274782099E-02 
2057	-1.59350694749607E-02 
2058	-2.09133706497278E-02 
2059	 5.825584256142E-04 
2060	-1.93709181291032E-02 
2061	-8.21056523618225E-02 
2062	-0.015983124026407 
2063	 1.42660867906764E-02 
2064	-2.93717553646925E-02 
2065	 2.78877192164051E-02 
2066	-1.01983357756071E-02 
2067	-8.05530550739708E-02 
2068	-0.064352483652428 
2069	-9.24699229654953E-02 
2070	-0.070540683938863 
2071	-6.15047528535131E-02 
2072	-5.48138584148641E-02 
2073	-3.10149105176105E-02 
2074	 2.07141347958936E-02 
2075	 7.38758981319855E-03 
2076	-3.37473123133999E-02 
2077	-6.33359158358733E-02 
2078	-0.131306951693398 
2079	-0.147951251096053 
2080	-0.137848445812805 
2081	-0.116952514811105 
2082	-6.10912901732743E-02 
2083	-5.25281142412925E-02 
2084	-0.065387009804282 
2085	-1.78117428846531E-02 
2086	 3.89863235059991E-03 
2087	 1.82116050086599E-02 
2088	 2.79307745970264E-02 
2089	-1.34488195245833E-03 
2090	 1.3225003962554E-03 
2091	-5.91168570495194E-03 
2092	-1.69964594704684E-02 
2093	-2.65698118005727E-03 
2094	 2.01588408023235E-03 
2095	-1.87101721851058E-02 
2096	-3.70458733662194E-02 
2097	-0.056235289845106 
2098	-5.45062280089798E-02 
2099	-4.86771989036819E-02 
2100	-5.25082872683059E-02 
2101	-3.05170180221842E-02 
2102	-2.51524058287925E-03 
2103	-2.58075740754951E-02 
2104	-5.53597984415648E-02 
2105	-7.88654590669829E-02 
2106	-9.97146516235255E-02 
2107	-0.107327262040628 
2108	-0.095128585835611 
2109	-4.93327601138213E-02 
2110	-2.19105556907031E-02 
2111	-1.99460198676608E-03 
2112	 1.25217162736546E-02 
2113	 1.51999094548491E-02 
2114	-2.97700388967887E-03 
2115	-1.25313803092705E-02 
2116	-3.18060821750139E-02 
2117	-4.23038598832009E-02 
2118	-6.60282125629868E-02 
2119	-5.74846441658669E-02 
2120	-2.44820596520052E-02 
2121	 9.76445762513067E-03 
2122	 4.47886274308684E-02 
2123	 6.29929032028344E-02 
2124	 4.46451546564407E-02 
2125	 0.037027925756238 
2126	 4.31481377451852E-02 
2127	 4.60856863425521E-02 
2128	 4.71422493113172E-02 
2129	 4.96252822409459E-02 
2130	 6.48519553402735E-02 
2131	 5.60185298982577E-02 
2132	 2.29124074330528E-02 
2133	 6.91322245716556E-03 
2134	-3.34007134345433E-03 
2135	-0.01754197905073 
2136	-2.48166265005471E-02 
2137	-8.56751236480417E-03 
2138	-1.90566015469717E-02 
2139	-5.87882971726055E-02 
2140	-7.67523046967806E-02 
2141	-0.102774027134457 
2142	-0.107523579682519 
2143	-9.36863365979759E-02 
2144	-6.82270613297112E-02 
2145	-3.71423175517157E-02 
2146	-6.86044132136961E-03 
2147	-1.46150363248981E-02 
2148	-5.21987326553292E-03 
2149	 1.07554483352212E-02 
2150	 1.76487159144678E-02 
2151	 1.48023709487894E-02 
2152	-1.89496976178407E-05 
2153	-3.22026942648413E-02 
2154	-5.12844509870189E-02 
2155	-1.30228494261313E-02 
2156	 7.1456604128927E-03 
2157	-1.14178949057744E-02 
2158	-0.063722919902669 
2159	-8.82028461598021E-02 
2160	-0.157760606410865 
2161	-0.152937355279507 
2162	-7.80092843671813E-02 
2163	-4.35737699915287E-02 
2164	 2.29324316417425E-02 
2165	 4.33691535734997E-02 
2166	 2.53114963636945E-02 
2167	 1.82975585166899E-02 
2168	-2.82428304664213E-02 
2169	-3.99831456640691E-02 
2170	-1.54465929024323E-02 
2171	-2.23720044650078E-02 
2172	-6.62064430220841E-02 
2173	-7.62655252072358E-02 
2174	-7.28666702072486E-02 
2175	-6.86624947573146E-02 
2176	 2.47884212212067E-02 
2177	 0.114878383816592 
2178	 0.113677383896999 
2179	 0.084421146174557 
2180	 2.25195948897137E-02 
2181	-5.69748876388375E-02 
2182	-0.106380807660195 
2183	-0.135569202184988 
2184	-0.159632698838618 
2185	-0.145788009422667 
2186	-0.135180823043035 
2187	-0.116334118125246 
2188	-0.100054031637976 
2189	-7.09899792585289E-02 
2190	-0.058173598660731 
2191	-5.12336669525482E-02 
2192	-4.61287725094589E-02 
2193	-0.039977752924297 
2194	-4.85929419560713E-02 
2195	-9.38920505701141E-02 
2196	-9.99943093962581E-02 
2197	-9.60929326741081E-02 
2198	-8.29073262658326E-02 
2199	-3.39627749588424E-02 
2200	 2.45895087264006E-02 
2201	 2.75281920688469E-03 
2202	 1.98602859924043E-02 
2203	-6.59347838523825E-03 
2204	-0.102311929850869 
2205	-0.122318567700835 
2206	-0.126435700211296 
2207	-0.154947461720516 
2208	-0.108014114771136 
2209	-2.27657096878617E-02 
2210	-2.21845222180001E-02 
2211	-3.26471642215182E-02 
2212	-3.70775465289018E-02 
2213	-7.67245951511971E-02 
2214	-0.123859225387387 
2215	-0.152212831340991 
2216	-0.126150778248287 
2217	-0.106115867676941 
2218	-7.58177775454267E-02 
2219	-0.065672276760677 
2220	-5.02135996819715E-02 
2221	-4.19790661429866E-02 
2222	-0.062425032651838 
2223	-5.55962074307985E-02 
2224	-3.11838570106364E-02 
2225	 8.90165129173993E-03 
2226	 9.87457792625258E-02 
2227	 0.123749876788637 
2228	 0.127631891363436 
2229	 0.127764655101871 
2230	 6.64682611479263E-02 
2231	 2.91459196181047E-02 
2232	 2.60689788312302E-02 
2233	 3.1728751986917E-03 
2234	-4.23484083162808E-02 
2235	-0.101719183723009 
2236	-0.133934751292263 
2237	-0.142902570639009 
2238	-0.133575523750964 
2239	-0.104266902986082 
2240	-7.90784490985509E-02 
2241	-9.09390754831363E-02 
2242	-8.69171658165516E-02 
2243	-4.00259810088383E-02 
2244	-1.37053569599986E-02 
2245	 1.24727147430222E-02 
2246	-0.02996532043168 
2247	-7.82336005791199E-02 
2248	-6.94426506136056E-02 
2249	-0.124171883031439 
2250	-0.114746817419452 
2251	-3.99897937851032E-02 
2252	-8.10296178310499E-04 
2253	 0.103397602591991 
2254	 5.01913979866054E-02 
2255	-6.19630150061928E-02 
2256	-0.198045797376879 
2257	-0.366734226767797 
2258	-0.339054925994048 
2259	-0.325384679074836 
2260	-0.282200875268946 
2261	-9.25148263869362E-02 
2262	-9.39348750247638E-02 
2263	-0.235315661169784 
2264	-0.224244249691052 
2265	-0.219071739882155 
2266	-0.260505404735323 
2267	-0.245186285509316 
2268	-0.242328076950094 
2269	-0.296296974102105 
2270	-0.356075274935593 
2271	-0.397865526468282 
2272	-0.397153714000834 
2273	-0.501141734005969 
2274	-0.459567458075003 
2275	-0.244055593686734 
2276	-0.161338950868464 
2277	-3.10270966162869E-02 
2278	-7.72941559196886E-03 
2279	-0.156191964321128 
2280	-0.150041044410455 
2281	-9.98683973879876E-02 
2282	-6.15936183012408E-02 
2283	-4.31597418100871E-02 
2284	-0.126101023212618 
2285	-0.227127748484092 
2286	-0.313716229820111 
2287	-0.292903854452434 
2288	-8.95494542947999E-02 
2289	 1.05729610741758E-02 
2290	-6.24289132739834E-02 
2291	-8.91397618662139E-02 
2292	-0.195532616079848 
2293	-0.457380720049156 
2294	-0.542704345652063 
2295	-0.682631296763859 
2296	-0.756936527479112 
2297	-0.593699623083531 
2298	-0.439085047846154 
2299	-0.529282073449545 
2300	-0.446085545656397 
2301	-0.314403402882726 
2302	-0.466435101181948 
2303	-0.377309299890157 
2304	-0.344648800936538 
2305	-0.51042800117104 
2306	-0.44513235838922 
2307	-0.308265173786823 
2308	-0.283860615509497 
2309	-0.216404592623551 
2310	 0.113084524110407 
2311	 0.164879457177315 
2312	 0.037837218252187 
2313	 0.123427873044918 
2314	-1.33472520055988E-02 
2315	-0.204827811991163 
2316	-0.208101800115787 
2317	-0.355055762014201 
2318	-0.567401633916044 
2319	-0.716946122865188 
2320	-0.658785706196114 
2321	-0.563597392805099 
2322	-0.665833992382515 
2323	-0.787429286907827 
2324	-0.730666840907681 
2325	-0.579905126990262 
2326	-0.396480598830178 
2327	-0.276274039093428 
2328	-0.224457075592621 
2329	-0.256800036375968 
2330	-0.453994577690393 
2331	-0.465412292759101 
2332	-0.479799147301898 
2333	-0.4268258749567 
2334	-0.257649367610364 
2335	-0.302803169836755 
2336	-0.257089515055366 
2337	-4.02512793716127E-02 
2338	 0.164552767206857 
2339	 0.899875684400964 
2340	 4.61015672865543 
2341	 1.05969023810736 
2342	-1.16116232062314 
2343	-0.716454088417425 
2344	-0.682838771207599 
2345	-0.835303466022239 
2346	-0.716932932848865 
2347	-0.960824938015176 
2348	-1.99009150317263 
2349	-2.14198379829219 
2350	-2.30395605219908 
2351	-3.36519996504454 
2352	-4.25618060503888 
2353	-12.581766968016 
2354	 16.5690182637035 
2355	 20.9328391081449 
2356	-9.51261946358188 
2357	-2.48529972326021 
2358	-1.53141035005386 
2359	-1.443367059278 
2360	-1.25761696663977 
2361	-2.27822040605296 
2362	-3.42488840118652 
2363	-2.23151230273422 
2364	-1.79494560790787 
2365	-1.08689791271869 
2366	-0.823797550766954 
2367	-0.623285341053778 
2368	-5.73363701695452E-02 
2369	 0.260560067929299 
2370	-6.09222821637745E-02 
2371	-0.617167922493406 
2372	-0.934497282207792 
2373	-1.35782412795266 
2374	-2.40981047189679 
2375	 2.30544962945927 
2376	 1.2840098996761 
2377	 0.764374761945501 
2378	 0.984575670847584 
2379	 1.38084606034207 
2380	 0.411145952314439 
2381	-0.570617720730136 
2382	-0.253816248787053 
2383	-6.04698590692255 
2384	 8.46645682489785E-02 
2385	-0.175512386492369 
2386	-0.4259475724664 
2387	-0.648891417071463 
2388	-1.32244134622199 
2389	-2.14530341363684 
2390	-2.58518165312088 
2391	-4.89852479234579 
2392	 4.68769468614242 
2393	 5.23766920119078 
2394	 9.52413867889763 
2395	 3.88337746196663 
2396	 5.38081554647913 
2397	 32.1474519343632 
2398	 58.8119192912606 
2399	 140.36996359131 
2400	 2.50577010032828 
2401	 0.916952436091805 
2402	 0.373935092056876 
2403	 1.05556469595885 
2404	 11.3477286814603 
2405	-11.1904864289126 
2406	 2.30108748114694 
2407	 0.39560071701077 
2408	 0.320848347383853 
2409	 0.384596802405502 
2410	 0.472013108813484 
2411	 1.12190369904927 
2412	 1.85368350910271 
2413	 3.12160024144098 
2414	 12.2277571201182 
2415	 5.2681347280843 
2416	 2.36197380014707 
2417	 2.06203359633063 
2418	 1.19969423643177 
2419	 0.501936838390263 
2420	 0.1669029040558 
2421	-0.552695310320939 
2422	-0.165354069243392 
2423	 1.12971629397864 
2424	 2.06702949541071 
2425	 26.5686529908764 
2426	 30.6044205427653 
2427	-8.50566647711436 
2428	-25.553863313938 
2429	 2.83208887535004 
2430	 1.55698799385116 
2431	 0.836184308837934 
2432	 0.49236962211696 
2433	 1.63153330787469 
2434	-9.83252386667747 
2435	-2.62398319221886 
2436	-1.8823581404955 
2437	-2.16531850020695 
2438	-14.9752245559839 
2439	-5.87830017262947 
2440	-4.73765787428664 
2441	-4.97538226423854 
2442	-3.72115103647457 
2443	 48.5234776233535 
2444	 5.49386983411474 
2445	 3.02606316229473 
2446	 1.78006080602174 
2447	 2.01320315183307 
2448	 1.99190081519901 
2449	 24.4733087855589 
2450	-10.7042601144444 
2451	 2.77054209825637 
2452	 9.60065713835457 
2453	 2.22338949672654 
2454	 1.52616312517561 
2455	 1.3015592305413 
2456	 1.43114814491852 
2457	-2.72424678356416 
2458	-0.59346279033024 
2459	-1.31661912776581 
2460	-1.79388153418318 
2461	-4.78594144188217 
2462	-17.9314772304319 
2463	-11.4537027878714 
2464	-9.44996289806301 
2465	-3.12522870244013 
2466	-2.0348964832998 
2467	-4.67118165028841 
2468	 2.7335675108964 
2469	 0.68912002944678 
2470	 0.575361723489794 
2471	 0.48245577025598 
2472	 0.922202072853632 
2473	 0.939739978830015 
2474	 1.07904066845175 
2475	 1.13101061054633 
2476	 1.11760731397187 
2477	 1.2891407238591 
2478	 1.97725305360677 
2479	 32.380756959014 
2480	-1.12333891080927 
2481	-0.458328517025883 
2482	-1.35519925125806 
2483	-2.44091082530271 
2484	-1.13764343440264 
2485	-0.791791142078556 
2486	 3.52889755219808 
2487	-0.142571514549706 
2488	-0.730348690944206 
2489	-1.25921476309597 
2490	 3.50596930956893 
2491	 0.432627714494379 
2492	-0.218475725128422 
2493	-0.452312803253366 
2494	-0.444316436401428 
2495	-0.457162377945281 
2496	-0.586174290956706 
2497	-1.17873367457387 
2498	-3.20969961288329 
2499	 4.79780134582953 
2500	 3.64237575326108 
