Wavelength	rt0802far00006.asd
350	 1.56056460915486E-02 
351	 1.65221529427182E-02 
352	 1.63168901645343E-02 
353	 1.51361444760861E-02 
354	 1.44219529487243E-02 
355	 1.75303429575082E-02 
356	 1.82676808188902E-02 
357	 1.74281260649071E-02 
358	 1.74670764534094E-02 
359	 1.71999888407646E-02 
360	 1.76318471267568E-02 
361	 1.80621387369277E-02 
362	 1.70146140498936E-02 
363	 1.81865833483455E-02 
364	 1.82925715873559E-02 
365	 1.70398521041126E-02 
366	 2.00217115446482E-02 
367	 1.99177409605942E-02 
368	 1.88435972834399E-02 
369	 1.97616886717979E-02 
370	 1.90412601480426E-02 
371	 1.90542480692574E-02 
372	 1.95192435434199E-02 
373	 1.88752365308579E-02 
374	 1.93135240693595E-02 
375	 2.06145887726734E-02 
376	 0.021736008306741 
377	 2.09842933136823E-02 
378	 2.09774789094446E-02 
379	 2.10767552242118E-02 
380	 2.05569279442103E-02 
381	 2.10006161979321E-02 
382	 2.17616890185854E-02 
383	 2.24927091832516E-02 
384	 2.28998784638888E-02 
385	 2.20506559944481E-02 
386	 2.17318971862826E-02 
387	 2.23705411854874E-02 
388	 2.26428531202048E-02 
389	 2.38619875941975E-02 
390	 2.41482345371826E-02 
391	 2.27089869577653E-02 
392	 2.26754563650986E-02 
393	 2.30924166001526E-02 
394	 2.38083713570052E-02 
395	 2.48768530197591E-02 
396	 2.63090925907088E-02 
397	 2.61214897118046E-02 
398	 2.50574715795752E-02 
399	 2.60132381812719E-02 
400	 2.62033388249985E-02 
401	 0.025752028215247 
402	 2.54543736763133E-02 
403	 2.66114252168634E-02 
404	 2.75157131152036E-02 
405	 2.76342335011449E-02 
406	 2.71767510281552E-02 
407	 2.77237827318608E-02 
408	 2.78794162943312E-02 
409	 2.75295983669336E-02 
410	 2.79421983179541E-02 
411	 2.83348727576107E-02 
412	 2.85285477321461E-02 
413	 2.86211759646537E-02 
414	 2.91471485235385E-02 
415	 2.92412579167819E-02 
416	 2.93869316923965E-02 
417	 3.02837897400394E-02 
418	 3.03614544521758E-02 
419	 2.99587196575103E-02 
420	 2.99149285575329E-02 
421	 3.13463404099098E-02 
422	 3.15461416421503E-02 
423	 3.13242074720491E-02 
424	 3.17021744979483E-02 
425	 3.21086029938581E-02 
426	 3.22328091175472E-02 
427	 3.26693167088461E-02 
428	 3.40544645971971E-02 
429	 3.39472423756456E-02 
430	 0.033702296162689 
431	 3.41164914782451E-02 
432	 3.48706061589272E-02 
433	 3.55935045952947E-02 
434	 3.59299527750484E-02 
435	 3.58316171217689E-02 
436	 3.59826229265543E-02 
437	 3.64086697811473E-02 
438	 3.68920893565702E-02 
439	 3.71339182003199E-02 
440	 3.74938877997734E-02 
441	 3.79771714490061E-02 
442	 3.84458767343454E-02 
443	 3.86024582626148E-02 
444	 3.91479079088078E-02 
445	 0.03974709217486 
446	 4.00022610729607E-02 
447	 4.04732348806764E-02 
448	 4.08438290538892E-02 
449	 4.11797227176071E-02 
450	 4.17679126072336E-02 
451	 0.041783681667335 
452	 4.17942297384224E-02 
453	 4.22017808621831E-02 
454	 4.26922537391144E-02 
455	 4.27568557673179E-02 
456	 4.28564459958635E-02 
457	 4.35304987307599E-02 
458	 4.35676502308512E-02 
459	 4.38056965845026E-02 
460	 4.43020619933893E-02 
461	 4.42633678197767E-02 
462	 4.42938396002959E-02 
463	 4.45945139250291E-02 
464	 4.51213640175419E-02 
465	 4.54201884177065E-02 
466	 0.045556845098827 
467	 4.55807491101285E-02 
468	 4.55920316327354E-02 
469	 4.59717694998359E-02 
470	 4.62254762018454E-02 
471	 4.63089616788424E-02 
472	 4.68854536575886E-02 
473	 4.71718633524293E-02 
474	 4.74213202173855E-02 
475	 4.79176100260172E-02 
476	 4.80311126001262E-02 
477	 4.80925316992252E-02 
478	 4.83152719895818E-02 
479	 4.87731829229094E-02 
480	 4.90212385370781E-02 
481	 4.94092516856235E-02 
482	 4.99280451941358E-02 
483	 4.95340404310399E-02 
484	 4.99009423573427E-02 
485	 5.07665566769397E-02 
486	 5.12762014395676E-02 
487	 5.17962635963276E-02 
488	 0.052138124189478 
489	 5.23978359164939E-02 
490	 5.29434004491781E-02 
491	 5.35746904275596E-02 
492	 5.40923355961904E-02 
493	 5.44314383486329E-02 
494	 5.48470425317561E-02 
495	 5.57304037077131E-02 
496	 5.65632410915557E-02 
497	 5.65641521745717E-02 
498	 0.057076861452029 
499	 5.77267524403179E-02 
500	 5.81827106522806E-02 
501	 5.84569735621908E-02 
502	 5.90103967904396E-02 
503	 5.97387819449727E-02 
504	 6.04098303618539E-02 
505	 0.061060919201358 
506	 6.17188003584233E-02 
507	 6.23105412437909E-02 
508	 0.062738665204284 
509	 6.38410826736067E-02 
510	 6.47136333869719E-02 
511	 6.49089497581434E-02 
512	 6.56405765658216E-02 
513	 6.67529603171191E-02 
514	 0.067700079329252 
515	 6.79729180518683E-02 
516	 6.90210682469109E-02 
517	 6.98363635927357E-02 
518	 7.01676388245651E-02 
519	 7.09523453066592E-02 
520	 7.20948674748072E-02 
521	 7.29916407447782E-02 
522	 7.33009449197682E-02 
523	 7.38791302101736E-02 
524	 7.52120755505642E-02 
525	 7.65524791787436E-02 
526	 7.65175220025353E-02 
527	 7.71604908843604E-02 
528	 7.81152782790126E-02 
529	 7.89397484194562E-02 
530	 7.98026303842937E-02 
531	 8.04556291639706E-02 
532	 0.081248825381221 
533	 0.082494093773351 
534	 8.28943963804444E-02 
535	 8.32370849464705E-02 
536	 8.40074487478582E-02 
537	 0.085179798830711 
538	 8.60269175699665E-02 
539	 8.66257785892004E-02 
540	 8.73300797164406E-02 
541	 8.87448036162991E-02 
542	 8.94053361717566E-02 
543	 8.95605627114904E-02 
544	 9.04600642170002E-02 
545	 0.091545733681953 
546	 9.22948240415332E-02 
547	 9.27198505746737E-02 
548	 0.09387456061922 
549	 9.48339629702482E-02 
550	 9.53727727295096E-02 
551	 9.56560632555118E-02 
552	 9.64829609577017E-02 
553	 9.74899920145992E-02 
554	 0.09842494491016 
555	 9.92420931225183E-02 
556	 9.99448776648569E-02 
557	 0.100507700642457 
558	 0.100962884486215 
559	 0.101546388407005 
560	 0.102104547855376 
561	 0.102705255493106 
562	 0.103505709671211 
563	 0.104083890835655 
564	 0.104197714761045 
565	 0.10408136668038 
566	 0.104874668678841 
567	 0.105468739481898 
568	 0.105804155495503 
569	 0.106148850286006 
570	 0.106238335770585 
571	 0.106530663504555 
572	 0.106899739088308 
573	 0.106578178527465 
574	 0.106587275704419 
575	 0.106969330031755 
576	 0.107461621530072 
577	 0.107709159842364 
578	 0.107344593439539 
579	 0.106914574997299 
580	 0.10731409167175 
581	 0.106873829839936 
582	 0.106142162596229 
583	 0.105635604616661 
584	 0.105349209879114 
585	 0.104616856639121 
586	 0.103688458356763 
587	 0.103075328659318 
588	 0.102390786007881 
589	 0.101773985729618 
590	 0.101208491328375 
591	 0.100430189578876 
592	 0.100149688919204 
593	 9.93753609653046E-02 
594	 9.75614863530458E-02 
595	 9.64366836737372E-02 
596	 9.53882580291373E-02 
597	 9.41690141439562E-02 
598	 9.28064347191012E-02 
599	 9.18627388317722E-02 
600	 9.09793431043738E-02 
601	 8.99802125633887E-02 
602	 8.91402798816841E-02 
603	 8.87260339720702E-02 
604	 8.83796768314954E-02 
605	 8.77762607634117E-02 
606	 8.79251262724694E-02 
607	 8.79810661278652E-02 
608	 8.77032570617292E-02 
609	 0.087565383523196 
610	 8.76483479969587E-02 
611	 8.74709870451413E-02 
612	 8.69096867449132E-02 
613	 8.73034221484123E-02 
614	 8.74415358646435E-02 
615	 8.71508208027835E-02 
616	 8.69032208295723E-02 
617	 8.72121390529124E-02 
618	 8.71948560459377E-02 
619	 8.65873585362451E-02 
620	 8.63443116481003E-02 
621	 8.62556556056973E-02 
622	 0.086348733880459 
623	 8.65255589794432E-02 
624	 8.58786421075152E-02 
625	 8.53613147340855E-02 
626	 8.52633108201871E-02 
627	 8.51559595653077E-02 
628	 8.50906401544848E-02 
629	 8.48490282555328E-02 
630	 0.084454114110684 
631	 8.46977807867707E-02 
632	 8.47017725391599E-02 
633	 8.44908415605511E-02 
634	 8.44454308394108E-02 
635	 8.40349560397876E-02 
636	 0.083858755472415 
637	 8.40003625685481E-02 
638	 8.36661027680099E-02 
639	 8.36613481082396E-02 
640	 8.35058408884682E-02 
641	 8.26970347310309E-02 
642	 8.21375446892468E-02 
643	 8.17615945278957E-02 
644	 8.14375882281519E-02 
645	 8.09896335036744E-02 
646	 0.08039405420849 
647	 8.00687678478487E-02 
648	 0.080066767131159 
649	 7.92933506040419E-02 
650	 7.93766864077139E-02 
651	 7.94616454889308E-02 
652	 7.81944534519047E-02 
653	 0.077473431992588 
654	 7.68295540428675E-02 
655	 7.58502411064824E-02 
656	 7.45677329767947E-02 
657	 0.07412347141776 
658	 7.40282479753535E-02 
659	 7.36324699070857E-02 
660	 7.27177333456434E-02 
661	 7.20985247854419E-02 
662	 0.071656965527713 
663	 7.08309134089952E-02 
664	 7.07899580175095E-02 
665	 0.070675215185342 
666	 7.01190076686105E-02 
667	 7.00852459435258E-02 
668	 7.01773636472152E-02 
669	 6.97782226222812E-02 
670	 0.068626260324022 
671	 6.85563837412581E-02 
672	 6.88731887345249E-02 
673	 6.91031924476669E-02 
674	 6.91320963763644E-02 
675	 6.94753948636076E-02 
676	 6.92258368183565E-02 
677	 6.82174135543977E-02 
678	 6.89146991919701E-02 
679	 6.89624570493673E-02 
680	 6.84257200500525E-02 
681	 6.83981407844564E-02 
682	 6.87052539877735E-02 
683	 6.94103626465567E-02 
684	 7.01234748293549E-02 
685	 6.98445367885919E-02 
686	 6.94276216089858E-02 
687	 6.92857412290553E-02 
688	 6.95425496010749E-02 
689	 7.00213455363394E-02 
690	 0.069948322591307 
691	 6.95450885862279E-02 
692	 6.95538372432428E-02 
693	 6.85421653362032E-02 
694	 6.77679227856189E-02 
695	 6.78096788041292E-02 
696	 6.76177131663449E-02 
697	 6.67611515860546E-02 
698	 6.52750740237512E-02 
699	 6.37139910631677E-02 
700	 6.33053088003139E-02 
701	 0.062846825588907 
702	 6.19301549209535E-02 
703	 6.08560621125858E-02 
704	 5.93833386530314E-02 
705	 5.81436870809651E-02 
706	 5.74280692340647E-02 
707	 5.64248250448345E-02 
708	 5.46831271298012E-02 
709	 5.29396004371904E-02 
710	 5.19942798379233E-02 
711	 5.01480730329125E-02 
712	 4.80188704443446E-02 
713	 4.61025216435891E-02 
714	 4.45812184073094E-02 
715	 4.24094280693408E-02 
716	 3.95118065424589E-02 
717	 3.66615704764883E-02 
718	 3.41698412348591E-02 
719	 3.26052500548529E-02 
720	 3.17022493107411E-02 
721	 3.07327647828641E-02 
722	 3.00696031619493E-02 
723	 2.80781513289438E-02 
724	 2.49433574488054E-02 
725	 2.34895380995818E-02 
726	 2.32059765306784E-02 
727	 2.21418952717336E-02 
728	 1.94964209848797E-02 
729	 1.83754445139074E-02 
730	 1.76043125010969E-02 
731	 1.69353810699808E-02 
732	 1.63735931424111E-02 
733	 1.56921441465022E-02 
734	 1.45621912227178E-02 
735	 1.33975030582806E-02 
736	 1.35954192050193E-02 
737	 1.33989222503196E-02 
738	 1.30860389286442E-02 
739	 1.31231901658535E-02 
740	 1.31839881729859E-02 
741	 1.29331602428804E-02 
742	 1.26830582074803E-02 
743	 1.28957018273882E-02 
744	 1.24689695357338E-02 
745	 1.22574263866936E-02 
746	 1.25799374761425E-02 
747	 1.28083809539642E-02 
748	 1.30567406594278E-02 
749	 0.013127961777578 
750	 1.28477759727372E-02 
751	 1.22452611546886E-02 
752	 1.19605325890099E-02 
753	 1.21907072612389E-02 
754	 1.27359378193441E-02 
755	 1.26683563720157E-02 
756	 1.23849444229079E-02 
757	 1.23486894659536E-02 
758	 1.31810362155488E-02 
759	 1.21551365258136E-02 
760	 1.00847878272897E-02 
761	 0.011165848146028 
762	 1.02663042568992E-02 
763	 0.011788938417495 
764	 1.35236878708162E-02 
765	 1.29559928202266E-02 
766	 1.30412364651907E-02 
767	 1.26560058357352E-02 
768	 1.20003437525506E-02 
769	 1.25201740587425E-02 
770	 1.35432384765318E-02 
771	 1.41422398920234E-02 
772	 1.38417147807653E-02 
773	 1.34492323497721E-02 
774	 1.29483666231728E-02 
775	 1.30269035390206E-02 
776	 1.41549804865858E-02 
777	 1.39032481133093E-02 
778	 1.37615120592619E-02 
779	 1.41649055776353E-02 
780	 1.42451487781117E-02 
781	 1.46901478207149E-02 
782	 1.48624514725497E-02 
783	 1.44833891249244E-02 
784	 1.46435125511273E-02 
785	 1.44569247802322E-02 
786	 0.014294241270771 
787	 1.47508118021943E-02 
788	 1.48511130759811E-02 
789	 1.51698989568972E-02 
790	 0.015797828364421 
791	 1.63117487999394E-02 
792	 1.59154562626968E-02 
793	 1.56380261196101E-02 
794	 0.015975860550168 
795	 1.62021080603641E-02 
796	 1.63859909286891E-02 
797	 1.66588536449895E-02 
798	 1.69874884813406E-02 
799	 1.64951518994671E-02 
800	 1.68678851780342E-02 
801	 1.76376155878246E-02 
802	 1.73760293952789E-02 
803	 1.80361579792998E-02 
804	 0.018125045064196 
805	 1.75502885593246E-02 
806	 1.78458801700793E-02 
807	 1.74352484126762E-02 
808	 1.69340345600572E-02 
809	 1.70462199540135E-02 
810	 1.75535174698759E-02 
811	 1.67866069953939E-02 
812	 1.57784864366916E-02 
813	 1.64045849485265E-02 
814	 1.48044202679143E-02 
815	 1.38617602369029E-02 
816	 1.43403384692073E-02 
817	 1.45084299026191E-02 
818	 1.46077646047209E-02 
819	 1.39410850788495E-02 
820	 1.29907744233336E-02 
821	 1.37060723450112E-02 
822	 1.36940888350647E-02 
823	 1.33695220028914E-02 
824	 1.32724483478254E-02 
825	 1.22920082762117E-02 
826	 1.11058948380943E-02 
827	 9.94227113860813E-03 
828	 9.17982512718271E-03 
829	 9.93505555946488E-03 
830	 9.73543811894925E-03 
831	 8.53198818647278E-03 
832	 8.06364896111911E-03 
833	 8.28076029692202E-03 
834	 8.36387400208519E-03 
835	 8.24691605814053E-03 
836	 8.84149937526714E-03 
837	 8.31549635705337E-03 
838	 7.86597067442787E-03 
839	 8.34549131727138E-03 
840	 8.14914095360776E-03 
841	 8.58915321000328E-03 
842	 8.9320836178025E-03 
843	 8.21689467536112E-03 
844	 7.7445813283912E-03 
845	 7.81144745469726E-03 
846	 8.17495108417576E-03 
847	 8.29866890439893E-03 
848	 8.42485707235299E-03 
849	 8.48753684599806E-03 
850	 8.31692776465144E-03 
851	 7.68976968969128E-03 
852	 7.19919787714288E-03 
853	 7.01956923795915E-03 
854	 7.22621105357086E-03 
855	 7.94575109875903E-03 
856	 7.97571420022407E-03 
857	 7.7561938071804E-03 
858	 7.84239320836355E-03 
859	 7.39503839960937E-03 
860	 7.26103933660329E-03 
861	 7.19617431217223E-03 
862	 6.68560803063358E-03 
863	 7.2864117338482E-03 
864	 7.35960368023735E-03 
865	 6.67389027704788E-03 
866	 6.57152497565251E-03 
867	 8.58825522074152E-03 
868	 9.16830403266857E-03 
869	 7.72710076438052E-03 
870	 8.1870499731113E-03 
871	 7.16880385479281E-03 
872	 6.17365645741126E-03 
873	 6.39812820139401E-03 
874	 5.92918237682056E-03 
875	 7.20146751330513E-03 
876	 8.34481649904742E-03 
877	 7.30176870544092E-03 
878	 6.28544467294032E-03 
879	 5.78174599284051E-03 
880	 6.36697756726176E-03 
881	 7.88611532549839E-03 
882	 6.86557742436562E-03 
883	 5.37042304187178E-03 
884	 4.99245030017567E-03 
885	 6.32874866065504E-03 
886	 7.67377348625334E-03 
887	 6.97888487091918E-03 
888	 5.24370627202462E-03 
889	 6.5773146296633E-03 
890	 6.89138337214466E-03 
891	 6.78813927860179E-03 
892	 7.00307495782387E-03 
893	 6.78249472882797E-03 
894	 2.56739763314215E-03 
895	 1.50208646859083E-03 
896	 8.73719831560484E-03 
897	 6.96437402254494E-03 
898	 3.97540603689787E-03 
899	 3.46077053109709E-03 
900	 5.33019081536113E-03 
901	 4.03923164300018E-03 
902	 3.16178575504021E-03 
903	 3.68449526962192E-03 
904	 5.14746725068991E-03 
905	 5.26858580719914E-03 
906	 3.74537502690607E-03 
907	 1.42257831291036E-03 
908	 5.94064324003507E-04 
909	 5.39217822455252E-03 
910	 6.68265249364195E-03 
911	 7.85203458500737E-04 
912	-7.54685655374282E-03 
913	 1.64240984495703E-05 
914	 3.29181673231447E-03 
915	-2.14883409968568E-03 
916	 1.46727390291022E-03 
917	 4.14388529468135E-03 
918	 5.19176331128786E-05 
919	-5.27737187995234E-03 
920	 5.08676516232147E-03 
921	 6.55834903420911E-03 
922	 1.49760309104292E-03 
923	-2.54356574557466E-03 
924	 2.87614586167045E-03 
925	 2.86356261015682E-03 
926	-1.3054172546832E-03 
927	-2.59438523542353E-03 
928	 3.41195571726226E-03 
929	-0.006758654790931 
930	-0.021249331780766 
931	-2.76863886795318E-03 
932	-2.27672082985768E-02 
933	-3.17913527888316E-02 
934	-4.39648259626388E-04 
935	 1.92381054727497E-02 
936	-0.115252005317452 
937	-0.106420149594759 
938	-2.41082716592402E-02 
939	-1.04826045027532E-02 
940	-2.73764610556754E-02 
941	-5.72867307411502E-02 
942	-6.45117407619664E-02 
943	-2.04393075834902E-02 
944	-3.36193973253925E-02 
945	-4.52000970254912E-02 
946	-2.56373013778308E-02 
947	 6.21977760906356E-03 
948	-4.57064074179928E-02 
949	-3.36733667905256E-02 
950	 2.69863645670629E-02 
951	 3.58821021421631E-02 
952	-9.47467456671831E-03 
953	-2.78372593994725E-02 
954	-1.10547626927665E-02 
955	-4.94075110724356E-03 
956	-1.89224893334739E-02 
957	-2.87627033366299E-02 
958	-2.92356810184017E-02 
959	-2.75002680633066E-02 
960	-1.87234452849586E-02 
961	-2.60060068197915E-02 
962	-3.42213888999262E-02 
963	-1.45350417159714E-02 
964	 2.23800593306675E-03 
965	 3.75069413109218E-03 
966	-2.51790181103887E-03 
967	-1.7247425817994E-03 
968	-8.43274121299208E-03 
969	-9.11478402914682E-03 
970	-5.1712053795407E-03 
971	-9.18787766319969E-03 
972	-9.05241698231094E-03 
973	-3.45623657291637E-03 
974	 1.30899151215454E-03 
975	-4.70924148334256E-03 
976	-1.18867867249316E-02 
977	-9.71830657740688E-03 
978	-1.28484133732512E-03 
979	 8.67973051535648E-04 
980	-5.3611863561016E-05 
981	-2.54685971748922E-03 
982	-3.88427853957879E-03 
983	-2.00516215742669E-03 
984	-5.61175097115279E-03 
985	-1.89788249020937E-03 
986	 2.0374366423161E-03 
987	-9.92009735484389E-03 
988	-7.18856051091493E-03 
989	 3.63083704698268E-04 
990	 4.33194561579301E-03 
991	 1.7824637787101E-03 
992	-5.6107470118201E-03 
993	-1.27126641141033E-02 
994	-8.86390913792745E-03 
995	 0.010017498477865 
996	 8.0199884957417E-04 
997	-1.55241200086412E-02 
998	-1.68828537881846E-02 
999	 4.05555373240467E-03 
1000	 4.20584737853591E-03 
1001	 4.83050617406554E-03 
1002	 1.74693314653065E-03 
1003	 1.72847150464671E-03 
1004	 4.96190329090737E-03 
1005	 6.75438794196716E-03 
1006	 0.010478303445545 
1007	 1.14618710010539E-02 
1008	 9.57307775026001E-03 
1009	 1.05834136314665E-02 
1010	 8.08478235034364E-03 
1011	 6.27685107889872E-03 
1012	 6.49363710562179E-03 
1013	 4.77454898499789E-03 
1014	 5.9831703433398E-03 
1015	 1.03224052508813E-02 
1016	 1.12671347952694E-02 
1017	 1.30598018300639E-02 
1018	 1.26501702056603E-02 
1019	 8.7813032957356E-03 
1020	 6.7971414790418E-03 
1021	 4.16800492146295E-03 
1022	 3.34541421716773E-03 
1023	 4.02514294582892E-03 
1024	 7.14571012602194E-04 
1025	 1.0970151420604E-03 
1026	 2.93920415484218E-03 
1027	 4.52796511862348E-03 
1028	 7.74331622134376E-03 
1029	 1.03558624688161E-02 
1030	 1.40290846254858E-02 
1031	 1.42909068354678E-02 
1032	 1.33528258244067E-02 
1033	 1.12258696312953E-02 
1034	 3.61632242590241E-03 
1035	 1.86241147761146E-03 
1036	 2.2859336826345E-03 
1037	 3.12626004427673E-03 
1038	 6.67036823288099E-03 
1039	 1.19594662840615E-02 
1040	 1.20933709612167E-02 
1041	 1.27574095622314E-02 
1042	 1.15168905887309E-02 
1043	 6.91742265659765E-03 
1044	 5.76417483380116E-03 
1045	 3.96016895260473E-03 
1046	 5.18042106312774E-03 
1047	 1.24954509379351E-02 
1048	 1.22714707776024E-02 
1049	 8.68753603220119E-03 
1050	 7.51259223636965E-03 
1051	 1.18765526830472E-03 
1052	-2.5640186661167E-04 
1053	 4.80948287113663E-03 
1054	 6.7576192525641E-03 
1055	 9.26916426675855E-03 
1056	 1.00439737437579E-02 
1057	 9.64676136182989E-03 
1058	 6.79992206709192E-03 
1059	 6.7483139452623E-03 
1060	 6.1888467456219E-03 
1061	 7.18927427302415E-03 
1062	 1.18464344441354E-02 
1063	 1.22087081208759E-02 
1064	 0.010657922982445 
1065	 9.86984348745002E-03 
1066	 6.03353082943448E-03 
1067	 5.32058432001729E-03 
1068	 6.51614645011561E-03 
1069	 7.97360664922736E-03 
1070	 1.26390665712678E-02 
1071	 0.014517561501874 
1072	 0.017061833750061 
1073	 1.58508111070579E-02 
1074	 1.56724750859847E-02 
1075	 1.41105402280187E-02 
1076	 1.16841509586066E-02 
1077	 7.43387100362394E-03 
1078	 6.99790596087072E-03 
1079	 6.60104535092907E-03 
1080	 6.61520164784024E-03 
1081	 1.17608280802707E-02 
1082	 1.20664606557388E-02 
1083	 7.91329998926191E-03 
1084	 6.64236161016583E-03 
1085	 3.73541849017217E-03 
1086	 3.39377398047861E-03 
1087	 7.35230938844588E-03 
1088	 8.80034173026491E-03 
1089	 1.03728265305595E-02 
1090	 1.25342563459666E-02 
1091	 1.17508366773728E-02 
1092	 6.54806202222145E-03 
1093	 6.10939205183779E-03 
1094	 6.3494330700932E-03 
1095	 7.44883091074993E-03 
1096	 1.40386094958893E-02 
1097	 1.40294240723286E-02 
1098	 5.99592801564652E-03 
1099	 6.32730006107146E-03 
1100	 9.46542152632567E-03 
1101	 1.14269813400304E-02 
1102	 2.35281238590129E-02 
1103	 2.76080457171613E-02 
1104	 0.022887729849731 
1105	 1.82748188959406E-02 
1106	 1.83776714956991E-02 
1107	 1.22208560501572E-02 
1108	 8.01844949180273E-03 
1109	 5.95575902068588E-03 
1110	 6.87094571602062E-03 
1111	 1.38090340662361E-02 
1112	 1.25933893917464E-02 
1113	 8.84556928952341E-03 
1114	 5.72571914882933E-03 
1115	-1.72067127610644E-02 
1116	-2.47883798248701E-02 
1117	 4.82096779445492E-03 
1118	 2.21050741447426E-02 
1119	 0.024141164039289 
1120	 0.038858396804278 
1121	 7.48933249672841E-02 
1122	 0.113917337031116 
1123	 0.006332907194183 
1124	 5.03997288894384E-02 
1125	 5.53977045540682E-02 
1126	-5.80877529978476E-02 
1127	 0.175094604112229 
1128	 0.372301799116029 
1129	 0.311740543101598 
1130	 8.58385751593623E-02 
1131	 7.02791420788632E-02 
1132	-5.94832905229902E-02 
1133	-0.121907909881608 
1134	 0.023322504669868 
1135	 4.43857103952286E-02 
1136	-7.61416622927311E-02 
1137	-6.70024992082128E-02 
1138	 3.60294749850562E-02 
1139	 1.53660456032397E-02 
1140	-1.98666924853111E-02 
1141	 5.55476162277722E-02 
1142	 7.16682228879653E-02 
1143	 9.21102732893494E-03 
1144	-4.99885590275057E-03 
1145	 4.11991521536038E-03 
1146	-2.05638981544201E-02 
1147	-3.71754779224057E-02 
1148	-7.28861154616759E-03 
1149	 6.07970600834664E-02 
1150	 5.89424086331057E-02 
1151	 2.81683535763964E-02 
1152	 3.30132092799485E-02 
1153	 1.20231619115863E-02 
1154	 1.32923042929566E-02 
1155	 0.029804733421444 
1156	 6.16184722384433E-02 
1157	 5.82540750022503E-02 
1158	 0.038718832298988 
1159	 2.02792294515904E-02 
1160	 8.4636908701427E-03 
1161	 1.23181658483907E-02 
1162	 1.29796313563024E-02 
1163	 1.14698456934536E-02 
1164	 1.52634744921363E-02 
1165	 8.34830765509105E-03 
1166	-2.28447509337724E-03 
1167	 1.03625544511904E-03 
1168	 7.2308987135152E-03 
1169	 2.9564707987651E-03 
1170	 2.4445968355825E-04 
1171	 2.19616325557333E-03 
1172	 3.07569680345514E-03 
1173	 4.41740707280922E-04 
1174	-3.05277028436015E-04 
1175	 2.53603843705595E-03 
1176	 2.3344026313514E-03 
1177	 5.75904328723813E-05 
1178	 6.18368839625391E-03 
1179	 1.46705820305224E-02 
1180	 0.012973551712026 
1181	 7.73740579286407E-03 
1182	 6.75064837023136E-03 
1183	 6.08426831642627E-03 
1184	 6.47981114753684E-03 
1185	 6.55147661077088E-03 
1186	 1.21121950649465E-03 
1187	 2.61081082647699E-03 
1188	 9.31918211561587E-03 
1189	 9.20887627626119E-03 
1190	 0.010293208435901 
1191	 1.29405621366055E-02 
1192	 1.21667088410922E-02 
1193	 5.12349000685061E-03 
1194	 4.9498696123167E-03 
1195	 0.012353085688339 
1196	 1.02882412580378E-02 
1197	 5.62202261575628E-03 
1198	 8.43623707405593E-03 
1199	 8.84451474866354E-03 
1200	 7.54018370921301E-03 
1201	 5.36003778783092E-03 
1202	 1.77244736313852E-03 
1203	 1.12844909660711E-03 
1204	 5.61220073047025E-04 
1205	 1.68543438528275E-03 
1206	 5.46787072033041E-03 
1207	 5.20842744241102E-03 
1208	 2.5797510658297E-03 
1209	 4.08714384779774E-03 
1210	 6.73221975359759E-03 
1211	 4.6703313080466E-03 
1212	 2.97276957348079E-03 
1213	 5.27425724801993E-03 
1214	 6.28268290507586E-03 
1215	 7.82278131355223E-03 
1216	 6.82176545415287E-03 
1217	 4.93573950464286E-03 
1218	 6.00102743644352E-03 
1219	 5.64932566450059E-03 
1220	 4.88171546525178E-03 
1221	 7.4703165850995E-03 
1222	 5.77241199500367E-03 
1223	 1.57652291903028E-03 
1224	 2.73912759214838E-03 
1225	 4.6892179884885E-03 
1226	 4.81801606601975E-03 
1227	 6.44817517048171E-03 
1228	 7.35199950515746E-03 
1229	 5.11118477581725E-03 
1230	 1.42918153726237E-03 
1231	-1.1850513066078E-03 
1232	-6.08948791255815E-04 
1233	 9.28209844829419E-04 
1234	 2.1980330707761E-03 
1235	 3.83245812491261E-03 
1236	 5.43326584505108E-03 
1237	 5.26708387927726E-03 
1238	 3.29874672626645E-03 
1239	 6.56172397817217E-03 
1240	 0.008214270247023 
1241	 6.0518181550162E-03 
1242	 6.24381640445372E-03 
1243	 6.38877629413116E-03 
1244	 4.03396864901507E-03 
1245	 3.58261788450071E-03 
1246	 4.94661297062723E-03 
1247	 3.66631280361519E-03 
1248	 2.41001027271919E-03 
1249	 3.20528284237441E-03 
1250	 1.47269232170558E-03 
1251	 1.44842501817919E-04 
1252	 1.26622665919455E-03 
1253	 6.35810123890071E-04 
1254	 4.42721273512284E-04 
1255	 3.05750965895974E-03 
1256	 3.81745089056167E-03 
1257	 2.19559417726745E-03 
1258	 1.28994613092339E-03 
1259	 4.07057351865275E-04 
1260	 3.82684251577916E-05 
1261	-4.82184117139261E-04 
1262	 2.66074040696341E-04 
1263	 2.40299206684733E-03 
1264	 5.36569834244659E-03 
1265	 6.61080010339567E-03 
1266	 5.72300230632638E-03 
1267	 4.27794134740144E-03 
1268	 6.64296264482269E-04 
1269	 1.31516278954074E-03 
1270	 4.03526926145417E-03 
1271	 9.08868638304783E-04 
1272	-5.52014576703397E-05 
1273	 3.30792533554531E-03 
1274	 2.76882698097959E-03 
1275	 1.64571488967546E-03 
1276	 1.95759712618131E-03 
1277	 2.99809033439435E-03 
1278	 3.74748276757172E-03 
1279	 2.29269087340225E-03 
1280	 5.50800348270441E-03 
1281	 7.68271597961791E-03 
1282	 3.17217164327288E-03 
1283	 1.72267834022557E-03 
1284	 7.09887565927277E-03 
1285	 8.67472112307685E-03 
1286	 7.39631229282939E-03 
1287	 5.14344049858163E-03 
1288	 1.21211889132549E-03 
1289	 3.82401116302675E-04 
1290	-2.0908613761438E-03 
1291	-3.10345466294274E-03 
1292	 4.6390004345854E-04 
1293	 1.71275237103142E-03 
1294	 4.49618329746101E-03 
1295	 6.61079909583793E-03 
1296	 8.49386337269343E-03 
1297	 1.17416098295221E-02 
1298	 7.90151314670858E-03 
1299	 5.80651569841851E-03 
1300	 8.52798073404186E-03 
1301	 8.93749703130816E-03 
1302	 8.69214981163346E-03 
1303	 4.78903145177442E-03 
1304	 2.57462299744049E-04 
1305	-1.53515645530691E-03 
1306	-2.47531729423546E-03 
1307	-1.13523671890416E-03 
1308	-1.24042081850999E-03 
1309	-2.23122000282106E-03 
1310	 1.45100006430888E-03 
1311	 1.13837478101877E-02 
1312	 0.013873687702941 
1313	 1.45084174732372E-02 
1314	 1.55418704421064E-02 
1315	 7.18870899023396E-03 
1316	 5.8496009992138E-03 
1317	 1.61957079406321E-02 
1318	 1.79387397343286E-02 
1319	 1.36206401255829E-02 
1320	 0.012920278564948 
1321	 8.40737414425406E-03 
1322	 8.31345801506726E-03 
1323	 1.52405403167258E-02 
1324	 2.31590371770899E-02 
1325	 3.15195062049222E-02 
1326	 3.10574259321751E-02 
1327	 2.95826582201123E-02 
1328	 2.79836400736557E-02 
1329	 1.64858268913588E-02 
1330	 2.17923357650331E-02 
1331	 0.026533579253853 
1332	 8.8390731849442E-03 
1333	-9.52084394511584E-03 
1334	-3.00459423818236E-02 
1335	-3.93183261532374E-02 
1336	-3.64986082599924E-02 
1337	-4.19198844885729E-02 
1338	-3.85626764129045E-02 
1339	-3.47107426624255E-02 
1340	-0.041712058752416 
1341	-0.024874537136665 
1342	 2.96792077509471E-02 
1343	 5.19858131334096E-02 
1344	 5.26764537139573E-02 
1345	 0.107838473334412 
1346	 0.249828422884581 
1347	 0.286238468465877 
1348	 0.245476802035929 
1349	 0.316653179202501 
1350	 0.198062644384987 
1351	 0.144116428018895 
1352	 0.645706424208031 
1353	 0.904450868097523 
1354	 0.769446882302987 
1355	 1.46251587385743E-02 
1356	-4.47182662912067E-02 
1357	-0.127627753005494 
1358	-6.07815548706913E-02 
1359	 0.702001537330444 
1360	 0.644924519061498 
1361	 0.488209477301337 
1362	 1.15776921446939 
1363	 1.18675319059444 
1364	 0.965637966211934 
1365	 2.8050106246792 
1366	 3.31791834062721 
1367	 1.74059495890431 
1368	 1.25981056592007 
1369	 0.927212940273667 
1370	 0.953288627703041 
1371	 2.02743900098509 
1372	 2.06369059030708 
1373	 2.33371614241675 
1374	 2.17386402191203 
1375	 0.596792322870808 
1376	 0.449547261178031 
1377	 3.84010964838399 
1378	-0.291633607123325 
1379	 1.40229922077786 
1380	 0.805138293218676 
1381	-12.3825770678016 
1382	 0.439383830788143 
1383	 0.885589813081219 
1384	 2.25998356675754 
1385	-2.46803277928996 
1386	-1.92085343950152 
1387	 2.02513110428657 
1388	 3.58685218337769 
1389	-5.62839864130464 
1390	-10.8341594012909 
1391	-14.4478043907912 
1392	 5.86433356655518 
1393	 2.69422548390479 
1394	 2.49801176029379 
1395	 2.83866936156959 
1396	 0.975376223797176 
1397	 0.966668264060315 
1398	 27.7313206390959 
1399	 4.84352274425026 
1400	-3.42365522939817 
1401	-4.01654858512615 
1402	 0.896318017211727 
1403	 1.22866709921082 
1404	 2.87771093797431 
1405	 5.01023188945697 
1406	-110.275506267996 
1407	-9.7710310909276 
1408	-3.48152869993667 
1409	-4.46071322382594 
1410	 4.78264163874253 
1411	 7.85273363067054 
1412	-1.35100811142938 
1413	-1.87686921486992 
1414	 1.4455761207618 
1415	 0.778349696636142 
1416	-0.180907087841068 
1417	 0.446862936034394 
1418	-5.08384039511505 
1419	-2.1080411629524 
1420	-1.55599070472776 
1421	-2.09602686437572 
1422	-8.35396447113305 
1423	 2.53424051119481 
1424	-0.166855250272663 
1425	-6.66483669678099E-02 
1426	 1.67911986812991 
1427	 1.41911813527529 
1428	 0.486276494687559 
1429	 0.668350469200441 
1430	 1.06175641698749 
1431	 0.956891001699568 
1432	 1.29542501913671 
1433	 1.74553316017498 
1434	 1.01923861027635 
1435	 0.724548220338772 
1436	 0.497805541586333 
1437	 0.467007451552008 
1438	 0.799797591125139 
1439	 0.663835134483479 
1440	 0.832770552251245 
1441	 6.18332988591401 
1442	 4.48548178479609 
1443	 1.38272789541217 
1444	 0.28129439810887 
1445	 0.596561905874278 
1446	 0.100073932017327 
1447	-0.746629705878382 
1448	 7.91079598424607E-02 
1449	 1.2578899942011 
1450	 0.989912783525526 
1451	 0.987496384715077 
1452	 1.17593039732235 
1453	 0.755062914043886 
1454	 0.442275372703478 
1455	 0.207292483985203 
1456	 0.207298947909638 
1457	 0.214094556392108 
1458	 0.185913268533055 
1459	 0.239234068457248 
1460	 0.281932078581266 
1461	 0.270479484318097 
1462	 0.212754730981542 
1463	 0.182558976729082 
1464	 0.166462623019977 
1465	 2.44327263492768E-02 
1466	 1.92793603708612E-02 
1467	 0.267749099860176 
1468	 0.290263664407483 
1469	 0.163205818413141 
1470	 0.200619786262861 
1471	 0.244005124531622 
1472	 0.243991649570001 
1473	 0.338021202107629 
1474	 0.380910152355673 
1475	 0.307095389200573 
1476	 0.254572994287316 
1477	 0.257415619992084 
1478	 0.253326521248667 
1479	 0.18688196622024 
1480	 0.163056943493028 
1481	 0.171959329231063 
1482	 0.173868547349994 
1483	 0.228413229280448 
1484	 0.160615398561383 
1485	 7.06126208702906E-02 
1486	 5.28468258060594E-03 
1487	-9.21807116019013E-02 
1488	-0.130465643759322 
1489	-0.20896470175902 
1490	-0.182561761350472 
1491	-0.067634772924168 
1492	-3.87886152553492E-02 
1493	-0.01321219836116 
1494	 2.24172019594675E-02 
1495	 4.78929713712583E-02 
1496	 4.03703244589533E-02 
1497	 2.39713914479004E-02 
1498	 2.97368580628108E-02 
1499	 2.71249677134215E-02 
1500	 1.57755691434828E-02 
1501	 8.13604438223381E-03 
1502	 1.86689841104711E-02 
1503	 3.44809356039131E-02 
1504	 3.10326242909584E-02 
1505	 0.032335897248973 
1506	 3.62510051499728E-02 
1507	 3.28279375001879E-02 
1508	 2.12275344423972E-02 
1509	 0.022593068742614 
1510	 3.38638001086258E-02 
1511	 3.65775056744555E-02 
1512	 0.033070963976444 
1513	 3.53064201822553E-02 
1514	 2.89364494903707E-02 
1515	 1.61468918794231E-02 
1516	 1.25789518945769E-02 
1517	 2.75026425589529E-03 
1518	 1.31241960827032E-03 
1519	 0.012352978062338 
1520	 1.16681612593743E-02 
1521	 8.3151226405381E-03 
1522	 7.39750860700042E-03 
1523	 7.08235761749036E-04 
1524	-4.67736370353246E-03 
1525	 3.18054991130849E-03 
1526	 1.10090442878572E-02 
1527	 2.45267916327601E-03 
1528	 5.76988198177618E-04 
1529	 5.59007198349152E-03 
1530	 1.44412805888738E-03 
1531	-2.00098501965494E-04 
1532	 1.33682329872583E-03 
1533	 3.94409942350272E-03 
1534	 8.74908898026283E-03 
1535	 1.16691861382983E-02 
1536	 9.11136112960446E-03 
1537	 6.77040717651899E-03 
1538	 6.24705510658933E-03 
1539	 4.62721852130266E-03 
1540	 1.04697968862731E-02 
1541	 1.33624613832005E-02 
1542	 4.73039682412703E-03 
1543	 3.29622988448678E-03 
1544	 7.07303026412292E-03 
1545	 2.51312425608657E-03 
1546	-1.09848753073521E-03 
1547	 2.26932773829571E-03 
1548	 4.24242641316476E-03 
1549	 3.31322794998004E-03 
1550	 5.61295675200968E-03 
1551	 9.41144580681702E-03 
1552	 1.09100899830562E-02 
1553	 9.27082814680342E-03 
1554	 8.70383020952909E-03 
1555	 9.23064719104343E-03 
1556	 4.90995716000623E-03 
1557	 2.71861710528948E-03 
1558	 3.85376843898443E-03 
1559	 3.84966159685342E-03 
1560	 4.8116716688633E-03 
1561	 8.24498839091398E-03 
1562	 1.11622729691735E-02 
1563	 8.09231996359904E-03 
1564	 7.02145823728925E-03 
1565	 1.33400936794629E-02 
1566	 1.72261649009374E-02 
1567	 1.56134564690194E-02 
1568	 1.62168849282375E-02 
1569	 1.19964531465622E-02 
1570	 2.41531962132957E-03 
1571	 1.84747372941403E-03 
1572	-1.88295740510532E-04 
1573	-2.99696825755681E-04 
1574	 9.1421514245786E-03 
1575	 1.39762991064555E-02 
1576	 1.60183124319641E-02 
1577	 1.57654493558319E-02 
1578	 1.36174893635302E-02 
1579	 1.16528309153517E-02 
1580	 7.09962595956832E-03 
1581	 8.33892097584873E-03 
1582	 9.99354566584634E-03 
1583	 7.7443404641529E-03 
1584	 1.15603405497508E-02 
1585	 9.25050626912419E-03 
1586	 1.76312148574312E-03 
1587	 4.22812322786936E-03 
1588	 7.27843694887752E-03 
1589	 8.42963566450602E-03 
1590	 7.96373613205367E-03 
1591	 4.42766930909925E-03 
1592	 7.13917102579782E-03 
1593	 9.17472292682479E-03 
1594	 7.88653073644075E-03 
1595	 0.012162476703779 
1596	 0.012092850817181 
1597	 8.93745860345625E-03 
1598	 1.26349455206622E-02 
1599	 1.50113167962227E-02 
1600	 0.014417138987695 
1601	 1.45263357243616E-02 
1602	 1.23499396054457E-02 
1603	 1.12791286684226E-02 
1604	 6.3573627439301E-03 
1605	 1.29477024330443E-03 
1606	 6.61933152606458E-03 
1607	 4.7936011999185E-03 
1608	 2.14539186216248E-03 
1609	 7.25666914542782E-03 
1610	 4.84171177631954E-03 
1611	 5.75432982359418E-03 
1612	 1.25390154600588E-02 
1613	 0.012523942136056 
1614	 1.13909403140612E-02 
1615	 8.83836129590134E-03 
1616	 3.9277392507448E-03 
1617	 4.82083909592075E-03 
1618	 6.27527561770179E-03 
1619	 6.80555528842489E-03 
1620	 8.2221085169311E-03 
1621	 6.90542466787192E-03 
1622	 3.31607134297329E-03 
1623	 2.47752789774179E-04 
1624	 5.47523200968103E-04 
1625	 9.64343971852114E-04 
1626	-1.91802185091841E-03 
1627	-2.72327114505998E-03 
1628	 9.81161612734539E-04 
1629	 2.56723672037857E-03 
1630	 4.9086553952252E-03 
1631	 9.27813686924539E-03 
1632	 4.87377298477844E-03 
1633	-0.00130131662977 
1634	 1.77254209941322E-03 
1635	 6.67782337773701E-03 
1636	 7.64056008698925E-03 
1637	 5.75995756582666E-03 
1638	 3.35204968579782E-03 
1639	 3.18381943944071E-03 
1640	 5.35818141685402E-03 
1641	 5.88597693434243E-03 
1642	 5.76146990213256E-03 
1643	 6.74109351226336E-03 
1644	 6.97566981364329E-03 
1645	 4.4676553170561E-03 
1646	 9.98471166973047E-04 
1647	 1.43211664300905E-03 
1648	-4.05906195910426E-04 
1649	-2.01051916067313E-03 
1650	 3.13771619624197E-03 
1651	 8.02201528314475E-03 
1652	 8.56104995058152E-03 
1653	 8.44125700468142E-03 
1654	 9.68785517910044E-03 
1655	 2.10065460343227E-03 
1656	 7.82036051491598E-04 
1657	 1.10941431591044E-02 
1658	 1.26867339805617E-02 
1659	 8.20637953100515E-03 
1660	 7.79720087793286E-03 
1661	 6.52124130164406E-03 
1662	 3.46786315366651E-03 
1663	 6.8725665889629E-04 
1664	 1.02387087441118E-03 
1665	-3.70683880982369E-04 
1666	 1.20668512522638E-03 
1667	 1.11254740677502E-02 
1668	 1.26910205092861E-02 
1669	 8.1771296043489E-03 
1670	-1.99630056881126E-03 
1671	-3.63473587185299E-03 
1672	-2.10773651005643E-03 
1673	-1.12160107154143E-03 
1674	 9.08568324131848E-03 
1675	 7.63461536656962E-03 
1676	-4.06975682444888E-03 
1677	-6.27000792558862E-03 
1678	-1.03643993171229E-02 
1679	-9.42360132432383E-03 
1680	 0.00094299299951 
1681	 2.19920817298764E-03 
1682	 1.55906221733072E-04 
1683	-1.06429462883626E-03 
1684	-4.28122191048424E-03 
1685	-7.69864169007467E-03 
1686	-7.86059281069229E-03 
1687	-2.40387974481668E-03 
1688	-4.59451741743271E-03 
1689	-8.23641661729622E-03 
1690	-5.72225693255009E-03 
1691	-6.84269900128888E-03 
1692	-2.24995385694137E-03 
1693	 9.10129472133081E-03 
1694	 1.40016056937951E-02 
1695	 0.015073030091237 
1696	 1.49353041413531E-02 
1697	 5.93039959628399E-03 
1698	 3.57415463340483E-05 
1699	 1.1835768334837E-04 
1700	-9.49047284188716E-03 
1701	-1.10375324888765E-02 
1702	-8.6462039463083E-04 
1703	 5.63049776442669E-03 
1704	 1.07416267047543E-02 
1705	 9.08457480410661E-03 
1706	 3.1877091335419E-03 
1707	 5.61268835392573E-03 
1708	 1.31576303950182E-02 
1709	 1.87083593780501E-02 
1710	 1.96865642767506E-02 
1711	 7.3771369328486E-03 
1712	-7.0485228162905E-03 
1713	 3.88703750001715E-03 
1714	 5.16672303452041E-03 
1715	 3.26698918228457E-03 
1716	-7.92676151142339E-04 
1717	-2.49107485340405E-03 
1718	-5.71330145592888E-03 
1719	-1.20960918057124E-02 
1720	-1.70037885855251E-02 
1721	-1.33840178437298E-02 
1722	-1.27704014874582E-02 
1723	-6.15031193778754E-03 
1724	 5.4894798153805E-03 
1725	-4.20357212017247E-03 
1726	-1.31307192969247E-02 
1727	-2.31544869719537E-03 
1728	 6.98266544477968E-03 
1729	 2.89437986857799E-03 
1730	-7.09070772822691E-05 
1731	-1.0026636316519E-04 
1732	-6.85571860841853E-03 
1733	-1.76416738277185E-02 
1734	-2.07238122099118E-02 
1735	-0.01860289290648 
1736	-1.14274402467782E-02 
1737	 1.09506375997186E-02 
1738	 2.13478731885979E-02 
1739	 9.34580713257932E-03 
1740	-2.43569020374566E-03 
1741	-0.013584234866581 
1742	-2.62943179512253E-03 
1743	 2.02589077885097E-02 
1744	-9.0161220761488E-04 
1745	-1.09883705402817E-02 
1746	-3.48116007316215E-02 
1747	-4.96029534478239E-02 
1748	-3.37601388464316E-02 
1749	-0.023065995269579 
1750	-1.14074348698114E-02 
1751	 2.09335702888301E-04 
1752	 8.8163977373986E-03 
1753	 9.20735747082073E-03 
1754	 8.72033843103739E-03 
1755	 9.59343335769412E-03 
1756	 1.16415337268234E-02 
1757	 3.59558177205523E-02 
1758	 1.95406672231039E-02 
1759	-0.01392721095428 
1760	-4.51644468191412E-02 
1761	-5.03427537311209E-02 
1762	-0.041563577191418 
1763	-9.53122791627676E-03 
1764	 6.53668384103513E-02 
1765	 6.68842726087585E-02 
1766	 2.94533349180286E-02 
1767	 3.86186929332483E-02 
1768	 2.39151112877198E-03 
1769	-5.70266922606414E-02 
1770	-4.60434283979148E-02 
1771	-0.034528808948174 
1772	-5.98649196493372E-02 
1773	-7.71830445199677E-03 
1774	 3.75690378050157E-02 
1775	-1.45279092380278E-02 
1776	-2.30156128028571E-02 
1777	-7.06656164002896E-02 
1778	-6.69871292424459E-02 
1779	 7.24039094626539E-02 
1780	 7.97962235918174E-02 
1781	-1.11538783804902E-02 
1782	-4.51716311529862E-02 
1783	-0.187511088878815 
1784	-0.190610411226855 
1785	-3.03904302852826E-02 
1786	-2.49562193041337E-03 
1787	 3.84023970535814E-02 
1788	 2.94982439381118E-02 
1789	-0.10554110400571 
1790	-0.194525416030814 
1791	-0.216878365749687 
1792	-6.7722070288284E-03 
1793	 8.86008178276135E-02 
1794	 0.222754594443707 
1795	 0.403140186989262 
1796	-0.141915261343502 
1797	-0.155702400902608 
1798	 1.12221347076866 
1799	 0.729156129363155 
1800	 1.02147145605825 
1801	 0.833174091843502 
1802	-0.267046712927921 
1803	-0.764143689928487 
1804	-0.490884620364694 
1805	-0.460689690063613 
1806	 0.413989994541775 
1807	 0.728460313435461 
1808	-0.700496996589596 
1809	 16.8415289630884 
1810	 1.30158335281912 
1811	 2.21225561799122 
1812	 0.783271167582123 
1813	 0.341810246069532 
1814	-4.15285910746623E-02 
1815	-0.120093821714014 
1816	-0.349624826091161 
1817	 4.09721781308158 
1818	-0.839609046386618 
1819	-5.8182011125444 
1820	 36.9238453255954 
1821	 0.472962459403975 
1822	 0.258763408932025 
1823	 0.434840746808444 
1824	 0.23270447489672 
1825	 0.291507777396458 
1826	 0.358669255071728 
1827	-10.2992338261788 
1828	-2.98105889342428 
1829	-0.641903831820192 
1830	-0.422975429393594 
1831	-1.54336707193813 
1832	-1.4011349389645 
1833	-0.654480178327456 
1834	-0.311371555718629 
1835	 0.156302535377426 
1836	 0.52616491423921 
1837	 2.64027279614981 
1838	 2.58026727981995 
1839	 1.13671587253535 
1840	 0.678637289525457 
1841	 0.539782807696672 
1842	 0.592035380477247 
1843	 0.641599809485585 
1844	 2.50782031144777 
1845	 5.24439619049563 
1846	 2.77237005278563 
1847	 2.16551548891117 
1848	 1.35357456388552 
1849	 0.8942083738015 
1850	 0.689467539218395 
1851	 1.23759238474084 
1852	 4.93554197370601 
1853	-9.68472107357529 
1854	-3.6287482397857 
1855	-13.7291041215782 
1856	-14.9702411462775 
1857	-6.04711918020006 
1858	-4.12615155143043 
1859	-1.74619284735326 
1860	-1.51872931903319 
1861	 2.70744604568689 
1862	 0.862810169388714 
1863	 1.99481368381037 
1864	 2.40529300225864 
1865	 2.33306526143678 
1866	 2.99948875072398 
1867	 2.86390217542447 
1868	 1.47217110445942 
1869	 1.29762446542873 
1870	 2.06859733848634 
1871	 2.71725900108346 
1872	 3.34839003440953 
1873	-1.64691370442269 
1874	 0.968679563776819 
1875	 0.733199512159015 
1876	 0.286818647242036 
1877	-0.116957033884751 
1878	-0.445854665512347 
1879	-1.30368015494821 
1880	-1.83156830548853 
1881	-2.94406791246657 
1882	 24.2615542167872 
1883	 3.4699404815468 
1884	 1.4557442950464 
1885	 1.05422899972186 
1886	 1.49698188043551 
1887	 2.10533063857916 
1888	-5.09702418329902 
1889	-10.241354972791 
1890	-3.2799060197208 
1891	-5.07646531223497 
1892	 51.9172045652205 
1893	-2.63978036591194E-02 
1894	-3.65911974563111E-02 
1895	-0.184235578297191 
1896	-0.136333649703278 
1897	-0.575418824273926 
1898	-0.262579501023887 
1899	-0.154217515131158 
1900	 0.1303045727878 
1901	 0.665098204062162 
1902	 0.774475505256993 
1903	 1.07928627253705 
1904	 1.43772348875431 
1905	 1.51159371359892 
1906	 1.52644012542641 
1907	-3.19966274693858 
1908	-2.6610775642005 
1909	-2.99188738909201 
1910	-1.13416825959341 
1911	-2.30707152757328 
1912	 5.01417638889845 
1913	 2.51373089166012 
1914	 2.54220282275548 
1915	 0.585372731774223 
1916	-0.103983428461562 
1917	-0.191923455373773 
1918	-0.153338078999171 
1919	-8.24001561020439E-03 
1920	 0.315374413519766 
1921	 0.218852931134067 
1922	-0.875496312125081 
1923	-1.02982383106418 
1924	-0.527787375368051 
1925	-0.136788021652435 
1926	 8.36219623958069E-02 
1927	 1.97341012908938 
1928	 1832.74908131828 
1929	 1.21447530522689 
1930	 0.94694310726343 
1931	-2.90224851209858 
1932	-0.704453896558491 
1933	-0.159947266814202 
1934	-7.1216104507254E-03 
1935	-0.557158706293845 
1936	-1.39404880783143 
1937	-1.65573281090568 
1938	-3.74933660193298 
1939	-59.0736213424088 
1940	 3.4694806571878 
1941	 1.05793424639784 
1942	 1.03555419190864 
1943	 1.06152947639844 
1944	 0.753495092296875 
1945	 0.855347520684702 
1946	 0.777085816953075 
1947	 0.758584714494975 
1948	 0.802621223930894 
1949	 0.804752037700645 
1950	 2.25526415813674 
1951	-14.8190076189817 
1952	-2.52177629598324 
1953	-0.785049771145 
1954	-0.503419454904068 
1955	-0.862318512168679 
1956	 9.19584494209801 
1957	 2.24140518956521 
1958	 2.13017599167861 
1959	 1.61260359244666 
1960	 2.27965128656932 
1961	 3.44051882841189 
1962	 2.3960030069969 
1963	 4.23013098603862 
1964	 1.55367063378061 
1965	 0.402741336923574 
1966	 0.182304769096756 
1967	 6.40775600350818E-02 
1968	-0.196413734543586 
1969	-5.34778053519984E-02 
1970	 0.386265373538362 
1971	 0.403289068028587 
1972	 0.767668095961134 
1973	 0.710781851181985 
1974	 6.0961427686306E-03 
1975	-1.75234536448847E-02 
1976	 9.63467842265757E-02 
1977	 1.52195571829807E-03 
1978	-1.39594798292799E-02 
1979	 4.28270614600736E-02 
1980	 0.088270823603983 
1981	-7.54069345567342E-02 
1982	-0.28992940851338 
1983	-0.091982540139376 
1984	-4.47457765012777E-02 
1985	-0.107053405945883 
1986	 0.109227322855354 
1987	 0.276357091666659 
1988	 0.259121264320468 
1989	 0.183867940125058 
1990	 0.121733874280281 
1991	 0.095155829351177 
1992	 0.113561931287171 
1993	 0.140098777067526 
1994	 0.11583039364055 
1995	 9.93459890465523E-02 
1996	-9.03770570357776E-02 
1997	-0.359889766324844 
1998	-0.499474526838625 
1999	-0.533406524237928 
2000	-0.454161171389294 
2001	-0.252911596219459 
2002	-0.021034320068427 
2003	-9.02469815532861E-02 
2004	-0.162221572329103 
2005	-0.189894741526724 
2006	-0.248856283045747 
2007	 8.64976104040373E-03 
2008	 9.34245466807069E-02 
2009	 0.187512840925599 
2010	 0.380115068115243 
2011	 0.425910405186596 
2012	 0.321529807313891 
2013	 0.352290001864626 
2014	 0.293009629387613 
2015	 9.26377997975672E-03 
2016	-1.61520847352892E-02 
2017	 5.45434150784704E-02 
2018	 5.42130818230411E-02 
2019	 0.100060566829405 
2020	 0.10486183943049 
2021	 7.09323887304221E-02 
2022	 9.10125366713081E-02 
2023	 0.135398337436521 
2024	 0.163133875723882 
2025	 0.28601543219937 
2026	 0.245722156524917 
2027	 0.134171777207838 
2028	-2.68007739883016E-02 
2029	-0.112696668503937 
2030	-0.163726489167038 
2031	-0.191016339799677 
2032	-0.112298520752829 
2033	-1.30293039001071E-02 
2034	 3.19924322155805E-02 
2035	 4.42307809582236E-02 
2036	 8.66929881762271E-02 
2037	 0.107691984174113 
2038	 8.73695368248233E-02 
2039	 0.107599009215199 
2040	 0.192714819490861 
2041	 0.220638080446061 
2042	 0.242328549983245 
2043	 0.228502002569401 
2044	 0.190818543653231 
2045	 0.155533639280945 
2046	 8.57839156480847E-02 
2047	 1.98552327576608E-02 
2048	 4.43281532762769E-02 
2049	 0.107732877096811 
2050	 0.114653144549012 
2051	 0.151328933116349 
2052	 0.13067449199886 
2053	-1.39704098192456E-02 
2054	-9.11151280408496E-02 
2055	-7.99510524939735E-02 
2056	-7.29384980424206E-02 
2057	-4.04164535922782E-02 
2058	-2.21561683262052E-02 
2059	 6.00560042608711E-03 
2060	 0.030902300568561 
2061	 4.82993482276902E-02 
2062	 9.38991597024087E-02 
2063	 0.115381332396913 
2064	 0.149353141273261 
2065	 0.146638282898988 
2066	 6.78606103293963E-02 
2067	 6.57467835439006E-04 
2068	-3.24378719841552E-02 
2069	-7.93754829394383E-02 
2070	-6.46876907257397E-02 
2071	 1.72688124523119E-02 
2072	 7.26897336300186E-02 
2073	 9.69844222768905E-02 
2074	 9.36347201469633E-02 
2075	 9.56717229273803E-02 
2076	 8.22643151310476E-02 
2077	 7.78135678485698E-02 
2078	 0.106819347216847 
2079	 9.10108966264744E-02 
2080	 0.058708801531128 
2081	-1.05475927459205E-02 
2082	-5.90809668167661E-02 
2083	-7.29098115173214E-02 
2084	-2.45452124080803E-02 
2085	 6.63250475704343E-02 
2086	 0.126897204105574 
2087	 0.139879996361836 
2088	 0.13556766885439 
2089	 0.111422595887165 
2090	 8.48452744064823E-02 
2091	 0.05925648230473 
2092	 4.73323500910218E-02 
2093	 4.27343214047136E-02 
2094	 3.64713989278753E-02 
2095	 1.42647803948636E-02 
2096	 3.03517677704627E-02 
2097	 8.04117457746976E-02 
2098	 9.95026669000689E-02 
2099	 0.134139223759532 
2100	 0.169326620198573 
2101	 0.137965854076627 
2102	 7.01853122332171E-02 
2103	 5.23782203879862E-03 
2104	-8.53820365094375E-03 
2105	-4.03275880655316E-03 
2106	-2.56256780343116E-02 
2107	-3.09421321567779E-02 
2108	-2.50606391565558E-02 
2109	-1.44255713009196E-02 
2110	 2.00903060541401E-02 
2111	 2.21271412438297E-02 
2112	 0.027173089482808 
2113	 4.51939185539826E-02 
2114	 6.06388650703614E-02 
2115	 6.35593836614305E-02 
2116	 9.75956976071599E-02 
2117	 8.03143769413524E-02 
2118	 9.7033131875617E-03 
2119	-2.07135397247155E-02 
2120	-5.85991251572313E-02 
2121	-0.083494462756199 
2122	-9.01922016087141E-02 
2123	-0.077183798078391 
2124	-3.61663995774906E-02 
2125	-6.62671614815532E-03 
2126	 3.11702514434693E-02 
2127	 3.28721174183314E-02 
2128	-7.97466835309045E-03 
2129	-2.40123884808874E-02 
2130	-3.81672768129945E-02 
2131	-5.12382309678799E-02 
2132	-2.37040489910214E-02 
2133	 5.12779687066066E-03 
2134	 6.87581117181912E-03 
2135	 2.79780248378514E-03 
2136	 3.01323615197328E-03 
2137	-3.26385837894743E-02 
2138	-3.77360134039371E-02 
2139	-5.47038205574719E-03 
2140	-9.61844461100285E-03 
2141	-3.00133876678469E-02 
2142	-0.018706064589702 
2143	 2.81359095593592E-03 
2144	-7.61758395688768E-03 
2145	 0.028065925843882 
2146	 2.97452718576059E-02 
2147	-2.67206165089031E-02 
2148	-3.18474117705634E-02 
2149	-7.59755036453237E-02 
2150	-0.103934567360588 
2151	-6.25128869727073E-02 
2152	-4.40331202429543E-02 
2153	-2.85052492602545E-03 
2154	 1.77465747887094E-02 
2155	-3.46559376829108E-03 
2156	-3.66728510553868E-02 
2157	-4.85545528403266E-02 
2158	-4.06472075158306E-02 
2159	-5.09944898558357E-02 
2160	-6.96233519080414E-02 
2161	-6.96562415893489E-02 
2162	-6.55818392875268E-02 
2163	-6.59230302743993E-02 
2164	-6.46161992205484E-02 
2165	-5.74139097462096E-02 
2166	-4.14057420006129E-02 
2167	-0.030894806968985 
2168	-1.71070665264059E-02 
2169	 5.57463702160552E-03 
2170	 4.62067934921301E-02 
2171	 1.67674708381825E-02 
2172	-2.69284565937501E-02 
2173	-9.10597134091206E-03 
2174	 4.77369581683319E-03 
2175	 2.78099024521317E-03 
2176	 5.53435808573149E-02 
2177	 7.09689997197389E-02 
2178	 1.40195845884901E-02 
2179	-5.02379265186997E-02 
2180	-6.15352343632321E-02 
2181	-4.61650989371779E-02 
2182	-8.08948754428018E-02 
2183	-5.78064318331413E-02 
2184	-0.039719177248847 
2185	-6.57114343562942E-02 
2186	-3.92792145860047E-02 
2187	 5.65105078928613E-02 
2188	 9.70581630814332E-02 
2189	 0.137223021126795 
2190	 0.158102724540039 
2191	 0.163872012263267 
2192	 0.127322410449175 
2193	 2.05493369544273E-02 
2194	-1.46836457354822E-02 
2195	-3.97234022985576E-02 
2196	-6.05120335821451E-02 
2197	-4.24456227273464E-03 
2198	 3.30459857144868E-03 
2199	-3.36633719788761E-02 
2200	-8.28012586861584E-02 
2201	-6.56605393175651E-02 
2202	-5.94871220787537E-02 
2203	-0.036957474771267 
2204	 4.71250869012254E-02 
2205	 9.54416352913062E-02 
2206	 0.110363048936681 
2207	 0.130681155986164 
2208	 0.114345697849178 
2209	 9.99610401787134E-02 
2210	 0.119510401785778 
2211	 7.41084697541714E-02 
2212	-1.02446189785428E-02 
2213	-2.26366860027351E-02 
2214	-3.98998803925294E-02 
2215	-3.81973856532193E-02 
2216	 2.07465758892826E-02 
2217	 1.70466462390534E-02 
2218	-5.13734874369572E-02 
2219	-7.73731603212172E-02 
2220	-0.116043375582961 
2221	-0.102749012083852 
2222	-4.34375426036906E-02 
2223	-2.44145313680543E-02 
2224	 3.92299693249357E-02 
2225	 3.35718099881318E-02 
2226	-8.04656929630135E-02 
2227	-7.42444261758079E-02 
2228	-4.02867833221912E-02 
2229	-9.56544167738289E-03 
2230	 8.58002501711458E-02 
2231	 0.129567250151326 
2232	 0.158614402696129 
2233	 0.160734856230471 
2234	 0.137261271977656 
2235	 0.129202380770671 
2236	 0.10593527447678 
2237	 0.113930153378771 
2238	 5.95688644642508E-02 
2239	 4.33141582070111E-02 
2240	 4.34358583731816E-02 
2241	-1.79020279827475E-02 
2242	-9.97383611890902E-02 
2243	-0.117687242655933 
2244	-8.24876936684908E-02 
2245	-6.33309874868412E-02 
2246	 1.00963773185365E-02 
2247	 3.63114940879038E-02 
2248	-3.27003049499248E-03 
2249	-9.80078100251142E-03 
2250	-3.71890691134307E-02 
2251	-2.37245834620937E-02 
2252	 3.65828011641002E-02 
2253	-3.01864589127746E-03 
2254	-4.01104343127043E-02 
2255	-2.57827117723676E-02 
2256	-0.107448078047578 
2257	-0.209424271128375 
2258	-0.258328284076336 
2259	-0.316867799161348 
2260	-0.27841877553956 
2261	-9.79203258756593E-02 
2262	-4.72498716192337E-02 
2263	-2.42816014115645E-02 
2264	 6.13666102655319E-02 
2265	 0.166411013044789 
2266	 0.203513156179742 
2267	 0.289247277105345 
2268	 0.295008996364911 
2269	 0.121062055417403 
2270	 5.24591326395898E-02 
2271	 7.49239297334851E-02 
2272	 0.027565537968162 
2273	-0.100686755070669 
2274	-0.138246538250269 
2275	-0.111869580355063 
2276	-0.138460767470954 
2277	-0.108700403637105 
2278	-0.131424305110776 
2279	-0.284843196249557 
2280	-0.33722820811085 
2281	-0.358296261447677 
2282	-0.391582885311895 
2283	-0.337410595700699 
2284	-0.218339688830684 
2285	-0.131852764666028 
2286	-0.129660669854848 
2287	-0.124494598617502 
2288	-0.142363864975962 
2289	-0.164098113945672 
2290	-2.18746647687738E-02 
2291	 0.163757898390386 
2292	 0.280339815422422 
2293	 0.249171089988134 
2294	 0.153968694558447 
2295	 8.94607672531287E-02 
2296	 7.35401786759713E-02 
2297	 0.116971475608711 
2298	-4.65859816984328E-02 
2299	-0.194284582319803 
2300	-0.257205536726494 
2301	-0.243168085999102 
2302	-0.124405801594055 
2303	-0.156193608241885 
2304	-0.203626083431554 
2305	-0.148704567762823 
2306	 9.66839184535848E-03 
2307	 0.186520891579322 
2308	 0.336937049410517 
2309	 0.538946721032652 
2310	 0.507813881850913 
2311	 0.185919192891348 
2312	-0.109289357074542 
2313	-0.395820085402478 
2314	-0.472800410122899 
2315	-0.292957155006642 
2316	-2.42751870706283E-02 
2317	 3.32763741454939E-02 
2318	 0.195501335077429 
2319	 0.173756708015723 
2320	-0.136993168473079 
2321	-0.255667377402911 
2322	-0.369764287533905 
2323	-0.475840226178178 
2324	-0.324615552700917 
2325	-0.243408750589639 
2326	-0.197467590756151 
2327	-0.270267655561329 
2328	-0.309694152548868 
2329	-0.373713787995695 
2330	-0.573980622202916 
2331	-0.570646388185802 
2332	-0.565704601750832 
2333	-0.465628192967754 
2334	-0.20833904648063 
2335	 1.94150703683493E-03 
2336	 0.266674484395033 
2337	 0.236090098544248 
2338	 0.109213120088129 
2339	-2.75730422070832E-02 
2340	-1.2117351687124 
2341	 0.240329713470324 
2342	 1.33982916370131 
2343	-4.63206100606074E-02 
2344	-0.206949631723412 
2345	-0.376753347430483 
2346	-0.765403677017489 
2347	-1.02168043404622 
2348	-2.59137458505006 
2349	-3.50516391168399 
2350	-2.91478735451411 
2351	-2.58436754747994 
2352	-1.37881883843764 
2353	-1.68116596165223 
2354	 4.01679560045534 
2355	 8.80535710828018 
2356	-3.6423017326434 
2357	-0.466420684868523 
2358	-5.16653603628865E-02 
2359	 0.164281547060297 
2360	 0.210295580763192 
2361	 0.414248210903128 
2362	 0.793271984982521 
2363	 0.211543687271631 
2364	-0.319774618687809 
2365	-0.548983311668095 
2366	-0.623895960938919 
2367	-0.765460463524899 
2368	-1.25561030959446 
2369	-0.763354895417503 
2370	-0.69683737676692 
2371	-1.38008547494908 
2372	-1.51694182335454 
2373	-1.69584934182052 
2374	-3.34344501038327 
2375	 2.64489060499967 
2376	 1.24290377168467 
2377	 1.22521345146716 
2378	 2.08649759577793 
2379	 4.58384397863779 
2380	-7.1526583656005 
2381	-10.9952336602118 
2382	 5.26541902286164 
2383	 31.2405361122855 
2384	-1.1800105440155 
2385	-0.755304124603626 
2386	-9.71291642414839E-02 
2387	 0.158082867961097 
2388	-7.07410925239077E-02 
2389	-0.83611074977315 
2390	-3.35624191978268 
2391	-7.74739113306591 
2392	 5.32953248147074 
2393	 3.52781741950467 
2394	 3.65106900125851 
2395	 1.71616021717694 
2396	 3.06401810684 
2397	 19.6693152872697 
2398	 33.4627389460116 
2399	 21.2528932242158 
2400	 0.13557653165032 
2401	 0.195218458496676 
2402	 0.405398111669963 
2403	 1.44996006748978 
2404	 12.3176872021273 
2405	-11.0517611652104 
2406	 2.73210165775165 
2407	 0.536641312541427 
2408	 0.433240799192278 
2409	 0.224126931250799 
2410	 2.22791875931574E-02 
2411	-0.106758541475576 
2412	 3.92422297749493E-02 
2413	 1.0128755316271 
2414	 5.53028493451025 
2415	 2.01203192737639 
2416	 0.526314775599024 
2417	 0.422056942186891 
2418	 0.353196106475182 
2419	 0.134986061713018 
2420	 0.231035695046172 
2421	 0.101667044237853 
2422	-0.551558881765636 
2423	-1.14325838377022 
2424	-2.65235402578398 
2425	-20.1878780741551 
2426	-17.1299756552865 
2427	 7.05503610623098 
2428	 6.7336840790063 
2429	 1.17912630895664 
2430	 1.23409942800307 
2431	 1.00613975006045 
2432	 1.00523135141227 
2433	 0.929471558350081 
2434	 0.46630191270906 
2435	-0.301949125895828 
2436	-0.329029245505326 
2437	-1.30031760982167 
2438	-19.2022627524007 
2439	-4.95798159023885 
2440	-2.86550889523091 
2441	 2.7155176148978 
2442	 2.61636328023924 
2443	 1.57261605221936 
2444	 2.04839916845042 
2445	 1.36392861886409 
2446	 0.653202048863522 
2447	-0.719416962478073 
2448	-1.09857977460797 
2449	-22.4267318696413 
2450	 8.05128869903888 
2451	 1.8926050587635 
2452	 11.5929008917111 
2453	 1.36717416599141 
2454	 0.86899475277001 
2455	 0.485812771688234 
2456	 0.424164188299047 
2457	-1.69251751544946 
2458	-0.120659577222498 
2459	-2.57178392178254E-02 
2460	 0.273395409023023 
2461	 0.7423578094203 
2462	 5.04071057107476 
2463	 4.25876799796766 
2464	-1.07030834776137 
2465	-1.28373239554881 
2466	-1.26944317533837 
2467	-5.22533330705749 
2468	 4.65969924757523 
2469	-0.118546647075913 
2470	 0.163967636276067 
2471	 0.353688207382514 
2472	 0.438526218987904 
2473	 0.854819361838542 
2474	 1.3384725158521 
2475	 0.472326155335838 
2476	-0.108618656284981 
2477	-0.364832746796001 
2478	-2.69845288522225E-02 
2479	-0.780791143144216 
2480	-1.06957056166897 
2481	-1.8709644034198 
2482	-1.63472609788457 
2483	-0.689169765456482 
2484	-0.309702848574136 
2485	-9.48033542918795E-02 
2486	-0.45081078317599 
2487	 0.606782685952269 
2488	 0.859062037727965 
2489	 1.41678757661867 
2490	-6.39149697337271 
2491	-1.3566065544432 
2492	-0.444238552857362 
2493	-0.106154352793365 
2494	 0.107917854746184 
2495	 0.287797608684079 
2496	 0.353235217146476 
2497	 0.204469175506585 
2498	-0.058067089865455 
2499	 4.42120813574454 
2500	 3.6690684268071 
