Wavelength	rt0802close00004.asd
350	 1.78797113801052E-02 
351	 1.84349047253819E-02 
352	 1.91792880680589E-02 
353	 2.03212779731159E-02 
354	 2.11968413100473E-02 
355	 0.018808758128068 
356	 2.01098438248672E-02 
357	 0.02257857133559 
358	 2.18866406217164E-02 
359	 0.01985641404458 
360	 0.019949091898788 
361	 2.12220629214844E-02 
362	 2.02233703321891E-02 
363	 2.16371652343676E-02 
364	 2.18362482040072E-02 
365	 2.00869018057113E-02 
366	 2.15370657582824E-02 
367	 2.19355425220852E-02 
368	 2.18571689354332E-02 
369	 2.23805343357366E-02 
370	 2.15858262088946E-02 
371	 2.14131402901429E-02 
372	 2.17007086190739E-02 
373	 0.021319744016068 
374	 2.27244508045649E-02 
375	 2.42586534171947E-02 
376	 2.45515703967368E-02 
377	 2.33258362874194E-02 
378	 0.023865382507162 
379	 2.42880195438565E-02 
380	 2.30307516873158E-02 
381	 0.023629162078759 
382	 2.51661058365484E-02 
383	 2.63865029901188E-02 
384	 2.61705409843681E-02 
385	 2.58564450706736E-02 
386	 0.025040533428956 
387	 2.47676138754195E-02 
388	 2.75199871857071E-02 
389	 0.027425394630033 
390	 2.71093309457627E-02 
391	 2.83661876959652E-02 
392	 2.62811201959255E-02 
393	 2.71731098843317E-02 
394	 0.029127956995472 
395	 2.84455747083997E-02 
396	 3.01501821435968E-02 
397	 2.98858054996832E-02 
398	 2.81185999644122E-02 
399	 2.95323604705021E-02 
400	 3.01477848845068E-02 
401	 3.00845250003381E-02 
402	 3.00504485438123E-02 
403	 3.05828011760886E-02 
404	 3.05453327135961E-02 
405	 3.05312305939813E-02 
406	 3.13574697664205E-02 
407	 3.10546008631094E-02 
408	 3.11068262995961E-02 
409	 3.17473669448415E-02 
410	 3.18296149597384E-02 
411	 3.24299493048225E-02 
412	 3.30487630688961E-02 
413	 3.31051839492831E-02 
414	 3.22763052597451E-02 
415	 3.29392688053842E-02 
416	 3.39485898087213E-02 
417	 3.33087641380594E-02 
418	 3.37327574611477E-02 
419	 3.41443600505121E-02 
420	 3.42730229313985E-02 
421	 3.49676369378392E-02 
422	 3.50742678415925E-02 
423	 3.52682370594556E-02 
424	 3.59857640654688E-02 
425	 3.58108822082004E-02 
426	 3.64217395463418E-02 
427	 3.75686569477849E-02 
428	 0.038100621395325 
429	 3.79752738036884E-02 
430	 3.80925783076202E-02 
431	 3.87615666192911E-02 
432	 3.94812012171148E-02 
433	 3.98091980993534E-02 
434	 4.00408677664774E-02 
435	 4.04610745113676E-02 
436	 4.07155377813736E-02 
437	 4.12772023903186E-02 
438	 4.18696907279927E-02 
439	 4.19184338187753E-02 
440	 4.21385167877063E-02 
441	 4.26950320898022E-02 
442	 4.33719116950247E-02 
443	 4.34761553385038E-02 
444	 4.43491278884946E-02 
445	 4.51452579606001E-02 
446	 4.50027595374963E-02 
447	 4.54444396771024E-02 
448	 4.58605002145748E-02 
449	 4.63170464022152E-02 
450	 4.72846068676707E-02 
451	 4.74484288866226E-02 
452	 4.72326736801181E-02 
453	 0.04725080209899 
454	 4.79937168432275E-02 
455	 4.84766944321447E-02 
456	 4.87052374836289E-02 
457	 4.89651094228969E-02 
458	 4.88166702312818E-02 
459	 4.90682308048008E-02 
460	 4.97455819194335E-02 
461	 5.00440425841229E-02 
462	 0.050132495059417 
463	 5.01133145003967E-02 
464	 5.01702544416901E-02 
465	 5.07574374410652E-02 
466	 5.10315924100257E-02 
467	 5.09980130340255E-02 
468	 0.051103187513813 
469	 0.051531998521368 
470	 5.17075142618749E-02 
471	 5.16222981237005E-02 
472	 5.21170647967398E-02 
473	 5.25255140510274E-02 
474	 5.28139370311981E-02 
475	 5.30858686664395E-02 
476	 5.32872825191045E-02 
477	 5.36743887819545E-02 
478	 5.42190888172715E-02 
479	 5.46653233644345E-02 
480	 5.45204588922814E-02 
481	 5.49255669982871E-02 
482	 5.60191085610335E-02 
483	 5.53646556141805E-02 
484	 5.57289897035642E-02 
485	 0.056632299500848 
486	 5.67584516426154E-02 
487	 0.057360724542427 
488	 5.78579399439563E-02 
489	 5.81409101164355E-02 
490	 5.86304372859039E-02 
491	 5.90858191739337E-02 
492	 5.98131288651287E-02 
493	 6.07734081190333E-02 
494	 6.06307788422116E-02 
495	 6.11759083253038E-02 
496	 0.062111069485727 
497	 0.062283541932673 
498	 6.32406861066015E-02 
499	 6.38066227450105E-02 
500	 6.37604400473547E-02 
501	 6.47930424736049E-02 
502	 6.53766607668888E-02 
503	 6.57426303126541E-02 
504	 6.65013496554886E-02 
505	 6.76700966268509E-02 
506	 6.82268721108525E-02 
507	 6.84121724127957E-02 
508	 6.93964580061905E-02 
509	 7.03035155159007E-02 
510	 7.10167776408419E-02 
511	 0.071600543762186 
512	 7.22417466118075E-02 
513	 7.28384793727464E-02 
514	 7.35665027261386E-02 
515	 7.46075998527645E-02 
516	 7.53626479123861E-02 
517	 7.59601967156114E-02 
518	 7.66185514813195E-02 
519	 7.75640177940603E-02 
520	 7.87446516574313E-02 
521	 7.95904637897598E-02 
522	 7.98848579713146E-02 
523	 8.09792344659868E-02 
524	 8.20867298335591E-02 
525	 8.28329148027979E-02 
526	 8.32660125451212E-02 
527	 8.44562122097788E-02 
528	 8.54926060545095E-02 
529	 8.59736769815682E-02 
530	 8.71334800606553E-02 
531	 8.78407880748669E-02 
532	 8.85312531922548E-02 
533	 8.98946540685295E-02 
534	 9.04664467010451E-02 
535	 9.12847836179942E-02 
536	 9.24995184712319E-02 
537	 9.30886634764952E-02 
538	 9.41858123895551E-02 
539	 9.51387497079347E-02 
540	 9.54957028806257E-02 
541	 0.096981047691109 
542	 9.80793663770166E-02 
543	 9.87331047223966E-02 
544	 9.97636669224664E-02 
545	 0.100726546372209 
546	 0.101550813404966 
547	 0.102394846290053 
548	 0.103838931092474 
549	 0.10473397280004 
550	 0.105199675604072 
551	 0.105836352661497 
552	 0.107044174709611 
553	 0.108157019031382 
554	 0.109013870623605 
555	 0.110082123844092 
556	 0.111045397983367 
557	 0.111758022410498 
558	 0.112267672847566 
559	 0.113092985332507 
560	 0.114166421784894 
561	 0.115142704114522 
562	 0.115622299147404 
563	 0.11663752049886 
564	 0.117254257780756 
565	 0.117164875404341 
566	 0.117781156272384 
567	 0.118585241640808 
568	 0.11941314639682 
569	 0.120144050682051 
570	 0.12042913991401 
571	 0.120711606689604 
572	 0.1212014253001 
573	 0.121783065446512 
574	 0.121885007883176 
575	 0.121957262134938 
576	 0.1224675452021 
577	 0.123186800047565 
578	 0.123424074453619 
579	 0.123472663765503 
580	 0.124080971454731 
581	 0.123836056147938 
582	 0.123735645250575 
583	 0.124146635717706 
584	 0.12374399160787 
585	 0.122967513709267 
586	 0.122478634460528 
587	 0.122716823553169 
588	 0.121574826455452 
589	 0.121290522028494 
590	 0.121912534247193 
591	 0.120864753261539 
592	 0.12072307791434 
593	 0.120546360219571 
594	 0.119481992924493 
595	 0.119057364276475 
596	 0.118448954721827 
597	 0.117707687968486 
598	 0.117273490809071 
599	 0.116430987989954 
600	 0.115724841178748 
601	 0.115342696054564 
602	 0.114595696938553 
603	 0.114506349610788 
604	 0.114519230631566 
605	 0.113948958347362 
606	 0.114195646210188 
607	 0.114495772647678 
608	 0.114491432469044 
609	 0.114361172085602 
610	 0.114417816520467 
611	 0.114501210384464 
612	 0.114464431636938 
613	 0.114531508308089 
614	 0.114611954023811 
615	 0.114750465489784 
616	 0.114987020005854 
617	 0.114638819214291 
618	 0.114581633225098 
619	 0.114997607039519 
620	 0.114669739716558 
621	 0.114765991661855 
622	 0.114739172425557 
623	 0.113946639354334 
624	 0.114108523919801 
625	 0.113892087946378 
626	 0.113309253891536 
627	 0.113731160127836 
628	 0.114152387193611 
629	 0.114190697853938 
630	 0.113921908844097 
631	 0.114268551906213 
632	 0.11423303702297 
633	 0.113999165475206 
634	 0.114171954370404 
635	 0.113854357033782 
636	 0.113908636228878 
637	 0.114295484459136 
638	 0.113444195186645 
639	 0.113796897502867 
640	 0.114351573198257 
641	 0.113737861373065 
642	 0.113500912463717 
643	 0.113085993240743 
644	 0.112340796427251 
645	 0.111509963200443 
646	 0.111284205015683 
647	 0.111269206849186 
648	 0.111092041039894 
649	 0.111036920212713 
650	 0.111195227809337 
651	 0.111172985618962 
652	 0.11051697371936 
653	 0.109671327741352 
654	 0.108945771816732 
655	 0.10830131674316 
656	 0.107320349579222 
657	 0.107015721317696 
658	 0.106920319392868 
659	 0.106482511697737 
660	 0.105706163303427 
661	 0.105066959329972 
662	 0.104694659819779 
663	 0.104498997151431 
664	 0.10446999158048 
665	 0.104160136030852 
666	 0.103628923943993 
667	 0.103965117426169 
668	 0.103778016540027 
669	 0.103346105443475 
670	 0.10323563291548 
671	 0.10240263268689 
672	 0.10221355124435 
673	 0.102869549138899 
674	 0.103371064968225 
675	 0.102924204563558 
676	 0.10255927709643 
677	 0.102915411604322 
678	 0.102640043572476 
679	 0.102899390448034 
680	 0.103172823378625 
681	 0.102545309491993 
682	 0.103099552407439 
683	 0.10356233366541 
684	 0.103442883789281 
685	 0.103683437602642 
686	 0.103413492209442 
687	 0.10291845457277 
688	 0.102844485345973 
689	 0.103395894399192 
690	 0.103208061984931 
691	 0.102318744447903 
692	 0.101637990794658 
693	 0.101137015330918 
694	 0.100671234701143 
695	 0.100295037655963 
696	 0.100438075737995 
697	 9.95541463097015E-02 
698	 9.78390186458303E-02 
699	 9.62762888794597E-02 
700	 9.58048190944237E-02 
701	 9.50311861411589E-02 
702	 0.093919250405708 
703	 9.33894921323943E-02 
704	 0.091898230844336 
705	 9.02826993777526E-02 
706	 0.089200844948307 
707	 8.79417118320808E-02 
708	 8.65606398180958E-02 
709	 8.49797000121262E-02 
710	 8.31258022437446E-02 
711	 8.09275334710294E-02 
712	 7.86126946014139E-02 
713	 7.63851338400942E-02 
714	 7.43417651973029E-02 
715	 0.071818629983767 
716	 6.83756885105811E-02 
717	 6.44549504526062E-02 
718	 6.15061245400359E-02 
719	 5.95955517651227E-02 
720	 5.85033071149948E-02 
721	 5.74438649192583E-02 
722	 5.52071313249523E-02 
723	 5.20791384205082E-02 
724	 4.91919064185796E-02 
725	 4.72620204532664E-02 
726	 0.045740185634413 
727	 4.35679809351519E-02 
728	 0.04042426286954 
729	 3.82507029922206E-02 
730	 3.56702642991641E-02 
731	 0.033430101046942 
732	 3.22779445705733E-02 
733	 3.08801915710264E-02 
734	 2.91985940504052E-02 
735	 2.77110165143055E-02 
736	 2.74649932202295E-02 
737	 2.67188186345727E-02 
738	 2.59060797597375E-02 
739	 2.56117904339731E-02 
740	 2.53641825550995E-02 
741	 0.025268673977569 
742	 0.025195286011826 
743	 2.49771469165181E-02 
744	 0.025126567941086 
745	 2.49136266432736E-02 
746	 2.43812454470997E-02 
747	 2.47188789068663E-02 
748	 2.50663019471569E-02 
749	 2.51590790643346E-02 
750	 2.49995487984221E-02 
751	 0.024963983199108 
752	 2.47525968509138E-02 
753	 2.45684350607691E-02 
754	 2.48154638489371E-02 
755	 2.51973284529454E-02 
756	 2.52406326865704E-02 
757	 2.49666320959829E-02 
758	 2.51798457695165E-02 
759	 2.39800738927656E-02 
760	 2.26571897922637E-02 
761	 2.43885231243886E-02 
762	 2.38343506261604E-02 
763	 2.43463759536282E-02 
764	 0.02527104335625 
765	 2.53295581092225E-02 
766	 2.56006492160857E-02 
767	 2.56429827704945E-02 
768	 2.54743700017311E-02 
769	 2.55431389136298E-02 
770	 2.63236651906534E-02 
771	 2.71927628570591E-02 
772	 2.74388566581319E-02 
773	 2.65947478217773E-02 
774	 2.64916105274266E-02 
775	 2.72373165053113E-02 
776	 2.80154124917528E-02 
777	 2.78286271762907E-02 
778	 2.77487559836452E-02 
779	 2.82401995412232E-02 
780	 0.02896887208654 
781	 2.98140512917664E-02 
782	 2.98403742435474E-02 
783	 2.89693030524716E-02 
784	 2.93257888802675E-02 
785	 3.01182049340073E-02 
786	 3.05222502966749E-02 
787	 3.00682036770948E-02 
788	 3.06168515944217E-02 
789	 3.16536398416256E-02 
790	 3.27058743905559E-02 
791	 3.34530031095312E-02 
792	 3.32174916967714E-02 
793	 3.27748498221385E-02 
794	 3.28800374735993E-02 
795	 3.40363072850958E-02 
796	 3.42007366330365E-02 
797	 3.42684756208232E-02 
798	 3.52363291751902E-02 
799	 3.51402053081921E-02 
800	 3.57205526196554E-02 
801	 3.65689648309044E-02 
802	 3.63080558400103E-02 
803	 3.65277707794613E-02 
804	 0.036852265736883 
805	 3.68235581356789E-02 
806	 3.61254515168819E-02 
807	 3.58360198082099E-02 
808	 3.60582425051042E-02 
809	 3.64119807425297E-02 
810	 3.57022137913097E-02 
811	 3.51203528379206E-02 
812	 3.52029659376749E-02 
813	 3.56786577821314E-02 
814	 3.29269430702409E-02 
815	 3.16545291912557E-02 
816	 3.23291495715268E-02 
817	 3.14073339948833E-02 
818	 3.25740332996544E-02 
819	 3.21744345303258E-02 
820	 0.030086746672407 
821	 3.06364476675125E-02 
822	 2.89715847579494E-02 
823	 2.75934903494236E-02 
824	 2.79449674090392E-02 
825	 2.45984326383735E-02 
826	 2.31697416108619E-02 
827	 2.30290734512293E-02 
828	 2.14671689745085E-02 
829	 1.88799933702239E-02 
830	 1.81030749366833E-02 
831	 1.80922545792388E-02 
832	 1.57267896018809E-02 
833	 1.55046880204778E-02 
834	 1.62192215583724E-02 
835	 1.64352231279761E-02 
836	 1.53592533038553E-02 
837	 1.44294549883877E-02 
838	 1.40356193745147E-02 
839	 1.40544662632223E-02 
840	 1.36703745805839E-02 
841	 1.43382708804383E-02 
842	 1.48708093072273E-02 
843	 1.39571269826409E-02 
844	 1.41763826120387E-02 
845	 1.43832750629127E-02 
846	 0.014026431854967 
847	 1.32238526777133E-02 
848	 1.34243765430131E-02 
849	 1.42095713983171E-02 
850	 1.44544167549371E-02 
851	 1.26853841802978E-02 
852	 1.19966398706481E-02 
853	 1.24059631372987E-02 
854	 1.31206114885558E-02 
855	 1.33016133416554E-02 
856	 1.29978500761766E-02 
857	 1.24028427541699E-02 
858	 1.18521108868079E-02 
859	 1.19952675641887E-02 
860	 1.19682268563601E-02 
861	 1.17861118401927E-02 
862	 1.18705796579522E-02 
863	 1.20874936943532E-02 
864	 1.21348266029147E-02 
865	 1.18766405271472E-02 
866	 1.14451692674223E-02 
867	 1.17150594378095E-02 
868	 1.21566731434986E-02 
869	 1.20785466043611E-02 
870	 1.09213220400255E-02 
871	 9.89283224956463E-03 
872	 0.010131021148204 
873	 1.13795368627629E-02 
874	 1.03403899380685E-02 
875	 1.13311075845861E-02 
876	 1.22151964146307E-02 
877	 1.02728517429227E-02 
878	 8.02728353653534E-03 
879	 8.25715346723472E-03 
880	 0.010025994539551 
881	 1.06610144436407E-02 
882	 9.94711406567729E-03 
883	 8.98920769972813E-03 
884	 8.26059582232117E-03 
885	 7.79881944211358E-03 
886	 9.19874850946294E-03 
887	 9.85334372856124E-03 
888	 9.09447250235974E-03 
889	 8.99638764316581E-03 
890	 9.80208250021873E-03 
891	 1.04787895059844E-02 
892	 1.01337770569686E-02 
893	 8.82083816033056E-03 
894	 0.006595619195295 
895	 6.5710784712613E-03 
896	 9.85852882071808E-03 
897	 6.38426748957617E-03 
898	 6.2665939345201E-03 
899	 7.5515841684832E-03 
900	 6.12072203248259E-03 
901	 8.38242630539029E-03 
902	 8.18208355451179E-03 
903	 5.76382606351143E-03 
904	 3.9770372828936E-03 
905	 6.55234292676261E-03 
906	 5.61627738328936E-03 
907	 2.88304520428919E-03 
908	 6.43707625022464E-03 
909	 4.75308966377219E-03 
910	 6.27066105819412E-03 
911	 9.48618605385959E-03 
912	 3.88128579970244E-03 
913	 3.38275537771405E-03 
914	 4.09474055256423E-03 
915	 4.2075580255642E-03 
916	 6.44805942779823E-03 
917	 6.08115319077614E-03 
918	 3.8077622159473E-03 
919	 2.25363815563527E-03 
920	 5.10600344816668E-03 
921	 5.43185413653924E-03 
922	 1.84258988955096E-03 
923	-2.65201894789982E-03 
924	 2.77429256203293E-03 
925	 7.27986963359956E-03 
926	 8.64798343127331E-03 
927	 9.18066783336819E-03 
928	 1.89942753669322E-02 
929	 1.00701973070594E-02 
930	 2.55161941129947E-03 
931	 4.31373552921198E-02 
932	-4.35950758695642E-03 
933	-1.49290419555047E-02 
934	 0.040979240262211 
935	 4.80609264451276E-02 
936	-0.100863126421857 
937	-9.67474056102432E-02 
938	-1.09264518022945E-02 
939	 6.33738052351589E-03 
940	-1.10918783402936E-02 
941	-1.78133641877218E-02 
942	-4.92945271969633E-03 
943	 1.37077226625762E-02 
944	 1.14201616498786E-02 
945	 4.27297157256748E-02 
946	 6.83906982908119E-02 
947	 1.21444097233825E-02 
948	-5.12401049598924E-02 
949	 5.30610968150149E-03 
950	 9.15102268681541E-02 
951	 0.046589451055484 
952	-1.84443731004347E-03 
953	-3.5308553164787E-03 
954	 9.17838871178352E-03 
955	-2.31337914238304E-02 
956	-1.06293069410544E-02 
957	 1.95484053249819E-02 
958	 3.02546151169653E-02 
959	-4.59481783870267E-03 
960	-1.54020922043391E-02 
961	-6.59977065367924E-03 
962	-4.6254721005147E-04 
963	-1.42597155330374E-02 
964	 3.46987591812954E-04 
965	 7.70172921250395E-03 
966	 2.31412667707783E-03 
967	-8.36980440737296E-04 
968	-4.39322332057622E-03 
969	-9.04935563592496E-03 
970	-8.41498915049584E-03 
971	 5.26705849637739E-03 
972	 4.0773956419216E-03 
973	 1.95401301870477E-03 
974	 3.17326267048563E-03 
975	-8.32687727859351E-04 
976	-2.65130090742804E-03 
977	-6.61013851924473E-03 
978	-4.42375378905683E-03 
979	 1.45587408830604E-02 
980	 4.87699420799521E-03 
981	-3.96127588412219E-03 
982	-3.70179501267637E-03 
983	-5.95466556572754E-03 
984	-1.17474897717431E-03 
985	 6.38317962998595E-03 
986	 9.59312774809543E-03 
987	 3.06377872560867E-03 
988	-5.00107618342469E-03 
989	-2.81480662173838E-03 
990	 5.16499452261243E-03 
991	 4.5081596206495E-03 
992	-5.13135398911758E-03 
993	-6.42782000486603E-03 
994	 4.05786932441593E-03 
995	 1.40944862276682E-02 
996	-4.0951092852609E-03 
997	-1.35104063947251E-02 
998	-5.60559258768811E-03 
999	 4.07888985996742E-03 
1000	 8.43859069020369E-03 
1001	-1.89960195730131E-03 
1002	-1.9003475555991E-03 
1003	-2.20280869121924E-03 
1004	-1.94788723165661E-04 
1005	 3.65373218411604E-04 
1006	 3.82991135437413E-04 
1007	-7.50130779244634E-04 
1008	-2.71715452361972E-03 
1009	-2.6453008042134E-03 
1010	-1.41369115515327E-03 
1011	 6.2028552246419E-04 
1012	 1.48498605596339E-03 
1013	 4.1976369372528E-03 
1014	 4.66883387377976E-03 
1015	 1.24542792542633E-03 
1016	 1.92744773612107E-03 
1017	 5.07196663653165E-03 
1018	 5.27779114110817E-03 
1019	 7.08792964900815E-03 
1020	 6.26575023294778E-03 
1021	 1.44557113372717E-03 
1022	-6.24129118803753E-04 
1023	-4.65344988045213E-03 
1024	-8.62043727466396E-03 
1025	-1.04429144909855E-02 
1026	-9.50282228722117E-03 
1027	-7.63687907639643E-03 
1028	-1.94445841685437E-03 
1029	 7.54214671856218E-04 
1030	 3.83726898037861E-03 
1031	 3.9324952641704E-03 
1032	 1.55087687716487E-03 
1033	 9.6231141543235E-04 
1034	-7.35547252229981E-04 
1035	-1.35586710399936E-03 
1036	-7.4477726263574E-04 
1037	-7.22132885223332E-05 
1038	-1.51131447905554E-04 
1039	 7.50928627880911E-04 
1040	 5.77065262948362E-03 
1041	 7.78927968845694E-03 
1042	 8.08273738924537E-03 
1043	 7.99913207979061E-03 
1044	 6.82038533735326E-03 
1045	 1.75801182546399E-03 
1046	-1.26849078866682E-04 
1047	-2.00259021353489E-03 
1048	-1.28141169106919E-03 
1049	 3.03330813155093E-03 
1050	 3.97331320342552E-03 
1051	 6.54806447527671E-03 
1052	 0.006212111308532 
1053	-3.559515143075E-04 
1054	-2.22640886536248E-03 
1055	-3.23367577224745E-03 
1056	-2.98864433204337E-03 
1057	-1.16374398067924E-03 
1058	 4.78778676437407E-03 
1059	 5.97316452699892E-03 
1060	 7.10525861331798E-03 
1061	 5.83029657976995E-03 
1062	-3.80255731169581E-04 
1063	-1.37902457815391E-03 
1064	-1.3352631411002E-03 
1065	-9.60483334562934E-04 
1066	 2.33214016463829E-03 
1067	 4.48398036193656E-03 
1068	 6.33140590998461E-03 
1069	 7.59463715590026E-03 
1070	 1.06996042216706E-02 
1071	 1.08871847286025E-02 
1072	 1.00158848582061E-02 
1073	 4.81110783139138E-03 
1074	 3.68262660577834E-03 
1075	 2.21008373476987E-03 
1076	 1.27495230699647E-03 
1077	 1.60841997141448E-03 
1078	 3.09700189629153E-03 
1079	 5.79920810092032E-03 
1080	 0.00582708571672 
1081	 8.0276637589963E-03 
1082	 6.87088450751938E-03 
1083	-3.93041622526979E-03 
1084	-4.38956044699641E-03 
1085	 3.79503030669472E-03 
1086	 5.78537773414798E-03 
1087	 1.22223893424232E-02 
1088	 1.39526079807327E-02 
1089	 8.61394146173088E-03 
1090	-1.32056473155482E-03 
1091	-1.35163696670099E-03 
1092	 5.10477672586729E-03 
1093	 4.78510763653823E-03 
1094	 6.76666706089514E-03 
1095	 6.63334286947364E-03 
1096	-3.39126594949576E-03 
1097	-3.56840982270586E-03 
1098	 8.01231370217279E-03 
1099	 1.03958587504245E-02 
1100	 9.8201505289979E-03 
1101	 1.14523429139766E-02 
1102	 8.30779064587932E-03 
1103	 6.8090601276072E-03 
1104	 1.00744887532591E-02 
1105	 1.26625796713004E-02 
1106	 1.77298571341907E-03 
1107	-2.97644967141071E-03 
1108	 3.17055015746844E-03 
1109	 1.19956542775404E-02 
1110	 1.47253648389245E-02 
1111	 2.88038423578696E-02 
1112	 2.60685420085717E-02 
1113	-1.29786769762234E-02 
1114	-2.12551978786772E-02 
1115	-7.37219146216969E-03 
1116	-6.85450793164228E-03 
1117	 1.46906235963812E-02 
1118	 2.29760977432933E-02 
1119	-8.46678067161873E-03 
1120	-3.01340118770886E-02 
1121	-5.60854822249051E-02 
1122	-7.52574552908555E-02 
1123	-8.53050570413135E-02 
1124	-3.63960628845198E-02 
1125	 0.103866123732111 
1126	-2.28284074384432E-02 
1127	-0.109182501959507 
1128	-3.49791041029621E-02 
1129	-0.107297882022954 
1130	-0.258787317597011 
1131	-0.189916382115907 
1132	-6.87886164568328E-02 
1133	-0.100220780088961 
1134	-5.64281832273993E-02 
1135	-1.66266230346764E-02 
1136	-0.109426895984524 
1137	-0.104820876293139 
1138	-1.93844695531622E-03 
1139	 3.93404556644321E-02 
1140	-2.10295455935494E-02 
1141	-4.05228030737909E-02 
1142	-4.74737297782773E-02 
1143	-9.43448633613458E-02 
1144	-0.105852717421694 
1145	-8.47185031284287E-02 
1146	-8.19303194523408E-02 
1147	-0.072987822623291 
1148	-7.52248867684221E-02 
1149	-0.07117171835767 
1150	-4.66256644137175E-02 
1151	-8.3684464885216E-03 
1152	-4.51755252694477E-03 
1153	-4.09412715419152E-03 
1154	 1.54523580094816E-03 
1155	-2.02719382417671E-03 
1156	-1.25464620282345E-02 
1157	 1.16402900525452E-02 
1158	 3.12819405689018E-02 
1159	 1.74512214036552E-02 
1160	 8.96698730159221E-03 
1161	 2.89409111529677E-03 
1162	-1.29695405953112E-02 
1163	-1.84918420931073E-02 
1164	-9.90017804426282E-03 
1165	-6.73763208453445E-03 
1166	-4.74176040424302E-03 
1167	 1.49908688600438E-03 
1168	 3.13451848634642E-03 
1169	 5.86150036438967E-04 
1170	-8.86871738595665E-04 
1171	-1.32272255412282E-03 
1172	-8.34459687381102E-04 
1173	-1.13056412048713E-03 
1174	-1.04699762122521E-03 
1175	-1.2155052549704E-03 
1176	-2.86913592318784E-03 
1177	-3.52017052483752E-03 
1178	-3.10636971971766E-03 
1179	-5.22034895878766E-03 
1180	-1.03636175104866E-02 
1181	-7.19912071559729E-03 
1182	-8.29358707603203E-04 
1183	-1.73192794227191E-03 
1184	 1.18684080971378E-03 
1185	 3.32889465604552E-03 
1186	-2.12353128008741E-03 
1187	-1.44044117645521E-03 
1188	 5.55671299206072E-03 
1189	 6.04586569129024E-03 
1190	 5.86491992043669E-03 
1191	 9.39127179882263E-03 
1192	 8.19930956426113E-03 
1193	 2.14336211483223E-03 
1194	 2.27452908749933E-04 
1195	 2.33117948950858E-03 
1196	-3.91739625364413E-05 
1197	 2.31923607212035E-03 
1198	 2.11199635691159E-03 
1199	-5.18690547471368E-04 
1200	 1.44177768039369E-03 
1201	-2.81429919361171E-04 
1202	 1.1748853576028E-03 
1203	 3.00633218551417E-03 
1204	 1.46897467600342E-04 
1205	 2.74409194238614E-03 
1206	 4.6609972384767E-03 
1207	 3.69895575440306E-03 
1208	 3.77544768368755E-03 
1209	 2.33882430910433E-03 
1210	 1.51757303852314E-03 
1211	 1.44524957101303E-03 
1212	 1.45653079971036E-03 
1213	 3.42958559696829E-03 
1214	 2.66198851673397E-03 
1215	 5.2304026082629E-04 
1216	-3.24902686000107E-03 
1217	-2.74818832028175E-03 
1218	-2.43981916561056E-04 
1219	 2.67338486158122E-03 
1220	 5.9305674257368E-03 
1221	 5.45748169707363E-03 
1222	 1.85352648437067E-03 
1223	-6.75378410553835E-04 
1224	 4.42263025253963E-04 
1225	 2.19154333015064E-03 
1226	 8.78577672646624E-04 
1227	-4.13695006925401E-05 
1228	-1.54891911647237E-04 
1229	 6.88223481545335E-05 
1230	-3.51037689414241E-04 
1231	 3.47688681878951E-04 
1232	 4.97662691970994E-03 
1233	 5.3408362769309E-03 
1234	 3.29210622826326E-03 
1235	 3.27739836376472E-03 
1236	 1.68273005067691E-03 
1237	 7.95411832132255E-04 
1238	 1.17323787227473E-03 
1239	 2.92050426270498E-03 
1240	 1.88534110387153E-03 
1241	-1.27498471329452E-03 
1242	-1.85052153821017E-03 
1243	 1.75504208600838E-03 
1244	 4.19070945719102E-03 
1245	 4.1122390894656E-03 
1246	 3.20123522506419E-03 
1247	 1.22262084929701E-03 
1248	 7.53929420168641E-04 
1249	 2.63852240629453E-03 
1250	 2.24650493812851E-03 
1251	 6.31442679171391E-05 
1252	-5.90714174875212E-04 
1253	-1.42100615199844E-03 
1254	-1.1525834870725E-03 
1255	 9.85612329750254E-04 
1256	 1.94742783906284E-03 
1257	 2.49842981507627E-03 
1258	 2.85673288606699E-03 
1259	 2.97593195151571E-03 
1260	 2.19002725225666E-03 
1261	-4.34398416861867E-04 
1262	-6.78980138382561E-04 
1263	-6.42567908708031E-04 
1264	 1.08378071397853E-03 
1265	 4.46070144041365E-03 
1266	 0.005477308524447 
1267	 3.11096145058627E-03 
1268	 0.003506771244088 
1269	 4.08028629933586E-03 
1270	 6.0766749936041E-04 
1271	 3.37132820352745E-04 
1272	 1.51887747166535E-03 
1273	-4.16150788162545E-05 
1274	-9.36051862372131E-04 
1275	 1.47721107231781E-03 
1276	 4.26588575133779E-03 
1277	 2.13832066097828E-03 
1278	 7.46605613539565E-04 
1279	 3.4254397101011E-03 
1280	 2.87091715098506E-03 
1281	 1.31307003187073E-03 
1282	 5.13375737097358E-04 
1283	 1.74833862990556E-03 
1284	 1.22485054575233E-03 
1285	 5.25566154021218E-04 
1286	 2.41149282416195E-03 
1287	 4.38549459076949E-03 
1288	 5.27078902024413E-03 
1289	 4.27689909529317E-03 
1290	 3.03590951072539E-03 
1291	 4.3273135385064E-03 
1292	 4.10979365251647E-03 
1293	 3.61380022732315E-03 
1294	 4.71394600434769E-03 
1295	 5.92335206544951E-03 
1296	 4.92235407769053E-03 
1297	 3.41578403168832E-03 
1298	 4.29092141081701E-03 
1299	 6.36091420576472E-03 
1300	 4.63609483075832E-03 
1301	-1.46859696755988E-03 
1302	-4.62780117546253E-03 
1303	-2.94281816288369E-03 
1304	 4.07170426950561E-04 
1305	 5.34520853918984E-03 
1306	 5.84867025157932E-03 
1307	 3.36959221284305E-03 
1308	 2.29663367801925E-03 
1309	-3.91153603739853E-03 
1310	-4.10253294192332E-03 
1311	 3.18807705988065E-03 
1312	 4.6649194844759E-03 
1313	 5.75694733718207E-03 
1314	 6.68674807072654E-03 
1315	 3.36286541107977E-03 
1316	 7.80294119017795E-04 
1317	-3.41086418699552E-03 
1318	-3.52238523605042E-03 
1319	 2.12080268421394E-03 
1320	 4.9321259552818E-03 
1321	 1.16788449174109E-02 
1322	 1.12252599703671E-02 
1323	 1.01900948874238E-02 
1324	 1.07492451210184E-02 
1325	 1.08347639064503E-02 
1326	 4.92665729078657E-03 
1327	 1.87687591974984E-03 
1328	-4.29630136591289E-03 
1329	-2.55472733514508E-02 
1330	-0.051911479570318 
1331	-5.47437063325432E-02 
1332	-2.24778547378609E-02 
1333	-3.0805796581695E-03 
1334	-2.44139830305709E-03 
1335	 4.58263612311553E-03 
1336	-4.06011625970995E-02 
1337	-4.90024173744401E-02 
1338	 2.08355865147366E-03 
1339	 1.38143839494574E-02 
1340	-0.01332293316185 
1341	-0.017297179871568 
1342	-1.01209545633494E-02 
1343	-2.04254996399717E-02 
1344	-3.32385709440224E-02 
1345	-3.57471653180314E-02 
1346	-1.56425410444484E-02 
1347	-6.40827523313441E-02 
1348	-0.324084320492181 
1349	-0.35488897128826 
1350	-4.79556849356713E-02 
1351	-5.33988499903264E-02 
1352	 0.14018023460248 
1353	 0.46950040381473 
1354	 0.460291401066531 
1355	-0.137182419837195 
1356	-0.208119167479237 
1357	-0.221369087492562 
1358	-0.240693788416372 
1359	-0.611392348619609 
1360	-5.31333746429714E-02 
1361	 0.522213971135485 
1362	 0.146682075479748 
1363	-8.73888735613159E-02 
1364	-0.279488516325801 
1365	-0.320386735844261 
1366	 1.02024551638431 
1367	 0.93701493041754 
1368	 0.743197304431739 
1369	-0.269440614418728 
1370	-0.785238268368444 
1371	-5.42042617835783 
1372	-4.15157348454637 
1373	-1.16746464568935 
1374	-1.03097283602629 
1375	-0.538582436674319 
1376	-0.780001733827472 
1377	-10.371528334155 
1378	 6.12530559309426 
1379	 3.00653551574444 
1380	 3.21070061693695 
1381	 48.3022974701535 
1382	-8.60355513323406 
1383	-5.24506529448231 
1384	-5.74363113343507 
1385	 21.7271869310492 
1386	 37.1035667548851 
1387	-2.71984178407726 
1388	-2.78362702557865 
1389	 3.04049957167703 
1390	 4.76153496460802 
1391	 10.2097594481858 
1392	-3.86734240784662 
1393	-1.28905820835648 
1394	-0.555294556462376 
1395	-0.600579199964136 
1396	-2.25510771011547 
1397	-4.76308042865382 
1398	-47.1225068373615 
1399	-5.76999066244226 
1400	 1.95064052452301 
1401	-1.44459740885749 
1402	 0.276646206689124 
1403	-1.3395215886772 
1404	-0.375176041733062 
1405	-0.130662668240455 
1406	-11.0037911926003 
1407	 3.71113172277613 
1408	 3.87463650209797 
1409	 4.43471373042241 
1410	-4.47407061698204 
1411	-8.48098610965828 
1412	-0.20732097320478 
1413	-1.23283418119376 
1414	-4.5680850338359 
1415	-4.37723695634995 
1416	 1.23580327725278 
1417	 0.640072235107715 
1418	 3.4844078271488 
1419	 1.19665053822227 
1420	 0.949072136007494 
1421	 1.78145590193683 
1422	 10.9113637113625 
1423	-4.25359719945565 
1424	-0.59965586438596 
1425	-0.655102331520429 
1426	-2.05008090049135 
1427	-1.14411962131819 
1428	-0.615188448729162 
1429	-0.57104464510718 
1430	-2.85520761798213E-02 
1431	 0.214583502584985 
1432	 2.92124751105764E-02 
1433	 5.22468822067189E-02 
1434	 0.260215628108232 
1435	 0.333440545784432 
1436	 0.271150006186246 
1437	 0.501774875608028 
1438	 1.67137664648414 
1439	 0.699751043125315 
1440	-1.86491435196954E-02 
1441	-0.641798328254272 
1442	-0.627708488923822 
1443	 0.439722781627441 
1444	 0.178121589367117 
1445	-0.472294291992746 
1446	-6.83035715234171E-02 
1447	-0.04889006304867 
1448	-0.577465897463583 
1449	-0.224889554983568 
1450	-0.478098716917913 
1451	-0.860909190794615 
1452	-0.798646300718583 
1453	-0.416464987295886 
1454	-0.14926863941917 
1455	-1.78925633172965E-03 
1456	 1.92035497097957E-02 
1457	 4.58783130406513E-02 
1458	 0.118448540503418 
1459	 0.169141092654816 
1460	 0.108429602961268 
1461	 2.00216270601763E-02 
1462	 0.11103667545655 
1463	 0.252301579942779 
1464	 0.194734070963217 
1465	 0.175868986549216 
1466	 0.17196823846909 
1467	-0.135697405149174 
1468	-0.243657862904287 
1469	-7.30782089594816E-02 
1470	-3.06475837528604E-02 
1471	-2.24069444600975E-02 
1472	-2.63182742440498E-02 
1473	 0.052673748710988 
1474	 7.29858631632932E-02 
1475	-0.120990163080492 
1476	-0.115644142418934 
1477	 2.68122508130198E-02 
1478	 4.61614796565456E-02 
1479	 9.50603836331252E-03 
1480	 1.89362819161887E-02 
1481	 7.00001960470585E-02 
1482	 2.79308162071012E-02 
1483	-0.112678815092245 
1484	-7.59736708156732E-02 
1485	 1.10348929929942E-02 
1486	-1.73737589136047E-02 
1487	-4.99435557307321E-02 
1488	-2.23901427292116E-02 
1489	-1.44459767050756E-02 
1490	-0.029131919649634 
1491	-4.39888130941894E-03 
1492	 2.41684539477757E-03 
1493	-4.93427837564799E-02 
1494	-5.21682170608038E-02 
1495	-1.14051132962941E-02 
1496	 1.22679883435301E-03 
1497	 1.85977687425104E-02 
1498	 2.20877253557652E-02 
1499	 2.7590172252445E-03 
1500	 2.5611584043089E-03 
1501	 1.79525102791448E-02 
1502	 9.58988957744904E-03 
1503	-8.70394147301642E-03 
1504	-1.39581527996151E-02 
1505	-2.89020637495869E-02 
1506	-0.036617838468167 
1507	-2.43450406204341E-02 
1508	-0.01610338730636 
1509	-2.01805253983561E-03 
1510	 9.1058750536269E-03 
1511	 8.25650849012754E-03 
1512	 9.82161659431284E-03 
1513	 5.09616673188249E-03 
1514	-3.0727080194219E-03 
1515	 1.72746130683853E-03 
1516	 2.49411549133654E-03 
1517	-5.06812279945645E-03 
1518	-1.68389388485659E-03 
1519	 1.12722192799095E-03 
1520	-1.96919971468956E-03 
1521	 1.3415775678769E-03 
1522	 1.76363078509077E-03 
1523	-1.16411396089665E-03 
1524	 1.39155971561988E-03 
1525	 4.74678092974783E-03 
1526	 3.68613741128749E-03 
1527	 2.1184387204311E-04 
1528	 2.18353966451923E-03 
1529	 4.44020720725341E-03 
1530	 4.70467553782267E-03 
1531	 7.17015189123056E-03 
1532	 0.005594982133689 
1533	 2.82621220933289E-03 
1534	-1.88061753936897E-03 
1535	-9.83531801316809E-03 
1536	-8.48736894759336E-03 
1537	-3.92333936365229E-03 
1538	-7.24608636228162E-03 
1539	-9.96783314974585E-03 
1540	-8.11957366004068E-03 
1541	-5.35208254330854E-03 
1542	-2.38127765927291E-03 
1543	 9.91275343362979E-04 
1544	 1.81706072705327E-03 
1545	 9.21652995259545E-05 
1546	 1.25141786404482E-03 
1547	 2.23489768868609E-04 
1548	-2.06055870836271E-03 
1549	-3.66328648119972E-04 
1550	 9.75939815034796E-04 
1551	-1.22559636712096E-03 
1552	-5.90126469285571E-03 
1553	-7.67802703563291E-03 
1554	-1.05445630861256E-02 
1555	-6.81059396608783E-03 
1556	 3.69593888785043E-03 
1557	 2.88219917047825E-04 
1558	-5.44807927286582E-03 
1559	-3.33810092958964E-03 
1560	-3.51891579153168E-03 
1561	-5.03794045437323E-03 
1562	-3.08343476683903E-03 
1563	 6.83302435003695E-05 
1564	-1.17555131632296E-03 
1565	-4.16180633801277E-03 
1566	-3.31808889658547E-03 
1567	 8.32164211298498E-04 
1568	 2.32693983691868E-03 
1569	-8.33548294900057E-04 
1570	-3.07057276743985E-03 
1571	-5.58201236639993E-03 
1572	-7.08487901982306E-03 
1573	-3.47883153860014E-03 
1574	-3.26690403909548E-04 
1575	 4.26422643959075E-04 
1576	-8.40531951519508E-04 
1577	-4.07005739103332E-03 
1578	-5.22594176227602E-03 
1579	-2.87904542885983E-03 
1580	-2.58068178469737E-03 
1581	-2.95961404530261E-03 
1582	-7.91799828085771E-04 
1583	-1.22283406457224E-03 
1584	-2.96331238811111E-03 
1585	-2.76721653836904E-03 
1586	-1.28031869896404E-03 
1587	-3.67409870235861E-04 
1588	-8.78420939548629E-04 
1589	-2.85761360616591E-03 
1590	-5.05580040105182E-04 
1591	 3.69437091144664E-03 
1592	 1.53361766551042E-03 
1593	-6.67209833866826E-04 
1594	-1.03007380890599E-03 
1595	-1.16051353460818E-05 
1596	-5.60338602776237E-04 
1597	-1.2742558572781E-03 
1598	 1.82109717203047E-03 
1599	 1.68675190568396E-03 
1600	 1.71490139255023E-03 
1601	 4.13545175401098E-03 
1602	 7.01694967772741E-03 
1603	 4.5627246758651E-03 
1604	-3.30307281417148E-03 
1605	-2.66631662260217E-03 
1606	-3.56311088507691E-03 
1607	-7.80366286804805E-03 
1608	-3.00225333935911E-03 
1609	 9.95494949363515E-04 
1610	-4.58866522047885E-04 
1611	-1.68973759058065E-03 
1612	-2.80129718676107E-03 
1613	-4.19453763767488E-03 
1614	-1.4294348911991E-03 
1615	 6.51008529694255E-03 
1616	 9.59846156332106E-03 
1617	 3.59954549798221E-03 
1618	 2.31974336661579E-04 
1619	 2.01266065169441E-03 
1620	 3.72712290925743E-03 
1621	 6.56749919927747E-03 
1622	 7.11490013125754E-03 
1623	 1.72125916184872E-03 
1624	 2.05909164011835E-03 
1625	 5.45352533079098E-03 
1626	-2.21540624718843E-03 
1627	-5.41988436980327E-03 
1628	-2.14008670924925E-03 
1629	-3.82234849800865E-03 
1630	-1.15922255986595E-03 
1631	 3.56815952202127E-04 
1632	-7.21117644055424E-03 
1633	-1.09220502528794E-02 
1634	-4.42219594826353E-03 
1635	 8.20474499143522E-04 
1636	-3.46746520685529E-03 
1637	-4.57954097264319E-03 
1638	 3.84015774441526E-04 
1639	 3.06239551047192E-03 
1640	 8.70912031855619E-03 
1641	 1.22554867279396E-02 
1642	 9.06066098886771E-03 
1643	 5.10778407460551E-03 
1644	 1.96761713533205E-03 
1645	 4.46908540249017E-03 
1646	 6.7975652634833E-03 
1647	 1.86363833622611E-03 
1648	-1.17625088521939E-03 
1649	-0.001904741085532 
1650	-5.76169726974579E-03 
1651	-5.23577559533463E-03 
1652	 1.23894847846613E-03 
1653	 2.99159521351478E-03 
1654	 1.68172303553408E-03 
1655	-4.95233388773804E-03 
1656	-5.77891395551309E-03 
1657	-5.81465897758505E-03 
1658	-5.79060412377307E-03 
1659	-1.84011132588131E-04 
1660	-6.23862643241287E-04 
1661	-4.96397616081685E-03 
1662	-6.09161821470485E-03 
1663	-7.16223629928517E-03 
1664	-6.39228147565899E-03 
1665	-5.67188728728167E-03 
1666	-6.55187098540546E-03 
1667	-7.42940743970288E-03 
1668	-5.70439398761802E-03 
1669	-2.93000285819162E-03 
1670	 2.06854608464772E-03 
1671	 3.17541422837939E-03 
1672	 1.14904239021261E-03 
1673	 2.32907185122908E-03 
1674	 2.55882099336231E-03 
1675	-1.43184355234214E-03 
1676	-4.30067948028357E-03 
1677	-5.20564963996956E-04 
1678	 2.48820368469715E-03 
1679	 1.72744800114007E-04 
1680	 5.79312434413348E-04 
1681	 7.21615574001156E-04 
1682	-5.52917280195355E-03 
1683	-1.37646446187674E-02 
1684	-1.59838132573406E-02 
1685	-1.44922940839062E-02 
1686	-1.44270621236574E-02 
1687	-0.011938093007765 
1688	-1.13198795582471E-02 
1689	-1.26858699124413E-02 
1690	-1.03923688152837E-02 
1691	-8.08868077720486E-03 
1692	-7.09979439078005E-03 
1693	-8.84296516786003E-03 
1694	-9.78768076280747E-03 
1695	-6.02112743718674E-03 
1696	-3.25058817545954E-03 
1697	-1.37054430033548E-03 
1698	-4.07055931563899E-03 
1699	-1.18222546953613E-02 
1700	-1.02121914698647E-02 
1701	-6.88672964810265E-03 
1702	-1.02701528204477E-02 
1703	-6.54679391812683E-03 
1704	 1.17159045972042E-03 
1705	 2.99752686607368E-04 
1706	-8.56599380999304E-03 
1707	-9.80485335204652E-03 
1708	-6.83088745278254E-03 
1709	-1.17276626565228E-02 
1710	-5.59173397893424E-03 
1711	 2.03053914087485E-03 
1712	-7.83285437415537E-03 
1713	-0.016117900169382 
1714	-9.26690467602608E-03 
1715	 1.19735239079035E-02 
1716	 1.18204352758605E-02 
1717	 5.8495575954929E-03 
1718	 7.39701836588454E-04 
1719	-5.70319651127334E-03 
1720	-1.17172762212656E-02 
1721	-8.36364340213782E-03 
1722	-7.78098063423193E-03 
1723	-1.60127909101476E-02 
1724	-6.45634362251743E-03 
1725	 1.26953044415781E-02 
1726	 6.52915861508539E-03 
1727	 2.83187306466507E-03 
1728	 8.80924477435313E-03 
1729	-5.99219357304488E-03 
1730	-0.010275390267484 
1731	 1.22486022537684E-02 
1732	 0.020235626797346 
1733	 1.15514182852787E-02 
1734	 6.24223671654134E-03 
1735	-1.11246343312504E-02 
1736	-3.37511959014678E-02 
1737	-0.021351478795439 
1738	 6.56962782510323E-03 
1739	 7.31217732367966E-03 
1740	 1.73848433936346E-04 
1741	 4.77987022508212E-03 
1742	-8.62598622932992E-04 
1743	-1.24815588811538E-02 
1744	 4.05168561823255E-04 
1745	 1.26247502514802E-02 
1746	 6.66597924430886E-03 
1747	 8.2837926739761E-04 
1748	-2.22717034220287E-02 
1749	-3.09744688916664E-02 
1750	-0.028491178192619 
1751	-2.16024789519806E-02 
1752	-6.95194091708652E-03 
1753	 1.23593654893527E-03 
1754	 1.12353898940782E-02 
1755	 1.22381044624996E-02 
1756	 1.55664870833695E-02 
1757	 2.58185238368872E-02 
1758	 5.35764286921925E-03 
1759	-5.65923564727194E-03 
1760	-3.56971939500216E-03 
1761	-6.17520389453416E-03 
1762	 8.26117103869875E-03 
1763	 2.04371932369033E-02 
1764	 1.42238632136405E-02 
1765	-4.74676497686261E-04 
1766	-0.012756822018217 
1767	 8.14218978011004E-03 
1768	 2.81181518739935E-02 
1769	 2.27462443860905E-02 
1770	 9.14622751334507E-03 
1771	-2.55465814820387E-02 
1772	-0.041313414387236 
1773	-2.24458796890127E-02 
1774	 2.71416193493909E-02 
1775	 5.58034827019975E-02 
1776	 5.24814555579769E-02 
1777	-4.34848422485601E-03 
1778	-5.93989632705982E-03 
1779	 8.60447742030062E-03 
1780	 0.022609087909315 
1781	 0.140996197528873 
1782	 0.142513762748247 
1783	-2.01264706296333E-02 
1784	-4.33864229796109E-02 
1785	-4.37222142810589E-02 
1786	-3.96718269447038E-02 
1787	 9.27322002745327E-02 
1788	 0.128595590198245 
1789	 0.100980954163149 
1790	 0.067969933137303 
1791	-1.4033312025445E-03 
1792	-4.70947616545697E-02 
1793	-0.121239596580382 
1794	 2.38222935830251E-02 
1795	 0.22757770238941 
1796	 0.662563733146686 
1797	 2.36171388338937 
1798	 0.185727682353124 
1799	-0.679915753282128 
1800	-0.932201653788314 
1801	-0.979571622299343 
1802	-0.309714490257796 
1803	-0.246264347461555 
1804	-0.89949309196905 
1805	-0.922480015304232 
1806	-1.1035083018151 
1807	-1.37215987624747 
1808	 0.359212304768547 
1809	-7.74015576577885 
1810	 4.30077686340814 
1811	 9.50806443125548 
1812	-2.90051231616479 
1813	-1.09716310090188 
1814	-8.84381971884203E-02 
1815	 2.54747195653297E-02 
1816	-0.230758439237793 
1817	-0.561633714360564 
1818	 0.231078611425913 
1819	-0.57181813967993 
1820	 9.62324244335781 
1821	 0.573602139363873 
1822	 0.431093807082471 
1823	-8.45876646357421E-02 
1824	-0.554208355205306 
1825	 1.23865100277847 
1826	 1.13177658973324 
1827	-9.16376433911953 
1828	-1.79575513421214 
1829	-0.71256821409316 
1830	-0.680749941928924 
1831	-1.19456923303851 
1832	-1.37706322066003 
1833	-1.15885586668936 
1834	-1.07624791745279 
1835	-0.450030294982423 
1836	-0.444638116332801 
1837	-2.11708556666163 
1838	-1.41460144278219 
1839	-0.309390568770192 
1840	-0.389506993743164 
1841	-0.242972446287866 
1842	 0.106022117040365 
1843	 1.83612118652947E-02 
1844	-2.29165255935167 
1845	-5.40504371145666 
1846	-3.49706490654674 
1847	-3.14554811868875 
1848	-2.01465606584892 
1849	-0.698933530356392 
1850	-0.500237196455028 
1851	-0.773091719553527 
1852	-0.54676899546026 
1853	 2.08900242252969 
1854	 1.49749885614335 
1855	 10.8374837399532 
1856	 13.2513281943837 
1857	 6.47887619180149 
1858	 4.83367739604482 
1859	 2.45714941095182 
1860	 2.14976161348776 
1861	-2.57831818645893 
1862	-0.26753531504392 
1863	-0.605862865111884 
1864	-0.917323076114338 
1865	-0.83469411582078 
1866	-0.89590260920691 
1867	-0.813998507423119 
1868	-0.193414100860932 
1869	-0.175735521722225 
1870	-0.981734142908994 
1871	-2.50741393992164 
1872	-3.06340366825049 
1873	 4.13075926845045 
1874	 3.21687334278263 
1875	 0.662974215513466 
1876	 0.494335768821215 
1877	 0.683007176678094 
1878	 0.549058860887193 
1879	 0.383081627448253 
1880	 0.530596172760838 
1881	 1.26293794589865 
1882	-7.01995402841248 
1883	-1.79467502376669 
1884	-2.01362432868804 
1885	-1.86097586456132 
1886	 2.74025668750871 
1887	 2.11057871017064 
1888	-5.52827328798421 
1889	-7.05947162439791 
1890	 3.87757753470657 
1891	 4.0668120102783 
1892	-26.4627106088602 
1893	 0.298599116063464 
1894	 0.263407307358066 
1895	 0.358341257326578 
1896	 1.16872184570998 
1897	 4.22974910758353 
1898	-8.58805753157658 
1899	-3.07034884611909 
1900	-1.7979607354653 
1901	-0.683075431688484 
1902	-0.135321483653473 
1903	 0.608561734121474 
1904	 1.19883172295769 
1905	 0.688652351130611 
1906	 1.01136720991755 
1907	-2.13558263369971 
1908	 2.05155133010773 
1909	 3.05863444340908 
1910	 0.797974806944068 
1911	 2.58820900238049 
1912	-7.79802078672858 
1913	-5.19494977449848 
1914	-11.2600725747119 
1915	-6.07681873932607 
1916	-4.21763062115795 
1917	-6.0129846338739 
1918	-6.01702936144065 
1919	-1.46751246174409 
1920	-0.698576715166679 
1921	-0.592575806253619 
1922	-0.538107523082685 
1923	-0.496930947502717 
1924	-0.436518226069007 
1925	-0.824813436526767 
1926	-0.989976384740491 
1927	-1.29806081695373 
1928	-112.119917076422 
1929	-1.40459328760295 
1930	-1.12968338694781 
1931	 5.15124746523359 
1932	 2.03039887398054 
1933	 1.45078219665474 
1934	 2.01600327403064 
1935	 1.74720825011851 
1936	 0.597727331458234 
1937	 0.773093811387027 
1938	 1.17748551811966 
1939	 9.28759584936181 
1940	-0.236029260111901 
1941	-0.298905566248859 
1942	-0.289645494608209 
1943	-0.292012007702687 
1944	-0.357893189989329 
1945	-0.721520709601977 
1946	-0.755015298942074 
1947	-0.319421230731415 
1948	-0.12706095282548 
1949	 2.00643564166594E-02 
1950	-0.159274989898117 
1951	 1.56734917853097 
1952	 3.26547267556261E-02 
1953	-0.157409738129144 
1954	-7.94094506965006E-02 
1955	-0.343198405242191 
1956	-0.230211948943644 
1957	-1.70599704934937 
1958	-1.84172524529088 
1959	-0.866978662782213 
1960	-0.789189073226616 
1961	-1.10114713514515 
1962	 2.82521451194073E-02 
1963	-0.176406762071209 
1964	-1.58336125787279 
1965	-0.794754848523232 
1966	-0.690934660737817 
1967	-0.707577559478893 
1968	-0.497827350030928 
1969	-0.196358897417009 
1970	 3.30190424367067E-02 
1971	 4.21364535177838E-02 
1972	-9.19900347116509E-02 
1973	-0.183545802852529 
1974	-0.016392289810066 
1975	-6.38946653601229E-02 
1976	-0.225508699455949 
1977	 7.99740448118005E-02 
1978	 7.91115044941822E-02 
1979	 0.110892017196697 
1980	 0.192516152281876 
1981	 0.501988058160604 
1982	 0.378877380549133 
1983	 0.171624508467921 
1984	 1.87243515837955E-02 
1985	-0.165157563549321 
1986	-0.11674407241128 
1987	-4.73094484869075E-02 
1988	-4.28233964530327E-02 
1989	 5.49953883991164E-02 
1990	 0.101497665661309 
1991	 4.38221112461193E-02 
1992	 1.50206549059582E-02 
1993	-0.165367560922725 
1994	-0.246671742045982 
1995	-0.345019355131456 
1996	-0.387066725279466 
1997	-0.393744512030752 
1998	-2.13061311350884E-02 
1999	 5.73151259633191E-02 
2000	 9.39094466558958E-02 
2001	 0.250319017625312 
2002	 0.115112881547275 
2003	 5.67997088597416E-02 
2004	 2.2075155116401E-03 
2005	-0.15880384109082 
2006	-0.24233147890305 
2007	-0.289159460700377 
2008	-0.312249353572697 
2009	-0.299072873420533 
2010	-4.11850775211889E-02 
2011	-0.13670682677677 
2012	-0.504602978980182 
2013	-0.89443971713473 
2014	-1.04510779595947 
2015	-1.02065230669792 
2016	-0.730624883055906 
2017	-0.239981373212391 
2018	-0.144079064227287 
2019	-0.269933607467004 
2020	-0.151144061385831 
2021	-0.116437475596536 
2022	-0.154136187688638 
2023	-8.01889461617033E-02 
2024	-0.059010982174991 
2025	-0.163058639106472 
2026	-0.171899942148264 
2027	-0.131469949982809 
2028	-7.19095642325019E-02 
2029	-2.40539833723616E-02 
2030	-3.92802399356085E-03 
2031	-4.06513898657497E-02 
2032	-4.19143434195763E-02 
2033	-4.20801519638258E-02 
2034	-4.67063994328342E-02 
2035	-2.83854252416068E-02 
2036	-1.87139834706318E-02 
2037	 1.90206584866974E-03 
2038	 8.43666561042177E-03 
2039	-6.33293644625857E-03 
2040	-2.02891304347732E-02 
2041	-0.050192617899651 
2042	-0.144574602048173 
2043	-0.173991161579793 
2044	-0.188512411575598 
2045	-0.186961131638388 
2046	-0.100994916214087 
2047	-3.96478273072317E-02 
2048	-4.26151562212173E-02 
2049	-2.40146092963816E-03 
2050	-2.32077739156541E-02 
2051	-0.117455182549355 
2052	-0.126151470483019 
2053	-0.160167805856337 
2054	-0.201598528365682 
2055	-0.18930438163749 
2056	-0.186183117261691 
2057	-0.189495742186644 
2058	-0.15126047927157 
2059	-5.13320974436497E-02 
2060	-3.03937029764024E-02 
2061	-2.14454788800331E-02 
2062	-8.2361406905213E-03 
2063	-6.34007216850566E-03 
2064	-2.68608449309385E-02 
2065	-1.87149264476049E-02 
2066	 0.0245643956997 
2067	 6.60206664375678E-03 
2068	-3.67035402462044E-02 
2069	-6.14954949680948E-02 
2070	-9.44486182413111E-02 
2071	-5.37023216107116E-02 
2072	-2.00228941314113E-03 
2073	 1.53954297615062E-02 
2074	 0.068765481079391 
2075	 7.71540748728492E-02 
2076	 2.54412928752536E-02 
2077	 5.58602049326117E-03 
2078	-1.66080869855336E-02 
2079	-3.47430434908277E-02 
2080	-4.01387705705322E-02 
2081	-5.67644891287147E-02 
2082	-0.099100771595806 
2083	-0.103929470818075 
2084	-0.12295680281284 
2085	-0.141333153967361 
2086	-0.134166182221779 
2087	-0.10831268648042 
2088	-8.55340884030369E-02 
2089	-8.11760820620177E-02 
2090	-5.29103776244154E-02 
2091	-6.44626817216016E-03 
2092	 5.85491997705387E-03 
2093	 9.77821282797481E-03 
2094	 5.94605730728367E-03 
2095	-3.98388002598844E-02 
2096	-6.41789253233802E-02 
2097	-6.61009390950853E-02 
2098	-5.82982979052281E-02 
2099	-4.29539486872002E-02 
2100	-2.75265480997004E-02 
2101	-1.53350596570014E-02 
2102	-4.95885773258551E-02 
2103	-0.043464420838861 
2104	-7.04418181271484E-03 
2105	-2.26915732955638E-05 
2106	 1.11424180063697E-02 
2107	 2.55718646217433E-02 
2108	 2.98081890544052E-02 
2109	 1.13781631571635E-02 
2110	 9.23638425494427E-03 
2111	 6.00692231051933E-03 
2112	-4.97883817558748E-02 
2113	-6.36664468399993E-02 
2114	-3.02879674907537E-02 
2115	-2.50947879191284E-02 
2116	-2.72034987411969E-02 
2117	-1.72994649085795E-02 
2118	-4.57338975525896E-03 
2119	-2.06709058202803E-03 
2120	 1.06608075881302E-04 
2121	 5.39471433882249E-03 
2122	-1.73946705973944E-02 
2123	-2.26450866952968E-02 
2124	 8.62977200255049E-04 
2125	 2.94476571791032E-02 
2126	 3.93179550456655E-02 
2127	 3.93505183013423E-02 
2128	 0.044401395105859 
2129	 9.87976257435689E-03 
2130	-1.24629655770726E-02 
2131	 4.37530073781448E-03 
2132	-1.13468817728969E-02 
2133	-4.20119141067107E-02 
2134	-6.10203445904555E-02 
2135	-9.26371665339711E-02 
2136	-9.92141092269761E-02 
2137	-8.15627244556439E-02 
2138	-7.42473484777861E-02 
2139	-5.85648115238754E-02 
2140	-4.04447549979341E-02 
2141	-0.026066377389271 
2142	-1.33908278824418E-02 
2143	 1.60491244147923E-02 
2144	 1.54372175973627E-02 
2145	-6.79064216331379E-03 
2146	-4.75647422303261E-03 
2147	 2.47388874196247E-02 
2148	 5.33575867828042E-02 
2149	 6.30061745129974E-02 
2150	 5.29644697653423E-02 
2151	 0.018053683376634 
2152	-1.76592867886208E-02 
2153	-1.53012894144484E-02 
2154	-2.12688609419941E-02 
2155	-0.05836253633374 
2156	-6.32082926882368E-02 
2157	-6.83209811247276E-02 
2158	-8.03947250752223E-02 
2159	-7.19521093224869E-02 
2160	-4.00693235399047E-02 
2161	-2.38310832771327E-02 
2162	 1.28482505076723E-03 
2163	 2.32250646081349E-02 
2164	 5.03325194107026E-02 
2165	 5.76873397404305E-02 
2166	 5.19935035661787E-02 
2167	 5.00690698726355E-02 
2168	 2.94135017407954E-02 
2169	 0.015628496298326 
2170	 2.06365824735171E-02 
2171	-1.52270653376285E-03 
2172	-2.25949131054217E-02 
2173	-5.71484785654824E-02 
2174	-9.50514806975572E-02 
2175	-8.71176235281602E-02 
2176	-0.092265676757618 
2177	-7.61163667376251E-02 
2178	-4.20139649032649E-02 
2179	-5.19019882349488E-02 
2180	-0.101082893174321 
2181	-0.135443670152304 
2182	-0.162746752433219 
2183	-0.184611235173929 
2184	-0.125132567186595 
2185	-7.90230215504838E-02 
2186	-5.37529385256034E-02 
2187	-5.22049971619002E-02 
2188	-1.63042418882148E-02 
2189	 5.53663243854576E-02 
2190	 7.38831533507887E-02 
2191	 7.99176961758271E-02 
2192	 6.46248369580977E-02 
2193	-1.25321338089432E-02 
2194	-6.26846401319406E-02 
2195	-0.112826266790506 
2196	-0.131881832302914 
2197	-0.141939046354084 
2198	-0.139802934209999 
2199	-9.75570330441236E-02 
2200	-6.62120498010131E-02 
2201	-6.08552848677041E-02 
2202	-7.33233145711676E-02 
2203	-7.18140400917095E-02 
2204	-5.92561922990258E-02 
2205	-4.13281311578633E-02 
2206	-4.02451177344239E-02 
2207	-3.77315701856671E-02 
2208	-1.64591574663761E-02 
2209	-3.73109611405661E-02 
2210	-2.80480384886191E-02 
2211	-0.045462844399849 
2212	-0.15043122412452 
2213	-0.18529082485064 
2214	-0.194019449567511 
2215	-0.192039274596277 
2216	-0.123243050560559 
2217	-9.09961982540854E-02 
2218	-3.89529465280083E-02 
2219	-3.29168799889446E-02 
2220	-0.084990094401386 
2221	-7.41193592161555E-02 
2222	-5.30827937016921E-02 
2223	-5.32794055947384E-02 
2224	 1.10751446501559E-02 
2225	 1.18108351101139E-03 
2226	-0.118884752127814 
2227	-0.132231768313704 
2228	-0.122132710522152 
2229	-0.136680676547874 
2230	-0.101172246751702 
2231	-8.78268912372163E-02 
2232	-9.79626151492131E-02 
2233	-7.94524343097582E-02 
2234	-2.33278760150355E-02 
2235	-1.38644773601001E-02 
2236	 2.85060733269224E-02 
2237	 5.61172414648363E-02 
2238	 7.82167798621015E-02 
2239	 5.04500004615257E-02 
2240	-2.75882076487218E-02 
2241	-0.139414767481719 
2242	-0.219707884841979 
2243	-0.199092984883202 
2244	-0.106966792140762 
2245	-4.74478244570559E-02 
2246	-6.85128201266147E-02 
2247	-0.111981264254086 
2248	-0.1355956607364 
2249	-0.137382206132116 
2250	-0.111028736889747 
2251	-5.53500941163782E-02 
2252	-1.95859975555255E-03 
2253	-6.41282896636483E-02 
2254	-0.121042450624175 
2255	-0.122816779075365 
2256	-0.169367210681621 
2257	-6.52645319807229E-02 
2258	 3.69349539394373E-02 
2259	 5.10116147552849E-02 
2260	 9.44708374328697E-02 
2261	 0.120241592287328 
2262	 0.130556220063932 
2263	 0.163029035027684 
2264	 0.128719681285855 
2265	 2.22065029518646E-02 
2266	 5.52692397620718E-03 
2267	-6.02334149191442E-02 
2268	-5.26632729953631E-02 
2269	 0.131242135959867 
2270	 0.152848595126703 
2271	 0.171965699753594 
2272	 0.086920743955087 
2273	-0.200563307446743 
2274	-0.222517969476609 
2275	-0.170783598992303 
2276	-0.158316693297231 
2277	-1.40122840720392E-02 
2278	 2.20043712088558E-02 
2279	-5.01739356463811E-02 
2280	-6.63942657018945E-02 
2281	-5.52365582709589E-02 
2282	-9.23613922245914E-02 
2283	-0.120306099048584 
2284	-0.101515964012664 
2285	-6.96938284149152E-02 
2286	-5.18509634130139E-02 
2287	-0.132082425272652 
2288	-0.233473222871699 
2289	-0.306710835948907 
2290	-0.3083154387282 
2291	-0.223833437657015 
2292	-0.107011875824731 
2293	-2.10163546794828E-02 
2294	-0.11234940666495 
2295	-0.162949612061522 
2296	-0.182904073769301 
2297	-0.255140655772024 
2298	-0.250576144706957 
2299	-0.238615203760704 
2300	-0.137880140768764 
2301	 0.146598765576745 
2302	 0.196733467638218 
2303	 4.30795794413361E-02 
2304	-0.132672764355377 
2305	-0.360197838545927 
2306	-0.505006594660813 
2307	-0.458773901381249 
2308	-0.333365662153876 
2309	-0.284369940217492 
2310	-0.317562568062659 
2311	-0.367274276797413 
2312	-0.289285708189726 
2313	-0.179473094216806 
2314	-0.115307535664998 
2315	-0.236186451948086 
2316	-0.501270530816372 
2317	-0.585338197685833 
2318	-0.628087366846343 
2319	-0.243440079787008 
2320	-4.15475330861235E-03 
2321	 5.49854848708573E-03 
2322	 0.10301718975409 
2323	-3.28803369042621E-02 
2324	-3.98586047218997E-02 
2325	 9.23694634753353E-02 
2326	 3.39266076718549E-02 
2327	-6.02489636198554E-02 
2328	-0.135395144592764 
2329	-0.331210990851038 
2330	-0.515821558467227 
2331	-0.426550559885657 
2332	-0.310652228361124 
2333	-0.202183910567438 
2334	-0.139381509239578 
2335	-0.439391788676923 
2336	-0.834397823836009 
2337	-0.904517166527065 
2338	-1.18572908085075 
2339	-1.62989338436998 
2340	-2.48681221840704 
2341	-1.07841856014457 
2342	-1.47750578094375 
2343	-1.24732031541405 
2344	-0.512674757865185 
2345	-0.597771629307198 
2346	-0.97575628563656 
2347	-0.922782617273975 
2348	-2.37038423036482 
2349	-2.27133481999378 
2350	-1.90758181899878 
2351	-2.55360022168151 
2352	-1.53094481241781 
2353	-6.66394727330005 
2354	 12.3895714669179 
2355	 18.5474666007141 
2356	-11.1681738110868 
2357	-3.56881007917769 
2358	-2.29415498084568 
2359	-1.27429253834667 
2360	-1.04154005146101 
2361	-1.12402081520297 
2362	 0.741550610495869 
2363	 0.361417584528538 
2364	-0.106743532200863 
2365	 0.236314772627607 
2366	 0.196723616602883 
2367	 0.145235495768509 
2368	 0.167128482266519 
2369	-1.05881841158847 
2370	-1.67022765790871 
2371	-2.26829469594104 
2372	-1.04858183993015 
2373	-0.416040008218188 
2374	-1.13160248309261 
2375	 1.25603646387391 
2376	 0.754632779907975 
2377	 1.01384920554759 
2378	 1.26646493141588 
2379	 1.82685055908936 
2380	-1.97094044034253 
2381	-3.80973048373952 
2382	 1.97833401479703 
2383	 16.4947335454015 
2384	-1.03035953444819 
2385	-0.819202074885157 
2386	-0.8456929050345 
2387	-0.851464495238539 
2388	-0.897490358209851 
2389	-0.518661508030556 
2390	 0.320497810972301 
2391	 0.762844466990195 
2392	-1.4230289886039 
2393	-0.991811882526218 
2394	-0.43072654928882 
2395	-0.405258737071396 
2396	-0.264248458946736 
2397	 7.10789069304576 
2398	 40.3724003600779 
2399	 255.556171371311 
2400	 6.39610113189538 
2401	 3.27311912197161 
2402	 1.18047244680433 
2403	 0.262559342646798 
2404	-6.750885421341 
2405	 7.7999677877238 
2406	-0.312740401362387 
2407	 0.596604385139136 
2408	 0.81529717545782 
2409	 0.557090942405614 
2410	 0.585461008735617 
2411	 1.32722692084871 
2412	 2.22995901373637 
2413	 5.58151193321544 
2414	 17.6972144608291 
2415	 4.62064377465913 
2416	 1.11433660757018 
2417	 0.241788659469314 
2418	-0.226245892941165 
2419	-0.129776209983338 
2420	-7.99417133114613E-03 
2421	 0.233604679391055 
2422	 1.62546746559338 
2423	 3.52648012676844 
2424	 4.72637356223311 
2425	 38.6686758109132 
2426	 36.5683647528705 
2427	-7.19995694606735 
2428	-18.3813500040933 
2429	 2.05109841684404 
2430	 1.10462452015371 
2431	 1.19290362452314 
2432	 1.06020217099715 
2433	 2.77248644298802 
2434	-15.7888333462461 
2435	-2.8139785127766 
2436	-1.76299939635066 
2437	-2.9615367170069 
2438	-26.0272424850954 
2439	-8.64973525098357 
2440	-7.06724762965453 
2441	-6.6350087405437 
2442	-5.62896483713206 
2443	 100.634383642007 
2444	 10.5116459229887 
2445	 3.42992935994386 
2446	 1.35444618700375 
2447	 1.12476962450312 
2448	 1.31629287578173 
2449	 30.9125828902357 
2450	-16.6460786057748 
2451	 8.86734693973318 
2452	 19.5658470734506 
2453	 1.95790022870193 
2454	 1.83787997251088 
2455	 1.05799173822499 
2456	 1.27943415168509 
2457	-9.38262343495418 
2458	-2.09511436077868 
2459	-2.06683791032571 
2460	-2.4968769353728 
2461	-5.23147610282616 
2462	-13.3891738458093 
2463	-7.66976526236466 
2464	-5.71148175251922 
2465	-3.25179225453634 
2466	-3.92346806707436 
2467	-9.55117381141682 
2468	 16.11106158294 
2469	 1.9969368955378 
2470	 0.988512867987768 
2471	 1.47434770279427 
2472	 1.32957975111355 
2473	 1.29447341126191 
2474	 2.42826554391355 
2475	 1.45372166132158 
2476	 1.32525799297174 
2477	 1.68733801233823 
2478	 3.01291043334282 
2479	 63.1407654557555 
2480	-2.88978537636342 
2481	-2.93273538820127 
2482	-4.77615374988007 
2483	-4.16421024911341 
2484	-2.02126238803135 
2485	-1.44304715064545 
2486	 5.50511489090084 
2487	 0.127058122906793 
2488	-5.66344971912318E-02 
2489	-0.223692222397243 
2490	 0.277584146184269 
2491	-0.865986918420636 
2492	-1.00783372710402 
2493	-1.31717750093233 
2494	-1.04695319718084 
2495	-0.539841791570208 
2496	-0.870607230159468 
2497	-1.00810954719486 
2498	-1.72812584987518 
2499	 5.57705058418363 
2500	 3.78428733068441 
