Wavelength	rt0802close00008.asd
350	 2.13414318939334E-02 
351	 2.26081724925142E-02 
352	 2.19350226505292E-02 
353	 2.18046448695703E-02 
354	 2.33369226621559E-02 
355	 2.25842477096516E-02 
356	 2.28591529905579E-02 
357	 2.40199220359569E-02 
358	 2.47662779845869E-02 
359	 2.37912655173282E-02 
360	 0.023639283934126 
361	 2.40426084266727E-02 
362	 2.31034308991478E-02 
363	 2.45347511723501E-02 
364	 2.51327892926162E-02 
365	 2.40837385546631E-02 
366	 2.54839616371892E-02 
367	 2.50721968652512E-02 
368	 2.47280117072401E-02 
369	 2.61294622480831E-02 
370	 2.40537623796059E-02 
371	 2.37608810758455E-02 
372	 2.51110511764945E-02 
373	 2.50514738339829E-02 
374	 2.63588463552967E-02 
375	 2.76447787122547E-02 
376	 2.76195354413895E-02 
377	 2.58105639930234E-02 
378	 2.66410817107988E-02 
379	 2.77690893438429E-02 
380	 2.68390488610506E-02 
381	 0.026944367696364 
382	 2.75693884580667E-02 
383	 2.84642456385606E-02 
384	 2.93248118946911E-02 
385	 0.028986135976506 
386	 2.92195656519587E-02 
387	 3.01062229007677E-02 
388	 2.96915324282523E-02 
389	 3.08024901348806E-02 
390	 3.19200856311872E-02 
391	 3.17213792912339E-02 
392	 0.031368102517643 
393	 3.14956682241311E-02 
394	 3.22152272527697E-02 
395	 0.033198917926383 
396	 3.36239451639182E-02 
397	 3.25498830601837E-02 
398	 3.13911916445126E-02 
399	 3.32002203121678E-02 
400	 3.37732074073804E-02 
401	 3.37149052761863E-02 
402	 0.033901960805938 
403	 3.39468909868888E-02 
404	 3.41706337902594E-02 
405	 3.43616135152374E-02 
406	 3.42619606447407E-02 
407	 0.034554716916525 
408	 3.49653009828408E-02 
409	 3.51395149523986E-02 
410	 3.47877674238174E-02 
411	 3.56846643229899E-02 
412	 3.64341321096378E-02 
413	 3.61081723444312E-02 
414	 3.62890401463222E-02 
415	 3.63978719863893E-02 
416	 3.66874122481043E-02 
417	 3.75145804858632E-02 
418	 0.037964594563972 
419	 3.77774021552655E-02 
420	 3.75887114615046E-02 
421	 3.88383281082333E-02 
422	 3.92551863028997E-02 
423	 3.92129825182731E-02 
424	 3.94511663661203E-02 
425	 4.00928322309464E-02 
426	 4.06482880052789E-02 
427	 4.11098214405205E-02 
428	 4.16454586077026E-02 
429	 0.041773317744415 
430	 4.21693801002328E-02 
431	 4.29119198426563E-02 
432	 4.32707214836835E-02 
433	 4.38062280904448E-02 
434	 4.41898913016225E-02 
435	 4.42376759095625E-02 
436	 4.47739224325672E-02 
437	 4.52020465282126E-02 
438	 4.55466774520328E-02 
439	 4.61099728563721E-02 
440	 4.63581936994308E-02 
441	 4.68339592097143E-02 
442	 0.047599221916487 
443	 4.78325587901009E-02 
444	 4.84795512425812E-02 
445	 4.90584801271781E-02 
446	 4.90945131125975E-02 
447	 4.97554364286526E-02 
448	 5.00049993946525E-02 
449	 5.00768120050126E-02 
450	 5.10378336933962E-02 
451	 5.16257228962161E-02 
452	 5.16785658824465E-02 
453	 5.15529842688793E-02 
454	 5.23407594033972E-02 
455	 5.28934441333541E-02 
456	 5.30072508269027E-02 
457	 5.29036660883277E-02 
458	 5.29843846564253E-02 
459	 0.05349723856145 
460	 5.40790090254737E-02 
461	 5.38387699982798E-02 
462	 5.39347137059352E-02 
463	 5.44490884022966E-02 
464	 5.50779446020917E-02 
465	 5.51069831934907E-02 
466	 0.055059107634321 
467	 5.50473014252342E-02 
468	 5.50551464037272E-02 
469	 5.56452168777047E-02 
470	 5.61195438905569E-02 
471	 5.62342728572084E-02 
472	 5.65030682492144E-02 
473	 5.70602063264322E-02 
474	 5.75212398483499E-02 
475	 5.75320702273884E-02 
476	 0.057292263846077 
477	 5.77211781757491E-02 
478	 5.85126152899793E-02 
479	 5.86121634621927E-02 
480	 5.88494156345963E-02 
481	 5.94864721607264E-02 
482	 6.02372718075407E-02 
483	 5.97789410458204E-02 
484	 0.060003192128279 
485	 0.060844520218179 
486	 0.061529220155807 
487	 6.19411503703413E-02 
488	 6.21680065789536E-02 
489	 0.062497303783322 
490	 6.33327533577802E-02 
491	 6.37672994941432E-02 
492	 6.41300669254648E-02 
493	 6.48024743144994E-02 
494	 6.56875923826314E-02 
495	 6.61745085232975E-02 
496	 6.62987213277542E-02 
497	 6.65094913638534E-02 
498	 6.74607377818991E-02 
499	 6.82291647883297E-02 
500	 6.84933311127344E-02 
501	 6.91179948688014E-02 
502	 6.99044622195147E-02 
503	 7.05049183980994E-02 
504	 7.08557555411391E-02 
505	 7.23772988751059E-02 
506	 7.29402255432048E-02 
507	 7.27928380974427E-02 
508	 7.39829723962037E-02 
509	 7.50536175468297E-02 
510	 7.55855515186486E-02 
511	 7.57891456522583E-02 
512	 7.70007051332706E-02 
513	 7.76991487231195E-02 
514	 7.81521767296274E-02 
515	 7.92312330034656E-02 
516	 8.01197892765028E-02 
517	 8.09050170835923E-02 
518	 8.16773408777523E-02 
519	 8.24332083912532E-02 
520	 8.33146133617768E-02 
521	 0.084163102428997 
522	 8.48584101505073E-02 
523	 0.085613071591478 
524	 8.65464799525935E-02 
525	 8.75596738741603E-02 
526	 0.088413256818315 
527	 8.90711129637062E-02 
528	 8.98794245376958E-02 
529	 9.09977300993644E-02 
530	 9.22109893197316E-02 
531	 0.092838106976701 
532	 9.33174081697919E-02 
533	 9.43719962487279E-02 
534	 9.55481963919036E-02 
535	 9.63604244075623E-02 
536	 0.096919822069873 
537	 0.097991130973463 
538	 9.91705605811578E-02 
539	 0.100027139488536 
540	 0.100521323765195 
541	 0.101987245227911 
542	 0.102966043829706 
543	 0.103475410218884 
544	 0.104434757463653 
545	 0.105617520249705 
546	 0.106567404839191 
547	 0.10724687137507 
548	 0.1085106666048 
549	 0.109496609686113 
550	 0.110285203228507 
551	 0.111223893788581 
552	 0.112112771279526 
553	 0.113025928822042 
554	 0.114010572730272 
555	 0.115058095512059 
556	 0.115989994204536 
557	 0.116584244751617 
558	 0.116933291676236 
559	 0.118189527140392 
560	 0.119181271206024 
561	 0.119792725404483 
562	 0.120579197426508 
563	 0.121512313607321 
564	 0.122106373131843 
565	 0.122309656923836 
566	 0.123048734432725 
567	 0.123752660245176 
568	 0.124420821536114 
569	 0.125151323602802 
570	 0.125463295056844 
571	 0.125744238690423 
572	 0.12610594352992 
573	 0.126306857457127 
574	 0.126699265353839 
575	 0.127120657295376 
576	 0.127420084169048 
577	 0.127892846804762 
578	 0.128450876497575 
579	 0.128827911681955 
580	 0.128735986527527 
581	 0.128777472412501 
582	 0.12868873289444 
583	 0.128450091862784 
584	 0.128771247885924 
585	 0.12810951140836 
586	 0.127219122244228 
587	 0.127359979773093 
588	 0.126725217945927 
589	 0.126061905039401 
590	 0.125867166409303 
591	 0.125994678264407 
592	 0.125562424479361 
593	 0.124935293858992 
594	 0.124439155743532 
595	 0.123375256152388 
596	 0.122554437906009 
597	 0.121919381593234 
598	 0.121027977390806 
599	 0.120599756693304 
600	 0.120000729712295 
601	 0.119051204292036 
602	 0.118544690246101 
603	 0.118456624765164 
604	 0.118495578495919 
605	 0.118309474568966 
606	 0.117763577190199 
607	 0.11792820713562 
608	 0.118547555652109 
609	 0.118027751964259 
610	 0.118356453126784 
611	 0.118621540723505 
612	 0.118071042344664 
613	 0.118253282936019 
614	 0.118527939206438 
615	 0.118579981751512 
616	 0.118347442246779 
617	 0.118428342878712 
618	 0.118667386385818 
619	 0.118735700390573 
620	 0.118110468172621 
621	 0.118295330585448 
622	 0.118698960037396 
623	 0.118353453251523 
624	 0.118191775818924 
625	 0.117752494972983 
626	 0.117290459811806 
627	 0.117736785100141 
628	 0.118048660711129 
629	 0.117863500791811 
630	 0.117388343542793 
631	 0.117962857706387 
632	 0.117783781032755 
633	 0.117407044769487 
634	 0.118147665361058 
635	 0.117748942404894 
636	 0.117380010761188 
637	 0.117571407671779 
638	 0.117487850484638 
639	 0.117482248672731 
640	 0.117478974400042 
641	 0.117296416410437 
642	 0.116737029341725 
643	 0.116546498518776 
644	 0.116394833969159 
645	 0.115144811859583 
646	 0.115000814958356 
647	 0.1150044066228 
648	 0.114385821633605 
649	 0.114374382784092 
650	 0.11463358516669 
651	 0.114635690914708 
652	 0.113941806908928 
653	 0.113396257346971 
654	 0.11257445171551 
655	 0.111400874485626 
656	 0.110553466580181 
657	 0.110313002005042 
658	 0.110183428674356 
659	 0.109758142865912 
660	 0.109304438959926 
661	 0.108673105998683 
662	 0.10805256888847 
663	 0.107810418269738 
664	 0.107709481602391 
665	 0.107462879369774 
666	 0.107087289896129 
667	 0.107172587554347 
668	 0.106996446484791 
669	 0.106452894491059 
670	 0.105763392350147 
671	 0.10559419188443 
672	 0.105574702971709 
673	 0.105727380135105 
674	 0.106412468042787 
675	 0.10616511121767 
676	 0.105702621544567 
677	 0.105684355249663 
678	 0.105483466463925 
679	 0.105545627761908 
680	 0.105798603673501 
681	 0.105918755646993 
682	 0.105528617553693 
683	 0.105924224667487 
684	 0.106938842265166 
685	 0.106265095556094 
686	 0.105287781597266 
687	 0.105056142996944 
688	 0.105800992460456 
689	 0.105727468808011 
690	 0.105650020056708 
691	 0.105432404687599 
692	 0.1044039384096 
693	 0.103482269694473 
694	 0.102895926392368 
695	 0.10258278095074 
696	 0.10229747584389 
697	 0.101464256289945 
698	 0.100062773860317 
699	 9.85103431719383E-02 
700	 9.74995393332376E-02 
701	 9.69356380109767E-02 
702	 9.62513857385868E-02 
703	 9.47124454139503E-02 
704	 9.35805598767556E-02 
705	 9.21173292938946E-02 
706	 9.01828528238866E-02 
707	 8.94153821690517E-02 
708	 8.79033284317427E-02 
709	 8.59194987485625E-02 
710	 8.42558604276399E-02 
711	 8.16690060244909E-02 
712	 7.94749647184908E-02 
713	 7.78537261479605E-02 
714	 7.55854005231364E-02 
715	 7.25488510017349E-02 
716	 6.91092883625269E-02 
717	 6.63323294816504E-02 
718	 0.062995274764524 
719	 6.04467745970186E-02 
720	 5.91647408625428E-02 
721	 5.82200388450122E-02 
722	 5.57409014600792E-02 
723	 5.28784553490733E-02 
724	 0.05059790347292 
725	 4.76659628380072E-02 
726	 4.61099572078485E-02 
727	 4.44988618454587E-02 
728	 4.15541284662115E-02 
729	 3.83447677753459E-02 
730	 3.56941904316151E-02 
731	 3.39019201980176E-02 
732	 3.24761845328878E-02 
733	 3.09688316147334E-02 
734	 2.94134495311453E-02 
735	 2.81192460629969E-02 
736	 0.027684150054955 
737	 2.71204232125383E-02 
738	 2.66171534939104E-02 
739	 2.63416199834594E-02 
740	 2.54696312852052E-02 
741	 0.025413220192223 
742	 2.57537649797419E-02 
743	 2.53457099124385E-02 
744	 2.50820654886808E-02 
745	 2.48723777053236E-02 
746	 0.02476541621933 
747	 2.51018836704027E-02 
748	 2.55882441978026E-02 
749	 2.56709219910706E-02 
750	 2.51529152864585E-02 
751	 2.51553529043502E-02 
752	 2.50657301739004E-02 
753	 2.48947944585175E-02 
754	 2.49876243236499E-02 
755	 2.54936586052912E-02 
756	 2.55188538292893E-02 
757	 2.49088168895857E-02 
758	 2.46405051104135E-02 
759	 2.37843737297254E-02 
760	 2.30450361053075E-02 
761	 2.39803951417356E-02 
762	 2.40921704323852E-02 
763	 2.50501078739992E-02 
764	 2.60820208927142E-02 
765	 2.62112419852355E-02 
766	 0.025797684110372 
767	 2.54303269716284E-02 
768	 2.54306536554093E-02 
769	 2.59776010986511E-02 
770	 2.63412718304907E-02 
771	 2.67496313388334E-02 
772	 2.72784309570308E-02 
773	 2.70035725399052E-02 
774	 0.026960473276213 
775	 2.72541939999393E-02 
776	 0.02754537164663 
777	 2.75153513532599E-02 
778	 2.78579869660945E-02 
779	 2.85828562551463E-02 
780	 2.89642672967548E-02 
781	 2.91855673601269E-02 
782	 2.94505829885012E-02 
783	 2.97795960068559E-02 
784	 2.97107555511797E-02 
785	 2.99297355534105E-02 
786	 3.02190178945763E-02 
787	 3.02410768189809E-02 
788	 3.10906344660178E-02 
789	 3.15218736087108E-02 
790	 3.16635825284987E-02 
791	 3.26915380293319E-02 
792	 3.32518771641119E-02 
793	 3.31650181290236E-02 
794	 3.28216745024771E-02 
795	 3.32916480686511E-02 
796	 3.36553536327561E-02 
797	 0.034194648998205 
798	 3.50467859755204E-02 
799	 0.034429729077673 
800	 3.49755513948606E-02 
801	 3.62089769250986E-02 
802	 0.036102086303424 
803	 0.036299225237656 
804	 3.64521309707835E-02 
805	 3.64105864973378E-02 
806	 3.63757787957733E-02 
807	 3.58603521384251E-02 
808	 3.56191462039146E-02 
809	 0.035982926158326 
810	 3.52565169696341E-02 
811	 3.49630475197995E-02 
812	 3.50062220916246E-02 
813	 3.44913951599898E-02 
814	 3.30265514844887E-02 
815	 3.25098571198015E-02 
816	 3.26622580743519E-02 
817	 3.15094199153835E-02 
818	 3.16611617102498E-02 
819	 0.03075090994184 
820	 2.86944614203388E-02 
821	 2.84305659149036E-02 
822	 0.029331637671119 
823	 2.90406702889088E-02 
824	 2.67357685987427E-02 
825	 2.51175557826904E-02 
826	 2.36147168079519E-02 
827	 2.23418010567539E-02 
828	 2.14635868562891E-02 
829	 1.95442003131064E-02 
830	 1.81651714642329E-02 
831	 1.74109511021381E-02 
832	 1.63799820052073E-02 
833	 0.015953644098011 
834	 1.62631048451743E-02 
835	 1.67528517623458E-02 
836	 1.62447523531936E-02 
837	 1.55815838430293E-02 
838	 1.52636165601116E-02 
839	 0.015271857794626 
840	 1.44387992197988E-02 
841	 1.43876824005087E-02 
842	 1.48608441059008E-02 
843	 1.49976621105124E-02 
844	 1.46128447581571E-02 
845	 1.41605201052283E-02 
846	 1.37656871388362E-02 
847	 0.013385912643693 
848	 1.37926963405532E-02 
849	 1.43246444654207E-02 
850	 1.42157854393504E-02 
851	 1.29502031936911E-02 
852	 1.28894550747299E-02 
853	 1.35141154542086E-02 
854	 1.38056295148414E-02 
855	 1.31855584724148E-02 
856	 1.30980364344325E-02 
857	 1.32227948918571E-02 
858	 1.29601333272508E-02 
859	 1.26059297650314E-02 
860	 1.22843502562267E-02 
861	 1.20559374856588E-02 
862	 1.19466981393979E-02 
863	 1.20324587304193E-02 
864	 1.25013365642504E-02 
865	 1.27919027378956E-02 
866	 1.19131459468995E-02 
867	 1.14708021888701E-02 
868	 1.20233637827709E-02 
869	 1.29531712967702E-02 
870	 1.24681443012479E-02 
871	 1.11266061231074E-02 
872	 0.01040342762061 
873	 1.08628230655294E-02 
874	 1.04646140584599E-02 
875	 0.012101685457008 
876	 1.31743653374325E-02 
877	 1.10680839348878E-02 
878	 9.23974770693167E-03 
879	 9.27412718068442E-03 
880	 1.04814690460797E-02 
881	 1.09928750391259E-02 
882	 1.00981576521494E-02 
883	 8.97461948157696E-03 
884	 8.49649642869933E-03 
885	 9.09205248764868E-03 
886	 1.08963461620217E-02 
887	 1.10447257408977E-02 
888	 9.60149324264738E-03 
889	 1.00907103178493E-02 
890	 9.68877852715092E-03 
891	 8.84452405675569E-03 
892	 8.55702737462478E-03 
893	 9.76006852349381E-03 
894	 8.4895427150916E-03 
895	 7.91269004832106E-03 
896	 1.09611736065999E-02 
897	 9.62969456100984E-03 
898	 7.16064343896243E-03 
899	 6.07376039300277E-03 
900	 7.45925390407092E-03 
901	 9.76304795509891E-03 
902	 9.10611381094948E-03 
903	 7.16583897464594E-03 
904	 6.66589301526547E-03 
905	 4.55088100541555E-03 
906	 4.62548149900164E-03 
907	 6.3987738973751E-03 
908	 5.96550564254418E-03 
909	 4.49443245120303E-03 
910	 5.06246760033243E-03 
911	 5.65924071744598E-03 
912	 1.35731799991534E-03 
913	 8.92030718145342E-03 
914	 0.01117928683802 
915	 5.28079659235605E-03 
916	 7.78257190881657E-03 
917	 5.48241781052655E-03 
918	 2.46811619939317E-03 
919	 3.31644620231412E-03 
920	 1.00875594053909E-02 
921	 8.13690349766367E-03 
922	 3.6486703169949E-03 
923	 2.90599359159068E-03 
924	 3.58593185010128E-03 
925	 7.27714033855675E-03 
926	 8.2850337097484E-03 
927	 1.79592038684335E-03 
928	 1.19135551938388E-03 
929	 6.4016317119898E-03 
930	 2.28219583590972E-02 
931	 4.57049051648545E-02 
932	 8.04161380775438E-05 
933	-1.80700099288213E-03 
934	 3.77191452846292E-02 
935	 1.60250072661857E-02 
936	-3.25756071134472E-02 
937	-1.86039268393563E-02 
938	 9.01443718465725E-03 
939	-2.43634248724897E-03 
940	 3.18371741791839E-02 
941	-2.03074661803541E-03 
942	-4.35076339684883E-02 
943	 2.96031184897587E-02 
944	 6.39898064763421E-02 
945	 3.35795544781503E-02 
946	 2.58594034772268E-03 
947	 4.85391842450642E-02 
948	-1.5891809452358E-03 
949	-1.24322139030545E-02 
950	 3.23663435518481E-02 
951	 6.82711581861102E-02 
952	 3.83474189637208E-02 
953	-0.013340673335173 
954	-2.64184927450837E-02 
955	 3.10434302622694E-02 
956	 3.85685494901567E-02 
957	 1.63677958709933E-02 
958	-0.012493181024918 
959	-2.35443361571868E-02 
960	 3.73646844011647E-03 
961	-3.57652564174663E-03 
962	-2.81194636176445E-02 
963	-1.01436220140817E-02 
964	-3.93251021231596E-03 
965	 8.24415601947292E-04 
966	 3.54463246462026E-03 
967	-2.42608536517157E-03 
968	 3.23167382539433E-03 
969	 1.28222186790206E-03 
970	-4.25263194987124E-03 
971	 6.99133791674125E-03 
972	 9.21991530122238E-03 
973	 1.05307628650489E-02 
974	 1.38625142379751E-02 
975	 1.28069354892435E-02 
976	-3.94491419962969E-03 
977	-1.07827069929386E-02 
978	-3.30996543107301E-03 
979	 1.87415813471476E-03 
980	 2.35519721331117E-03 
981	 5.86911204116953E-03 
982	 7.04979387984961E-03 
983	-5.00078840123884E-03 
984	-6.77951394415033E-03 
985	 3.17268781648431E-03 
986	 1.14225739778833E-02 
987	 2.19395666066148E-03 
988	-3.12122947404958E-06 
989	 3.38133245053207E-03 
990	 7.0430990063498E-03 
991	 5.7836096045765E-03 
992	 1.19549237361909E-04 
993	-3.56463201725467E-03 
994	 9.06984070136503E-04 
995	 1.25644351095966E-02 
996	 2.8271807468703E-04 
997	-7.61845004628212E-03 
998	-1.48276456201143E-03 
999	 8.76579957618085E-03 
1000	 4.63819094258158E-03 
1001	 1.47159117055425E-03 
1002	-4.32655014376432E-03 
1003	-4.61961682088212E-03 
1004	-3.26579896361831E-03 
1005	-2.66600721033022E-03 
1006	 2.00887177354902E-03 
1007	 4.22239270293746E-03 
1008	 2.43661682447746E-03 
1009	 3.57480238456379E-03 
1010	 3.86801053493253E-03 
1011	 1.7615163234561E-03 
1012	 1.72466287683686E-03 
1013	 1.53172697061519E-03 
1014	 7.80070637939022E-05 
1015	-1.91458462042464E-03 
1016	-3.02017969535563E-03 
1017	-6.18608650383884E-03 
1018	-6.04497718663104E-03 
1019	-2.4752326075245E-03 
1020	-8.6673295189989E-04 
1021	 2.05130541232134E-03 
1022	 2.04924174944765E-03 
1023	 4.85783403731012E-03 
1024	 5.24477443586963E-03 
1025	 5.38087667908426E-03 
1026	 7.43739490056541E-03 
1027	 7.52943085376511E-03 
1028	 5.60649354495438E-03 
1029	 5.2610039481248E-03 
1030	 6.33922223396084E-03 
1031	 4.96030561432269E-03 
1032	 6.22794944768876E-04 
1033	-7.35971608479097E-04 
1034	-2.29960107925306E-03 
1035	-2.65419379150464E-03 
1036	-7.01577577803938E-05 
1037	 1.91178536440617E-03 
1038	 4.20637262504367E-03 
1039	 5.39287115938049E-03 
1040	 9.09576797047943E-03 
1041	 1.23201381642527E-02 
1042	 1.29348817955947E-02 
1043	 1.35224743381699E-02 
1044	 1.14376890054333E-02 
1045	 4.54275532759992E-03 
1046	 1.81113996934339E-03 
1047	-1.48921006627629E-03 
1048	-2.46037540552582E-03 
1049	-1.17680714549986E-03 
1050	 6.56929935339507E-04 
1051	 7.21631031072334E-03 
1052	 7.87803583878292E-03 
1053	 4.02060652869827E-03 
1054	 3.98801434167222E-03 
1055	 2.32893381243672E-03 
1056	 1.13963287943856E-03 
1057	 1.27948545538201E-03 
1058	 6.01906940625309E-03 
1059	 7.06368689822863E-03 
1060	 6.45091943664271E-03 
1061	 5.22585414238546E-03 
1062	 2.91273934610261E-03 
1063	 2.34083018636448E-03 
1064	 5.62710034413209E-04 
1065	 2.73523269880247E-04 
1066	 2.04779902904775E-03 
1067	 3.93157403752395E-03 
1068	 7.58319950851621E-03 
1069	 8.57152518718521E-03 
1070	 8.07292165313734E-03 
1071	 8.88469154268311E-03 
1072	 8.88579085382117E-03 
1073	 8.81987703506725E-03 
1074	 7.35950146521148E-03 
1075	 6.80372094497495E-03 
1076	 5.61197429444607E-03 
1077	 5.23196157804267E-04 
1078	 3.25696351979479E-04 
1079	 4.90783021343817E-03 
1080	 5.08515007965109E-03 
1081	 4.91715903659626E-03 
1082	 4.13078990542033E-03 
1083	-9.83316100608497E-04 
1084	-1.6598940438662E-03 
1085	 9.77341922986781E-04 
1086	 2.52152257936023E-03 
1087	 6.11828130495413E-03 
1088	 7.80751024921338E-03 
1089	 8.42249553350689E-03 
1090	 8.56778190619847E-03 
1091	 8.10397346660465E-03 
1092	 6.87969259236671E-03 
1093	 6.37657370426338E-03 
1094	 4.56586299134012E-03 
1095	 4.3895732024928E-03 
1096	 5.29295421945635E-03 
1097	 5.6049866082644E-03 
1098	 7.69416966509549E-03 
1099	 7.86258409140461E-03 
1100	 6.55610932523512E-03 
1101	 6.01312582985666E-03 
1102	 3.9472163009658E-03 
1103	 2.98564805907025E-03 
1104	 4.97574914343908E-03 
1105	 9.17349752659741E-04 
1106	 6.74976701581997E-04 
1107	 9.26923598225692E-03 
1108	 0.014069140533334 
1109	 9.58286668270792E-03 
1110	 1.08589999594765E-02 
1111	 1.22456514417832E-02 
1112	 1.16641205043617E-02 
1113	 9.30239224006758E-03 
1114	 1.58954670149558E-02 
1115	 2.82642562571922E-02 
1116	 0.026326263204434 
1117	 0.035448825243262 
1118	 4.95873717570224E-02 
1119	-1.46449210802407E-03 
1120	-3.08752597532678E-03 
1121	 0.104359527736642 
1122	 0.196603672868491 
1123	 0.157690673179987 
1124	 0.30810915838522 
1125	 0.396949068434183 
1126	 0.106683499471554 
1127	 2.48510004324502E-02 
1128	 8.46225074302535E-02 
1129	 0.112425877183402 
1130	 0.20635458972789 
1131	 0.213098594840485 
1132	 0.188511319844383 
1133	 0.15564362338007 
1134	 7.18806516482618E-02 
1135	 7.32117685781046E-02 
1136	 0.133744868474433 
1137	 0.125067624793936 
1138	 0.141677463103075 
1139	 6.89518276346931E-02 
1140	-7.27096836873023E-02 
1141	-3.52938966057537E-02 
1142	 1.77498919942813E-02 
1143	 2.43221071716223E-02 
1144	 6.71364951029445E-02 
1145	 8.33515026091152E-02 
1146	 7.86551397372144E-02 
1147	 5.26896496013017E-02 
1148	 5.91876661093136E-03 
1149	 1.08052524120211E-02 
1150	 1.06749167128926E-02 
1151	-1.41708703618597E-02 
1152	-8.25650165476021E-03 
1153	 3.77816559793342E-02 
1154	 2.96200918701104E-02 
1155	-9.0509263795462E-04 
1156	-1.08066494476887E-03 
1157	 5.15022861527242E-03 
1158	 6.06315168303847E-03 
1159	 1.71601294523085E-02 
1160	 2.08541119750911E-02 
1161	 0.012828973252131 
1162	 7.12017813989916E-03 
1163	 1.09386825652625E-03 
1164	-9.20691784101606E-04 
1165	-1.64625656269637E-04 
1166	-4.34048607018145E-03 
1167	-4.06216923983413E-03 
1168	 3.93938336980629E-03 
1169	 6.37708174041686E-03 
1170	 6.99068321158353E-03 
1171	 8.77527056042458E-03 
1172	 9.15764433229386E-03 
1173	 8.03785802537067E-03 
1174	 6.83053796193252E-03 
1175	 6.29385416348318E-03 
1176	 5.21125077368974E-03 
1177	 3.83671533723225E-03 
1178	 2.16345124084555E-03 
1179	 5.91192494281889E-03 
1180	 7.72836374428185E-03 
1181	 5.33479286090653E-03 
1182	 2.97807625265437E-03 
1183	 6.90285244739843E-04 
1184	 3.0725422397389E-03 
1185	 9.11641126932833E-03 
1186	 1.07017267703294E-02 
1187	 6.49033262162332E-03 
1188	 4.38780225811005E-03 
1189	 4.09960365851715E-03 
1190	 3.41698255840234E-04 
1191	-1.7091092499689E-05 
1192	 1.15791861793131E-03 
1193	 2.95127663517425E-03 
1194	-1.55942465055069E-03 
1195	-1.15078248422066E-03 
1196	 3.37013900615979E-03 
1197	 2.90680763816819E-03 
1198	 3.90601895697795E-03 
1199	 5.06797013961626E-03 
1200	 3.80568744031139E-03 
1201	 5.47647105913121E-03 
1202	 5.6454131280035E-03 
1203	 5.28171815773533E-03 
1204	 6.02592296208726E-03 
1205	 3.61928813063146E-03 
1206	-1.46500276646002E-04 
1207	-3.20945867326859E-04 
1208	 1.54718860218493E-03 
1209	 3.14945588309316E-03 
1210	 3.70988254624122E-03 
1211	-2.18039824241747E-04 
1212	-4.10640537214072E-04 
1213	 2.02008730214632E-03 
1214	 1.33699292293211E-03 
1215	 1.03759778187496E-05 
1216	 1.56210845157773E-03 
1217	 2.82194362067958E-03 
1218	 3.06372674208528E-03 
1219	 3.48600760749914E-03 
1220	 5.96296299968551E-03 
1221	 6.0982739385455E-03 
1222	 1.68349257100302E-03 
1223	 2.3584990843886E-04 
1224	 1.3920651942843E-03 
1225	 9.32064422275666E-04 
1226	-5.42190328405345E-04 
1227	-4.18061673169857E-04 
1228	 1.45875031530427E-04 
1229	 6.59394875809675E-04 
1230	 8.50110142765706E-04 
1231	 1.45588618674026E-03 
1232	 3.16427664716569E-03 
1233	 1.22005503889734E-03 
1234	-1.29759754762292E-03 
1235	-7.73029525978268E-04 
1236	 2.31354038379065E-03 
1237	 9.45553437522436E-04 
1238	-2.12348090814216E-03 
1239	 2.81016680506985E-04 
1240	 1.2481938509249E-03 
1241	-1.09508699046348E-04 
1242	 5.37852343986764E-04 
1243	 2.34341713572397E-03 
1244	 0.003100421912473 
1245	 9.03663609448722E-04 
1246	 1.06791309514693E-03 
1247	 1.94157984701593E-03 
1248	-4.98680330017255E-04 
1249	-1.38834593037004E-03 
1250	-3.54129176198706E-04 
1251	 1.23697790702602E-03 
1252	 2.16555091648843E-03 
1253	 2.76458896566207E-03 
1254	 4.50732738140342E-03 
1255	 5.10621349460176E-03 
1256	 5.35882995480569E-03 
1257	 3.62807649630321E-03 
1258	 3.99644850982913E-03 
1259	 6.27679412416642E-03 
1260	 6.79532505768757E-03 
1261	 6.53144725477994E-03 
1262	 6.63574083241036E-03 
1263	 6.2278801704322E-03 
1264	 6.17955363845271E-03 
1265	 4.94896152095041E-03 
1266	 4.03416176165776E-03 
1267	 3.49850129830592E-03 
1268	 2.42425185675216E-03 
1269	 3.85635819303865E-03 
1270	 6.09737522677507E-03 
1271	 7.02454798257029E-03 
1272	 6.69178834779097E-03 
1273	 3.10430919526778E-03 
1274	 2.63170931202407E-03 
1275	 5.73954528343884E-03 
1276	 5.28314207139172E-03 
1277	 3.80058663956251E-03 
1278	 0.005369482087871 
1279	 5.66212643253869E-03 
1280	 4.60473953473751E-03 
1281	 4.46950174273103E-03 
1282	 6.27724756053545E-03 
1283	 5.77179235730646E-03 
1284	 3.10435020297312E-03 
1285	 2.60423304875789E-03 
1286	 3.39181590732528E-03 
1287	 3.65245560036134E-03 
1288	 3.45182579659795E-03 
1289	 4.11711117683451E-03 
1290	 5.51241079286167E-03 
1291	 6.5202335153472E-03 
1292	 6.41996327767046E-03 
1293	 7.97817235152227E-03 
1294	 8.70564050010158E-03 
1295	 6.41054558459172E-03 
1296	 4.96005836979087E-03 
1297	 2.78400613331562E-03 
1298	-3.87929215113785E-04 
1299	-1.27680909557717E-03 
1300	-1.21063857401387E-03 
1301	-1.19305721454651E-03 
1302	-2.69679643195377E-03 
1303	-9.63986191885887E-04 
1304	 3.9697135797867E-03 
1305	 4.66481585326627E-03 
1306	 5.45432351790345E-03 
1307	 7.1987593384042E-03 
1308	 1.02426469313765E-02 
1309	 1.39511536913088E-02 
1310	 1.10537542085324E-02 
1311	 3.72730127728894E-03 
1312	 2.12432120069567E-03 
1313	-4.64741863905817E-03 
1314	-6.25566497373569E-03 
1315	 5.89064738938988E-03 
1316	 8.62544514592622E-03 
1317	 1.70780896565421E-03 
1318	-3.35020735067156E-04 
1319	 4.52899447391837E-03 
1320	 2.53632729479553E-03 
1321	-8.66456031447333E-03 
1322	-1.23396869552423E-02 
1323	-1.95261465415732E-03 
1324	-9.86655539882772E-03 
1325	-1.21649696357882E-02 
1326	 2.98874503781384E-03 
1327	 8.40166810796185E-03 
1328	 4.59611934655359E-03 
1329	 3.92760892277804E-03 
1330	 4.07725382074981E-03 
1331	-1.72538082541448E-02 
1332	-0.027814743146593 
1333	-1.87438860649045E-02 
1334	-0.032342152300761 
1335	-1.51895044252929E-02 
1336	 4.02119181305368E-02 
1337	 4.46542551723135E-02 
1338	 3.16363234363237E-02 
1339	 4.12594558052932E-02 
1340	 2.42972451148629E-02 
1341	-4.33124052018313E-03 
1342	-2.96845429270798E-02 
1343	-2.42904549564636E-02 
1344	-2.67834153282198E-02 
1345	-4.87770840928406E-02 
1346	-1.77460254034742E-02 
1347	 4.54007495511759E-02 
1348	 5.96406494893234E-02 
1349	 6.62764764746051E-02 
1350	 0.263365912974169 
1351	 0.396176020541973 
1352	 0.240379189207068 
1353	 0.263753714626998 
1354	 0.631718859145718 
1355	 1.06045174996576 
1356	 0.601916172748926 
1357	 0.400836745077596 
1358	 0.174158818730459 
1359	-0.34104657924222 
1360	-0.400983963978634 
1361	-0.337303648877132 
1362	-0.235852984446731 
1363	-0.155806780556049 
1364	-0.574338164032927 
1365	-1.72936934447799 
1366	-2.52542435683847 
1367	-1.78779660485838 
1368	-1.6102283656669 
1369	-0.606022241041175 
1370	-0.421608930464356 
1371	-2.12780921434395 
1372	-0.929096459923657 
1373	-0.023981455480917 
1374	-2.10566482475179E-02 
1375	-0.193484420047317 
1376	-0.163996853476172 
1377	-0.819874115764069 
1378	-0.114348450195129 
1379	-0.567324980715581 
1380	-1.44375326348557 
1381	-76.8515453788364 
1382	 14.3067451340934 
1383	 3.20599565598523 
1384	 2.76105816090908 
1385	-1.21970467238764 
1386	 2.57532693910965 
1387	 1.54124724090585 
1388	 2.47376462135527 
1389	-4.59284609429676 
1390	-5.03405011690602 
1391	 9.50624745259869 
1392	-4.81151612082792 
1393	 0.128109992132977 
1394	 1.01427944221904 
1395	 4.07295180814743 
1396	 5.89295821622428 
1397	 2.57471406794061 
1398	-9.46685995133925 
1399	-1.04029073243663 
1400	-0.964487388744099 
1401	 0.238719796885185 
1402	-1.00503089156561 
1403	 0.784147607593706 
1404	 2.96929912820937 
1405	 3.44674493285726 
1406	-34.7114535874137 
1407	-1.46449279058752 
1408	 3.65307288362373 
1409	 5.31719068687806 
1410	-1.2413070532129 
1411	-0.582023876287711 
1412	 0.688017232683542 
1413	 1.81973647244184 
1414	-1.44160047485122 
1415	-1.3262899005975 
1416	-1.22981417720566 
1417	-1.24609693239315 
1418	 0.857627350541438 
1419	 0.248808684358115 
1420	 0.316968103337546 
1421	 0.322185920649788 
1422	 0.447543360932551 
1423	-0.844456992643571 
1424	-0.380560282001902 
1425	-0.314008982703061 
1426	-1.87487675446709 
1427	-1.07859650355018 
1428	 0.223924032087206 
1429	 0.322416583877015 
1430	 0.386564636752177 
1431	 0.496059146951353 
1432	 0.435231264385633 
1433	 0.511936266070662 
1434	 0.615649301892133 
1435	 0.66273068169114 
1436	 0.532868713135339 
1437	 0.976884029652701 
1438	 1.53930310614068 
1439	 0.905675767965855 
1440	 0.816002293993269 
1441	 1.4518010341911 
1442	 7.92749139781406E-02 
1443	 0.657682143608314 
1444	 0.472170660059898 
1445	 2.43365901462899E-02 
1446	-0.037544072499907 
1447	-1.17136091049919E-02 
1448	 0.594008629652594 
1449	 1.49334255277227 
1450	 0.688521409740668 
1451	 0.177811654384539 
1452	 0.156870324695064 
1453	 0.249884179439261 
1454	 0.250395865417515 
1455	 0.645269795706852 
1456	 0.508951205944348 
1457	 0.033912971592891 
1458	-0.040003397220662 
1459	-7.13476376421562E-02 
1460	-0.110955040877414 
1461	-3.91662240365688E-02 
1462	-5.64334408883763E-02 
1463	-0.182615630198145 
1464	-0.166625762178524 
1465	-3.39474030137172E-02 
1466	-2.07763717724176E-02 
1467	-4.66950179214752E-02 
1468	 2.11934649840501E-04 
1469	 2.91941192539451E-02 
1470	 1.56701576022384E-02 
1471	 7.52191607451862E-02 
1472	 4.47851229371638E-02 
1473	-0.216628522934037 
1474	-0.257602853491768 
1475	-6.88241593413808E-02 
1476	-4.42785000637114E-02 
1477	-1.25641883467857E-03 
1478	 5.60645644292324E-03 
1479	-5.91106851165896E-02 
1480	-9.72092845448816E-02 
1481	-0.184259014795168 
1482	-0.143245806598418 
1483	 2.73535971696183E-02 
1484	 3.94201338469737E-02 
1485	 2.60975757051195E-02 
1486	 4.42378885421103E-02 
1487	 6.49261375289215E-03 
1488	-2.20388836070102E-02 
1489	-4.5493459504601E-04 
1490	 5.46410251385681E-03 
1491	-0.027380499464636 
1492	-2.99037530216085E-02 
1493	-6.87499533434528E-03 
1494	-3.03429817432748E-03 
1495	-6.74351426215767E-03 
1496	-1.41851331905055E-02 
1497	-2.79996502277153E-02 
1498	-3.22816519326023E-02 
1499	-3.77085431140521E-02 
1500	-3.25610044835174E-02 
1501	-1.75423688667296E-02 
1502	-0.010229861163661 
1503	-3.70230075185227E-03 
1504	 1.83907113852065E-03 
1505	 3.24808650825923E-03 
1506	 0.014434998446547 
1507	 5.54205304652285E-03 
1508	 2.06684068725161E-03 
1509	 8.77332319619814E-03 
1510	 3.61144896340621E-03 
1511	 7.69209840428613E-03 
1512	 1.52959588798571E-02 
1513	 6.01591351602376E-03 
1514	-3.37302282126794E-03 
1515	 1.56433947278776E-03 
1516	 5.4480496747821E-03 
1517	 3.24443213717895E-03 
1518	 7.57950918990976E-03 
1519	 6.10946822642701E-03 
1520	 6.62967725238038E-04 
1521	 8.20993477916849E-03 
1522	 9.59806953174932E-03 
1523	 2.4808698988651E-03 
1524	 4.10542261241379E-03 
1525	 4.03312757369204E-03 
1526	-2.6440598297922E-03 
1527	-4.20135436713564E-03 
1528	 1.40175642692624E-03 
1529	-1.09964690563857E-03 
1530	-5.70809224018115E-03 
1531	-3.05044272287595E-04 
1532	-1.37675109222006E-03 
1533	-5.06786101582266E-03 
1534	-1.60098283908863E-03 
1535	 3.80495625618072E-04 
1536	-7.26901540853736E-04 
1537	-3.31653293125229E-03 
1538	-2.84860445976248E-03 
1539	 5.27301367486825E-04 
1540	 1.24241037745989E-05 
1541	 6.46880662599514E-04 
1542	 4.2437926917444E-03 
1543	 3.81930846568198E-03 
1544	 4.77606405459026E-04 
1545	-1.05639877767424E-03 
1546	-2.12694055225668E-04 
1547	-2.95334928593571E-06 
1548	 1.59660286495831E-03 
1549	 1.44365158358318E-04 
1550	-4.99646823536981E-03 
1551	-2.81399610037746E-03 
1552	-1.76114218415675E-03 
1553	 5.82114365220945E-04 
1554	 1.08821501006706E-02 
1555	 9.78108205007404E-03 
1556	 3.97572937904483E-03 
1557	 8.31448037786757E-03 
1558	 8.3714141475398E-03 
1559	 0.002291316825885 
1560	 2.73304625306059E-04 
1561	-7.69229951537738E-04 
1562	-4.8046915558843E-03 
1563	-4.92008480115774E-03 
1564	 1.8123491951367E-03 
1565	 2.92194297264451E-03 
1566	-3.28484391588017E-03 
1567	-5.40952848728911E-03 
1568	-4.90235126670611E-03 
1569	-5.73741298012616E-03 
1570	-3.35634580153011E-03 
1571	 2.09415739498641E-03 
1572	 4.85215320602622E-03 
1573	 3.74687229963667E-03 
1574	 1.92947353668117E-04 
1575	-2.86632849377169E-03 
1576	-3.85083557863448E-03 
1577	-3.13986508461337E-03 
1578	 1.02963379051698E-03 
1579	 9.31020671140938E-03 
1580	 1.25080030295052E-02 
1581	 5.30557425521245E-03 
1582	 2.22129915799011E-03 
1583	 1.56918944148803E-03 
1584	-4.2649107701654E-03 
1585	-3.39225273759655E-03 
1586	 3.54453845443658E-03 
1587	 5.65129963311872E-03 
1588	 4.26633064673586E-03 
1589	 2.87936523763046E-03 
1590	-9.62759502269467E-05 
1591	-8.43802423250758E-04 
1592	-5.7912285852659E-04 
1593	-1.70966521559146E-03 
1594	 2.93054257389234E-03 
1595	 7.1925760248212E-03 
1596	 6.73132669784211E-03 
1597	 1.12696999228088E-02 
1598	 9.55371508650936E-03 
1599	-1.17968992943035E-03 
1600	-3.80077793006974E-03 
1601	-1.78354421025714E-03 
1602	 1.83551685807167E-04 
1603	 2.21656683519866E-03 
1604	 5.11618005982035E-03 
1605	 7.41214659748877E-03 
1606	 4.88604774765599E-03 
1607	 3.48368754390943E-03 
1608	 1.02284210811497E-03 
1609	-3.35710106403134E-03 
1610	-3.14013022649146E-03 
1611	 2.59142341668272E-04 
1612	 1.77655382301089E-06 
1613	-3.57203856442123E-03 
1614	-1.76781365471354E-03 
1615	 3.30822523967021E-03 
1616	 3.9278884617351E-03 
1617	 0.001768537078724 
1618	 7.87692680882567E-04 
1619	 9.51574402211242E-04 
1620	 4.97935086644329E-03 
1621	 7.31649921939162E-03 
1622	 1.35018935455869E-03 
1623	-3.76273991497529E-03 
1624	-3.33601320737062E-03 
1625	-1.53380753553118E-03 
1626	-7.16916931469399E-04 
1627	-2.93437678505605E-04 
1628	 3.0818110294123E-04 
1629	 4.42239528864745E-03 
1630	 8.63168328316779E-03 
1631	 4.37902387296145E-03 
1632	-1.41380535717631E-03 
1633	-5.94223164430046E-03 
1634	-5.28543757605101E-03 
1635	 5.40167814096413E-03 
1636	 7.10188855987306E-03 
1637	-2.95783846869089E-04 
1638	 2.53339439997331E-03 
1639	 6.37570869629538E-03 
1640	 5.89960123299886E-03 
1641	 9.14772085868083E-03 
1642	 6.45381319664476E-03 
1643	 9.37588977724558E-04 
1644	 2.86521915934513E-03 
1645	 4.50571338160113E-03 
1646	 7.70234629913927E-03 
1647	 1.02144763011415E-02 
1648	 4.57522243731199E-03 
1649	 1.04398115321429E-03 
1650	 2.75894517806131E-03 
1651	 1.35616345436072E-03 
1652	-1.26630689740412E-03 
1653	 6.95708667091732E-03 
1654	 6.75385955545283E-03 
1655	 4.26091406749127E-03 
1656	 4.0686171639564E-03 
1657	-3.44037139222057E-03 
1658	-5.08908808188998E-03 
1659	 1.44449597640054E-03 
1660	 3.1232288435324E-03 
1661	 3.05651911318622E-03 
1662	 2.09960357450046E-03 
1663	 1.28428336322957E-03 
1664	 1.4000902033019E-03 
1665	-1.66813783422827E-03 
1666	-1.54241197445042E-03 
1667	 1.1940392834689E-03 
1668	 5.85695576935023E-04 
1669	 3.7611905108903E-03 
1670	 9.03551117419307E-03 
1671	 8.51432890566092E-03 
1672	 3.42647909789775E-03 
1673	-2.24157374807353E-04 
1674	-1.57324335543369E-03 
1675	-2.86789740220443E-03 
1676	-6.5339239127137E-03 
1677	-4.66219140498546E-03 
1678	 2.18229984279946E-04 
1679	 7.18516329770848E-04 
1680	-2.08520034569723E-03 
1681	-6.00870664297876E-03 
1682	-6.40824495625732E-03 
1683	-6.96305733635205E-03 
1684	-4.13864842887086E-03 
1685	-3.09518444978601E-04 
1686	-3.37105547283207E-03 
1687	-3.87164111381022E-03 
1688	-3.40660734443919E-03 
1689	-2.91713117062396E-03 
1690	 4.50057410177125E-04 
1691	-6.09325256357908E-04 
1692	-1.31982729839928E-03 
1693	-3.07801783035006E-04 
1694	-5.96434462781401E-03 
1695	-6.90329262149822E-03 
1696	 2.04146384946098E-03 
1697	 0.005068938140936 
1698	 6.30970181334154E-03 
1699	 1.07088588599735E-02 
1700	 3.72986445025724E-03 
1701	-2.64428431638536E-03 
1702	 7.05981769315027E-03 
1703	 8.99930269174243E-03 
1704	-9.46862264850475E-04 
1705	 1.24378936984491E-03 
1706	 3.9103861928266E-03 
1707	-6.11168839765361E-03 
1708	-5.11883444902882E-03 
1709	 5.82763472831659E-03 
1710	 0.011627355011847 
1711	 1.35905825620018E-02 
1712	 1.46282641294111E-02 
1713	-3.22784081988592E-03 
1714	-0.010859018502482 
1715	-8.46769117298379E-03 
1716	-2.66716726452772E-04 
1717	 5.19510554893502E-03 
1718	 4.49649585684273E-03 
1719	 1.5143608748749E-05 
1720	-2.28027442711919E-03 
1721	-6.33574058602899E-03 
1722	-4.15597701433514E-03 
1723	 7.71260670067181E-04 
1724	-0.001494786731437 
1725	-1.54609062496667E-03 
1726	-1.96770821475693E-03 
1727	-1.07588962641157E-02 
1728	-1.18786574816171E-02 
1729	-7.29659789079845E-04 
1730	 9.57564945070675E-03 
1731	 2.15207666333542E-02 
1732	 1.60207892548268E-02 
1733	-1.63517371006502E-04 
1734	 6.59047892834162E-03 
1735	 0.015940284899134 
1736	 1.45407511433832E-02 
1737	 1.56111496801713E-02 
1738	 1.18839600204991E-02 
1739	-1.23801792667045E-02 
1740	-1.69514792289567E-02 
1741	 9.09114934945687E-03 
1742	 4.54982175797664E-03 
1743	-3.9737625282972E-03 
1744	 9.30125686398267E-03 
1745	 4.57574225863408E-03 
1746	-5.29736302416356E-03 
1747	-1.39134841478279E-03 
1748	 1.13685390489449E-02 
1749	 9.38131574678805E-03 
1750	 1.34349878882684E-02 
1751	 9.79119044538038E-03 
1752	-2.08430538213361E-02 
1753	-2.88814420276642E-02 
1754	-0.027231799267075 
1755	-2.36786682146345E-02 
1756	 2.49860696354657E-04 
1757	-1.34047860300891E-02 
1758	-1.95563133555744E-02 
1759	 8.06703785158484E-04 
1760	-8.4575323295029E-03 
1761	-5.1105868762208E-03 
1762	 1.73884888646838E-02 
1763	 8.60641741183417E-03 
1764	 1.93239517014694E-02 
1765	 4.27915336170472E-02 
1766	 3.76388210463066E-02 
1767	 1.33174013118342E-02 
1768	-4.84747845723711E-03 
1769	 1.76033184154519E-02 
1770	 2.18339010739065E-02 
1771	 1.26337985194776E-02 
1772	 4.38834940590156E-02 
1773	 3.35342705968518E-02 
1774	-2.28786566932179E-03 
1775	-3.30379886705554E-02 
1776	-5.82105223568237E-02 
1777	-8.18412429172941E-02 
1778	-8.48449443471324E-02 
1779	-4.68891732694927E-02 
1780	-3.25466806029215E-02 
1781	-2.69971826441146E-02 
1782	-1.07608758752929E-02 
1783	-1.38071183040273E-02 
1784	-3.83679634880708E-03 
1785	 3.52916047529669E-02 
1786	 4.30611537355222E-02 
1787	 2.27421915463777E-02 
1788	 5.13578932366855E-02 
1789	 0.14074903890455 
1790	 4.60441401210638E-02 
1791	 1.66186540565757E-02 
1792	-9.12896364275101E-02 
1793	-0.183416163236557 
1794	-0.171144365522746 
1795	-6.85614900636558E-02 
1796	-2.15066575846342E-02 
1797	-0.72031426607946 
1798	-0.898943123233889 
1799	-0.522014621654887 
1800	 0.237919850536078 
1801	 0.348566092467608 
1802	 0.200434844305581 
1803	 8.96673789033071E-02 
1804	-0.760687742632938 
1805	-0.561075001218434 
1806	 1.36698437212641 
1807	 2.57165631811153 
1808	 9.50177431053735 
1809	-136.589028500312 
1810	-0.218135087394648 
1811	 6.20207842416791 
1812	-4.45966915771726 
1813	-1.42403464207309 
1814	 9.41972599142139E-02 
1815	 0.346251984040264 
1816	 1.11953881029061 
1817	 31.8144932489579 
1818	-2.44512055230277 
1819	-4.37214680724658 
1820	 4.66659926472903 
1821	-0.270384059146369 
1822	-0.374554283251131 
1823	 0.344393913960521 
1824	 0.899589459607761 
1825	-0.63083868244734 
1826	-3.25415862298792E-02 
1827	-16.6713386188892 
1828	-4.74334883548875 
1829	-1.50558366398121 
1830	-1.15516045658473 
1831	 1.22736619069668 
1832	 1.07233140604483 
1833	-0.243336670560786 
1834	-0.203213812117119 
1835	 0.710199011460483 
1836	 0.911745367674606 
1837	 3.97705371566763 
1838	 3.7458636919279 
1839	 1.18807313227067 
1840	 0.644022728432338 
1841	 0.66584077124081 
1842	 0.592877359538458 
1843	 0.567768584659711 
1844	 1.43432481657516 
1845	 1.84494330516689 
1846	 0.262015360520335 
1847	-0.243703983373661 
1848	-0.591064986781233 
1849	-0.204119215193912 
1850	-0.165692679987483 
1851	 0.55472117031987 
1852	 6.38785102749421 
1853	-6.67875976521752 
1854	-2.28329123016945 
1855	-2.79383464301869 
1856	-2.9922452187332 
1857	-3.30975814724289 
1858	-2.88968078348168 
1859	-2.02987977595824 
1860	-2.48004676521916 
1861	 6.64857759226697 
1862	 0.989554978010489 
1863	 0.394352374028746 
1864	 0.200144556226099 
1865	 0.230547247955283 
1866	 0.666452130025224 
1867	 0.572469797364648 
1868	 0.235917680082835 
1869	 0.271524043999819 
1870	 0.44648245877652 
1871	-6.21972580461309E-02 
1872	-0.112889795097371 
1873	-1.10823700448778 
1874	 0.295246615236592 
1875	 0.734909073038417 
1876	 0.575868437349903 
1877	 5.84021039394336E-02 
1878	 0.146348724675491 
1879	 0.283264984323937 
1880	 0.510371166943719 
1881	 1.7034830615015 
1882	-23.5110444597635 
1883	-3.76975217622631 
1884	-2.00976958129012 
1885	-2.00941264332769 
1886	 2.27708123003191 
1887	 1.1502999898976 
1888	-2.74795313294046E-02 
1889	 12.8594940603785 
1890	-3.24916663610596 
1891	-3.98247584230322 
1892	 58.6536954006939 
1893	-1.00520453285716 
1894	-0.427532526089069 
1895	-0.121953867856879 
1896	 0.540296190998795 
1897	 2.17784149698123 
1898	-3.22468396951723 
1899	-0.765635255810344 
1900	-0.470557242924285 
1901	 4.12310079508187E-02 
1902	 2.42196297840172E-02 
1903	-0.377591046366563 
1904	-1.28277967133037 
1905	-1.04775678255664 
1906	-0.784581673070735 
1907	 2.39802834849061 
1908	 0.132858047578147 
1909	-9.5542311617445E-03 
1910	-3.03506911204823E-02 
1911	-2.42907011527495 
1912	 9.18112755379108 
1913	 5.08479957421323 
1914	 4.24038494986641 
1915	 1.72209887108957 
1916	-5.28649175787167E-02 
1917	 1.00512114810843 
1918	 2.1799262539905 
1919	 1.48007180127716 
1920	 2.34491380501954 
1921	 1.37095874075964 
1922	 0.949577882757042 
1923	 0.753880288233989 
1924	 0.654214636242663 
1925	 1.6097824492929 
1926	 1.79628806370504 
1927	 2.30321429591527 
1928	 1311.41286179678 
1929	 3.11768704523191 
1930	 0.961531368610034 
1931	-1.28082219608405 
1932	-0.888857808315533 
1933	-0.22065238006724 
1934	 0.18643883618075 
1935	-4.82560143037065E-02 
1936	-6.96557464958711E-02 
1937	-0.942200088642191 
1938	-2.04950645145972 
1939	-23.3083362880739 
1940	 0.665812407098671 
1941	 0.100144984812257 
1942	-0.24519892772171 
1943	-0.351998311854827 
1944	-0.110335703062399 
1945	 7.04022910529049E-02 
1946	 0.303169595881033 
1947	 0.659569412809254 
1948	 0.814876868046189 
1949	 1.03990745554536 
1950	 2.94946623390256 
1951	-20.1044551969922 
1952	-3.82211488281236 
1953	-1.59420521304274 
1954	-1.3018024798244 
1955	-2.67055556946691 
1956	 18.8269721713081 
1957	 2.85792292878415 
1958	 1.48014640005443 
1959	 0.648342612123399 
1960	 0.775662565715322 
1961	 1.20954025001789 
1962	 0.923626406845239 
1963	 0.319503664474255 
1964	-1.18612872716832 
1965	-0.536821299011254 
1966	-0.40946077054318 
1967	-0.19746467641423 
1968	-5.92216897343975E-02 
1969	-9.37711005962368E-03 
1970	 9.91842216188379E-02 
1971	 0.227931618417576 
1972	 0.163531498336493 
1973	 0.255013472739391 
1974	 0.538885486272113 
1975	 0.594031453192517 
1976	 0.541478906364842 
1977	 0.495448512840743 
1978	 0.297468344685949 
1979	 0.147842766988623 
1980	-9.80128150081294E-02 
1981	-0.105603605442706 
1982	-0.171989334726953 
1983	-0.220345197315863 
1984	-0.203775923280155 
1985	-0.256266520061106 
1986	-0.242894825082467 
1987	-0.109532212414927 
1988	 2.80058074778203E-02 
1989	 0.142079551851712 
1990	 0.176744799732771 
1991	 0.139998273775043 
1992	 0.221501809230058 
1993	 0.238220950724049 
1994	 0.248176278864389 
1995	 0.30170756833951 
1996	 0.356760124095245 
1997	 0.204980423079984 
1998	 0.283014580887796 
1999	 0.341075850092597 
2000	 0.291307251324962 
2001	 0.28784704005465 
2002	 0.110185613582482 
2003	-3.67620207887149E-02 
2004	-6.55337277953967E-02 
2005	-0.241384042669445 
2006	-0.297350075686563 
2007	-0.206466739960655 
2008	-0.208935755594568 
2009	-0.128151708162 
2010	 0.193632126989301 
2011	 0.311748379488665 
2012	 0.349731649220507 
2013	 0.654159287488422 
2014	 0.482582878821978 
2015	 0.259679540257667 
2016	 0.169196667102165 
2017	 0.115289430389348 
2018	 6.16163533868491E-02 
2019	-2.76070212051919E-03 
2020	-1.48606868188504E-03 
2021	-2.42810016480664E-02 
2022	 1.09372419148393E-02 
2023	 0.144783359870693 
2024	 0.208391992008764 
2025	 0.284631451671966 
2026	 0.305076890934123 
2027	 0.262931205191574 
2028	 0.219932013284959 
2029	 0.164895714179768 
2030	 0.130252020622274 
2031	 0.150669006265325 
2032	 0.127784278023886 
2033	 9.61626664157413E-02 
2034	 5.88062905072159E-02 
2035	 3.52951758549119E-02 
2036	 2.85884130668903E-02 
2037	 4.96651926793891E-02 
2038	 8.00363669743589E-02 
2039	 0.076331237308277 
2040	 3.51840469299704E-02 
2041	 1.42965270543847E-02 
2042	-2.46017466318809E-02 
2043	-2.79318568344723E-02 
2044	-8.49073416795596E-03 
2045	-5.91366600470087E-03 
2046	-1.31575945457278E-02 
2047	-4.70971803913599E-03 
2048	-1.55290462450894E-02 
2049	-6.14571774949223E-02 
2050	-8.88602904527493E-02 
2051	-0.149211786557292 
2052	-0.157500146182982 
2053	-0.122612452093496 
2054	-0.127582295563131 
2055	-7.00969204162041E-02 
2056	-2.29744131368332E-02 
2057	-1.41727785083456E-02 
2058	 1.06450600612716E-02 
2059	 8.58682035761993E-02 
2060	 0.127739651256009 
2061	 0.146228082897048 
2062	 0.185878343160904 
2063	 0.209128551697698 
2064	 0.167692310497841 
2065	 9.98586529100029E-02 
2066	 5.98835517402035E-02 
2067	-6.18264868619028E-03 
2068	-4.15149180845511E-02 
2069	-1.25307389625477E-02 
2070	-2.42327546484569E-02 
2071	-3.84464153452862E-02 
2072	 1.36586429641547E-02 
2073	 3.96527273333918E-02 
2074	 3.30191694019829E-02 
2075	 0.03042904099136 
2076	 5.16943003132137E-02 
2077	 2.86683457783124E-02 
2078	-5.21298642634692E-02 
2079	-6.13306131000358E-02 
2080	-0.051955431920409 
2081	-3.33820451557055E-02 
2082	 2.53486229969533E-02 
2083	 2.66633648570472E-02 
2084	-2.48700232613292E-02 
2085	-1.26746302081358E-02 
2086	-2.7694114763824E-03 
2087	-2.9865288602304E-03 
2088	 6.09058243579102E-02 
2089	 9.39130052329562E-02 
2090	 6.14430903512635E-02 
2091	 0.035435803068374 
2092	 3.41180233067742E-02 
2093	 1.78582784563626E-02 
2094	 2.22329988812573E-02 
2095	 8.13687863253136E-02 
2096	 9.35867793425834E-02 
2097	 0.070292149300714 
2098	 6.24894279202977E-02 
2099	 4.57121111622347E-02 
2100	 4.62948321856556E-02 
2101	 4.23382909237207E-02 
2102	 4.95360405724021E-02 
2103	 4.61181517117755E-02 
2104	 8.7935451847815E-03 
2105	-2.29372303736925E-02 
2106	-6.01480123172433E-02 
2107	-0.058738969959113 
2108	-2.19167227497545E-02 
2109	 8.88991015153691E-04 
2110	 3.35466346558849E-02 
2111	 4.28382205613885E-02 
2112	 5.92613114088648E-02 
2113	 4.56528302420288E-02 
2114	 2.85313693039735E-03 
2115	-2.12546343378403E-02 
2116	-0.082608013054546 
2117	-0.104384568538776 
2118	-7.07211145821137E-02 
2119	-5.13279671473045E-02 
2120	-2.22988803466148E-02 
2121	-7.80208906527468E-03 
2122	-3.07802136942839E-03 
2123	-6.41549892874061E-03 
2124	-1.80952288880991E-02 
2125	-3.93089528258594E-02 
2126	-4.20006677160016E-02 
2127	-3.14262947537862E-02 
2128	-3.46433931960084E-02 
2129	-0.049815249542875 
2130	-6.40152109460035E-02 
2131	-9.21358875612369E-02 
2132	-0.123702489084196 
2133	-0.123529424450018 
2134	-0.106609092495354 
2135	-6.05893184367559E-02 
2136	-4.54618562926355E-02 
2137	-0.016743881956175 
2138	-4.49016728824685E-03 
2139	-0.020249682262425 
2140	-1.60083427836659E-02 
2141	-1.09560530293445E-02 
2142	-1.40258132428347E-04 
2143	 2.08493673131955E-02 
2144	 4.26201667505611E-02 
2145	 4.26256023888721E-02 
2146	 4.68589045857899E-02 
2147	 0.063026318665424 
2148	 4.21355702314574E-02 
2149	 5.35996607369349E-02 
2150	 8.11484814192921E-02 
2151	 6.54983612807809E-02 
2152	 6.38526900618854E-02 
2153	 5.09876922111874E-02 
2154	 2.03367491935412E-02 
2155	 1.16302285823115E-02 
2156	-1.60318339228402E-03 
2157	-1.88684054133784E-02 
2158	-0.040863477896517 
2159	-5.52894892108815E-02 
2160	-7.50148685337167E-02 
2161	-8.34946987522132E-02 
2162	-8.95316726397892E-02 
2163	-9.52546471589891E-02 
2164	-6.67049573206024E-02 
2165	-8.07860856543384E-02 
2166	-0.141651788991406 
2167	-0.158530326143928 
2168	-0.18389530864485 
2169	-0.208125264932455 
2170	-0.204701180405248 
2171	-0.18935813259902 
2172	-0.175849294938574 
2173	-0.149175496066539 
2174	-8.93628762855436E-02 
2175	-3.75604001171337E-02 
2176	-4.37229511587297E-02 
2177	-5.22674176869345E-02 
2178	-7.02675913826483E-02 
2179	-9.82178834473949E-02 
2180	-0.101054239731245 
2181	-0.108663510167018 
2182	-0.128220960608076 
2183	-0.118741696962798 
2184	-7.54745116814364E-02 
2185	-5.55711846250277E-02 
2186	-1.55941959083347E-02 
2187	 8.08962547118849E-02 
2188	 9.78576810638491E-02 
2189	 0.066532060923277 
2190	 8.38075073535543E-02 
2191	 8.72102559595406E-02 
2192	 7.06568390122435E-02 
2193	 9.64401756545879E-02 
2194	 7.48532835833596E-02 
2195	-4.73051495969617E-02 
2196	-8.51355048643516E-02 
2197	-0.04846146139121 
2198	-8.62688967554369E-02 
2199	-0.140225088280533 
2200	-0.184531145215174 
2201	-0.198551825211215 
2202	-0.184480966083161 
2203	-0.152361956141797 
2204	-9.33466041835844E-02 
2205	-7.53276006446063E-02 
2206	-0.120725549301288 
2207	-0.12226067305961 
2208	-8.46148205941817E-02 
2209	-8.61458730831479E-02 
2210	-7.40815475912438E-02 
2211	-8.50336041157472E-02 
2212	-8.41851155431603E-02 
2213	-4.97434617080932E-02 
2214	-6.97982818623321E-02 
2215	-4.91292865184301E-02 
2216	-5.02557436046215E-02 
2217	-6.49953367528399E-02 
2218	-0.115553480187701 
2219	-0.109736661672885 
2220	-8.35953147792165E-02 
2221	-5.53298115213832E-02 
2222	 6.05658042697608E-03 
2223	 1.97480116415885E-02 
2224	 2.03302385845573E-02 
2225	 4.4920223407588E-03 
2226	-4.21338660173162E-02 
2227	-8.01893809882744E-02 
2228	-0.163543583197932 
2229	-0.180152340188896 
2230	-0.162683505136425 
2231	-0.139911466028778 
2232	-1.62939644965982E-02 
2233	 1.48618362910848E-02 
2234	-6.7343071250468E-03 
2235	-5.35258896835349E-02 
2236	-3.61422456818621E-02 
2237	-3.00953915956592E-02 
2238	 3.45050562433914E-02 
2239	 0.120317285102998 
2240	 0.119311061107054 
2241	 6.34654402952563E-02 
2242	-5.59615668739341E-02 
2243	-0.183302036908525 
2244	-0.191364514945509 
2245	-0.196838420503353 
2246	-0.132366173008981 
2247	-6.07888190107304E-03 
2248	 5.14412098782228E-02 
2249	 9.14528119122641E-02 
2250	 0.145365090800508 
2251	 0.124689204908069 
2252	 8.21087924453506E-03 
2253	-7.14011890073013E-02 
2254	-0.170173691774827 
2255	-0.239368358966907 
2256	-0.168384424239451 
2257	-0.113246278641438 
2258	-0.103249144160353 
2259	 3.11597661622747E-02 
2260	 0.108532617812328 
2261	 0.136690541091185 
2262	 0.159082101461293 
2263	 0.192317782650924 
2264	 0.177081131703875 
2265	 0.143601093521956 
2266	 0.107324752418007 
2267	-1.59053461426885E-02 
2268	-5.56056043853328E-02 
2269	-7.26704057794971E-02 
2270	-9.11457940815087E-02 
2271	-2.58903676181975E-02 
2272	 0.015094591300581 
2273	 4.79450542805988E-02 
2274	 2.16996088133923E-03 
2275	-8.23461219237362E-02 
2276	-0.11109698757413 
2277	-0.145252484526455 
2278	-0.184739255051826 
2279	-0.280925020229703 
2280	-0.235412446041955 
2281	-0.104599886281485 
2282	-0.048249406336417 
2283	 4.15052897237331E-02 
2284	 0.132040157116727 
2285	 4.39533525690862E-02 
2286	-3.19213709766289E-02 
2287	-4.97765537844587E-02 
2288	-7.81887274612967E-02 
2289	-4.71916575957571E-02 
2290	-1.44265458581016E-02 
2291	-1.88194592669508E-02 
2292	 5.50975448206068E-02 
2293	 0.113701571621816 
2294	 2.86939949972818E-02 
2295	-4.62630951648844E-02 
2296	-9.09957219991236E-02 
2297	-0.126921073778212 
2298	-0.025032751707162 
2299	 0.131345372380795 
2300	 0.117084912990713 
2301	 0.07311991178411 
2302	-4.12873108263107E-02 
2303	-0.165067873674965 
2304	-8.77233919908005E-02 
2305	 3.76121633006928E-02 
2306	-3.55681206616418E-02 
2307	-0.19225752977428 
2308	-0.212319939384105 
2309	-0.278064974032884 
2310	-0.170458659429256 
2311	 0.180358376426426 
2312	 0.15652063353356 
2313	 1.12372927612358E-02 
2314	-0.112597866394715 
2315	-0.337880848312863 
2316	-0.240079315185498 
2317	-1.56051591983616E-03 
2318	-6.09042574034192E-02 
2319	-0.188109862751602 
2320	-0.32266668597248 
2321	-0.362203566080688 
2322	-0.20246849582186 
2323	 3.93394648694091E-02 
2324	 0.136689383372344 
2325	-0.05381023265957 
2326	-0.225977430024528 
2327	-0.331050325172231 
2328	-0.365200942291361 
2329	-0.318824708915535 
2330	-0.153230794238414 
2331	 1.81351366513437E-02 
2332	 1.70935559097705E-02 
2333	-9.08411208787667E-02 
2334	-0.163628882859309 
2335	-0.244954601857437 
2336	-0.465144484883745 
2337	-0.637082577672514 
2338	-0.742688952493928 
2339	-1.95773411276656 
2340	-6.39821527984695 
2341	-2.55572684893394 
2342	-2.83367549114646 
2343	-1.12905029458235 
2344	-0.25907411619041 
2345	 7.87471981155911E-02 
2346	 0.016321892936094 
2347	-4.22189302516572E-02 
2348	 0.845049159160454 
2349	 0.12884424864107 
2350	-0.158285321447848 
2351	 0.206652390975087 
2352	-1.19499297442642 
2353	-3.59165489104127 
2354	 3.49822884194193 
2355	 11.3572887475237 
2356	-6.01242986869707 
2357	-1.44160331526735 
2358	-0.71786868933518 
2359	-0.586954672472011 
2360	-0.466363817718653 
2361	-0.908580748833681 
2362	-2.53975209475678 
2363	-2.36174901180833 
2364	-1.34725798140588 
2365	-0.600599986660111 
2366	-0.284851800044925 
2367	-0.384559889494242 
2368	-1.95006568751767 
2369	-1.48431367234634 
2370	-1.05469331693385 
2371	-1.51234206307474 
2372	-0.421188791920565 
2373	-0.536694117437763 
2374	-1.9710513823503 
2375	 1.09850804374862 
2376	 0.67154341700435 
2377	 1.1797205172216 
2378	 1.24938813946126 
2379	 2.44403770743292 
2380	-5.61659722175902 
2381	-8.17981181296815 
2382	 5.97716826118608 
2383	 67.2528095371921 
2384	-2.4895836106837 
2385	-0.724375530450746 
2386	-0.23370815783051 
2387	-0.256945242308687 
2388	-0.68724459287848 
2389	-1.93647071693939 
2390	-4.33298992100178 
2391	-3.85273545172438 
2392	 0.141897013621062 
2393	 0.09705211357238 
2394	-1.48177781854747 
2395	-0.593005030984848 
2396	 0.30646018192854 
2397	 8.9020194136609 
2398	 38.2642398812378 
2399	 206.24830800301 
2400	 3.37782198341079 
2401	 2.01510161427733 
2402	 1.52417990040569 
2403	 1.82265278542119 
2404	 18.4054534965951 
2405	-12.5492444070746 
2406	 0.323042831441392 
2407	 0.222213559134252 
2408	 0.447140229369002 
2409	 0.453519096531945 
2410	 0.441193223079902 
2411	 0.853107329292714 
2412	 0.926656415817496 
2413	 1.95190594827781 
2414	 8.45814334271066 
2415	 3.10112847557199 
2416	 1.28989325187124 
2417	 0.630627271331526 
2418	 0.068440725537261 
2419	-0.100111601173178 
2420	-0.291500720193366 
2421	-0.655984549756851 
2422	-0.935162462064907 
2423	 0.383214183292552 
2424	 1.8970894749116 
2425	 18.9728712968055 
2426	 34.7772129670451 
2427	-9.15621176038998 
2428	-15.3574961211742 
2429	 1.61496463446337 
2430	 0.63623572701647 
2431	-1.55847217202315E-02 
2432	-0.114557787023178 
2433	-0.750443588649527 
2434	 6.26259230043708 
2435	 0.125024477171479 
2436	-0.649521577758315 
2437	-1.4558242291696 
2438	-30.5935647114338 
2439	-9.29518934445344 
2440	-1.68481543397814 
2441	 0.429242356625918 
2442	 1.08102740569416 
2443	-11.139903974746 
2444	-2.33203928982734 
2445	-1.55046449533169 
2446	-0.884471099172945 
2447	-1.05230678210334 
2448	-0.943417199856286 
2449	-3.0206421796931 
2450	-0.976978474853892 
2451	-0.123504708733782 
2452	 1.7447628909883 
2453	 0.232050344689774 
2454	-0.144568941119186 
2455	 0.169799586327901 
2456	 0.759835587838008 
2457	-2.84951829553638 
2458	-1.07796946849012 
2459	-0.724154563563961 
2460	-0.358842798689668 
2461	-1.23439357058587 
2462	 0.644245694196012 
2463	 3.69791521852296 
2464	 5.22996157536163 
2465	 3.3811970725738 
2466	 1.70103004259627 
2467	 4.52315227616389 
2468	-10.5868538866187 
2469	-0.758943500018176 
2470	-0.530788409184323 
2471	-0.682728439110601 
2472	 0.179661130930066 
2473	 0.394480357337535 
2474	-0.55817114450011 
2475	 4.91600479459667E-02 
2476	 0.367762860466269 
2477	 0.299135903643473 
2478	 1.1141170458497 
2479	 31.5088407540152 
2480	-1.18435224992589 
2481	-1.37518137352166 
2482	-2.92007695963876 
2483	-2.69860566121068 
2484	-1.39587056054194 
2485	-1.55886890470198 
2486	 14.0562726905283 
2487	 2.44810737949098 
2488	 1.89464812369005 
2489	 2.7842049284062 
2490	-9.06203799015726 
2491	-1.42374745896876 
2492	-0.710060475746544 
2493	-0.758883189178007 
2494	-0.414486952916074 
2495	-0.299333268230719 
2496	-0.384899045302999 
2497	-1.053295204298 
2498	-3.30039966650375 
2499	 6.81226208527365 
2500	 5.07860731119641 
