Wavelength	rt0802close00009.asd
350	 2.58381884960782E-02 
351	 2.59948058967064E-02 
352	 2.50483113875788E-02 
353	 0.02477712668412 
354	 2.58585287467997E-02 
355	 2.62121754404535E-02 
356	 2.63296594248785E-02 
357	 2.65090853627012E-02 
358	 2.67819882760802E-02 
359	 0.026024237742167 
360	 2.61012552247049E-02 
361	 2.69131385716025E-02 
362	 2.70458182185696E-02 
363	 0.027173794983447 
364	 2.66399731480828E-02 
365	 2.61106452604627E-02 
366	 2.85285474854553E-02 
367	 2.85725044595931E-02 
368	 0.027413017423268 
369	 2.72160883221281E-02 
370	 2.67756692200983E-02 
371	 2.76356172130568E-02 
372	 0.02855728435132 
373	 2.73739928374871E-02 
374	 2.93841265405949E-02 
375	 3.03067095571461E-02 
376	 2.88247977159264E-02 
377	 2.90322921659234E-02 
378	 2.89106866797405E-02 
379	 2.90332174905377E-02 
380	 2.99052871788452E-02 
381	 3.00044779145315E-02 
382	 3.03824498471209E-02 
383	 3.13748649705335E-02 
384	 3.25914539605521E-02 
385	 3.14296668322697E-02 
386	 3.12866963241753E-02 
387	 3.25223238382783E-02 
388	 3.17109089187609E-02 
389	 3.28932284166868E-02 
390	 3.38992814711977E-02 
391	 3.31693304728823E-02 
392	 3.36011960533159E-02 
393	 3.37781505866599E-02 
394	 3.40042425651787E-02 
395	 3.50059216056516E-02 
396	 3.66403016137344E-02 
397	 3.60167783538867E-02 
398	 3.41793574356298E-02 
399	 3.52956388221921E-02 
400	 3.57469528860878E-02 
401	 3.60491432543843E-02 
402	 3.66718990124596E-02 
403	 0.03633651415142 
404	 3.68880938187828E-02 
405	 0.037390838079851 
406	 3.65519247343161E-02 
407	 3.75389127450326E-02 
408	 3.80193864476728E-02 
409	 0.03770032430089 
410	 3.85211572322444E-02 
411	 3.89415388744767E-02 
412	 3.90259266720328E-02 
413	 3.89578466215085E-02 
414	 3.82995095272181E-02 
415	 3.88228614909185E-02 
416	 3.99135623079324E-02 
417	 4.01594050836909E-02 
418	 0.040143632055375 
419	 3.96561010012374E-02 
420	 0.039428430242587 
421	 4.11209252169289E-02 
422	 4.14035364651476E-02 
423	 4.13153234493912E-02 
424	 4.20755602481892E-02 
425	 4.27212720693665E-02 
426	 4.31201832422399E-02 
427	 4.36462271689975E-02 
428	 4.46497219792255E-02 
429	 4.42779874631671E-02 
430	 4.42035616717274E-02 
431	 4.49433285198301E-02 
432	 4.52686993226736E-02 
433	 0.04597352864166 
434	 4.65544328181053E-02 
435	 4.66345966200835E-02 
436	 4.70194015316192E-02 
437	 4.73424893350328E-02 
438	 4.77025641828203E-02 
439	 4.83368145274665E-02 
440	 4.82638910660623E-02 
441	 0.048807612445662 
442	 5.00695844745044E-02 
443	 4.99723920233737E-02 
444	 5.07906074978173E-02 
445	 0.051531251990624 
446	 5.11381419495221E-02 
447	 5.19733016628532E-02 
448	 5.23433715339539E-02 
449	 5.23274879730119E-02 
450	 5.32254867516807E-02 
451	 5.35714475810554E-02 
452	 5.34869450005412E-02 
453	 5.35281468458182E-02 
454	 5.47644890036345E-02 
455	 5.48710925970705E-02 
456	 5.46076231670599E-02 
457	 5.53724688185906E-02 
458	 5.52658160535937E-02 
459	 5.54961531335698E-02 
460	 5.62191744782529E-02 
461	 5.64001651563796E-02 
462	 5.61873257434192E-02 
463	 5.61041003838512E-02 
464	 5.64779090099895E-02 
465	 5.68986533109149E-02 
466	 5.70754641853335E-02 
467	 5.72168151870345E-02 
468	 5.77021611335962E-02 
469	 5.79892824685082E-02 
470	 5.82947382420995E-02 
471	 5.86514283022719E-02 
472	 5.87540002680904E-02 
473	 5.86961849893735E-02 
474	 0.058880567226927 
475	 5.94922861900293E-02 
476	 5.96790194493694E-02 
477	 5.97879314445727E-02 
478	 6.00827977632054E-02 
479	 6.06947718198862E-02 
480	 6.10532343900528E-02 
481	 6.13596216954128E-02 
482	 6.17163169600818E-02 
483	 6.17746192202369E-02 
484	 6.19717837498145E-02 
485	 0.062475626848196 
486	 6.32228086945304E-02 
487	 6.36097698866873E-02 
488	 6.39497019307856E-02 
489	 6.44277497060077E-02 
490	 6.50284742021824E-02 
491	 0.065176270934306 
492	 6.56031079524692E-02 
493	 6.66931789351461E-02 
494	 6.71796477551964E-02 
495	 6.78559491034624E-02 
496	 6.84013812698012E-02 
497	 6.82045589570318E-02 
498	 6.91936202093091E-02 
499	 7.00074272551922E-02 
500	 7.01056567054309E-02 
501	 7.07573656029628E-02 
502	 7.12537302460268E-02 
503	 7.18102481806213E-02 
504	 7.27145626386085E-02 
505	 7.35295023045903E-02 
506	 7.40064979554864E-02 
507	 7.44433921228987E-02 
508	 7.54818375861014E-02 
509	 7.62316715378275E-02 
510	 7.67714798646463E-02 
511	 7.73509001579793E-02 
512	 7.82623817093405E-02 
513	 7.90971076193627E-02 
514	 7.96587769915303E-02 
515	 7.99946983375563E-02 
516	 8.10892096710606E-02 
517	 8.22020710252705E-02 
518	 8.29208509393169E-02 
519	 8.34514387555138E-02 
520	 8.42703245085184E-02 
521	 8.51367621322493E-02 
522	 8.57910623852489E-02 
523	 8.64891557911682E-02 
524	 8.75567140016927E-02 
525	 0.088687336331775 
526	 8.92105864101883E-02 
527	 8.96967840029781E-02 
528	 9.05270363039057E-02 
529	 9.16999265145628E-02 
530	 9.25663747299226E-02 
531	 9.34511017570865E-02 
532	 9.42605003034085E-02 
533	 9.48669941613671E-02 
534	 9.58009038774619E-02 
535	 9.68398665705266E-02 
536	 9.78062831548788E-02 
537	 9.86305889129743E-02 
538	 9.93336270229778E-02 
539	 0.100016778772434 
540	 0.100815604433469 
541	 0.101923564224457 
542	 0.102983503105196 
543	 0.103860353365774 
544	 0.104600289971421 
545	 0.105474428239386 
546	 0.106318253192115 
547	 0.107135800793595 
548	 0.108422944798702 
549	 0.109305980303991 
550	 0.109901136047128 
551	 0.110641491893405 
552	 0.111467419497883 
553	 0.112440883498471 
554	 0.113507762680936 
555	 0.114476027071329 
556	 0.115253863917329 
557	 0.115881585658627 
558	 0.116514062980878 
559	 0.117599658874708 
560	 0.118262029601468 
561	 0.118741700835366 
562	 0.119872777171778 
563	 0.12070227118793 
564	 0.121033446730176 
565	 0.121141609867441 
566	 0.122066244801239 
567	 0.122526295443805 
568	 0.122870843477778 
569	 0.123796029122973 
570	 0.124243618749068 
571	 0.124446948432229 
572	 0.124705456444328 
573	 0.125277402952609 
574	 0.125589759094634 
575	 0.12569051338394 
576	 0.125887392046438 
577	 0.126912402727446 
578	 0.127202262480534 
579	 0.127008250198252 
580	 0.127548509456383 
581	 0.127473465531605 
582	 0.127229916360704 
583	 0.127181620743183 
584	 0.127181354553298 
585	 0.126637678450155 
586	 0.126068758222961 
587	 0.126148925740987 
588	 0.125331590479563 
589	 0.124991015346931 
590	 0.125211261592228 
591	 0.124467973861377 
592	 0.12389456702449 
593	 0.123460435812914 
594	 0.12296815738482 
595	 0.122376017808734 
596	 0.12178467057256 
597	 0.121017469626927 
598	 0.119877303209431 
599	 0.119357984239235 
600	 0.1187529403481 
601	 0.117928362262823 
602	 0.118082388335873 
603	 0.117550679568405 
604	 0.116935979991371 
605	 0.11722236638017 
606	 0.11738475023797 
607	 0.117399875111444 
608	 0.117282383888303 
609	 0.117063860575019 
610	 0.11730007746411 
611	 0.117383292732197 
612	 0.11693137983894 
613	 0.116924262423417 
614	 0.11742530724358 
615	 0.117882236028738 
616	 0.117533242527897 
617	 0.117414386770464 
618	 0.117431512479934 
619	 0.117502467618822 
620	 0.117809560555877 
621	 0.117648552832427 
622	 0.117273352845392 
623	 0.117141142138443 
624	 0.116963131968269 
625	 0.116727462058496 
626	 0.116446365497287 
627	 0.116174583300804 
628	 0.116450389297048 
629	 0.116622955053145 
630	 0.116323050146754 
631	 0.116538582855738 
632	 0.116429579967867 
633	 0.116266261119307 
634	 0.116670914403263 
635	 0.116685735545221 
636	 0.116399070184717 
637	 0.116094555611761 
638	 0.116177928705962 
639	 0.116178890704845 
640	 0.116223907046671 
641	 0.116396162843445 
642	 0.115861552777854 
643	 0.115541152310258 
644	 0.115265427773762 
645	 0.114019160100527 
646	 0.113701038464812 
647	 0.113745391652766 
648	 0.113486611650309 
649	 0.113282924961596 
650	 0.113483297937234 
651	 0.113509667892007 
652	 0.112663368467669 
653	 0.112019742359804 
654	 0.1110502613613 
655	 0.109883833184093 
656	 0.10977994935221 
657	 0.109124194705522 
658	 0.108587632556273 
659	 0.108698386556062 
660	 0.108293801753132 
661	 0.107512148844576 
662	 0.106747130693967 
663	 0.106531199917293 
664	 0.106744553338392 
665	 0.106422224874022 
666	 0.105494873905412 
667	 0.105674395729656 
668	 0.105728184662635 
669	 0.10531833670067 
670	 0.104561441707263 
671	 0.104262386894576 
672	 0.104299604592601 
673	 0.104514377252103 
674	 0.10475512854525 
675	 0.104773748766099 
676	 0.10471885880952 
677	 0.104686216311016 
678	 0.104346699625087 
679	 0.10456569758313 
680	 0.104858543509151 
681	 0.104380500238816 
682	 0.104537612002905 
683	 0.104949427378608 
684	 0.105210641215281 
685	 0.105088506493631 
686	 0.104411412645543 
687	 0.103633882419437 
688	 0.103494906799716 
689	 0.104579082653257 
690	 0.104953064192361 
691	 0.104190326687182 
692	 0.102871319349671 
693	 0.102437373187995 
694	 0.102106491987701 
695	 0.101568164936337 
696	 0.101865102863418 
697	 0.101087978703558 
698	 9.93995681956224E-02 
699	 9.78066486179066E-02 
700	 9.71227307920762E-02 
701	 9.66361485597565E-02 
702	 9.57797137695176E-02 
703	 9.42882300058964E-02 
704	 9.30820579310837E-02 
705	 9.21050027034695E-02 
706	 9.11107039896068E-02 
707	 8.96215048672589E-02 
708	 8.79652771991437E-02 
709	 8.62393213059668E-02 
710	 8.44484553913811E-02 
711	 0.082403200565021 
712	 7.99546454091815E-02 
713	 0.077393692323112 
714	 7.54030714190796E-02 
715	 7.29817626803124E-02 
716	 6.95552515809156E-02 
717	 6.55126594294874E-02 
718	 6.27038187182789E-02 
719	 6.10680911096901E-02 
720	 5.98727259280956E-02 
721	 5.82136561202756E-02 
722	 5.61558912776021E-02 
723	 5.34130123577131E-02 
724	 5.07338444325113E-02 
725	 4.90438436565688E-02 
726	 0.046940861206009 
727	 4.45148620400604E-02 
728	 4.20442017343375E-02 
729	 3.93090668437598E-02 
730	 3.68402875990399E-02 
731	 3.48346976573394E-02 
732	 0.032989504277735 
733	 3.14990256063694E-02 
734	 3.00082373389789E-02 
735	 2.87121158646688E-02 
736	 2.84709876427341E-02 
737	 2.77151824443756E-02 
738	 2.69906085623259E-02 
739	 2.68057621121208E-02 
740	 2.60605010743177E-02 
741	 2.59540768862306E-02 
742	 2.62770306073502E-02 
743	 2.62079836945442E-02 
744	 0.026114922308884 
745	 2.58932606870269E-02 
746	 2.56478774700719E-02 
747	 2.57972435897533E-02 
748	 2.60589208506052E-02 
749	 2.61068628643465E-02 
750	 2.58044899038313E-02 
751	 2.56331044246899E-02 
752	 2.54978801919194E-02 
753	 2.54724357561057E-02 
754	 2.56808086355892E-02 
755	 2.59905421085805E-02 
756	 0.025949338115178 
757	 2.56477972429609E-02 
758	 0.026133141116993 
759	 2.58855960494205E-02 
760	 2.47968105989417E-02 
761	 2.47197495495443E-02 
762	 2.46269807453192E-02 
763	 2.53389398110506E-02 
764	 2.63791364515898E-02 
765	 2.69855381810546E-02 
766	 2.63872423800374E-02 
767	 2.58533936283097E-02 
768	 2.58872429838634E-02 
769	 2.64414936777189E-02 
770	 2.72468531817718E-02 
771	 2.78975797669303E-02 
772	 2.80450024018765E-02 
773	 2.74155527901873E-02 
774	 2.72380758107352E-02 
775	 2.76307172800386E-02 
776	 2.81573138474952E-02 
777	 2.85715317637398E-02 
778	 2.88110853439841E-02 
779	 0.028904853649112 
780	 2.89837612490147E-02 
781	 2.97356667788433E-02 
782	 3.02086537139947E-02 
783	 2.99026257796006E-02 
784	 3.00244130562956E-02 
785	 3.02944556392835E-02 
786	 3.05256697806116E-02 
787	 3.06675433163958E-02 
788	 3.14593495488756E-02 
789	 3.18885025058577E-02 
790	 3.21986080187613E-02 
791	 3.34779052542747E-02 
792	 3.35830527448475E-02 
793	 3.31612843608981E-02 
794	 0.033093414937384 
795	 3.41048976734464E-02 
796	 0.034576922530893 
797	 0.03487268547644 
798	 3.54883390691204E-02 
799	 3.49333894356853E-02 
800	 3.56305818305568E-02 
801	 0.0368896465883 
802	 3.65653133878797E-02 
803	 3.67964689032678E-02 
804	 3.70417159239966E-02 
805	 3.69507240038043E-02 
806	 3.66132110963127E-02 
807	 3.63079264516216E-02 
808	 3.59918768990516E-02 
809	 3.56766055043515E-02 
810	 0.035780620032259 
811	 3.52678261251953E-02 
812	 0.034589870909907 
813	 3.46872483579565E-02 
814	 3.37826488991418E-02 
815	 3.29832619081105E-02 
816	 3.25215185810463E-02 
817	 3.17841215809226E-02 
818	 3.23469297581668E-02 
819	 3.18014561948851E-02 
820	 3.01323207300535E-02 
821	 3.02823155019416E-02 
822	 2.95918865740394E-02 
823	 2.83362238719582E-02 
824	 2.72153484624327E-02 
825	 2.56155420245011E-02 
826	 2.39888669278276E-02 
827	 2.25578920984888E-02 
828	 0.021423281555524 
829	 1.93528373316251E-02 
830	 1.89961097132302E-02 
831	 1.92983076447609E-02 
832	 1.71600852280768E-02 
833	 1.65598321995612E-02 
834	 1.66141843131126E-02 
835	 1.65670723837874E-02 
836	 1.65516674438958E-02 
837	 1.61662735969856E-02 
838	 0.015433530807149 
839	 1.48108507179033E-02 
840	 1.56612897974257E-02 
841	 1.59964079944626E-02 
842	 1.57938634007675E-02 
843	 1.55884359506711E-02 
844	 1.47766551290471E-02 
845	 0.014887001846112 
846	 1.54167255658715E-02 
847	 1.47165173540254E-02 
848	 1.42850060305749E-02 
849	 1.48391385122238E-02 
850	 1.56411511112853E-02 
851	 1.44418089543108E-02 
852	 1.37888943039248E-02 
853	 1.42415948267084E-02 
854	 1.49756080173769E-02 
855	 1.33238486247886E-02 
856	 0.013366791043577 
857	 1.40809192112108E-02 
858	 1.37344953393548E-02 
859	 1.34656122097587E-02 
860	 0.012708177737392 
861	 1.21851711770365E-02 
862	 1.28556378423134E-02 
863	 1.30970084771317E-02 
864	 1.29331789037977E-02 
865	 1.23951758205656E-02 
866	 1.16597677906632E-02 
867	 0.013075719240158 
868	 1.38028705288724E-02 
869	 1.28209078618683E-02 
870	 1.23090899180562E-02 
871	 1.12503917258903E-02 
872	 1.12882703745101E-02 
873	 1.25755406318645E-02 
874	 1.06573700272186E-02 
875	 1.14040032927444E-02 
876	 1.28143909748574E-02 
877	 1.18454746526316E-02 
878	 1.11297752498315E-02 
879	 1.09414651536508E-02 
880	 1.12418177206176E-02 
881	 1.15391769254492E-02 
882	 1.03380685063159E-02 
883	 8.96169535783062E-03 
884	 8.60450579753655E-03 
885	 9.88296758365212E-03 
886	 1.12048891390263E-02 
887	 1.10753782941985E-02 
888	 9.75666142758484E-03 
889	 9.42519204930939E-03 
890	 1.03793598418583E-02 
891	 1.11559567422782E-02 
892	 1.09813572728738E-02 
893	 1.13758164011328E-02 
894	 9.54492051725921E-03 
895	 8.55129821339193E-03 
896	 1.13211147710687E-02 
897	 1.21513784973148E-02 
898	 6.70325004282551E-03 
899	 4.53068557231356E-03 
900	 0.012154574322888 
901	 9.65102656656176E-03 
902	 7.87469733715549E-03 
903	 8.4478293577807E-03 
904	 9.33264540764498E-03 
905	 8.36789770595887E-03 
906	 7.90367283435091E-03 
907	 8.16220285249803E-03 
908	 8.01143547039484E-03 
909	 1.11396319697059E-02 
910	 1.13890046369733E-02 
911	 7.59803257669541E-03 
912	 4.51560289811891E-03 
913	 6.65094548543243E-03 
914	 5.52271939527158E-03 
915	 2.08809890471599E-03 
916	 7.80884482263965E-03 
917	 8.75005064178249E-03 
918	 5.89481346900078E-03 
919	 3.47864360330848E-03 
920	 6.59879922644717E-03 
921	 5.33931789865446E-03 
922	 9.97038204830078E-04 
923	-1.34330003369918E-03 
924	 7.54419385309916E-03 
925	 8.17258029025696E-03 
926	 6.1279173608074E-03 
927	 1.02136812060066E-02 
928	-2.69431711564008E-03 
929	 1.61575862841186E-03 
930	 2.00675889358915E-02 
931	 1.55120402381873E-02 
932	 3.76704943795074E-03 
933	-8.20223329605623E-03 
934	 1.69332554836109E-02 
935	 5.63998153221138E-02 
936	-7.59446021991885E-02 
937	-4.32954759122435E-02 
938	 4.88357777807904E-02 
939	 0.034371335979612 
940	 4.79497961562344E-03 
941	-1.71750701782507E-02 
942	-1.98718088591183E-02 
943	 2.49660834442009E-03 
944	 3.14001979546276E-02 
945	 2.26767252453182E-02 
946	 7.95082793975845E-03 
947	 3.61527105512518E-02 
948	-4.25473879849968E-02 
949	-2.31670827011756E-02 
950	 5.61395928350677E-02 
951	 4.30951112938212E-02 
952	-2.01537924863962E-03 
953	-7.45449697991588E-03 
954	 1.89087273325845E-03 
955	-3.64598883267459E-02 
956	-1.25833023014492E-02 
957	-9.9779858290426E-04 
958	-1.35395655838475E-02 
959	-1.36584848535537E-02 
960	 0.017487847576999 
961	 2.4379445272685E-03 
962	-2.64344836305298E-02 
963	 8.5137492903084E-03 
964	 2.53583471743031E-02 
965	 1.92399494480064E-02 
966	 2.8374639875738E-03 
967	-5.90145411212285E-03 
968	-3.69100974830953E-03 
969	 3.15516138625004E-03 
970	 4.89236449419847E-03 
971	-6.02205168543692E-03 
972	-4.50582339419858E-03 
973	 4.2945868782341E-03 
974	 9.45387575869555E-03 
975	 2.03293382404066E-03 
976	 3.07971374982105E-03 
977	 2.32555051390582E-03 
978	 3.49901667207018E-03 
979	 1.79172334854476E-02 
980	 1.05472994759757E-02 
981	 4.15644410079181E-05 
982	-3.36214070696429E-03 
983	-1.09647173848977E-03 
984	 3.9924803560148E-03 
985	 8.18417129640456E-03 
986	 9.26956344749762E-03 
987	 6.97016683701796E-03 
988	 3.1156557452411E-03 
989	 4.01024157915682E-03 
990	 8.56794283384676E-03 
991	 9.43166764531415E-03 
992	-4.48433261604284E-03 
993	-7.88434647128137E-03 
994	 1.80856156169296E-03 
995	 8.51042973520987E-03 
996	 8.18654845852318E-03 
997	 2.88993201996905E-04 
998	-4.03976958822806E-03 
999	 6.71676525793877E-03 
1000	 0.010948299060274 
1001	 1.72783815424546E-02 
1002	 1.32910182282411E-02 
1003	 1.10570940328556E-02 
1004	 5.33377393892199E-03 
1005	 2.24785886184228E-03 
1006	 2.02658369754503E-03 
1007	 3.80226486382871E-04 
1008	-1.76806224308076E-03 
1009	 6.92610096593478E-04 
1010	 4.55426344202437E-03 
1011	 8.64390538346404E-03 
1012	 1.30291016129522E-02 
1013	 1.24838485202133E-02 
1014	 0.013543608552604 
1015	 1.45085178378767E-02 
1016	 1.48308563652275E-02 
1017	 1.56850565666382E-02 
1018	 1.45442346573742E-02 
1019	 9.78754493080964E-03 
1020	 7.58354693275623E-03 
1021	 5.28874904763924E-03 
1022	 3.99494410294652E-03 
1023	 4.66950606269289E-03 
1024	 3.1984935346946E-03 
1025	 2.14218931947214E-03 
1026	 3.09492106362237E-03 
1027	 2.97547833681957E-03 
1028	 3.76502259567574E-03 
1029	 4.2693891416208E-03 
1030	 3.42593451070918E-03 
1031	 4.4340412666044E-03 
1032	 7.68658359721851E-03 
1033	 8.34810885824492E-03 
1034	 7.60245685026103E-03 
1035	 8.25159785094688E-03 
1036	 9.68370027809539E-03 
1037	 9.36760459179219E-03 
1038	 9.56579692836398E-03 
1039	 7.93400719845659E-03 
1040	 6.81511267750888E-03 
1041	 7.39231624507352E-03 
1042	 7.34120308423864E-03 
1043	 9.44649609983096E-03 
1044	 1.00886323616267E-02 
1045	 7.9297790865895E-03 
1046	 9.25517217948125E-03 
1047	 1.52428361206762E-02 
1048	 1.54367662588527E-02 
1049	 1.44400988743971E-02 
1050	 1.26265849141054E-02 
1051	 4.45894927306517E-03 
1052	 1.51940925759451E-03 
1053	 2.45428505482661E-04 
1054	 6.40786876757109E-04 
1055	 6.14460967143198E-03 
1056	 8.64143489552679E-03 
1057	 1.05807604056929E-02 
1058	 1.31726829510198E-02 
1059	 0.013984401344927 
1060	 1.26892888563929E-02 
1061	 1.14468395574202E-02 
1062	 8.78280920578013E-03 
1063	 8.32082188676138E-03 
1064	 7.78807596347848E-03 
1065	 7.76647264106883E-03 
1066	 0.010893195453142 
1067	 1.11713094421222E-02 
1068	 7.83696430427318E-03 
1069	 7.91951703026431E-03 
1070	 9.84180020186173E-03 
1071	 1.03130834342349E-02 
1072	 1.17854679898838E-02 
1073	 1.44013942076384E-02 
1074	 1.30812906340717E-02 
1075	 7.3998455316182E-03 
1076	 6.10276157157668E-03 
1077	 4.68038063149552E-03 
1078	 4.56401249291761E-03 
1079	 0.007432752550849 
1080	 8.52519867499292E-03 
1081	 9.64201542466438E-03 
1082	 9.56490246572856E-03 
1083	 7.78348327680855E-03 
1084	 7.87798321595538E-03 
1085	 8.26489010057349E-03 
1086	 8.46450174370945E-03 
1087	 1.10057454648777E-02 
1088	 1.13853318059246E-02 
1089	 1.00950354196069E-02 
1090	 7.80713238746336E-03 
1091	 6.41889051008944E-03 
1092	 3.56044121083403E-03 
1093	 3.83502992181426E-03 
1094	 7.52600735313914E-03 
1095	 7.09024167460624E-03 
1096	 6.13256913866676E-03 
1097	 5.37383342937036E-03 
1098	 3.43958438362583E-04 
1099	-2.9448550553964E-04 
1100	 3.67121834253654E-03 
1101	 5.04911220376283E-03 
1102	 8.05008878025439E-03 
1103	 8.0516011426904E-03 
1104	 2.95995459077806E-03 
1105	 2.87502425954489E-03 
1106	-1.32796193231619E-03 
1107	-3.84963202141097E-03 
1108	-1.82740167011084E-03 
1109	 1.0647836159997E-03 
1110	 7.43276102195539E-03 
1111	 2.43874799886308E-02 
1112	 2.93188207816404E-02 
1113	 2.80558298573765E-02 
1114	 3.19326446522819E-02 
1115	 2.50827660210166E-02 
1116	 2.28648526157805E-02 
1117	 3.93946011807929E-02 
1118	 4.44140648167781E-02 
1119	 1.83707724563691E-02 
1120	 1.69086878550137E-02 
1121	 5.76871126920641E-02 
1122	 4.78801332277083E-02 
1123	 9.38121375698641E-03 
1124	 0.13801212157117 
1125	 0.174726523634767 
1126	 8.49618141741908E-02 
1127	 0.195271629777638 
1128	 0.12552493219064 
1129	 7.79269593649498E-02 
1130	 9.35464674979397E-02 
1131	 5.07843296979434E-02 
1132	-0.180869122972997 
1133	-0.17082583564662 
1134	 2.21543003811795E-02 
1135	 7.69212929217691E-03 
1136	-6.43172124852819E-02 
1137	-1.05189898278073E-02 
1138	 8.80596425730636E-02 
1139	-4.60824332971047E-02 
1140	-5.00667233425973E-02 
1141	 6.81289032699212E-02 
1142	 9.18536065203021E-03 
1143	-4.78008812473034E-02 
1144	 3.81470488898015E-02 
1145	 3.85717400832613E-02 
1146	 7.32693754895425E-03 
1147	 1.93244917210943E-02 
1148	-0.041191071070859 
1149	-8.66984972003536E-02 
1150	-7.39087119684529E-02 
1151	-9.6527740469149E-04 
1152	 1.25737573599557E-02 
1153	 1.46781893154164E-02 
1154	 2.08032556089378E-02 
1155	 1.61597464678981E-02 
1156	 1.48407441663625E-02 
1157	 1.25382026300608E-02 
1158	 2.94732448853023E-02 
1159	 3.23831059673482E-02 
1160	 1.63525496866448E-02 
1161	 1.60781246513706E-02 
1162	 1.36960063673858E-02 
1163	-7.47208928036932E-04 
1164	 6.94043621457803E-04 
1165	 1.08769276531963E-02 
1166	 6.32329152308248E-03 
1167	 4.32090244312386E-03 
1168	 1.02638628283441E-02 
1169	 6.4818141328434E-03 
1170	 1.51672252147902E-03 
1171	 6.7085153609205E-05 
1172	 7.33802391512217E-04 
1173	 1.03710440842551E-04 
1174	-1.63545727690209E-03 
1175	 6.07219307966485E-04 
1176	 4.8167856574943E-03 
1177	 6.18357387533313E-03 
1178	 2.63699154554984E-03 
1179	 3.41558325237519E-03 
1180	 6.35488350165157E-03 
1181	 5.38871645681858E-03 
1182	 5.60887772851752E-03 
1183	 9.77162627464274E-03 
1184	 1.38839756248975E-02 
1185	 1.44610841102862E-02 
1186	 0.013965157582561 
1187	 7.3854316094817E-03 
1188	-1.22512915228044E-03 
1189	 4.82225598165022E-04 
1190	 5.97323317295899E-03 
1191	 7.8743576966328E-03 
1192	 8.45479087239142E-03 
1193	 7.81761298246136E-03 
1194	 4.77812259115076E-03 
1195	 4.1458332765323E-03 
1196	 7.72426992456718E-03 
1197	 1.09415550659347E-02 
1198	 8.9422960964239E-03 
1199	 5.60926106011848E-03 
1200	 6.76941544235775E-03 
1201	 7.8086456612387E-03 
1202	 6.2053352434967E-03 
1203	 7.96466508688496E-03 
1204	 9.55131562148348E-03 
1205	 8.49254745110903E-03 
1206	 9.48007587857018E-03 
1207	 7.77002657647018E-03 
1208	 3.5235212333018E-03 
1209	 4.66724459636299E-03 
1210	 7.37949102339937E-03 
1211	 8.35000095873315E-03 
1212	 1.10715188438006E-02 
1213	 1.28489950199661E-02 
1214	 1.17441126775215E-02 
1215	 8.73181973001331E-03 
1216	 7.39620562472228E-03 
1217	 6.16520114697813E-03 
1218	 4.52613499744022E-03 
1219	 9.22117142426185E-03 
1220	 1.46420230354168E-02 
1221	 1.25300630775098E-02 
1222	 9.33818724323193E-03 
1223	 8.61547445900084E-03 
1224	 6.67356230271294E-03 
1225	 6.36971896624342E-03 
1226	 9.88566482112645E-03 
1227	 8.69790587424825E-03 
1228	 4.23746799924842E-03 
1229	 5.79694289088798E-03 
1230	 7.72577624057462E-03 
1231	 7.96718686472544E-03 
1232	 1.01848494461985E-02 
1233	 0.01003132771499 
1234	 8.15500289299311E-03 
1235	 6.75248018414048E-03 
1236	 4.76201519333912E-03 
1237	 4.20164462508382E-03 
1238	 4.42371669722637E-03 
1239	 3.27187666082801E-03 
1240	 5.05763780864025E-03 
1241	 8.14030313304726E-03 
1242	 7.49665895407626E-03 
1243	 6.92583033455863E-03 
1244	 6.14070907224263E-03 
1245	 3.73119100854499E-03 
1246	 3.96641405502967E-03 
1247	 7.41693955094316E-03 
1248	 8.93211086043051E-03 
1249	 7.77413366980996E-03 
1250	 6.51415748391697E-03 
1251	 5.4085754243924E-03 
1252	 4.49717243343158E-03 
1253	 2.95459143945634E-03 
1254	 4.59815791339123E-03 
1255	 8.4226876982932E-03 
1256	 8.21469509581012E-03 
1257	 5.51584119027696E-03 
1258	 6.63244635160347E-03 
1259	 7.04465805007416E-03 
1260	 6.19236100978113E-03 
1261	 7.79193553757609E-03 
1262	 9.15473797065615E-03 
1263	 9.07286106121813E-03 
1264	 8.38437694101468E-03 
1265	 5.65503288989732E-03 
1266	 4.09009590433554E-03 
1267	 5.05854945548157E-03 
1268	 3.17477083313949E-03 
1269	 1.4095987327649E-03 
1270	 5.64355745177278E-03 
1271	 5.94703854534334E-03 
1272	 1.75606867764545E-03 
1273	 3.53893014425808E-03 
1274	 5.69925760456342E-03 
1275	 5.86632071317754E-03 
1276	 6.61960629804594E-03 
1277	 5.81329601707298E-03 
1278	 5.77897423445618E-03 
1279	 7.73597817611331E-03 
1280	 7.35410631529022E-03 
1281	 6.56290823662128E-03 
1282	 5.74140204581053E-03 
1283	 6.67827782466658E-03 
1284	 7.17929179190728E-03 
1285	 6.30990198848835E-03 
1286	 5.9736619482999E-03 
1287	 7.01310546820461E-03 
1288	 9.04050118992286E-03 
1289	 8.04498455971722E-03 
1290	 8.29459395282298E-03 
1291	 4.40078800444771E-03 
1292	 1.9759922206741E-03 
1293	 2.02553845831858E-03 
1294	 4.27305860138749E-03 
1295	 6.72043924726126E-03 
1296	 5.65561497192116E-03 
1297	 4.96100406305957E-03 
1298	 4.72355077927692E-03 
1299	 7.05079560307916E-03 
1300	 1.27766169248835E-02 
1301	 1.05913431756868E-02 
1302	 3.99278263605116E-03 
1303	 4.87990768844461E-03 
1304	 7.5257026543053E-03 
1305	 6.25073131136511E-03 
1306	 4.6330527695951E-03 
1307	 6.48129178167199E-03 
1308	 8.7614883995177E-03 
1309	 6.73993962850269E-03 
1310	 6.63259804256427E-03 
1311	 1.34189565073371E-02 
1312	 0.017231096843549 
1313	 1.75173234666858E-02 
1314	 1.50797282029945E-02 
1315	 8.57752741061635E-03 
1316	 1.13454482428773E-02 
1317	 1.77841993100126E-02 
1318	 1.62390128587484E-02 
1319	 0.019891012580422 
1320	 2.32664222189168E-02 
1321	 0.016819862164752 
1322	 7.14510532282689E-03 
1323	 0.020792445381383 
1324	 3.79200682229484E-02 
1325	 3.22385825468973E-02 
1326	 3.09023302786814E-02 
1327	 0.04419567700571 
1328	 4.02398261948129E-02 
1329	 2.73702701469244E-02 
1330	 4.62899323150737E-02 
1331	 6.13526138213315E-02 
1332	 4.89917818029653E-02 
1333	 5.08598527945172E-02 
1334	 4.90527505960464E-02 
1335	 4.71466912264416E-02 
1336	 3.13231143734052E-02 
1337	 2.16693134052849E-02 
1338	 1.87251539728046E-02 
1339	 1.58552756505361E-02 
1340	 1.00901137123457E-02 
1341	 9.35454817642774E-03 
1342	 1.44131673075414E-02 
1343	 3.18079697884796E-02 
1344	 5.68375815473373E-02 
1345	 7.67574609774052E-02 
1346	 0.13460405414489 
1347	 0.174032462278879 
1348	 0.196066721270394 
1349	 0.228609737413396 
1350	 0.216382092740373 
1351	 0.2069044906318 
1352	 0.143611487936044 
1353	 0.131273505669923 
1354	 0.184881936714079 
1355	 0.190462423986009 
1356	 7.22694934486207E-02 
1357	-5.02761464220782E-02 
1358	-1.57646896238199E-02 
1359	 0.364087001294753 
1360	 0.202692701371166 
1361	 0.120269865048842 
1362	 0.452558216974206 
1363	 8.62721283642203E-02 
1364	-0.159356827892831 
1365	 0.379131794278662 
1366	 0.236941939805125 
1367	-0.456157916855882 
1368	-0.743939099447997 
1369	-0.547947994588344 
1370	-0.585437164167943 
1371	-3.27157648698066 
1372	-2.72301288150143 
1373	-1.11562004598996 
1374	-0.393451484345828 
1375	 0.631681892204417 
1376	 0.888479512577869 
1377	 8.83535868010597 
1378	-7.97976129223235 
1379	-4.55668676812834 
1380	-3.9795344258145 
1381	-104.185704210465 
1382	 18.1475664762186 
1383	-1.99087828395492 
1384	-2.78146843529164 
1385	-9.12344206166453 
1386	-23.9780978139243 
1387	 3.76379413267453 
1388	 5.4024928761162 
1389	-5.36867767876811 
1390	-10.2765199965043 
1391	-17.0822720616738 
1392	 7.31888292415602 
1393	 3.90709519107068 
1394	 3.58573209206869 
1395	 4.15809286930795 
1396	 4.09858469923391 
1397	 4.14814189479005 
1398	 23.841352718678 
1399	 2.42015158552005 
1400	-0.630232270208734 
1401	-3.58041375576101 
1402	 2.82522815093709 
1403	 2.38730292976187 
1404	 2.82087722657757 
1405	 3.21983009592377 
1406	 17.3363749627842 
1407	 5.65156482106591 
1408	 2.65818983805394 
1409	 2.46633656591256 
1410	 0.567569825729188 
1411	 1.54632401881117 
1412	-1.15446979613263 
1413	-2.59729516784701 
1414	-1.1664841272695 
1415	-1.66908608636613 
1416	 1.10268878959213 
1417	 1.28801270596615 
1418	-1.30731024654505 
1419	-0.638870444346582 
1420	-1.00959826357921 
1421	-0.553720303687735 
1422	 13.3795349519125 
1423	-8.8262181140789 
1424	-1.34803724011675 
1425	-1.17743198135806 
1426	-0.801669797544084 
1427	 0.262299932171917 
1428	-0.342048165604156 
1429	-0.366211531764305 
1430	-0.15818437661169 
1431	 0.106474459162897 
1432	 1.08664013347389 
1433	 1.43474902519891 
1434	 0.393139499197191 
1435	 0.293965265231204 
1436	 0.169902019801753 
1437	-0.127439840953018 
1438	-9.05541060148812E-02 
1439	 0.350922480373732 
1440	 0.393994922976377 
1441	 1.08081978242373 
1442	-0.730489929975459 
1443	-0.555198255332061 
1444	 0.489288793845125 
1445	 0.815555201611588 
1446	 0.849191251143425 
1447	 0.846832322250696 
1448	 0.624056157657651 
1449	 0.864869304030379 
1450	 1.07804981582848 
1451	 0.861561490508156 
1452	 0.784419168118576 
1453	 0.643902839235749 
1454	 0.41504261719682 
1455	 0.346655868951225 
1456	 0.214586420827984 
1457	-2.28231053727603E-02 
1458	-9.68031140232029E-03 
1459	 0.1403439206093 
1460	 8.56458985712315E-02 
1461	-5.14604160707993E-02 
1462	 2.72713896547355E-02 
1463	 0.169809355266638 
1464	 0.111165651871498 
1465	 4.84023771146547E-02 
1466	 0.135348237200426 
1467	 0.128072068735496 
1468	 0.10332314702151 
1469	 0.345451701060273 
1470	 0.500726445203502 
1471	 0.436006245336684 
1472	 0.343517175495126 
1473	 0.430690858575495 
1474	 0.434649667611197 
1475	 0.140516554658459 
1476	 5.54308315498094E-02 
1477	 0.146725791972949 
1478	 0.11804470370352 
1479	 1.19921662752917E-03 
1480	-1.55213618210242E-02 
1481	-3.04525261399529E-02 
1482	 1.05033217611034E-02 
1483	 0.129992330837416 
1484	 0.170678337765558 
1485	 0.242724872899204 
1486	 0.22572339627015 
1487	 0.115246490274733 
1488	 9.16948388184789E-02 
1489	 8.33279543713852E-02 
1490	 5.75544043343308E-02 
1491	 4.78900063006409E-02 
1492	 5.06992252488959E-02 
1493	 4.13274506983139E-02 
1494	 3.51952180863845E-02 
1495	 0.051247792607812 
1496	 5.19599083744479E-02 
1497	 4.09261793783949E-02 
1498	 3.14760026904433E-02 
1499	 1.72521621626798E-02 
1500	 1.30731133063004E-02 
1501	 1.09654559206946E-02 
1502	 6.23355024881674E-03 
1503	 5.8872149827243E-03 
1504	 8.70051433488441E-03 
1505	 1.11554941743565E-02 
1506	 0.013147264952042 
1507	 1.13085335802669E-02 
1508	 3.20848676714769E-03 
1509	 9.24253257810966E-03 
1510	 1.31959457940289E-02 
1511	 4.80796727699183E-03 
1512	-1.49165297792893E-04 
1513	-2.34608587738194E-03 
1514	-7.97743141590267E-03 
1515	-1.02137925593077E-02 
1516	 4.71234107406617E-05 
1517	 6.7080855490205E-03 
1518	 2.29940592525646E-03 
1519	 5.10472393011064E-03 
1520	 8.8761125761764E-03 
1521	-2.39393017814436E-03 
1522	-9.2500339725616E-03 
1523	-1.24165981369633E-03 
1524	 3.87487172255977E-03 
1525	 6.50002943410095E-03 
1526	 8.83850668763876E-03 
1527	 6.65216869711964E-03 
1528	 6.15231106254384E-03 
1529	 7.78968894346276E-03 
1530	 4.59453782421494E-03 
1531	 1.15269402356857E-03 
1532	 3.93441324317222E-03 
1533	 3.18709562910012E-03 
1534	 1.52708705794764E-03 
1535	 3.91640662275376E-03 
1536	 6.97827600518222E-03 
1537	 1.01443697451856E-02 
1538	 9.8742861530296E-03 
1539	 9.65735822627741E-03 
1540	 6.58474590059161E-03 
1541	 1.17392522031542E-03 
1542	 2.82982913702752E-03 
1543	 5.13756230629965E-03 
1544	 3.1716173130906E-03 
1545	-7.66045410041554E-04 
1546	-2.3231483506363E-03 
1547	 2.20736572764259E-03 
1548	 4.46539785745037E-04 
1549	-3.71156765305841E-03 
1550	 5.9083299816943E-04 
1551	 3.56262722427022E-03 
1552	 2.38601011713496E-03 
1553	-1.52632022900801E-04 
1554	 2.51835296853488E-03 
1555	 5.9337728825814E-03 
1556	 1.88231859017866E-04 
1557	 8.77662860724682E-04 
1558	 8.63449010792991E-03 
1559	 8.97491359240791E-03 
1560	 1.10461279811199E-02 
1561	 1.68974273623866E-02 
1562	 1.47937602299383E-02 
1563	 8.53325350774451E-03 
1564	 7.39269035899813E-03 
1565	 1.13619815400924E-02 
1566	 1.20430116632654E-02 
1567	 0.009213082884412 
1568	 0.013314911444318 
1569	 1.50456796355439E-02 
1570	 8.82816215004419E-03 
1571	 8.45447459443015E-03 
1572	 6.94518379761478E-03 
1573	 2.98623476488894E-03 
1574	 8.60400106258741E-03 
1575	 1.08784101564155E-02 
1576	 5.36344711934422E-03 
1577	 6.0013847310341E-03 
1578	 6.00012527813531E-03 
1579	 5.32317322301305E-03 
1580	 1.12966825577863E-02 
1581	 1.04264185900949E-02 
1582	 1.25571127716765E-03 
1583	-6.08031491895037E-03 
1584	-7.07153365741408E-03 
1585	-2.73860687139402E-03 
1586	-3.3223746581251E-04 
1587	 1.59275062982204E-04 
1588	 2.87934860250094E-03 
1589	 5.84296365958099E-03 
1590	 7.40584910471426E-03 
1591	 0.004513305302086 
1592	 1.77242035276381E-03 
1593	 3.5161434082428E-03 
1594	 5.15407712681216E-03 
1595	 8.72063495249952E-03 
1596	 9.97178699916654E-03 
1597	 5.90084441417947E-03 
1598	 2.47141527281031E-03 
1599	 6.02558474838392E-04 
1600	 1.37663289188625E-03 
1601	 2.75866045000852E-03 
1602	 6.70693560386188E-04 
1603	-1.08214023765744E-04 
1604	 2.99109789749575E-03 
1605	 3.44955883798945E-03 
1606	 1.56758472429876E-03 
1607	 1.93719962092647E-03 
1608	 1.34351921725252E-03 
1609	 6.6529779319913E-04 
1610	 1.47334546125525E-03 
1611	 9.31677618107385E-04 
1612	 7.40069159808374E-04 
1613	 1.41169265985102E-03 
1614	 2.63743231750258E-03 
1615	 2.76453499819689E-03 
1616	 2.32645925482965E-03 
1617	 2.22156087920108E-03 
1618	 5.81316238960564E-05 
1619	 2.82487403022756E-03 
1620	 6.66638455747169E-03 
1621	 1.87661028826089E-03 
1622	-2.30096159890528E-03 
1623	-3.32656012754339E-03 
1624	-5.65320754990626E-03 
1625	-5.30153695765817E-03 
1626	-2.23301814402977E-03 
1627	 1.13673616672887E-03 
1628	 2.85265412669311E-03 
1629	 5.5208778877858E-03 
1630	 8.52095086131435E-03 
1631	 6.46715167725633E-03 
1632	 3.48333199839747E-03 
1633	 5.90123487818731E-04 
1634	-1.36139373023747E-03 
1635	-6.47423559217859E-04 
1636	 3.64809366801861E-03 
1637	 1.04253264312274E-02 
1638	 1.33160914033447E-02 
1639	 1.34412403770798E-02 
1640	 1.06764112866752E-02 
1641	 5.17790433225075E-03 
1642	 3.1232620617624E-03 
1643	 5.50884908218343E-03 
1644	 2.02898185433326E-03 
1645	-4.34921385383806E-03 
1646	-3.52343119811871E-04 
1647	 2.40100714858191E-03 
1648	 9.51090897955722E-04 
1649	 8.22218782720749E-03 
1650	 1.18871387364429E-02 
1651	 6.43820993023469E-03 
1652	 9.67245734394684E-03 
1653	 1.80742863733483E-02 
1654	 1.58044489489243E-02 
1655	 6.86488318173675E-03 
1656	 5.76026889264897E-03 
1657	 3.05079144897821E-03 
1658	-5.21212498996287E-05 
1659	 4.50950242358001E-03 
1660	 3.87059303303892E-03 
1661	-4.38306626520134E-03 
1662	-3.88069607227679E-03 
1663	 2.16737821790416E-03 
1664	 1.14318754964444E-03 
1665	-2.68419980167381E-03 
1666	-2.60027931817305E-03 
1667	-2.26597704300855E-03 
1668	-3.67806625902885E-03 
1669	-7.62600178546309E-04 
1670	 2.00511741993885E-03 
1671	 3.13558451174312E-03 
1672	 8.94988120912223E-03 
1673	 1.66696763622074E-02 
1674	 1.88049013625042E-02 
1675	 1.46389657405899E-02 
1676	 1.42744285634153E-02 
1677	 1.44873384559732E-02 
1678	 5.92611224567824E-03 
1679	-1.55235747599154E-04 
1680	 4.22300149690349E-03 
1681	 6.09713191213481E-03 
1682	 3.96874847144353E-03 
1683	 1.15662508952985E-02 
1684	 0.018114772332096 
1685	 1.32562408164183E-02 
1686	 7.45392489099087E-03 
1687	 4.25353560924283E-03 
1688	 3.75438965045509E-03 
1689	 3.31874765724482E-03 
1690	 6.42896025379223E-03 
1691	 9.66321784932894E-03 
1692	 1.71937811273058E-03 
1693	-2.22971459106677E-03 
1694	 5.40506896263557E-03 
1695	 7.37221935331966E-03 
1696	 5.24267979891136E-03 
1697	 6.54825483218185E-03 
1698	 1.71395199100203E-03 
1699	-4.46077567514234E-03 
1700	-1.13079850721081E-03 
1701	-5.39380395853099E-04 
1702	-5.66758678863217E-03 
1703	-1.65869778607305E-03 
1704	 6.56552266579799E-03 
1705	 1.15446977775622E-02 
1706	 1.64074636125863E-02 
1707	 8.28916983756745E-03 
1708	-1.22846457145468E-02 
1709	-1.83764572204856E-02 
1710	-0.011899820879286 
1711	-4.56849184388848E-03 
1712	 9.02785918533339E-03 
1713	-6.84604163850223E-03 
1714	-6.02925750906762E-03 
1715	 1.23362959715203E-02 
1716	 1.83034426480736E-02 
1717	 1.86769553954158E-02 
1718	 1.49844625444593E-02 
1719	 7.29150449719754E-03 
1720	 9.31956205063845E-03 
1721	 2.66356877135009E-02 
1722	 2.53948197566856E-02 
1723	 6.11239446180953E-03 
1724	-7.19141796142938E-03 
1725	-1.79400399281261E-02 
1726	-7.14490993131441E-03 
1727	 1.62689199483734E-02 
1728	 1.27927518785539E-02 
1729	 1.18973292170223E-03 
1730	 2.31060658091075E-03 
1731	-8.04442794185227E-04 
1732	 7.57188241706429E-03 
1733	 2.08219558205644E-02 
1734	 1.34692938934185E-02 
1735	 7.5404756040549E-03 
1736	 3.3488767726121E-03 
1737	-1.95751236399131E-03 
1738	-6.48138509629924E-03 
1739	-1.34395532754212E-02 
1740	-3.19001479576344E-03 
1741	 1.32750267213449E-02 
1742	 6.68514586263511E-03 
1743	-4.4522033547001E-03 
1744	-1.10744393237229E-02 
1745	-3.16646487622989E-02 
1746	-0.023816990539818 
1747	-1.18266413884318E-02 
1748	-1.56646921919681E-03 
1749	 2.95601413490475E-03 
1750	 2.04004195002466E-02 
1751	 2.39895041991617E-02 
1752	 8.66662645579478E-03 
1753	 6.64859560302644E-03 
1754	 2.48523985593749E-03 
1755	-2.73517218915419E-03 
1756	 1.24798737998561E-03 
1757	 1.05116219756637E-02 
1758	 6.79637892835079E-03 
1759	 3.97027748245684E-03 
1760	-1.27156692664398E-02 
1761	-1.10384368810047E-02 
1762	 1.19343697332087E-02 
1763	 1.80005358654998E-02 
1764	 1.45703801540644E-02 
1765	 1.10082819478306E-02 
1766	-1.16013364689028E-02 
1767	-3.36527638828818E-02 
1768	-1.61236226057255E-02 
1769	-1.49957141092066E-02 
1770	-2.61142224599282E-02 
1771	 3.81042219249295E-03 
1772	 9.03623177578963E-03 
1773	 8.45566701067286E-03 
1774	 2.22486381854513E-02 
1775	 7.2606681894671E-03 
1776	-4.28878301026466E-03 
1777	-3.68452005874328E-02 
1778	-4.08901782728612E-02 
1779	-2.45154295536369E-02 
1780	-2.39120740510139E-02 
1781	 6.4667077163789E-03 
1782	-2.00110216305373E-03 
1783	-0.073376969835888 
1784	-5.01438332755042E-02 
1785	 1.10674746898536E-02 
1786	 1.77087482245891E-02 
1787	 8.12991037263202E-02 
1788	 8.55088921423969E-02 
1789	-4.26613337816351E-02 
1790	-0.07699231047589 
1791	-0.113693665725041 
1792	-0.138035556401108 
1793	-0.136010991551199 
1794	 0.019596952929571 
1795	 0.244200985071962 
1796	 0.223127471090426 
1797	 0.313060726197818 
1798	 0.119796016879061 
1799	-0.187276823126322 
1800	-7.66552830608473E-02 
1801	-3.24503816757096E-02 
1802	-0.642025105526604 
1803	-0.696370567193535 
1804	 0.264903497872968 
1805	 0.52772782841921 
1806	 1.39759232770483 
1807	 1.78662477245449 
1808	 0.644911696104279 
1809	 30.7277473699532 
1810	 7.05013831308492 
1811	 14.8993550223067 
1812	-2.66608100151587 
1813	-0.604356769640076 
1814	 0.386123699820532 
1815	 0.44282099415383 
1816	-2.55506591827357E-02 
1817	-10.4897998121694 
1818	 0.865201220825215 
1819	-1.78507502720556 
1820	 28.2336340411 
1821	 0.623602517212108 
1822	 0.353676143310959 
1823	-1.03076568727468 
1824	-2.2329709798675 
1825	 0.895118289996341 
1826	 0.381451423556026 
1827	-0.786900770216984 
1828	 0.888427681888243 
1829	 6.08408948241336E-02 
1830	-0.116289427510868 
1831	 0.429688555264358 
1832	 0.386206448387039 
1833	 0.897514808860598 
1834	 1.33872513928334 
1835	 2.54167647848026 
1836	 2.8512192168457 
1837	 7.04833641886201 
1838	 5.56600647571261 
1839	 1.88957149482532 
1840	 1.11364926141093 
1841	 1.04654640216347 
1842	 0.888001206972364 
1843	 0.908053147356567 
1844	 2.82359434497733 
1845	 5.11197285620441 
1846	 2.69299348748607 
1847	 2.07296558734166 
1848	 1.06329135348217 
1849	 0.858360038716462 
1850	 0.911798554119188 
1851	 1.6617370022779 
1852	 8.24449413739541 
1853	-15.9031717134252 
1854	-5.301021195837 
1855	-16.7108215288527 
1856	-16.3281645269538 
1857	-4.36832114180803 
1858	-2.58139783224139 
1859	-1.18303320813891 
1860	-1.03865708635579 
1861	-0.714085891661831 
1862	-0.313735965153733 
1863	 0.909913044369564 
1864	 0.459220811856024 
1865	 0.188745267189282 
1866	 0.1285981423338 
1867	-9.05771774685541E-03 
1868	-0.513123497070657 
1869	-0.820077238672631 
1870	-1.357887633448 
1871	-3.74326271482163 
1872	-7.84894505087298 
1873	 5.48252693677351 
1874	 5.02301779767761 
1875	 0.359118828682135 
1876	-0.406674448385327 
1877	-0.864299385436679 
1878	-0.917097839322151 
1879	-0.575789768767612 
1880	-0.83780569755595 
1881	-2.31682900774205 
1882	 15.0720587931818 
1883	 3.17055943545137 
1884	 1.74945147976611 
1885	 1.31207141366789 
1886	-2.42101569832867 
1887	-1.24560009386241 
1888	 16.0876889259446 
1889	 47.1122237180523 
1890	-8.74761305138984 
1891	-8.86010085968929 
1892	 96.5706222925843 
1893	-1.43672407341353 
1894	-0.889415057336765 
1895	-1.7264736516424 
1896	-1.63948478797069 
1897	-3.89182524617587 
1898	 6.53958830985867 
1899	 2.08510903088569 
1900	 1.17944964205259 
1901	 0.766260112437752 
1902	 0.499971853704845 
1903	 7.61626017735122E-02 
1904	 5.01091736145278E-02 
1905	 0.544353061374507 
1906	 1.2071358541283 
1907	-4.42288620187083 
1908	-1.88318401511302 
1909	-2.22427000697402 
1910	-1.07225162621038 
1911	-2.06705234565292 
1912	 5.51908656990936 
1913	 3.00894831768146 
1914	 1.27577580593316 
1915	 0.395339412556795 
1916	 0.566308965093018 
1917	 2.34150763367181 
1918	 4.81977227832455 
1919	 2.12809781826836 
1920	 2.96262773137411 
1921	 5.98444383786551 
1922	 2.96392873654181 
1923	 2.28985322741605 
1924	 2.91612335166644 
1925	 3.5225038573398 
1926	 3.60029428078836 
1927	 6.05690896022312 
1928	 3831.67875354506 
1929	 5.12211336542898 
1930	 3.40318351737544 
1931	-7.0818372981821 
1932	-2.57308050856119 
1933	-2.1461412858144 
1934	-1.75269688801782 
1935	-1.16829387551714 
1936	-0.882109225016051 
1937	-0.947887321035288 
1938	-0.83572870056727 
1939	-5.07641294893203 
1940	 0.39175412564115 
1941	 3.87403635068505E-02 
1942	-0.165683259891142 
1943	-0.171684076627008 
1944	-0.133459759452639 
1945	-3.09413212184582E-02 
1946	 0.294290141245477 
1947	 0.578162842877854 
1948	 0.623582533297917 
1949	 0.705359726882155 
1950	 2.03996834007486 
1951	-11.5013144177514 
1952	-2.18304643287232 
1953	-1.19859544214879 
1954	-1.20991419641799 
1955	-1.49266829508375 
1956	 8.65890474941824 
1957	 0.877980057371288 
1958	 0.106491315295089 
1959	 0.164361666881681 
1960	 3.22709431564375E-02 
1961	 0.117257082456637 
1962	 2.46852096572023E-02 
1963	-1.6523333600002 
1964	-1.04475812243208 
1965	-0.142319265702193 
1966	-0.1282014615707 
1967	-0.214219180869641 
1968	-0.352726489290845 
1969	-0.272490905713321 
1970	-0.259220189993115 
1971	-0.122739839527441 
1972	 0.260367412187862 
1973	 0.524043948440933 
1974	 0.672947519702913 
1975	 0.770655715031642 
1976	 0.830450256941813 
1977	 0.68199781826971 
1978	 0.570719205503957 
1979	 0.579225141431657 
1980	 0.719709461253301 
1981	 0.735838779748904 
1982	 0.5651630342644 
1983	 0.441339330357908 
1984	 0.303786380377513 
1985	 5.96949572276878E-02 
1986	 9.24365538766227E-02 
1987	 0.133696073710498 
1988	 4.28815915555403E-02 
1989	 2.39771716293949E-02 
1990	 2.97909299097273E-02 
1991	 0.130307837426741 
1992	 0.311924845579976 
1993	 0.512433923638304 
1994	 0.566803889633659 
1995	 0.497527529729121 
1996	 0.257529039327524 
1997	 0.257214207038127 
1998	 0.405014628680245 
1999	 0.615578445086556 
2000	 0.873221251016987 
2001	 0.742004302208692 
2002	 0.530754976581935 
2003	 0.422237656443669 
2004	 0.32529200302602 
2005	 0.281896933688589 
2006	 0.302596447366294 
2007	 0.396326378312531 
2008	 0.335241361822314 
2009	 0.352953861228633 
2010	 0.554637693518945 
2011	 0.551658599305074 
2012	 0.402612645976934 
2013	 0.228913752851416 
2014	 0.138495597445681 
2015	-0.157239307667259 
2016	-0.218099662583908 
2017	 7.33158141265439E-03 
2018	 0.15077633317865 
2019	 8.50692594288119E-02 
2020	 0.102860119780057 
2021	 0.169271309358696 
2022	 0.143439946753899 
2023	 0.173988619241617 
2024	 0.19134304677958 
2025	 0.146493804695579 
2026	 0.153620228654884 
2027	 0.203348723285833 
2028	 0.224017668276474 
2029	 0.212259610591302 
2030	 0.290148229448124 
2031	 0.307251998792413 
2032	 0.270503242090824 
2033	 0.314487229763876 
2034	 0.286140145353754 
2035	 0.175409037041463 
2036	 0.115427307656762 
2037	 7.13716553083303E-02 
2038	 3.66057264047238E-02 
2039	 3.76158289199453E-02 
2040	 0.154332992960856 
2041	 0.15556541754054 
2042	 8.74631472507159E-02 
2043	 5.30659988380109E-02 
2044	 3.04183639577308E-04 
2045	-8.51256121315382E-02 
2046	-0.074336058624969 
2047	-1.65248549297818E-02 
2048	 1.53985656234692E-02 
2049	 9.61973817043851E-02 
2050	 0.175060008421885 
2051	 0.241128414355797 
2052	 0.287334264718374 
2053	 0.290785356581093 
2054	 0.278842522532307 
2055	 0.254118447402032 
2056	 0.248632622246056 
2057	 0.266502504729992 
2058	 0.246824719071861 
2059	 0.222261849789035 
2060	 0.20070245095028 
2061	 0.162807253308372 
2062	 8.45429346167663E-02 
2063	 6.69384168620123E-02 
2064	 4.79893734040661E-02 
2065	 4.23416824064724E-02 
2066	 0.106420202193275 
2067	 0.107083969900011 
2068	 8.55199097757047E-02 
2069	 0.102213575058153 
2070	 9.91226659142519E-02 
2071	 7.86621362102973E-02 
2072	 7.68694050121831E-02 
2073	 7.17641522451194E-02 
2074	 2.64780165417937E-02 
2075	 3.76829947153423E-03 
2076	 1.26380664886937E-02 
2077	 2.26512542640331E-02 
2078	 2.64690048468867E-02 
2079	 4.54006542970982E-02 
2080	 0.105359221620163 
2081	 8.85738279545166E-02 
2082	 7.92699087030876E-02 
2083	 7.45693067133657E-02 
2084	 6.53176289968609E-02 
2085	 7.68841199138945E-02 
2086	 6.14717772789679E-02 
2087	 4.23786996505101E-02 
2088	 0.033040155423044 
2089	 1.94512025957876E-02 
2090	 5.97426891011619E-02 
2091	 8.14847345122115E-02 
2092	 0.072861049314553 
2093	 4.92787165249374E-02 
2094	 2.83924941379004E-02 
2095	-4.42499648029406E-02 
2096	-0.069421396277153 
2097	-7.28945022670207E-02 
2098	-6.20102414430786E-02 
2099	-0.023201778787059 
2100	 7.29649065978768E-03 
2101	 5.21513832882789E-02 
2102	 6.87573283862976E-02 
2103	 5.74222101995449E-02 
2104	 8.05255452357918E-02 
2105	 6.55392222177946E-02 
2106	 2.45730285521404E-02 
2107	-3.99511061743644E-03 
2108	-4.61757444993168E-02 
2109	-0.071847398896421 
2110	-8.12189862760713E-02 
2111	-0.057011908784149 
2112	-5.01698284816451E-02 
2113	-3.06589730396267E-02 
2114	 2.92117030582343E-02 
2115	 6.57431851995733E-02 
2116	 0.093239716629412 
2117	 0.125990874699727 
2118	 0.164653346031985 
2119	 0.164835850857771 
2120	 0.163467172964922 
2121	 9.98336456403039E-02 
2122	 2.67498369785573E-02 
2123	-1.20654180436081E-02 
2124	-6.21086316631108E-02 
2125	-8.44235590993741E-02 
2126	-7.85362557241244E-02 
2127	-6.14266297280628E-02 
2128	-1.38458562677807E-02 
2129	 1.71294214275736E-02 
2130	 0.033034763780801 
2131	 3.73176079660287E-02 
2132	 0.033044217248615 
2133	 5.29762643939931E-02 
2134	 4.39237927110697E-02 
2135	 1.08477038685026E-02 
2136	 1.45857741450617E-02 
2137	 1.53364199854976E-02 
2138	 2.81110994215989E-02 
2139	 0.102020907443281 
2140	 0.115943813906396 
2141	 8.14031752601126E-02 
2142	 7.10459965138659E-02 
2143	 3.13623548249897E-02 
2144	 4.17134520797619E-02 
2145	 0.080631527186993 
2146	 7.95189208430318E-02 
2147	 0.091691774462545 
2148	 7.79171104641693E-02 
2149	 0.066341679320344 
2150	 0.081234388459711 
2151	 5.62948991798175E-02 
2152	 5.90927885254417E-02 
2153	 7.37716479083382E-02 
2154	 4.05780806373875E-02 
2155	 4.21690372793156E-02 
2156	 3.03110281433553E-02 
2157	 8.60054668749764E-03 
2158	-4.75115007566627E-02 
2159	-5.46360169495191E-02 
2160	-3.09293085999721E-02 
2161	-2.60161845029758E-02 
2162	-1.50733392503887E-02 
2163	-8.66928089408401E-03 
2164	-9.9480864661367E-03 
2165	-1.62954937129407E-02 
2166	-1.64163302276986E-02 
2167	-1.65412519560825E-02 
2168	-4.28861782386021E-02 
2169	-5.02047241167121E-02 
2170	-0.01761551982642 
2171	-4.68758557490839E-02 
2172	-8.59020267356249E-02 
2173	-8.27606493463782E-02 
2174	-0.126424440672215 
2175	-0.13681192102568 
2176	-7.55720573174323E-02 
2177	-3.47975909332371E-02 
2178	-2.43804353609704E-02 
2179	-2.94455750914058E-02 
2180	-6.92938822662701E-02 
2181	-9.68236024001764E-02 
2182	-0.105576100296872 
2183	-3.95220986979002E-02 
2184	 2.68764367797814E-02 
2185	 2.25129098015342E-02 
2186	 3.58225965673253E-02 
2187	 3.90564605907252E-02 
2188	 3.25991345754876E-02 
2189	 1.59774435205245E-02 
2190	 1.15546396096136E-02 
2191	 1.21219516557752E-02 
2192	 2.36392236543984E-03 
2193	-3.07217906816399E-02 
2194	-3.55823188261736E-03 
2195	 9.12280392784237E-02 
2196	 8.55079220575634E-02 
2197	 3.78298525105217E-02 
2198	 0.040570590962885 
2199	 4.39595065997659E-04 
2200	-4.88437792460276E-02 
2201	-2.21492305632058E-03 
2202	 7.05132333190406E-02 
2203	 7.35560625329231E-02 
2204	 0.104632460635551 
2205	 0.165305412911296 
2206	 0.195092459980764 
2207	 0.219567651257486 
2208	 0.231081410290361 
2209	 0.224372456283246 
2210	 0.184220910590103 
2211	 0.116904344032087 
2212	 8.36875508430123E-02 
2213	 7.41834241596891E-02 
2214	 7.59739625504325E-02 
2215	 6.65703199469516E-02 
2216	 3.67332937631625E-02 
2217	 3.72700912860376E-02 
2218	 3.39252001476227E-02 
2219	 4.47173450361306E-02 
2220	 0.102413069933623 
2221	 0.125223241375706 
2222	 0.113372225924436 
2223	 0.112929505509689 
2224	 0.137347722325605 
2225	 0.113285523636018 
2226	 2.21526319351491E-02 
2227	 2.28319713472418E-02 
2228	 6.90092764432772E-02 
2229	 7.40466364709189E-02 
2230	 0.103405203781641 
2231	 0.109630230017763 
2232	 7.64947276314884E-02 
2233	 3.93140470317277E-02 
2234	-1.45209618072326E-02 
2235	-2.99787594404046E-02 
2236	-0.048312276360122 
2237	-6.46306716963286E-02 
2238	-3.10562165840271E-02 
2239	 5.87398762914242E-02 
2240	 0.128272043179101 
2241	 0.169728357601988 
2242	 0.216636203828358 
2243	 0.205513422207078 
2244	 0.236901114768348 
2245	 0.256142354936921 
2246	 0.22171342485217 
2247	 0.255056521025044 
2248	 0.195010372452472 
2249	 8.46661745551374E-02 
2250	 7.46435019203166E-02 
2251	-3.12542987575536E-03 
2252	 2.38362076418627E-03 
2253	 0.154495482977006 
2254	 0.281553406985117 
2255	 0.335930280338432 
2256	 0.348360419034798 
2257	 0.305331633379795 
2258	 0.165319750903819 
2259	 6.78587692347872E-02 
2260	 1.73249664063459E-02 
2261	 3.54439116167206E-02 
2262	 5.6131683596016E-03 
2263	-2.72267774000112E-03 
2264	-2.45655302718824E-02 
2265	-8.65381060771933E-02 
2266	-0.131603507197465 
2267	-0.147838028017517 
2268	-0.162820135364201 
2269	-0.21622568944649 
2270	-0.198263935032755 
2271	-0.129667687143613 
2272	-8.75778059149798E-02 
2273	-1.66391966228467E-02 
2274	 6.23931477934753E-02 
2275	 0.135685826919406 
2276	 0.180878547366737 
2277	 0.255420902180552 
2278	 0.292081286570544 
2279	 0.277013728558298 
2280	 0.239276580749273 
2281	 0.202973863149746 
2282	 0.1060729687031 
2283	-2.04464278819036E-02 
2284	 7.60264499367066E-03 
2285	 5.52722748399492E-02 
2286	 0.128864324443481 
2287	 0.147808866943954 
2288	 9.50078481213244E-02 
2289	 0.14459166638732 
2290	 7.34479522699254E-02 
2291	 4.79936832245697E-02 
2292	 0.141405865682395 
2293	 2.18700943173213E-02 
2294	-6.88197803603814E-03 
2295	 0.153675476455957 
2296	 0.173141895870097 
2297	 4.35669236119274E-02 
2298	-8.07551033646747E-04 
2299	-7.12146046793748E-02 
2300	-0.176651789370918 
2301	 3.74869047541477E-02 
2302	 0.128512185461493 
2303	 1.86003363137055E-02 
2304	 4.61242175832623E-02 
2305	 8.00207873794713E-02 
2306	-5.10361149621485E-02 
2307	-3.52622252704065E-02 
2308	 3.13692668292727E-03 
2309	-1.11946514933655E-02 
2310	 0.236531582578058 
2311	 0.453002424793756 
2312	 0.389228174209846 
2313	 0.247931784031389 
2314	 8.20599479075543E-02 
2315	-0.24345198560553 
2316	-0.481633126384409 
2317	-0.406460399176077 
2318	-0.309170092237906 
2319	 4.35051072011425E-02 
2320	 0.34600104179402 
2321	 0.399485969774656 
2322	 0.420860835811325 
2323	 0.291599825246456 
2324	 6.97095572998008E-02 
2325	-0.037503706813411 
2326	-0.04394745350161 
2327	 7.43340097716372E-03 
2328	 6.11776954795236E-02 
2329	 0.180755649533303 
2330	 0.145069246971964 
2331	-4.52002731520433E-02 
2332	-7.34756054636827E-02 
2333	-9.50670233958881E-02 
2334	-1.22073837492913E-02 
2335	 0.261488712073328 
2336	 0.327112866408145 
2337	 0.140018944141019 
2338	 8.76699458401683E-02 
2339	 0.151103822637594 
2340	 0.578783715662274 
2341	 1.00418271258299 
2342	 1.5611115447837 
2343	 0.391911203078944 
2344	 0.289875381490031 
2345	 0.342171952469344 
2346	 0.469769597567728 
2347	 0.998892938264038 
2348	 1.22195117480868 
2349	-5.95756555225903E-02 
2350	-0.430658654692212 
2351	-0.549874845947114 
2352	-3.67060066247397E-02 
2353	 1.37785946838825 
2354	-4.13196641019369 
2355	-7.30675374013838 
2356	 3.04787059644593 
2357	 0.965373698872741 
2358	 0.526957938986264 
2359	 0.420230453338705 
2360	 0.389410482007922 
2361	 0.798177759319067 
2362	 1.98848311332028 
2363	 1.7847007725153 
2364	 0.673781474268274 
2365	 0.305893999886605 
2366	 9.63925713066139E-02 
2367	-0.414983076291288 
2368	-1.48566800889632 
2369	-2.00212678867036 
2370	-1.85146035644287 
2371	-1.13365232263682 
2372	-0.198893602052214 
2373	-2.88915525152282E-02 
2374	 0.722898164999586 
2375	-1.05234500919001 
2376	-0.415926033042556 
2377	-5.76261853513214E-02 
2378	 0.494837789231406 
2379	 1.56506061786168 
2380	-3.67868596546963 
2381	-2.91496423721966 
2382	-0.204575165363794 
2383	-6.18074643155439 
2384	 0.101093206903528 
2385	 0.116604490942731 
2386	-1.74453182029276E-02 
2387	-0.290885369246505 
2388	-0.488827891370387 
2389	-1.60191468264998 
2390	-3.29396791641121 
2391	-3.02971077150396 
2392	 2.80642482396697 
2393	 2.90335324317717 
2394	 1.59095870673306 
2395	 0.277487945805131 
2396	-0.322839027984759 
2397	-9.45529954099123 
2398	-14.5111784900058 
2399	 114.44696692026 
2400	 4.11425693600251 
2401	 1.61403643337379 
2402	 0.451225698603642 
2403	 0.46828304486854 
2404	 3.30914538736646 
2405	-6.9596418216867 
2406	 2.96661021228869 
2407	 0.432423009012538 
2408	 0.224004758234929 
2409	 0.283424858051303 
2410	 0.187828024848079 
2411	-1.59694629370874E-03 
2412	-0.573422703720788 
2413	-1.57767882723723 
2414	-2.62469075708386 
2415	 0.197157114260323 
2416	 0.349179703486062 
2417	 0.281858904859196 
2418	 0.236393844720834 
2419	 0.319414264186193 
2420	 0.39662930567415 
2421	 0.376325894436695 
2422	 0.992309044702748 
2423	 1.57703032119447 
2424	 1.21076730962983 
2425	 9.29489059555359 
2426	 17.1968707219726 
2427	-6.53927802949918 
2428	-20.6545098835562 
2429	 3.29598482565363 
2430	 2.35293595497735 
2431	 1.22347664376149 
2432	 1.15811557099773 
2433	 2.57111866820598 
2434	-6.89903441817186 
2435	-0.564932289506338 
2436	 3.38860132052209E-02 
2437	-0.187511146413065 
2438	-1.5621595612965 
2439	-0.878798141531105 
2440	-3.34281636856518 
2441	-3.80384788635845 
2442	-3.77329094692881 
2443	 60.8946361552071 
2444	 3.79093196574794 
2445	 0.422258798029732 
2446	-0.311436842226282 
2447	-0.419065784461528 
2448	-0.224301734438094 
2449	 7.54043043039783 
2450	-2.98436704140126 
2451	-0.126364482740733 
2452	-1.14063856198087 
2453	-0.163928775181752 
2454	 3.96540518728011E-02 
2455	 0.235138892637649 
2456	 0.86346490373897 
2457	-4.76024517005009 
2458	-0.514037062285964 
2459	-0.732183323991068 
2460	-1.07215125300345 
2461	-2.6772348686232 
2462	-11.627167474916 
2463	-7.90160597002106 
2464	-5.89164882902703 
2465	-2.01331357798658 
2466	-1.56729151350753 
2467	-5.30137508632764 
2468	 8.45186298408818 
2469	 1.24591485556004 
2470	 1.00203054847714 
2471	 1.32800305966837 
2472	 1.31981426849329 
2473	 1.98478152789328 
2474	 3.42721362685405 
2475	 1.71501865540841 
2476	 1.25690556994205 
2477	 1.10834862540584 
2478	 1.58308952627871 
2479	 38.080069945685 
2480	-2.19973773120194 
2481	-2.01902784576096 
2482	-2.86272467291592 
2483	-2.71607149681071 
2484	-1.95546223946035 
2485	-2.37327356041126 
2486	 14.6729967593875 
2487	 1.6789921408769 
2488	 0.935816237421958 
2489	 1.34252712682759 
2490	-5.72251186765601 
2491	-0.846768901938116 
2492	-0.10767018203058 
2493	-0.111629555666656 
2494	-8.65853130904225E-02 
2495	-0.122528543916944 
2496	-0.100651959484932 
2497	 6.51321851817445E-02 
2498	 0.973552134007017 
2499	-2.4154704263007 
2500	-1.42700000767901 
